Timestamp,ECG_test1_ECGtoHR_LA_RA_CAL,Lead I (LA-RA),Lead II (LL-LA),Lead III (LL-RA),Vx-RL
2025-03-08 14:23:37.018,77.96954314720811,0.8854297075352889,-0.9520732719094658,-0.0666439724537517,0.0013994595144953
2025-03-08 14:23:37.020,77.96954314720811,0.7543868942822152,-0.8156288297858006,-0.0612423399645629,0.0519766498764912
2025-03-08 14:23:37.022,77.96954314720811,0.6548733673786271,-0.7106570979473964,-0.0557841310860812,0.1099045595353303
2025-03-08 14:23:37.024,77.96954314720811,0.6000534272692879,-0.6482144400829911,-0.0481614090527744,0.1784571401415759
2025-03-08 14:23:37.025,77.96954314720811,0.5948974659709712,-0.6284010883339858,-0.0335040141760924,0.2534898783824462
2025-03-08 14:23:37.027,77.96954314720811,0.6353908492853644,-0.6398732274612104,-0.0044827657006418,0.3232421570276647
2025-03-08 14:23:37.029,77.96954314720811,0.7087208413703977,-0.6614146883158535,0.0473057694450809,0.371081154320847
2025-03-08 14:23:37.031,77.96954314720811,0.7957006549852157,-0.6666266048377056,0.1290736700175634,0.3805404104516223
2025-03-08 14:23:37.033,77.96954314720811,0.8756786200522051,-0.6317505334367897,0.243927709670327,0.3412356239673451
2025-03-08 14:23:37.035,77.96954314720811,0.9325462204957794,-0.544646881219797,0.387898965491289,0.2535303265744854
2025-03-08 14:23:37.037,77.96954314720811,0.9588741542668184,-0.4108139167715642,0.548059867103986,0.1297408713020899
2025-03-08 14:23:37.039,77.96954314720811,0.9551407166315832,-0.2520606119098397,0.7030797380679243,-0.0091854384038031
2025-03-08 14:23:37.041,77.96954314720811,0.9237392962210648,-0.0967748316813269,0.8269641018760399,-0.1404538115851543
2025-03-08 14:23:37.043,77.96954314720811,0.8615597318842753,0.0338085693561469,0.8953679425764449,-0.2466860187604298
2025-03-08 14:23:37.045,77.96954314720811,0.7568383769568993,0.1356642605794699,0.8925022826162803,-0.3203258608645055
2025-03-08 14:23:37.047,77.96954314720811,0.5935971855387255,0.2225323957513636,0.8161292297094916,-0.3634133408115891
2025-03-08 14:23:37.049,77.96954314720811,0.3619330071043474,0.3167989373961761,0.6787315958990973,-0.3834893430995902
2025-03-08 14:23:37.051,77.96954314720811,0.0681836004409993,0.4360980458354164,0.5042813005039128,-0.3883439416300905
2025-03-08 14:23:37.053,77.96954314720811,-0.2617485330628324,0.583297534890352,0.3215486589963302,-0.3825373627405021
2025-03-08 14:23:37.055,77.96954314720811,-0.5892008054122059,0.7453360335914266,0.1561348885780304,-0.3670278422239944
2025-03-08 14:23:37.057,77.96954314720811,-0.8768977031673749,0.9009521735630264,0.024054134312597,-0.3410369461428371
2025-03-08 14:23:37.059,77.96954314720811,-1.1027507884772048,1.0320954111550873,-0.0706557097713624,-0.3041645610857507
2025-03-08 14:23:37.061,77.96954314720811,-1.265852802094009,1.1323531799003177,-0.1334999511419866,-0.2573851487332711
2025-03-08 14:23:37.063,77.96954314720811,-1.3826430681206074,1.2086823524045736,-0.1739610414869657,-0.2029326733237166
2025-03-08 14:23:37.065,77.96954314720811,-1.4771935625646688,1.277091518451337,-0.2001023670636884,-0.1438264443867464
2025-03-08 14:23:37.066,77.96954314720811,-1.571410245293947,1.3553619407702375,-0.2160486248728973,-0.0835753443269797
2025-03-08 14:23:37.068,77.96954314720811,-1.6786226566977882,1.455879983884392,-0.2227429905513858,-0.0260605080612047
2025-03-08 14:23:37.070,77.96954314720811,-1.801026237207461,1.5807556964075336,-0.2202708557207968,0.0247040977880705
2025-03-08 14:23:37.072,77.96954314720811,-1.9303492308104229,1.7207293573472942,-0.2096201853023392,0.065188251564069
2025-03-08 14:23:37.074,77.96954314720811,-2.0515112394655155,1.8585936709896167,-0.192917877073887,0.0932835829483099
2025-03-08 14:23:37.076,77.96954314720811,-2.148959365072516,1.9763146606627413,-0.1726450098122463,0.1091431409485092
2025-03-08 14:23:37.078,77.96954314720811,-2.213994696249636,2.06308823673784,-0.1509067619540722,0.115374604568847
2025-03-08 14:23:37.080,77.96954314720811,-2.249962590566744,2.1206003509350766,-0.1293625394194793,0.1162651628795176
2025-03-08 14:23:37.082,77.96954314720811,-2.272353689741146,2.162722223939401,-0.1096317631575278,0.1162041820369342
2025-03-08 14:23:37.084,77.96954314720811,-2.303013460302876,2.209403726909087,-0.0936100283545926,0.1180100097927657
2025-03-08 14:23:37.086,77.96954314720811,-2.360733162034973,2.2774439640463755,-0.0832894904105307,0.1220950281468498
2025-03-08 14:23:37.088,77.96954314720811,-2.4527467788157358,2.3726723902214086,-0.0800746782574148,0.1270013812810418
2025-03-08 14:23:37.090,77.96954314720811,-2.5714696670063137,2.487531056828195,-0.0839388969294039,0.1309673707842996
2025-03-08 14:23:37.092,77.96954314720811,-2.697998456304909,2.605057153366443,-0.0929415867914107,0.1334802656160629
2025-03-08 14:23:37.094,77.96954314720811,-2.810300287118629,2.7067671786381275,-0.1035333896157449,0.1357942857667795
2025-03-08 14:23:37.096,77.96954314720811,-2.891985220930989,2.780290130148672,-0.1116953694523025,0.1401119977980892
2025-03-08 14:23:37.098,77.96954314720811,-2.9378685251470302,2.823404229775589,-0.11446457176616,0.1480051364169588
2025-03-08 14:23:37.100,77.96954314720811,-2.9544369161959363,2.843328917684928,-0.1111082726632073,0.1591313838829702
2025-03-08 14:23:37.102,77.96954314720811,-2.955728549151514,2.852386858282324,-0.1033419626533007,0.1711304048192763
2025-03-08 14:23:37.104,77.96954314720811,-2.9569961896026125,2.862532016017914,-0.0944644428087487,0.180835019148648
2025-03-08 14:23:37.106,77.96954314720811,-2.968973486114516,2.8811608134081594,-0.0878129392420379,0.1860446199725974
2025-03-08 14:23:37.108,77.96954314720811,-2.9945424754802894,2.9092908305789646,-0.0852519087754653,0.1867183740223549
2025-03-08 14:23:37.109,77.96954314720811,-3.0282187364150195,2.941826053731451,-0.0863929440769821,0.1848792552539523
2025-03-08 14:23:37.111,77.96954314720811,-3.0583517332056016,2.969433932776079,-0.0889180595834511,0.1834067025412178
2025-03-08 14:23:37.113,77.96954314720811,-3.072064354599624,2.982215028070674,-0.0898495836137806,0.1845393066878627
2025-03-08 14:23:37.115,77.96954314720811,-3.062218095942386,2.9751097560107795,-0.0871085949555288,0.1889428847280985
2025-03-08 14:23:37.117,77.96954314720811,-3.0335530910649746,2.953019620715374,-0.0805337231625615,0.1957471275443597
2025-03-08 14:23:37.119,77.96954314720811,-3.003713828991001,2.931879811540559,-0.0718342678435181,0.2033625470457345
2025-03-08 14:23:37.121,77.96954314720811,-2.996921018460117,2.933369091889642,-0.0635521744142037,0.2104919517404855
2025-03-08 14:23:37.123,77.96954314720811,-3.033088749299576,2.975445283063493,-0.0576437115766411,0.2167364204367131
2025-03-08 14:23:37.125,77.96954314720811,-3.118906293329877,3.06443843790412,-0.0544680984802211,0.2225276275950314
2025-03-08 14:23:37.127,77.96954314720811,-3.246195239058999,3.193473555317167,-0.0527219247912281,0.2285625579566288
2025-03-08 14:23:37.129,77.96954314720811,-3.3977624766446604,3.347425185149061,-0.0503375307345878,0.2351790014635948
2025-03-08 14:23:37.131,77.96954314720811,-3.556315928600525,3.51048591705638,-0.0458302489739534,0.242027492388358
2025-03-08 14:23:37.133,77.96954314720811,-3.711010598786378,3.671698248860812,-0.0393125853551226,0.2481010906039645
2025-03-08 14:23:37.135,77.96954314720811,-3.858715113094248,3.826144179686721,-0.0325711665673111,0.2519943908664266
2025-03-08 14:23:37.137,77.96954314720811,-4.000766582691197,3.972627122021816,-0.0281396913769987,0.2522988038839969
2025-03-08 14:23:37.139,77.96954314720811,-4.138354277684641,4.110479884289644,-0.0278746216787515,0.2481189636537761
2025-03-08 14:23:37.141,77.96954314720811,-4.269592895749755,4.237766078205069,-0.0318270436515505,0.2396296503202657
2025-03-08 14:23:37.143,77.96954314720811,-4.389483797231923,4.351424699473718,-0.0380593220361532,0.2284201064736819
2025-03-08 14:23:37.145,77.96954314720811,-4.492089489725057,4.448547203255775,-0.043542509185803,0.2172858938053006
2025-03-08 14:23:37.147,77.96954314720811,-4.573492202417085,4.527837514200895,-0.04565490941414,0.2093219583326113
2025-03-08 14:23:37.149,77.96954314720811,-4.63413718905683,4.590685392432891,-0.0434520160985704,0.206630188518115
2025-03-08 14:23:37.150,77.96954314720811,-4.679358178735794,4.641339383945367,-0.0380190122055396,0.2093288667372281
2025-03-08 14:23:37.152,77.96954314720811,-4.717502966065997,4.685751240815825,-0.0317519403327542,0.2154528666194606
2025-03-08 14:23:37.154,77.96954314720811,-4.75643188626467,4.729423909505555,-0.0270081894653469,0.2218146795133345
2025-03-08 14:23:37.156,77.96954314720811,-4.800354844809366,4.7754663717192685,-0.0248886836485757,0.2253938045194202
2025-03-08 14:23:37.158,77.96954314720811,-4.848702370700012,4.823895736300733,-0.0248068432036014,0.2246318729276
2025-03-08 14:23:37.160,77.96954314720811,-4.89718022492405,4.872146157672732,-0.0250342746577387,0.2200777332070938
2025-03-08 14:23:37.162,77.96954314720811,-4.939919338280634,4.916066640006617,-0.0238529044141776,0.2140547521862606
2025-03-08 14:23:37.164,77.96954314720811,-4.971603212152667,4.950985643643586,-0.0206177732220613,0.2094444287819458
2025-03-08 14:23:37.166,77.96954314720811,-4.988983629491706,4.9728469594144284,-0.0161368730013948,0.2081834925401929
2025-03-08 14:23:37.168,77.96954314720811,-4.991499953771657,4.979290182188612,-0.012209972360297,0.2102906685720018
2025-03-08 14:23:37.170,77.96954314720811,-4.980952536291661,4.970313089880615,-0.0106396448938491,0.213939229587013
2025-03-08 14:23:37.172,77.96954314720811,-4.960607007768549,4.948328974224561,-0.0122782298903683,0.2164702430691032
2025-03-08 14:23:37.174,77.96954314720811,-4.934295163180489,4.917680804851452,-0.0166145529317541,0.2157343527474247
2025-03-08 14:23:37.176,77.96954314720811,-4.905710961580988,4.8836271722376265,-0.0220839826290556,0.2110516038160538
2025-03-08 14:23:37.178,77.96954314720811,-4.877736988201334,4.850859653709238,-0.026877526698872,0.2033722033599751
2025-03-08 14:23:37.180,77.96954314720811,-4.851847906583787,4.822073355011429,-0.0297747426277842,0.1946757425639709
2025-03-08 14:23:37.182,77.96954314720811,-4.827991068327046,4.797409679338707,-0.0305815785562141,0.1870186055032009
2025-03-08 14:23:37.184,77.96954314720811,-4.805125750738221,4.7750844319985415,-0.0300415064119248,0.1817541608237837
2025-03-08 14:23:37.186,77.96954314720811,-4.782025014616976,4.752653508467575,-0.0293716916794154,0.1792474983314036
2025-03-08 14:23:37.188,77.96954314720811,-4.757766298153676,4.728082802196258,-0.0296836794074219,0.1790630177696716
2025-03-08 14:23:37.190,77.96954314720811,-4.73168250368701,4.7001728704833,-0.0315098149244833,0.1804087322273328
2025-03-08 14:23:37.191,77.96954314720811,-4.702918637076142,4.66832433327304,-0.0345944842556272,0.1826192354344712
2025-03-08 14:23:37.193,77.96954314720811,-4.669889654717942,4.631845776165293,-0.0380440580680103,0.1854817609179094
2025-03-08 14:23:37.195,77.96954314720811,-4.629988354205324,4.589198755667988,-0.0407897771459408,0.1892354011798674
2025-03-08 14:23:37.197,77.96954314720811,-4.579823390320986,4.537693802060662,-0.0421297656846878,0.1942181478943797
2025-03-08 14:23:37.199,77.96954314720811,-4.515925344279917,4.473875632158493,-0.0420498879379777,0.2003799050094017
2025-03-08 14:23:37.201,77.96954314720811,-4.43550730719749,4.394334394923411,-0.0411730861566721,0.2070356378165603
2025-03-08 14:23:37.203,77.96954314720811,-4.337013159229687,4.296594762931512,-0.0404185682100675,0.2131072220377154
2025-03-08 14:23:37.205,77.96954314720811,-4.220657198459376,4.180085591661647,-0.0405717770259477,0.2177040825736042
2025-03-08 14:23:37.207,77.96954314720811,-4.089121031880628,4.047177609055737,-0.0419435918365424,0.2205590199822352
2025-03-08 14:23:37.209,77.96954314720811,-3.947905381633676,3.903676587898059,-0.0442289619337063,0.2219445785242398
2025-03-08 14:23:37.211,77.96954314720811,-3.804570027269005,3.7579520614910025,-0.0466181332904112,0.222193742807212
2025-03-08 14:23:37.213,77.96954314720811,-3.6668579665373855,3.618717221232349,-0.0481409119233142,0.2213496585180958
2025-03-08 14:23:37.215,77.96954314720811,-3.5406164150335924,3.49250374195683,-0.0481128383799404,0.2193370850807576
2025-03-08 14:23:37.217,77.96954314720811,-3.428440530319368,3.381975009612475,-0.0464656843038109,0.2164712457567114
2025-03-08 14:23:37.219,77.96954314720811,-3.3293640117141345,3.285581913969465,-0.0437822595022754,0.21370211340093
2025-03-08 14:23:37.221,77.96954314720811,-3.2395881200946945,3.198575103714354,-0.0410131765119312,0.2122241672135958
2025-03-08 14:23:37.223,77.96954314720811,-3.1541435241583478,3.115122896206661,-0.0390207869151093,0.2127256259797984
2025-03-08 14:23:37.225,77.96954314720811,-3.0689380435622766,3.030752456860756,-0.038185744961576,0.2149094381826925
2025-03-08 14:23:37.227,77.96954314720811,-2.982120644144101,2.9438313261208657,-0.0382894758077402,0.2176642047301646
2025-03-08 14:23:37.229,77.96954314720811,-2.8939784387465144,2.855250474523967,-0.0387281214061542,0.2197242416186503
2025-03-08 14:23:37.231,77.96954314720811,-2.8056759675402168,2.766791726001136,-0.0388843977199825,0.2203314886341113
2025-03-08 14:23:37.233,77.96954314720811,-2.717923982437225,2.6795468688125896,-0.0383772683540903,0.2194859486616703
2025-03-08 14:23:37.234,77.96954314720811,-2.6304151584652358,2.593361366064767,-0.0370539454408617,0.2177080853249327
2025-03-08 14:23:37.236,77.96954314720811,-2.542152120928494,2.507307945216587,-0.0348443271822305,0.215562618961791
2025-03-08 14:23:37.238,77.96954314720811,-2.4523967889805967,2.420704812976146,-0.0316921263324014,0.2132841452778807
2025-03-08 14:23:37.240,77.96954314720811,-2.361784593079742,2.334145338687045,-0.0276394040975406,0.2106997264401548
2025-03-08 14:23:37.242,77.96954314720811,-2.272861631599849,2.249900609262954,-0.0229611717597942,0.2074391766867137
2025-03-08 14:23:37.244,77.96954314720811,-2.1893664102904844,2.171172357814723,-0.0181942016039424,0.2032712831727674
2025-03-08 14:23:37.246,77.96954314720811,-2.1144428177194,2.1004696726588072,-0.0139732935419957,0.1983346816206997
2025-03-08 14:23:37.248,77.96954314720811,-2.048949283587356,2.038229329745161,-0.0107201011846219,0.1931247300939707
2025-03-08 14:23:37.250,77.96954314720811,-1.9910363454076536,1.982665679051437,-0.0083708122048892,0.1883161647777107
2025-03-08 14:23:37.252,77.96954314720811,-1.9372457059950825,1.930885207262207,-0.0063606430768923,0.1845886757548924
2025-03-08 14:23:37.254,77.96954314720811,-1.884489025702027,1.8805731045810543,-0.0039160643163568,0.1824725681569317
2025-03-08 14:23:37.256,77.96954314720811,-1.831860334900113,1.8313963987791244,-0.0004640787161335,0.182115417191324
2025-03-08 14:23:37.258,77.96954314720811,-1.7811820111486665,1.78528901986647,0.004106866262041,0.1830209540981698
2025-03-08 14:23:37.260,77.96954314720811,-1.7356715810876524,1.7451240122285987,0.0094522886868134,0.1840226411085863
2025-03-08 14:23:37.262,77.96954314720811,-1.697411471409807,1.7123922226734996,0.0149806090608318,0.1836652809461875
2025-03-08 14:23:37.264,77.96954314720811,-1.6655399874484242,1.6856867593407443,0.020146630435054,0.180815461206956
2025-03-08 14:23:37.266,77.96954314720811,-1.6367311456268672,1.661454069540339,0.0247227836661848,0.1751171960069341
2025-03-08 14:23:37.268,77.96954314720811,-1.6075836483774886,1.636506846088057,0.0289230588473082,0.1670630794684093
2025-03-08 14:23:37.270,77.96954314720811,-1.5769779502254495,1.6102498843847302,0.0332717964566507,0.1577316072133857
2025-03-08 14:23:37.272,77.96954314720811,-1.5468111754757194,1.5850755158302214,0.0382642032955409,0.1483692722439281
2025-03-08 14:23:37.274,77.96954314720811,-1.521011616028339,1.56506169847699,0.0440499454830912,0.1399716513668966
2025-03-08 14:23:37.275,77.96954314720811,-1.5037075322864468,1.5540728693717618,0.0503651999082802,0.1329712621195908
2025-03-08 14:23:37.277,77.96954314720811,-1.497480515369474,1.5542079710422434,0.0567273183741449,0.1271199583298332
2025-03-08 14:23:37.279,77.96954314720811,-1.5024010729930644,1.5651145522596872,0.0627133422720755,0.121631032141255
2025-03-08 14:23:37.281,77.96954314720811,-1.5162342572899277,1.584377410911778,0.0681430174569739,0.1155729452923648
2025-03-08 14:23:37.283,77.96954314720811,-1.535604404387149,1.6087265325366238,0.0731219931519941,0.1083643740761325
2025-03-08 14:23:37.285,77.96954314720811,-1.5573534238066316,1.635353452997815,0.0779998953231292,0.1000927480076104
2025-03-08 14:23:37.287,77.96954314720811,-1.5794438983239645,1.6627255871498592,0.083281555684239,0.0914238982241811
2025-03-08 14:23:37.289,77.96954314720811,-1.6013298819596713,1.6908037514120082,0.0894737364714837,0.0831354063288218
2025-03-08 14:23:37.291,77.96954314720811,-1.6239077054787334,1.720768467754601,0.0968606290144309,0.0755959888318886
2025-03-08 14:23:37.293,77.96954314720811,-1.648923146624821,1.754203712191877,0.1052804319277492,0.0685545008526865
2025-03-08 14:23:37.295,77.96954314720811,-1.6778520160388724,1.7918957691725286,0.1140436194013702,0.0613533412736226
2025-03-08 14:23:37.297,77.96954314720811,-1.710899630039299,1.8330170361393447,0.1221172727796543,0.0533802371478753
2025-03-08 14:23:37.299,77.96954314720811,-1.746919823353172,1.8754824608960352,0.1285625050836312,0.0444582800437417
2025-03-08 14:23:37.301,77.96954314720811,-1.7842733363606216,1.9172823490739472,0.1330088812655579,0.0349670705788068
2025-03-08 14:23:37.303,77.96954314720811,-1.8218352003645648,1.957683024437456,0.1358476934041483,0.0256695482762307
2025-03-08 14:23:37.305,77.96954314720811,-1.8594759143448367,1.997436735141078,0.1379606904093408,0.0173822194573093
2025-03-08 14:23:37.307,77.96954314720811,-1.8980145236256525,2.038128608363855,0.1401139541267376,0.0106798843300687
2025-03-08 14:23:37.309,77.96954314720811,-1.938906101607166,2.0813139005319026,0.1424076678302045,0.0057324205699621
2025-03-08 14:23:37.311,77.96954314720811,-1.98372173992044,2.127886428671572,0.1441645572864558,0.0022522720574224
2025-03-08 14:23:37.313,77.96954314720811,-2.033475044648972,2.1778200671564814,0.1443448910836686,-0.0004677701051421
2025-03-08 14:23:37.315,77.96954314720811,-2.088112564555747,2.2303187547299594,0.142206059271347,-0.0033892039047644
2025-03-08 14:23:37.317,77.96954314720811,-2.1464469482438537,2.284206483268161,0.1377594049303085,-0.0074265568745369
2025-03-08 14:23:37.318,77.96954314720811,-2.206440606493424,2.3381789638461914,0.1317382280080672,-0.0130910396921053
2025-03-08 14:23:37.320,77.96954314720811,-2.2656431622779567,2.390788153159367,0.1251448619106256,-0.0202161984600768
2025-03-08 14:23:37.322,77.96954314720811,-2.32182579517728,2.4405435213572177,0.118717597090816,-0.0279272414717527
2025-03-08 14:23:37.324,77.96954314720811,-2.3738145938252733,2.4864766334572543,0.1126619100733134,-0.0349688836601657
2025-03-08 14:23:37.326,77.96954314720811,-2.422075021775046,2.528831248672712,0.1067560968376408,-0.0402951285407461
2025-03-08 14:23:37.328,77.96954314720811,-2.468475527706488,2.569151753920433,0.1006760959445386,-0.0435789852646348
2025-03-08 14:23:37.330,77.96954314720811,-2.515224760710087,2.6095171712387684,0.0942922804960467,-0.0453157844575
2025-03-08 14:23:37.332,77.96954314720811,-2.563585542082041,2.6513733150639927,0.0877876435365249,-0.0464912463112947
2025-03-08 14:23:37.334,77.96954314720811,-2.61302035572622,2.694603885100455,0.0815834005768425,-0.0480693968797086
2025-03-08 14:23:37.336,77.96954314720811,-2.6611567287227227,2.7372947257212483,0.0761378685873275,-0.0506161085195208
2025-03-08 14:23:37.338,77.96954314720811,-2.704703329755477,2.776429829106549,0.0717263708858572,-0.0542395335263177
2025-03-08 14:23:37.340,77.96954314720811,-2.741005780792198,2.809314965672928,0.0683090559838651,-0.058796459481367
2025-03-08 14:23:37.342,77.96954314720811,-2.769341041326316,2.8348620101625035,0.0655208393967205,-0.0641142434769895
2025-03-08 14:23:37.344,77.96954314720811,-2.791043861753153,2.853791080101412,0.0627470885763989,-0.0700068300939986
2025-03-08 14:23:37.346,77.96954314720811,-2.808476281150273,2.867745074654922,0.0592686638069477,-0.0761365877656697
2025-03-08 14:23:37.348,77.96954314720811,-2.8237735808716757,2.878270651376712,0.0544969412503463,-0.0819702092640163
2025-03-08 14:23:37.350,77.96954314720811,-2.838176757912135,2.886432078928345,0.0482551923235862,-0.0869481779885729
2025-03-08 14:23:37.352,77.96954314720811,-2.851917872705986,2.8928700765288813,0.040952075490913,-0.0907316446505516
2025-03-08 14:23:37.354,77.96954314720811,-2.8642515697484323,2.897742629271895,0.0334909311417057,-0.0933244075830989
2025-03-08 14:23:37.356,77.96954314720811,-2.873613903973117,2.9005205368419604,0.0269065040499492,-0.0950008977784929
2025-03-08 14:23:37.358,77.96954314720811,-2.8781538412131358,2.9000596559026186,0.0219056852911168,-0.0961249579815055
2025-03-08 14:23:37.359,77.96954314720811,-2.876518251506003,2.895079771195621,0.0185613898994067,-0.096999323263521
2025-03-08 14:23:37.361,77.96954314720811,-2.868406909263045,2.884724112065564,0.0163170730347003,-0.0978174167774118
2025-03-08 14:23:37.363,77.96954314720811,-2.8546162679613785,2.8689013190196078,0.0142849217172173,-0.0986790826897195
2025-03-08 14:23:37.365,77.96954314720811,-2.8366638328350864,2.848342165430481,0.0116782038388265,-0.0996079742665358
2025-03-08 14:23:37.367,77.96954314720811,-2.816161310017385,2.8243252226432958,0.0081637842634585,-0.1005662012189722
2025-03-08 14:23:37.369,77.96954314720811,-2.794146612841672,2.79811632677838,0.0039695855271322,-0.1014836275330536
2025-03-08 14:23:37.371,77.96954314720811,-2.770794833326502,2.770516581709665,-0.0002783805194966,-0.1022843483811841
2025-03-08 14:23:37.373,77.96954314720811,-2.7457971264298253,2.741928362872733,-0.0038688931443639,-0.1028849633543137
2025-03-08 14:23:37.375,77.96954314720811,-2.7190011827014366,2.7126917185955866,-0.0063095941912833,-0.1031702067956337
2025-03-08 14:23:37.377,77.96954314720811,-2.690529239900576,2.683001445124253,-0.0075279248842413,-0.1029714350442266
2025-03-08 14:23:37.379,77.96954314720811,-2.660282212997623,2.652357987821176,-0.0079243548014094,-0.1020852319755051
2025-03-08 14:23:37.381,77.96954314720811,-2.627677698247747,2.6194420763629034,-0.0082357507810608,-0.1003687553147437
2025-03-08 14:23:37.383,77.96954314720811,-2.5922431891732827,2.583026395923588,-0.0092169215865138,-0.0978859317352726
2025-03-08 14:23:37.385,77.96954314720811,-2.554482299019088,2.5432062659535486,-0.011276161353897,-0.094984753086848
2025-03-08 14:23:37.387,77.96954314720811,-2.515941057825084,2.501661739645159,-0.0142794470001866,-0.0921834363621778
2025-03-08 14:23:37.389,77.96954314720811,-2.4783356987555,2.4606933522031635,-0.0176424762277267,-0.0898937640480645
2025-03-08 14:23:37.391,77.96954314720811,-2.4426509572701933,2.42202973767889,-0.0206213499887427,-0.0882000546112578
2025-03-08 14:23:37.393,77.96954314720811,-2.408963496802789,2.386362789485209,-0.0226008378947517,-0.086908000889868
2025-03-08 14:23:37.395,77.96954314720811,-2.376864093697266,2.353602883536508,-0.0232613402456166,-0.0858125134714982
2025-03-08 14:23:37.397,77.96954314720811,-2.3459401385372827,2.3233034000351123,-0.022636867660211,-0.0848942967135028
2025-03-08 14:23:37.399,77.96954314720811,-2.315997976478581,2.294900459412671,-0.0210976453544799,-0.0842390091914135
2025-03-08 14:23:37.400,77.96954314720811,-2.2869749625769367,2.267725658674401,-0.0192494318648952,-0.083777683620281
2025-03-08 14:23:37.402,77.96954314720811,-2.258671926578549,2.24092144822212,-0.017750606746039,-0.0831340259178638
2025-03-08 14:23:37.404,77.96954314720811,-2.230657801867543,2.213560595269122,-0.017097335973036,-0.081766363540142
2025-03-08 14:23:37.406,77.96954314720811,-2.2026515267724096,2.185198066278553,-0.0174535908972903,-0.0793207258846647
2025-03-08 14:23:37.408,77.96954314720811,-2.175133185877017,2.1565394835118137,-0.0185938332759011,-0.0759115052811527
2025-03-08 14:23:37.410,77.96954314720811,-2.1494958655770944,2.129506811050485,-0.0199891851132571,-0.0720885153408384
2025-03-08 14:23:37.412,77.96954314720811,-2.1274472653232785,2.1064379471466124,-0.0210094477343832,-0.0684964834754
2025-03-08 14:23:37.414,77.96954314720811,-2.110176577006148,2.089015677215837,-0.0211610281270836,-0.0654773888455481
2025-03-08 14:23:37.416,77.96954314720811,-2.097948118741559,2.077678679721206,-0.0202695665814145,-0.0628982478702936
2025-03-08 14:23:37.418,77.96954314720811,-2.090170366508835,2.071623549625609,-0.0185469445355101,-0.0602925257843164
2025-03-08 14:23:37.420,77.96954314720811,-2.085563955833821,2.0690459308913383,-0.0165181535229217,-0.0571818690603005
2025-03-08 14:23:37.422,77.96954314720811,-2.082297894982622,2.067486254511348,-0.0148117703343378,-0.0533644796910864
2025-03-08 14:23:37.424,77.96954314720811,-2.078293631724952,2.064417222995817,-0.0138765395373916,-0.0490052075790549
2025-03-08 14:23:37.426,77.96954314720811,-2.071743929768863,2.057978478253271,-0.0137655823939646,-0.0444843716562136
2025-03-08 14:23:37.428,77.96954314720811,-2.0615744719804363,2.0474489920260384,-0.0141256099369529,-0.0401245274979264
2025-03-08 14:23:37.430,77.96954314720811,-2.0476220123170337,2.0332271176769963,-0.014395023179046,-0.0360053783959413
2025-03-08 14:23:37.432,77.96954314720811,-2.030544912539476,2.016474345846357,-0.0140706939602578,-0.0319875891669488
2025-03-08 14:23:37.434,77.96954314720811,-2.011492895092064,1.998604434574757,-0.0128885873306879,-0.0278910763378354
2025-03-08 14:23:37.436,77.96954314720811,-1.9915339476609344,1.980667060229312,-0.0108670148377738,-0.0236848036407366
2025-03-08 14:23:37.438,77.96954314720811,-1.971130956153821,1.9628684840497783,-0.0082626008285298,-0.0195483103340867
2025-03-08 14:23:37.440,77.96954314720811,-1.9501854557537104,1.944682624283875,-0.0055029615249972,-0.0157265076341427
2025-03-08 14:23:37.442,77.96954314720811,-1.928715554093632,1.9256102349714888,-0.0031054497831911,-0.0122604871901027
2025-03-08 14:23:37.443,77.96954314720811,-1.907504879242685,1.9059515011556816,-0.001553508256612,-0.0088303568990617
2025-03-08 14:23:37.445,77.96954314720811,-1.8880424913647311,1.8869097868735252,-0.0011328332673414,-0.004880190550666
2025-03-08 14:23:37.447,77.96954314720811,-1.871832467069548,1.8700420259932755,-0.0017905682272799,4.1132304705175085e-05
2025-03-08 14:23:37.449,77.96954314720811,-1.859704267151232,1.856600881237053,-0.0031035120093281,0.0059446980811665
2025-03-08 14:23:37.451,77.96954314720811,-1.8515470030481067,1.8471457706650876,-0.0044013585046545,0.0122692550216343
2025-03-08 14:23:37.453,77.96954314720811,-1.84643181532012,1.8414219446491864,-0.0050099978537044,0.0180276305451994
2025-03-08 14:23:37.455,77.96954314720811,-1.8429322778944344,1.838425301599265,-0.0045071049832595,0.0221772340218176
2025-03-08 14:23:37.457,77.96954314720811,-1.8394766217845968,1.8366060588038668,-0.0028706927879016,0.0240671889561792
2025-03-08 14:23:37.459,77.96954314720811,-1.8345681269435352,1.8341095820411943,-0.0004586748036027,0.0237742623315009
2025-03-08 14:23:37.461,77.96954314720811,-1.826870193861992,1.8290310775288707,0.002160754808358,0.0221529261357848
2025-03-08 14:23:37.463,77.96954314720811,-1.8154325049433728,1.819877128674975,0.0044444965751501,0.0205216566634419
2025-03-08 14:23:37.465,77.96954314720811,-1.8002312459627514,1.806297333986719,0.0060659624070951,0.0201011959406461
2025-03-08 14:23:37.467,77.96954314720811,-1.782613993113258,1.789593355298179,0.0069792372052147,0.0215025070730655
2025-03-08 14:23:37.469,77.96954314720811,-1.7649652744234765,1.7723140878268049,0.0073486878858808,0.0245613604656336
2025-03-08 14:23:37.471,77.96954314720811,-1.7495600872985406,1.756974444229737,0.0074142300393399,0.0285901272802065
2025-03-08 14:23:37.473,77.96954314720811,-1.7374796765788807,1.744862477498228,0.0073826725908017,0.0328216186338913
2025-03-08 14:23:37.475,77.96954314720811,-1.7284304847788847,1.735822661443104,0.007392047645141,0.0366983900543963
2025-03-08 14:23:37.477,77.96954314720811,-1.7213594561916397,1.728895395386378,0.0075358106535834,0.0398384311069646
2025-03-08 14:23:37.479,77.96954314720811,-1.715136615497742,1.72303651994998,0.0078997773744482,0.0418394035449377
2025-03-08 14:23:37.481,77.96954314720811,-1.7088946492307178,1.7174601103362428,0.0085653357841621,0.0422523067579146
2025-03-08 14:23:37.483,77.96954314720811,-1.7021459176773972,1.7117082065953162,0.0095621648049032,0.040875078062195
2025-03-08 14:23:37.484,77.96954314720811,-1.6948381532040462,1.7056384114740146,0.0108001342640503,0.0381420257498512
2025-03-08 14:23:37.486,77.96954314720811,-1.687339367713356,1.6993847274595193,0.0120452347660882,0.0351963251439957
2025-03-08 14:23:37.488,77.96954314720811,-1.680358158980457,1.6933515434084263,0.0129932579715337,0.0334445665521139
2025-03-08 14:23:37.490,77.96954314720811,-1.6747788570076922,1.6882045290727654,0.0134255444637406,0.0338188435652042
2025-03-08 14:23:37.492,77.96954314720811,-1.671206991599253,1.684557286657605,0.0133501672973926,0.0362451079871904
2025-03-08 14:23:37.494,77.96954314720811,-1.6692005523945288,1.682225661882086,0.0130249826886808,0.0397185052314661
2025-03-08 14:23:37.496,77.96954314720811,-1.666821387071047,1.679669876537687,0.012848364304887,0.0429551418099728
2025-03-08 14:23:37.498,77.96954314720811,-1.6613065741707886,1.6745049042974438,0.0131982064849445,0.0451328046428375
2025-03-08 14:23:37.500,77.96954314720811,-1.6506816171055796,1.664982280161723,0.014300540094119,0.0461818840339052
2025-03-08 14:23:37.502,77.96954314720811,-1.6350420051819468,1.6511802182230393,0.0161380896374714,0.0465259236063146
2025-03-08 14:23:37.504,77.96954314720811,-1.6164601077835443,1.6348453343936882,0.0183851019440639,0.0466331193221465
2025-03-08 14:23:37.506,77.96954314720811,-1.5977778001919465,1.6182001834150537,0.0204222571908605,0.0467694443107655
2025-03-08 14:23:37.508,77.96954314720811,-1.581342099197807,1.6028659912084924,0.021523765264121,0.0470317547664191
2025-03-08 14:23:37.510,77.96954314720811,-1.5683547461887992,1.5895531089591892,0.0211982363631757,0.0474775670323054
2025-03-08 14:23:37.512,77.96954314720811,-1.5588138003649987,1.5783064327249694,0.0194925071919113,0.0481622235334132
2025-03-08 14:23:37.514,77.96954314720811,-1.5518390158650477,1.568874300480435,0.0170351609667761,0.0490657854559399
2025-03-08 14:23:37.516,77.96954314720811,-1.5462072763249255,1.5609674660845134,0.0147600671556407,0.0500317074701041
2025-03-08 14:23:37.518,77.96954314720811,-1.5407909889789515,1.5542555446556794,0.0134644331461042,0.0508065012807039
2025-03-08 14:23:37.520,77.96954314720811,-1.5346515209394902,1.5481018851371644,0.0134502407828065,0.0511314322955088
2025-03-08 14:23:37.522,77.96954314720811,-1.5269995731458326,1.5414294373762123,0.0144297394790892,0.0507817852957296
2025-03-08 14:23:37.524,77.96954314720811,-1.5174238740598842,1.5331448274944972,0.0157208276178496,0.0495550137068579
2025-03-08 14:23:37.525,77.96954314720811,-1.5062783624495184,1.5228941444865454,0.0166156559857295,0.0473247635273839
2025-03-08 14:23:37.527,77.96954314720811,-1.494677964245685,1.5114110068446185,0.0167329172538132,0.0442060218270773
2025-03-08 14:23:37.529,77.96954314720811,-1.4839683722578176,1.5001459294422217,0.016177433099882,0.0406878205400349
2025-03-08 14:23:37.531,77.96954314720811,-1.475219172883648,1.490646867783839,0.0154275719618544,0.0375470221649902
2025-03-08 14:23:37.533,77.96954314720811,-1.4691895282768963,1.484211040755213,0.0150213899755421,0.0355313929673141
2025-03-08 14:23:37.535,77.96954314720811,-1.46650912658444,1.481746144166661,0.0152368945887014,0.0350047270074869
2025-03-08 14:23:37.537,77.96954314720811,-1.4675800760388382,1.483546015800229,0.0159658156168433,0.0357918085135751
2025-03-08 14:23:37.539,77.96954314720811,-1.4722171822235095,1.4890575248591984,0.0168402172747283,0.0373088991889453
2025-03-08 14:23:37.541,77.96954314720811,-1.4794800880565584,1.4969700359592415,0.0174898218635879,0.0388387565510871
2025-03-08 14:23:37.543,77.96954314720811,-1.4879362537879255,1.5056753986366234,0.0177390189666942,0.0397309132624407
2025-03-08 14:23:37.545,77.96954314720811,-1.4961670435696626,1.5138058845272555,0.0176387159119796,0.0394758973652392
2025-03-08 14:23:37.547,77.96954314720811,-1.5032716020820596,1.5206359126582074,0.017364186532078,0.03779891620683
2025-03-08 14:23:37.549,77.96954314720811,-1.5092550360298156,1.526338516933469,0.0170833574328798,0.0348539315776917
2025-03-08 14:23:37.551,77.96954314720811,-1.515124908671457,1.5320123583466336,0.0168873259887868,0.0313418273809738
2025-03-08 14:23:37.553,77.96954314720811,-1.5225206940078977,1.5393295402222715,0.0168087215764128,0.0283023887333188
2025-03-08 14:23:37.555,77.96954314720811,-1.5330887777756672,1.5499726758253645,0.0168837721498175,0.026602235736722
2025-03-08 14:23:37.557,77.96954314720811,-1.5481057097487163,1.5652973581443896,0.0171915214870018,0.0264653326527467
2025-03-08 14:23:37.559,77.96954314720811,-1.568483844758881,1.5863224933511002,0.0178385213293497,0.02739460496845
2025-03-08 14:23:37.561,77.96954314720811,-1.5947548402071383,1.6136606656923689,0.0189056985563229,0.0285184238737463
2025-03-08 14:23:37.563,77.96954314720811,-1.626758897336,1.647151094928707,0.0203920713448337,0.0290896343855357
2025-03-08 14:23:37.565,77.96954314720811,-1.663360576036847,1.6855396601360704,0.0221789583537983,0.0288081755030894
2025-03-08 14:23:37.567,77.96954314720811,-1.702660681107511,1.7266851905508287,0.0240243835928855,0.0278126174994802
2025-03-08 14:23:37.568,77.96954314720811,-1.7427167356173596,1.7683093941007404,0.0255925318105957,0.0264333653859966
2025-03-08 14:23:37.570,77.96954314720811,-1.782373545659902,1.808899252449777,0.0265255788344666,0.0249395256653689
2025-03-08 14:23:37.572,77.96954314720811,-1.821765355273401,1.848330474394831,0.0265649899007904,0.0234446976638714
2025-03-08 14:23:37.574,77.96954314720811,-1.8621562729897887,1.8878549007632277,0.0256984977450787,0.0219650999151003
2025-03-08 14:23:37.576,77.96954314720811,-1.9050292992304292,1.9292771412995624,0.0242477118622468,0.0205316417406099
2025-03-08 14:23:37.578,77.96954314720811,-1.950895131278996,1.973694560495422,0.0227992992805175,0.0192771851683967
2025-03-08 14:23:37.580,77.96954314720811,-1.9987431501067388,2.020723922650545,0.0219806429017927,0.0184486344174812
2025-03-08 14:23:37.582,77.96954314720811,-2.046652397149991,2.0688604689163106,0.0222079419992152,0.0182995266812856
2025-03-08 14:23:37.584,77.96954314720811,-2.093014837797061,2.1165707553647364,0.0235557870324359,0.0188846939512833
2025-03-08 14:23:37.586,77.96954314720811,-2.1372926920046607,2.163086082638344,0.0257932587930162,0.0199146370440206
2025-03-08 14:23:37.588,77.96954314720811,-2.1798681680627414,2.2083791198312106,0.0285108184558157,0.0208549778603035
2025-03-08 14:23:37.590,77.96954314720811,-2.221500650691155,2.252737454453422,0.0312366692441499,0.0212518977368973
2025-03-08 14:23:37.592,77.96954314720811,-2.263030112560469,2.2965470468284304,0.0335167990763322,0.0210348396342304
2025-03-08 14:23:37.594,77.96954314720811,-2.305342377836225,2.3403515623545053,0.0350090491473073,0.0205729314034009
2025-03-08 14:23:37.596,77.96954314720811,-2.3492315449237564,2.38485193001026,0.0356202497170073,0.0204755777715867
2025-03-08 14:23:37.598,77.96954314720811,-2.3950357989877142,2.4306500812338667,0.0356141466419532,0.0212718874599145
2025-03-08 14:23:37.600,77.96954314720811,-2.442248429016133,2.4778109235609502,0.0355623581709862,0.0231211090190162
2025-03-08 14:23:37.602,77.96954314720811,-2.4893428829201585,2.5254385270122257,0.0360955063872342,0.0256918860393372
2025-03-08 14:23:37.604,77.96954314720811,-2.534006486627565,2.571583825260303,0.0375771992886557,0.0282996519657665
2025-03-08 14:23:37.606,77.96954314720811,-2.57389099616097,2.61379660283163,0.0399054657722509,0.0302561583826338
2025-03-08 14:23:37.608,77.96954314720811,-2.6075850463606822,2.6501448532840923,0.0425596648793419,0.0312236389723198
2025-03-08 14:23:37.609,77.96954314720811,-2.6350778125161742,2.6799266213576574,0.0448486661466898,0.0313292836047594
2025-03-08 14:23:37.611,77.96954314720811,-2.6572981687874333,2.703521127456008,0.0462228156269585,0.030966837343235
2025-03-08 14:23:37.613,77.96954314720811,-2.6752715260100377,2.7217855377441245,0.0465138682872596,0.0304674116906799
2025-03-08 14:23:37.615,77.96954314720811,-2.6897936008084797,2.735796007456268,0.0460022623968721,0.0299113129851857
2025-03-08 14:23:37.617,77.96954314720811,-2.701707352357182,2.746972306355362,0.0452648084030428,0.0292008337042816
2025-03-08 14:23:37.619,77.96954314720811,-2.7120203541853747,2.756878119157008,0.0448576176198257,0.028297978462733
2025-03-08 14:23:37.621,77.96954314720811,-2.7214131462683526,2.7664165232096134,0.0450032277449743,0.0274242534385002
2025-03-08 14:23:37.623,77.96954314720811,-2.7296382947966387,2.7751076816053626,0.0454692360285527,0.0270473655357616
2025-03-08 14:23:37.625,77.96954314720811,-2.7355232205893927,2.78123271553451,0.0457093430316261,0.0276100522322309
2025-03-08 14:23:37.627,77.96954314720811,-2.737592676233514,2.782777959179361,0.0451851302849153,0.0291389712023059
2025-03-08 14:23:37.629,77.96954314720811,-2.7347624119647755,2.7784654347376665,0.0437028694691968,0.0310030974456778
2025-03-08 14:23:37.631,77.96954314720811,-2.726682439472272,2.7682750574292325,0.041592463767628,0.0320529856254368
2025-03-08 14:23:37.633,77.96954314720811,-2.7136544599354933,2.7532682516042395,0.0396136361191128,0.0311411332122458
2025-03-08 14:23:37.635,77.96954314720811,-2.696223430649148,2.7348343515522946,0.0386107635213588,0.027745950656423
2025-03-08 14:23:37.637,77.96954314720811,-2.674739652988517,2.7138400637036915,0.0391002512615483,0.0223168647443285
2025-03-08 14:23:37.639,77.96954314720811,-2.6493660197492823,2.690397914703833,0.0410317335263844,0.0161102487533515
2025-03-08 14:23:37.641,77.96954314720811,-2.620670070171464,2.6645202592703003,0.0438500260580843,0.01058617387377
2025-03-08 14:23:37.643,77.96954314720811,-2.590187967969544,2.6369775724515288,0.0467894402461616,0.0067009384302744
2025-03-08 14:23:37.645,77.96954314720811,-2.5601658185447937,2.609373805625424,0.0492078218879119,0.0045078786218443
2025-03-08 14:23:37.647,77.96954314720811,-2.5325260935701746,2.5833153177424983,0.0507890579436668,0.0033006605826135
2025-03-08 14:23:37.649,77.96954314720811,-2.50798557998619,2.559563733809581,0.0515779861921523,0.0021777470269575
2025-03-08 14:23:37.650,77.96954314720811,-2.486047596223791,2.5379972846718504,0.0519495189391579,0.000617016223319
2025-03-08 14:23:37.652,77.96954314720811,-2.465629693555177,2.5182511324736265,0.0526212671813041,-0.0013267593529136
2025-03-08 14:23:37.654,77.96954314720811,-2.4456119945319044,2.5002868810714944,0.054674712512312,-0.0032557131413407
2025-03-08 14:23:37.656,77.96954314720811,-2.425032465293803,2.484443163402278,0.0594105220284684,-0.0048046741699852
2025-03-08 14:23:37.658,77.96954314720811,-2.4032121186438067,2.4711228696377265,0.0679105732516974,-0.0058312160219018
2025-03-08 14:23:37.660,77.96954314720811,-2.3800518189673427,2.460469154197245,0.0804171561452107,-0.0063617350768336
2025-03-08 14:23:37.662,77.96954314720811,-2.356396949413633,2.4522713275462458,0.0958741977717115,-0.0064861524668094
2025-03-08 14:23:37.664,77.96954314720811,-2.334236261224573,2.4462109254454014,0.1119744823504126,-0.0063458513657707
2025-03-08 14:23:37.666,77.96954314720811,-2.316506149162622,2.442288960639195,0.1257826276763912,-0.006137084403059
2025-03-08 14:23:37.668,77.96954314720811,-2.306288567316437,2.440971857357173,0.1346831039127627,-0.0060052992648242
2025-03-08 14:23:37.670,77.96954314720811,-2.305531810280121,2.4428028906175463,0.137270891699117,-0.0058926966176944
2025-03-08 14:23:37.672,77.96954314720811,-2.314037386796662,2.447890062044721,0.1338524842073185,-0.0055146331107836
2025-03-08 14:23:37.674,77.96954314720811,-2.3295313723806155,2.455882601120161,0.1263510356135597,-0.0045047304407245
2025-03-08 14:23:37.676,77.96954314720811,-2.3488070497121294,2.466420505182352,0.1176132605944169,-0.0025954413798288
2025-03-08 14:23:37.678,77.96954314720811,-2.369084428954781,2.479467135289364,0.1103825098661742,0.000283323973532
2025-03-08 14:23:37.680,77.96954314720811,-2.388819071139833,2.495190782548984,0.1063715132310529,0.0039851569597192
2025-03-08 14:23:37.682,77.96954314720811,-2.407850107380924,2.513655317907811,0.1058050103017553,0.0081661605308613
2025-03-08 14:23:37.684,77.96954314720811,-2.427098306925769,2.534662830383637,0.1075643207998677,0.0123443058222135
2025-03-08 14:23:37.686,77.96954314720811,-2.4479515866005985,2.557759036217477,0.1098072442852611,0.0160318347734164
2025-03-08 14:23:37.688,77.96954314720811,-2.4715203868623723,2.582283027766852,0.1107624329128364,0.0189545609820913
2025-03-08 14:23:37.690,77.96954314720811,-2.498101925585885,2.6074571843926604,0.1093550483899296,0.0212999125216638
2025-03-08 14:23:37.692,77.96954314720811,-2.5270902335855205,2.6325174098940223,0.1054269637683798,0.0238290767491124
2025-03-08 14:23:37.693,77.96954314720811,-2.557290018074813,2.6568159448309645,0.0995257122745561,0.0276639216804219
2025-03-08 14:23:37.695,77.96954314720811,-2.587486796838994,2.67993362425083,0.0924466109348897,0.033733248414018
2025-03-08 14:23:37.697,77.96954314720811,-2.617133004665431,2.7019526837210246,0.084819460312918,0.0421434053025137
2025-03-08 14:23:37.699,77.96954314720811,-2.6468373968873875,2.7238137914352505,0.076976173193138,0.0518707683857459
2025-03-08 14:23:37.701,77.96954314720811,-2.678159993214092,2.7472932616514285,0.0691330442288205,0.0610166212100995
2025-03-08 14:23:37.703,77.96954314720811,-2.712552153306538,2.774248775184485,0.0616963947959693,0.0675324941238113
2025-03-08 14:23:37.705,77.96954314720811,-2.7500937056816843,2.8055105744335167,0.0554166389871718,0.0700697671106159
2025-03-08 14:23:37.707,77.96954314720811,-2.789056258537881,2.840279349580067,0.0512228588634361,0.0685833014706477
2025-03-08 14:23:37.709,77.96954314720811,-2.826686354112812,2.8764697612700503,0.0497831727344853,0.0644459067289267
2025-03-08 14:23:37.711,77.96954314720811,-2.860636748051371,2.9116709352807306,0.0510339505163568,0.0599740356341845
2025-03-08 14:23:37.713,77.96954314720811,-2.8901609949368483,2.9441525361581657,0.0539913019645598,0.0574582503069219
2025-03-08 14:23:37.715,77.96954314720811,-2.916510686361084,2.973541258532656,0.057030330041427,0.0580899480876006
2025-03-08 14:23:37.717,77.96954314720811,-2.942359058565196,3.000900991522862,0.058541687725776,0.0613778961881553
2025-03-08 14:23:37.719,77.96954314720811,-2.9704440436746875,3.0280764846601613,0.0576321926449325,0.0654511631018273
2025-03-08 14:23:37.721,77.96954314720811,-3.0021111982192505,3.056611939800153,0.054500490337618,0.0681018461263688
2025-03-08 14:23:37.723,77.96954314720811,-3.036613318180288,3.0869188441960453,0.050305272153454,0.0679722139138521
2025-03-08 14:23:37.725,77.96954314720811,-3.0714655468195216,3.118079736525935,0.0466139334017766,0.0652516544149195
2025-03-08 14:23:37.727,77.96954314720811,-3.103409330601109,3.148122237754762,0.0447126483492572,0.0615415039179228
2025-03-08 14:23:37.729,77.96954314720811,-3.129479497836866,3.1745693054297344,0.0450895460047302,0.0589704345198348
2025-03-08 14:23:37.731,77.96954314720811,-3.1480910357754235,3.195375640056798,0.0472843395414442,0.0590414569032952
2025-03-08 14:23:37.733,77.96954314720811,-3.159996950363558,3.210120267643989,0.0501230491352946,0.0618517873184946
2025-03-08 14:23:37.734,77.96954314720811,-3.1683974410846614,3.2206186658309552,0.052220953197633,0.0661037265738112
2025-03-08 14:23:37.736,77.96954314720811,-3.17754914668068,3.2301129821222085,0.0525635607435692,0.069854150931596
2025-03-08 14:23:37.738,77.96954314720811,-3.1903839904123443,3.2413309277586277,0.0509466598554761,0.0715431205028452
2025-03-08 14:23:37.740,77.96954314720811,-3.206701989300953,3.2547858032239096,0.048083533880763,0.0707341392105109
2025-03-08 14:23:37.742,77.96954314720811,-3.2231893058514256,3.2684868374866483,0.045297249006882,0.0682216383497729
2025-03-08 14:23:37.744,77.96954314720811,-3.2351929996121127,3.279091437420939,0.0438981522738102,0.0655302219928753
2025-03-08 14:23:37.746,77.96954314720811,-3.239154866648914,3.283683203415687,0.044528047873292,0.0641027579052821
2025-03-08 14:23:37.748,77.96954314720811,-3.234427306603885,3.2812419068944245,0.0468143076929662,0.0645684120085523
2025-03-08 14:23:37.750,77.96954314720811,-3.223562660149712,3.27310550071748,0.0495425442152602,0.0664334947474345
2025-03-08 14:23:37.752,77.96954314720811,-3.210887515380499,3.2621731532354588,0.05128533802205,0.0683477041861645
2025-03-08 14:23:37.754,77.96954314720811,-3.2001718018101566,3.251349745309296,0.0511776406342677,0.0688088826629725
2025-03-08 14:23:37.756,77.96954314720811,-3.1928522681629787,3.242289548832732,0.0494369751395572,0.0669517999796969
2025-03-08 14:23:37.758,77.96954314720811,-3.187826810969846,3.235156814138694,0.0473296950375267,0.0630457696188315
2025-03-08 14:23:37.760,77.96954314720811,-3.182631537213624,3.22918217004034,0.0465503217950631,0.0584647325602334
2025-03-08 14:23:37.762,77.96954314720811,-3.1750529461585324,3.223352383701384,0.0482991230866939,0.0551169219066376
2025-03-08 14:23:37.764,77.96954314720811,-3.1644199576103538,3.216968377644014,0.0525481016718662,0.0545730184084692
2025-03-08 14:23:37.766,77.96954314720811,-3.152258216285772,3.210197927119565,0.0579393883820183,0.0573007112232497
2025-03-08 14:23:37.768,77.96954314720811,-3.142037277741824,3.2044785037542023,0.0624408996823024,0.0623880774805633
2025-03-08 14:23:37.770,77.96954314720811,-3.137784237462915,3.202223067509946,0.0644385003320064,0.0679296115880172
2025-03-08 14:23:37.772,77.96954314720811,-3.14196726527155,3.2056038950899874,0.0636362972221743,0.0719674132237063
2025-03-08 14:23:37.774,77.96954314720811,-3.1538680670655417,3.215053536153617,0.0611851338403125,0.0736370248289965
2025-03-08 14:23:37.776,77.96954314720811,-3.169596654412522,3.2284891896787027,0.0588921971798627,0.0740593612530996
2025-03-08 14:23:37.777,77.96954314720811,-3.183734525575088,3.2417098346479287,0.0579749676236996,0.0766200002198163
2025-03-08 14:23:37.779,77.96954314720811,-3.1914060444815133,3.249629146422942,0.0582227565317512,0.0865137454766164
2025-03-08 14:23:37.781,77.96954314720811,-3.1894145450087104,3.2476932833923486,0.0582783886512957,0.1095959056052136
2025-03-08 14:23:37.783,77.96954314720811,-3.1758768841761635,3.232943324484303,0.0570660863147966,0.1506247153094201
2025-03-08 14:23:37.785,77.96954314720811,-3.148897264350509,3.2044961324479995,0.0555985102922778,0.2111249863064064
2025-03-08 14:23:37.787,77.96954314720811,-3.105619982920099,3.1636710639206167,0.058050719975005,0.287469001479796
2025-03-08 14:23:37.789,77.96954314720811,-3.0428303329312545,3.11420588398491,0.0713751872167358,0.3700847430235685
2025-03-08 14:23:37.791,77.96954314720811,-2.958926622970363,3.0625287902042877,0.1036018005801164,0.4445446073631539
2025-03-08 14:23:37.793,77.96954314720811,-2.855660043875513,3.0173125161688583,0.1616521023900158,0.4945622836200607
2025-03-08 14:23:37.795,77.96954314720811,-2.738104573274683,2.987594888757757,0.249489941686031,0.5060486978870091
2025-03-08 14:23:37.797,77.96954314720811,-2.612928104508991,2.9798174628493648,0.3668889801248942,0.4709470629612456
2025-03-08 14:23:37.799,77.96954314720811,-2.4865398100795426,2.9951864517506768,0.5086462589024371,0.3897556820504198
2025-03-08 14:23:37.801,77.96954314720811,-2.3647320931450277,3.0288886969401387,0.6641562167930607,0.2720504279337027
2025-03-08 14:23:37.803,77.96954314720811,-2.2542427879383853,3.071955311134611,0.8177121325580162,0.1345892594170296
2025-03-08 14:23:37.805,77.96954314720811,-2.165244222952011,3.115335944714215,0.950091328036036,-0.0029652581697146
2025-03-08 14:23:37.807,77.96954314720811,-2.112785378587908,3.1543451213617906,1.041559346156997,-0.1235823966332426
2025-03-08 14:23:37.809,77.96954314720811,-2.1150703010544936,3.190877780485814,1.0758070796537518,-0.2173510070003722
2025-03-08 14:23:37.811,77.96954314720811,-2.1876690311378217,3.23168667988436,1.0440172452035317,-0.2826734662437329
2025-03-08 14:23:37.813,77.96954314720811,-2.335313675514401,3.283399583300915,0.9480854998499554,-0.3237260674017796
2025-03-08 14:23:37.815,77.96954314720811,-2.545434732535089,3.3471696182231656,0.8017344730315041,-0.3460540599843323
2025-03-08 14:23:37.817,77.96954314720811,-2.787951963616908,3.416242228065659,0.6282898472127947,-0.3531421116891862
2025-03-08 14:23:37.818,77.96954314720811,-3.0231245140957297,3.4780149384545496,0.4548900030686659,-0.3457243001590973
2025-03-08 14:23:37.820,77.96954314720811,-3.214733113717827,3.5194997412877598,0.3047662028483739,-0.3234381877875398
2025-03-08 14:23:37.822,77.96954314720811,-3.3422799314549567,3.533134228964325,0.1908538697379357,-0.2869463197850703
2025-03-08 14:23:37.824,77.96954314720811,-3.4058904818357623,3.5197913724872514,0.1139004597599284,-0.2388831559526251
2025-03-08 14:23:37.826,77.96954314720811,-3.4217527288761773,3.487634805875932,0.0658816424958648,-0.1833821601039789
2025-03-08 14:23:37.828,77.96954314720811,-3.4116387333887355,3.4479919781147723,0.0363528059499628,-0.1250427290167577
2025-03-08 14:23:37.830,77.96954314720811,-3.393118132677341,3.4109498155483333,0.017831239338637,-0.0682033736149843
2025-03-08 14:23:37.832,77.96954314720811,-3.375310855821721,3.382891502088076,0.007580197919289,-0.0167132652899337
2025-03-08 14:23:37.834,77.96954314720811,-3.3603641050219184,3.366337248139184,0.0059726903464554,0.0261524751288462
2025-03-08 14:23:37.836,77.96954314720811,-3.347347496301268,3.3609799048268365,0.013631951956673,0.0580205179516424
2025-03-08 14:23:37.838,77.96954314720811,-3.335201059721009,3.364743687307217,0.0295421677408875,0.0779841982521089
2025-03-08 14:23:37.840,77.96954314720811,-3.3235298332828807,3.374427034048752,0.0508967377790648,0.0869850097265481
2025-03-08 14:23:37.842,77.96954314720811,-3.3119056155173863,3.385989907981451,0.0740838260068917,0.0875858476646917
2025-03-08 14:23:37.844,77.96954314720811,-3.298946165113147,3.3947612866165238,0.0958146509518846,0.0831293164550338
2025-03-08 14:23:37.846,77.96954314720811,-3.2823062058912185,3.39609683211657,0.113790150985057,0.0766918713827978
2025-03-08 14:23:37.848,77.96954314720811,-3.260050614253451,3.3868740152983072,0.1268229208589515,0.0703127973371037
2025-03-08 14:23:37.850,77.96954314720811,-3.232599569056248,3.367230737906029,0.1346306839282153,0.0647449875321482
2025-03-08 14:23:37.852,77.96954314720811,-3.203433969680134,3.341020299002398,0.1375858402241188,0.0597088839394999
2025-03-08 14:23:37.854,77.96954314720811,-3.1773818813721464,3.313976252575018,0.1365938785348013,0.0544889795228171
2025-03-08 14:23:37.856,77.96954314720811,-3.1573473959510747,3.290413333603692,0.1330654417427037,0.0486448166114908
2025-03-08 14:23:37.858,77.96954314720811,-3.1418130495844414,3.270614971031349,0.1288014221655964,0.0425321400845142
2025-03-08 14:23:37.859,77.96954314720811,-3.124922637844101,3.250561765982896,0.1256386249606906,0.0373185380046374
2025-03-08 14:23:37.861,77.96954314720811,-3.099120744997606,3.224002768564498,0.1248815158405775,0.0343974418865895
2025-03-08 14:23:37.863,77.96954314720811,-3.05881856314366,3.185578998866154,0.1267599230066763,0.0345209377010413
2025-03-08 14:23:37.865,77.96954314720811,-3.003135294150889,3.1333876223623904,0.1302518105013965,0.0372396577813004
2025-03-08 14:23:37.867,77.96954314720811,-2.936287592521803,3.0697680773773475,0.1334799625808255,0.0410411151497979
2025-03-08 14:23:37.869,77.96954314720811,-2.8654318961829017,3.00001190234704,0.1345794799590061,0.0440560907052463
2025-03-08 14:23:37.871,77.96954314720811,-2.797236430107196,2.929878786190503,0.1326418264481253,0.0448505794432572
2025-03-08 14:23:37.873,77.96954314720811,-2.7351505524313158,2.8634011190163893,0.1282500336158023,0.0429082895337641
2025-03-08 14:23:37.875,77.96954314720811,-2.6786160952173828,2.801897555156625,0.1232809232663397,0.0387080308297161
2025-03-08 14:23:37.877,77.96954314720811,-2.62407849909036,2.7440883854219007,0.1200093453018003,0.0334880922292047
2025-03-08 14:23:37.879,77.96954314720811,-2.566912718209267,2.6868541707232105,0.1199409065225545,0.0288307262785668
2025-03-08 14:23:37.881,77.96954314720811,-2.503508840582754,2.626498937661933,0.1229895458802771,0.026193271583035
2025-03-08 14:23:37.883,77.96954314720811,-2.4329061308110824,2.560373124549932,0.1274664375722421,0.0264877610675041
2025-03-08 14:23:37.885,77.96954314720811,-2.3571528266179107,2.488074299879215,0.1309209127269374,0.0297952045542042
2025-03-08 14:23:37.887,77.96954314720811,-2.2798132438179395,2.411213108581788,0.1313993005059398,0.0353209354017078
2025-03-08 14:23:37.889,77.96954314720811,-2.203314788057267,2.331758979556327,0.1284436238617487,0.0416829690303916
2025-03-08 14:23:37.891,77.96954314720811,-2.12704655064722,2.250345395500979,0.1232982736873589,0.0474859003300907
2025-03-08 14:23:37.893,77.96954314720811,-2.0477171417842666,2.1659505974038624,0.1182328803411619,0.0519269151447706
2025-03-08 14:23:37.895,77.96954314720811,-1.9616674538133572,2.077022332934152,0.1153542990022853,0.0550962397643197
2025-03-08 14:23:37.897,77.96954314720811,-1.8674122989408464,1.982943914839381,0.115531030436922,0.0577846052015073
2025-03-08 14:23:37.899,77.96954314720811,-1.7667301085250944,1.8847117703720968,0.1179810710250415,0.0609097379173795
2025-03-08 14:23:37.901,77.96954314720811,-1.6636679545145052,1.7843848274537664,0.1207162772383334,0.0649158947442614
2025-03-08 14:23:37.902,77.96954314720811,-1.5620618086816669,1.683646723121725,0.1215843145924344,0.0695079718713556
2025-03-08 14:23:37.904,77.96954314720811,-1.4630828301567822,1.5824428791159515,0.119359445562536,0.07384634859723
2025-03-08 14:23:37.906,77.96954314720811,-1.3643813813608234,1.4787241262201842,0.1143421380514089,0.0770388569492549
2025-03-08 14:23:37.908,77.96954314720811,-1.2613561244743583,1.3695407349241195,0.108183999814577,0.0786295912802966
2025-03-08 14:23:37.910,77.96954314720811,-1.1496593478903268,1.2526856775747823,0.1030257144461707,0.0788379013966898
2025-03-08 14:23:37.912,77.96954314720811,-1.027432625278046,1.1278144470872105,0.1003812012197607,0.0784458183579925
2025-03-08 14:23:37.914,77.96954314720811,-0.8962024940983409,0.9965604720628444,0.1003573516884218,0.0783862561335021
2025-03-08 14:23:37.916,77.96954314720811,-0.760145540233069,0.8617825118957766,0.1016363399566861,0.0792286706375058
2025-03-08 14:23:37.918,77.96954314720811,-0.6240992118279183,0.7263206442531567,0.1022207960129151,0.080853578601271
2025-03-08 14:23:37.920,77.96954314720811,-0.4913518091855897,0.5918608276672239,0.1005083781793522,0.0825533297803756
2025-03-08 14:23:37.922,77.96954314720811,-0.3626219233953448,0.4587170429910868,0.0960944758782414,0.0835517203629166
2025-03-08 14:23:37.924,77.96954314720811,-0.2370034427523549,0.3268941132631581,0.0898900232428969,0.0836265204974098
2025-03-08 14:23:37.926,77.96954314720811,-0.1141220254122578,0.1976750948065342,0.0835524178745281,0.0833805834244374
2025-03-08 14:23:37.928,77.96954314720811,0.0042821041465675,0.0743206090955889,0.0786020565452614,0.0839041007682891
2025-03-08 14:23:37.930,77.96954314720811,0.1145689901332974,-0.0388517070315242,0.0757166205489753,0.0860218132354711
2025-03-08 14:23:37.932,77.96954314720811,0.2129168082755403,-0.1383882685770222,0.0745278712127938,0.0896699428203275
2025-03-08 14:23:37.934,77.96954314720811,0.297291366717857,-0.2233514003650467,0.0739392925086069,0.0938695213897526
2025-03-08 14:23:37.936,77.96954314720811,0.3685781846870698,-0.2958490183031891,0.0727284881159882,0.0973179675762731
2025-03-08 14:23:37.938,77.96954314720811,0.4304241895322555,-0.3603079024477587,0.0701156051988765,0.0991879132957792
2025-03-08 14:23:37.940,77.96954314720811,0.4878916523624044,-0.4218253696273187,0.0660655974730245,0.0996021831740015
2025-03-08 14:23:37.942,77.96954314720811,0.5455517007512021,-0.4843066830847112,0.0612443285529337,0.0994858867054562
2025-03-08 14:23:37.943,77.96954314720811,0.6060062360602525,-0.5493253920755315,0.056680150048878,0.099921112854435
2025-03-08 14:23:37.945,77.96954314720811,0.6695389221796831,-0.6162530621783897,0.053285160264168,0.1014593182147519
2025-03-08 14:23:37.947,77.96954314720811,0.7347666054631189,-0.6833137379327198,0.0514521615102126,0.1038298488856411
2025-03-08 14:23:37.949,77.96954314720811,0.799629170842456,-0.7487090748569514,0.0509193839554206,0.1061526772406219
2025-03-08 14:23:37.951,77.96954314720811,0.8621895786362366,-0.8112144378039706,0.0509744236878217,0.1074256558367316
2025-03-08 14:23:37.953,77.96954314720811,0.9210211386088428,-0.8701263525173187,0.0508940648869138,0.1069708974692092
2025-03-08 14:23:37.955,77.96954314720811,0.975147999097566,-0.9247765707658182,0.0503707037203208,0.1046636435571436
2025-03-08 14:23:37.957,77.96954314720811,1.0238565560736643,-0.974191416293813,0.0496644116510779,0.1009257395571532
2025-03-08 14:23:37.959,77.96954314720811,1.0669869168998978,-1.0176048649515672,0.0493813194576265,0.0965348180917103
2025-03-08 14:23:37.961,77.96954314720811,1.1057631653279965,-1.0557435231838843,0.0500189041297561,0.0923262441836652
2025-03-08 14:23:37.963,77.96954314720811,1.1431265434473836,-1.0915505152406637,0.0515752837836945,0.0888951589273929
2025-03-08 14:23:37.965,77.96954314720811,1.1824837413433331,-1.1290016240907723,0.0534813662745094,0.0864109963206591
2025-03-08 14:23:37.967,77.96954314720811,1.2253313178711625,-1.1704326721647451,0.0548978888490076,0.0845996715838358
2025-03-08 14:23:37.969,77.96954314720811,1.2696908354916316,-1.2145115924362266,0.0551784814684051,0.0828572021856264
2025-03-08 14:23:37.971,77.96954314720811,1.310872069863651,-1.2566583865376255,0.0542129180278819,0.0804194544975278
2025-03-08 14:23:37.973,77.96954314720811,1.344189004970059,-1.2917148397214977,0.0524733965771632,0.0765564585438052
2025-03-08 14:23:37.975,77.96954314720811,1.367886193731291,-1.3171043149301156,0.0507811062117082,0.070785533994879
2025-03-08 14:23:37.977,77.96954314720811,1.3847565598017533,-1.3348055708027382,0.0499502113227172,0.063039053420894
2025-03-08 14:23:37.979,77.96954314720811,1.4019562968328916,-1.351468354332027,0.0504871585374073,0.0536894681900415
2025-03-08 14:23:37.981,77.96954314720811,1.4292531569069369,-1.3767972891129845,0.0524550769314687,0.0434150853045119
2025-03-08 14:23:37.983,77.96954314720811,1.4763152909964603,-1.4207949804205744,0.0555195131121255,0.0329823691733997
2025-03-08 14:23:37.984,77.96954314720811,1.5499452415060877,-1.4908331208345404,0.0591113176613092,0.0230210266526766
2025-03-08 14:23:37.986,77.96954314720811,1.6521444475797915,-1.5895357937549008,0.0626078465258165,0.0138393728756821
2025-03-08 14:23:37.988,77.96954314720811,1.7794037055013414,-1.7139293878801387,0.0654735068233612,0.0053399199003672
2025-03-08 14:23:37.990,77.96954314720811,1.923191704955317,-1.8558220521567104,0.0673688383895241,-0.0029048618228488
2025-03-08 14:23:37.992,77.96954314720811,2.071625964492646,-2.0033868087786875,0.0682383367122748,-0.011419493391194
2025-03-08 14:23:37.994,77.96954314720811,2.212237138249214,-2.1439086369591767,0.0683276763372903,-0.0205282920348209
2025-03-08 14:23:37.996,77.96954314720811,2.3351086879120198,-2.26703025906607,0.0680775969039598,-0.0301592838480277
2025-03-08 14:23:37.998,77.96954314720811,2.435109382800529,-2.367176396431343,0.0679321472582425,-0.0399030439762182
2025-03-08 14:23:38.000,77.96954314720811,2.512367622809811,-2.44419250038096,0.0681742769207652,-0.0493164982801223
2025-03-08 14:23:38.002,77.96954314720811,2.571316431261468,-2.502443026085524,0.0688725545871188,-0.0582528503617964
2025-03-08 14:23:38.004,77.96954314720811,2.619302364457029,-2.549368294709952,0.0699332152398815,-0.0669700241733404
2025-03-08 14:23:38.006,77.96954314720811,2.6653229870669084,-2.594130850880603,0.071191278143597,-0.075948595220452
2025-03-08 14:23:38.008,77.96954314720811,2.7187635009671336,-2.6462863162809764,0.0724763224894863,-0.0855587979040045
2025-03-08 14:23:38.010,77.96954314720811,2.787930003097564,-2.714293724771112,0.0736354106590228,-0.095821494787907
2025-03-08 14:23:38.012,77.96954314720811,2.878497134081744,-2.803950245900509,0.0745460137010863,-0.1064596746516814
2025-03-08 14:23:38.014,77.96954314720811,2.99217293429395,-2.9170177494863005,0.0751543028398294,-0.1172190944512117
2025-03-08 14:23:38.016,77.96954314720811,3.1260474850378546,-3.050529038329131,0.0755175575921305,-0.1281697769497492
2025-03-08 14:23:38.018,77.96954314720811,3.273249418251158,-3.197470940366068,0.0757775827887967,-0.1396551282580402
2025-03-08 14:23:38.020,77.96954314720811,3.425043637551972,-3.3490155447060843,0.0760271931480879,-0.1518667482550041
2025-03-08 14:23:38.022,77.96954314720811,3.5733333348914185,-3.497182926900777,0.0761495045444361,-0.1644254011496091
2025-03-08 14:23:38.024,77.96954314720811,3.712013874302465,-3.6362217569752655,0.0757912099987836,-0.1764019400638923
2025-03-08 14:23:38.026,77.96954314720811,3.8366877413436775,-3.7621269096739303,0.0745599193928333,-0.1868242956254678
2025-03-08 14:23:38.027,77.96954314720811,3.943774364773663,-3.871427036556753,0.0723464095364976,-0.1952756200678679
2025-03-08 14:23:38.029,77.96954314720811,4.030326136549904,-3.960788447607142,0.0695367627639299,-0.2021228114359919
2025-03-08 14:23:38.031,77.96954314720811,4.094865687377196,-4.027932759672156,0.0669319938542037,-0.2082515335631435
2025-03-08 14:23:38.033,77.96954314720811,4.1385837694878695,-4.073182406550114,0.0654004222420038,-0.2145831515868265
2025-03-08 14:23:38.035,77.96954314720811,4.165984163096733,-4.100502704629038,0.0654805123105355,-0.2217598388631179
2025-03-08 14:23:38.037,77.96954314720811,4.184301268291114,-4.117130407552965,0.0671699103245496,-0.2301399403357235
2025-03-08 14:23:38.039,77.96954314720811,4.201588805462222,-4.131611093652305,0.0699767575254916,-0.239911463767999
2025-03-08 14:23:38.041,77.96954314720811,4.224248050167111,-4.151114621627034,0.0731324697394279,-0.2510576416539525
2025-03-08 14:23:38.043,77.96954314720811,4.255321675729844,-4.179493225481991,0.0758274855819663,-0.2631589834375423
2025-03-08 14:23:38.045,77.96954314720811,4.294397547853022,-4.216975226429748,0.0774213495336099,-0.2752982864681472
2025-03-08 14:23:38.047,77.96954314720811,4.338773388558497,-4.261123194064417,0.0776492147095846,-0.2863267618892786
2025-03-08 14:23:38.049,77.96954314720811,4.384837337596865,-4.308041461746985,0.0767948885226088,-0.295428035538705
2025-03-08 14:23:38.051,77.96954314720811,4.42899868445322,-4.353302866455812,0.0756948243026834,-0.3025978597942322
2025-03-08 14:23:38.053,77.96954314720811,4.468209924540739,-4.392754605535292,0.0754543203131925,-0.3086960471854947
2025-03-08 14:23:38.055,77.96954314720811,4.500254647435896,-4.423302986315024,0.0769506582684704,-0.3150885573676386
2025-03-08 14:23:38.057,77.96954314720811,4.523738088175231,-4.443342979430511,0.0803941015916251,-0.3231744463813503
2025-03-08 14:23:38.059,77.96954314720811,4.537809948846171,-4.452591079417476,0.0852178569238901,-0.334036241079615
2025-03-08 14:23:38.061,77.96954314720811,4.541960490522169,-4.451586919956011,0.0903725512903593,-0.3482265024057813
2025-03-08 14:23:38.063,77.96954314720811,4.536122653591013,-4.441260362632135,0.0948612638556137,-0.3655844331860902
2025-03-08 14:23:38.065,77.96954314720811,4.520873538155239,-4.422659167132901,0.0982133359350782,-0.3850711011715036
2025-03-08 14:23:38.067,77.96954314720811,4.497441771529026,-4.396804579535111,0.1006361497301654,-0.4048030278892258
2025-03-08 14:23:38.068,77.96954314720811,4.467514927918539,-4.364727687929403,0.1027861918811872,-0.4224885499169736
2025-03-08 14:23:38.070,77.96954314720811,4.432869562264402,-4.327536496417326,0.1053320130420792,-0.4362067082849004
2025-03-08 14:23:38.072,77.96954314720811,4.394654676379093,-4.286077825463552,0.1085757937673583,-0.4451489279673052
2025-03-08 14:23:38.074,77.96954314720811,4.3525125123621615,-4.240203064694345,0.112308385547298,-0.4499053587417669
2025-03-08 14:23:38.076,77.96954314720811,4.304471837869093,-4.188565067421965,0.115905702066637,-0.452154417193921
2025-03-08 14:23:38.078,77.96954314720811,4.24837203633405,-4.129803181342743,0.1185677790701195,-0.4539453867128789
2025-03-08 14:23:38.080,77.96954314720811,4.184117557705044,-4.0645300528553,0.119586420770402,-0.4569180776430036
2025-03-08 14:23:38.082,77.96954314720811,4.114986326736103,-3.9964311380532505,0.1185540967962447,-0.4617582031116996
2025-03-08 14:23:38.084,77.96954314720811,4.046981235403997,-3.9315231435088616,0.1154569933180671,-0.4680436658393642
2025-03-08 14:23:38.086,77.96954314720811,3.986899615205004,-3.876267518358916,0.1106309928613127,-0.4744969700849856
2025-03-08 14:23:38.088,77.96954314720811,3.940418096027775,-3.835805245531289,0.1046117418715314,-0.4795686045780216
2025-03-08 14:23:38.090,77.96954314720811,3.910753086838909,-3.8127962046197936,0.0979557687997148,-0.4821803636717624
2025-03-08 14:23:38.092,77.96954314720811,3.8977987055680985,-3.806694090899692,0.0911034954557878,-0.48230415540137
2025-03-08 14:23:38.094,77.96954314720811,3.897873441931818,-3.813569602435048,0.0843027131638973,-0.4810045356547249
2025-03-08 14:23:38.096,77.96954314720811,3.9045511165002247,-3.8269678289849183,0.0775821530889471,-0.4798539269634424
2025-03-08 14:23:38.098,77.96954314720811,3.9106785833256126,-3.839894524382316,0.0707829162952884,-0.4800911571993514
2025-03-08 14:23:38.100,77.96954314720811,3.910899794121322,-3.847246172801023,0.0636524712145443,-0.4820834476467641
2025-03-08 14:23:38.102,77.96954314720811,3.903564506407121,-3.847608313451832,0.0559550366309674,-0.4853692444891181
2025-03-08 14:23:38.104,77.96954314720811,3.891069333025144,-3.8435307286756055,0.0475374428624548,-0.4891044274904602
2025-03-08 14:23:38.106,77.96954314720811,3.878394889890279,-3.840042393649032,0.0383513299082441,-0.4925265648236157
2025-03-08 14:23:38.108,77.96954314720811,3.870662482109181,-3.84218671370163,0.0284745966410636,-0.4951791694289366
2025-03-08 14:23:38.109,77.96954314720811,3.8712124338313454,-3.853083307008281,0.0181279484366444,-0.4968945434065464
2025-03-08 14:23:38.111,77.96954314720811,3.881120020448797,-3.873483736606696,0.0076350976622933,-0.4977115568459233
2025-03-08 14:23:38.113,77.96954314720811,3.8995770891594126,-3.9022511297272064,-0.0026752351044835,-0.4978846566583875
2025-03-08 14:23:38.115,77.96954314720811,3.923922194695229,-3.936472241646544,-0.0125512495252167,-0.4979328969301778
2025-03-08 14:23:38.117,77.96954314720811,3.949213881306948,-3.9710418586037823,-0.021829186892168,-0.498522780361998
2025-03-08 14:23:38.119,77.96954314720811,3.9686216327926025,-3.999024902996761,-0.0304044856524632,-0.5001235446149912
2025-03-08 14:23:38.121,77.96954314720811,3.9755349933462902,-4.013759038946898,-0.038225266193963,-0.5026729569140942
2025-03-08 14:23:38.123,77.96954314720811,3.966500237596843,-4.01182680498888,-0.0453277932481927,-0.5055454998940501
2025-03-08 14:23:38.125,77.96954314720811,3.9430896885634303,-3.99497776424077,-0.051889307672585,-0.5078354780424057
2025-03-08 14:23:38.127,77.96954314720811,3.911570972189398,-3.9698246365096246,-0.05825490363248,-0.5087079701489404
2025-03-08 14:23:38.129,77.96954314720811,3.880608741679657,-3.945490323736436,-0.0648828295618323,-0.5076239010533108
2025-03-08 14:23:38.131,77.96954314720811,3.8580075364326767,-3.93018253631145,-0.0721762557136733,-0.5044539750306836
2025-03-08 14:23:38.133,77.96954314720811,3.847774782184294,-3.928039232574415,-0.0802657139050082,-0.4995267445295848
2025-03-08 14:23:38.135,77.96954314720811,3.8488288564332422,-3.9377236016457706,-0.0888960153272438,-0.4935264057351455
2025-03-08 14:23:38.137,77.96954314720811,3.856132615859927,-3.953654428935872,-0.0975230888487048,-0.4871757634528151
2025-03-08 14:23:38.139,77.96954314720811,3.863768300503259,-3.969327534635404,-0.1055605152430305,-0.4808609838556019
2025-03-08 14:23:38.141,77.96954314720811,3.868322997669386,-3.980932879896145,-0.1126111691301213,-0.4744754210469483
2025-03-08 14:23:38.143,77.96954314720811,3.870856684922616,-3.98942773160232,-0.1185723403562815,-0.4676039149294376
2025-03-08 14:23:38.145,77.96954314720811,3.8766147822530055,-4.000223594510446,-0.1236101137044501,-0.459904850813041
2025-03-08 14:23:38.147,77.96954314720811,3.892764589981099,-4.0208071156525005,-0.128043835399123,-0.4514199565364459
2025-03-08 14:23:38.149,77.96954314720811,3.925260463390349,-4.057453314032159,-0.1321941684334726,-0.4426168362070769
2025-03-08 14:23:38.151,77.96954314720811,3.976310219169736,-4.112591161461997,-0.1362822673408199,-0.4341455687459092
2025-03-08 14:23:38.152,77.96954314720811,4.04363179990846,-4.184086099771523,-0.1404556312019574,-0.4264574323302939
2025-03-08 14:23:38.154,77.96954314720811,4.121741075958024,-4.266638015102108,-0.1448982761421975,-0.4195269597748258
2025-03-08 14:23:38.156,77.96954314720811,4.204442759903058,-4.354315875811487,-0.1498744585757312,-0.4128696212802207
2025-03-08 14:23:38.158,77.96954314720811,4.2871981056007,-4.442808496438355,-0.1556117397946382,-0.4058498030208651
2025-03-08 14:23:38.160,77.96954314720811,4.368280052560836,-4.530382705481091,-0.16210400906119,-0.3980701452966743
2025-03-08 14:23:38.162,77.96954314720811,4.448296985529674,-4.617305695033984,-0.1690100735380392,-0.3895855466075791
2025-03-08 14:23:38.164,77.96954314720811,4.5284860213246825,-4.704231659142384,-0.1757470099227987,-0.3808079641141069
2025-03-08 14:23:38.166,77.96954314720811,4.608914961162713,-4.790639637711639,-0.1817260563104932,-0.3721636190741142
2025-03-08 14:23:38.168,77.96954314720811,4.687896921140222,-4.874484717636042,-0.186589183140591,-0.3637246707236404
2025-03-08 14:23:38.170,77.96954314720811,4.76304881637843,-4.953371721764385,-0.1903242981815902,-0.3550730513316281
2025-03-08 14:23:38.172,77.96954314720811,4.833024259496599,-5.026246824101185,-0.1932239632145416,-0.3455172269408231
2025-03-08 14:23:38.174,77.96954314720811,4.898437004104277,-5.094171809229591,-0.1957362097455529,-0.3345305965554703
2025-03-08 14:23:38.176,77.96954314720811,4.961454010711206,-5.159744031927102,-0.1982914324398581,-0.3221011557273946
2025-03-08 14:23:38.178,77.96954314720811,5.024801804638213,-5.225971736977246,-0.2011713508363978,-0.3087596259709466
2025-03-08 14:23:38.180,77.96954314720811,5.091101442311015,-5.295544296665383,-0.2044442805355356,-0.2953228086709378
2025-03-08 14:23:38.182,77.96954314720811,5.162677546319386,-5.3706416941805815,-0.2079655816934164,-0.2825708317101467
2025-03-08 14:23:38.184,77.96954314720811,5.24141426358202,-5.452852807984377,-0.2114399854551026,-0.2710365180569178
2025-03-08 14:23:38.186,77.96954314720811,5.328320492839391,-5.542854375071522,-0.2145353299097272,-0.2609504072299671
2025-03-08 14:23:38.188,77.96954314720811,5.422816928107679,-5.639826700863492,-0.2170112265874539,-0.2522976921690989
2025-03-08 14:23:38.190,77.96954314720811,5.522095979531128,-5.740903951128656,-0.2188094314395528,-0.244912888039927
2025-03-08 14:23:38.192,77.96954314720811,5.621199977109159,-5.841276025372364,-0.2200775143261059,-0.2385305518015897
2025-03-08 14:23:38.193,77.96954314720811,5.714335816705208,-5.935470682860488,-0.2211363388619533,-0.2327509031685914
2025-03-08 14:23:38.195,77.96954314720811,5.797113635409842,-6.019510215095484,-0.2223980594472289,-0.2269920113237273
2025-03-08 14:23:38.197,77.96954314720811,5.86850671060311,-6.092725177994499,-0.2242199544151339,-0.2205735050543885
2025-03-08 14:23:38.199,77.96954314720811,5.93135385784753,-6.158075508639606,-0.2267231450053062,-0.212970859071081
2025-03-08 14:23:38.201,77.96954314720811,5.9911787989792495,-6.220870593627836,-0.2296932957571336,-0.2040799200189088
2025-03-08 14:23:38.203,77.96954314720811,6.054027454377608,-6.286700453269415,-0.2326745065270883,-0.1942809602899835
2025-03-08 14:23:38.205,77.96954314720811,6.124229279823234,-6.359440956706288,-0.2352131907596797,-0.1842591472281342
2025-03-08 14:23:38.207,77.96954314720811,6.202763965174108,-6.439822809926175,-0.2370603647669076,-0.1747261599356046
2025-03-08 14:23:38.209,77.96954314720811,6.286784798775587,-6.524971300346452,-0.2381880278123944,-0.1661997858487359
2025-03-08 14:23:38.211,77.96954314720811,6.370619298550679,-6.609292733813692,-0.238674967943111,-0.1588845264041443
2025-03-08 14:23:38.213,77.96954314720811,6.447858530387292,-6.686485837498035,-0.2386288464594398,-0.1526406246465053
2025-03-08 14:23:38.215,77.96954314720811,6.513449196638388,-6.751665480250338,-0.2382178297805486,-0.1470605650861752
2025-03-08 14:23:38.217,77.96954314720811,6.564835530827642,-6.802568998198154,-0.2377350203752712,-0.1416512470628988
2025-03-08 14:23:38.219,77.96954314720811,6.601986825993467,-6.839574967878658,-0.2375897016037346,-0.1360317270857636
2025-03-08 14:23:38.221,77.96954314720811,6.626684469935269,-6.864876587501115,-0.238193683780799,-0.1300575260722925
2025-03-08 14:23:38.223,77.96954314720811,6.641472012052335,-6.88125563837874,-0.239785198799029,-0.1238614527872823
2025-03-08 14:23:38.225,77.96954314720811,6.648689747210334,-6.890968759092703,-0.2422805904323585,-0.1177807977050301
2025-03-08 14:23:38.227,77.96954314720811,6.650110249947761,-6.895368073857454,-0.2452594084751445,-0.112105707947697
2025-03-08 14:23:38.229,77.96954314720811,6.647354040752091,-6.895478009911414,-0.2481255598142717,-0.106757923976561
2025-03-08 14:23:38.231,77.96954314720811,6.642525906996738,-6.892886091308861,-0.2503617812308692,-0.1012129844729785
2025-03-08 14:23:38.233,77.96954314720811,6.638265454555042,-6.889984829722057,-0.2517209785439634,-0.0948374389065859
2025-03-08 14:23:38.234,77.96954314720811,6.63709713285298,-6.8893462257756735,-0.2522507028772209,-0.0874165925788417
2025-03-08 14:23:38.236,77.96954314720811,6.640721157815055,-6.8928889243852245,-0.2521693830776245,-0.0794432906462939
2025-03-08 14:23:38.238,77.96954314720811,6.649696782130075,-6.901393849561803,-0.2516986903148468,-0.0719141774715252
2025-03-08 14:23:38.240,77.96954314720811,6.663242725074012,-6.914201340051896,-0.2509602439678841,-0.0657529474802105
2025-03-08 14:23:38.242,77.96954314720811,6.678806775107803,-6.928793553640648,-0.2499884133762906,-0.0612599531357392
2025-03-08 14:23:38.244,77.96954314720811,6.691722979352821,-6.94055621458565,-0.2488348757959303,-0.0579589692167472
2025-03-08 14:23:38.246,77.96954314720811,6.695641552780858,-6.943316984335867,-0.2476770778750188,-0.0548950269828626
2025-03-08 14:23:38.248,77.96954314720811,6.684002481418485,-6.93082335667359,-0.2468225275119078,-0.0511331191184052
2025-03-08 14:23:38.250,77.96954314720811,6.652142541673924,-6.8987013189400255,-0.2465604356852722,-0.0461737622776259
2025-03-08 14:23:38.252,77.96954314720811,6.59913773247471,-6.846077041378685,-0.2469409736366625,-0.0401495937763757
2025-03-08 14:23:38.254,77.96954314720811,6.528324391418915,-6.775977926541895,-0.2476552061603747,-0.0337728579118068
2025-03-08 14:23:38.256,77.96954314720811,6.445937826968893,-6.694073686001572,-0.2481375361966274,-0.0280472393542429
2025-03-08 14:23:38.258,77.96954314720811,6.358537463025367,-6.60637965877024,-0.2478438787589571,-0.0238399934673318
2025-03-08 14:23:38.260,77.96954314720811,6.270884267882503,-6.517401554539482,-0.2465189752628791,-0.021506916091043
2025-03-08 14:23:38.262,77.96954314720811,6.185493552599424,-6.42976824175917,-0.2442763832220793,-0.0207639549703221
2025-03-08 14:23:38.264,77.96954314720811,6.103503392135283,-6.344965790623244,-0.2414640980377903,-0.0208686452531373
2025-03-08 14:23:38.266,77.96954314720811,6.025506347568215,-6.263954374684494,-0.2384497323148025,-0.020986161796356
2025-03-08 14:23:38.268,77.96954314720811,5.951593333570777,-6.187086876982742,-0.2354952544551194,-0.0205160482508263
2025-03-08 14:23:38.270,77.96954314720811,5.881098670932645,-6.113870579020762,-0.232773625099899,-0.0192326374825595
2025-03-08 14:23:38.272,77.96954314720811,5.812875569297332,-6.043295188431956,-0.2304213420992306,-0.0172503178461826
2025-03-08 14:23:38.274,77.96954314720811,5.746134898583148,-5.974622548126111,-0.2284893783039576,-0.0149051542233998
2025-03-08 14:23:38.276,77.96954314720811,5.681034132842476,-5.907835017796488,-0.2268026192754247,-0.0126167193291195
2025-03-08 14:23:38.277,77.96954314720811,5.618300658485954,-5.843205523364373,-0.2249066045352296,-0.0107552055983148
2025-03-08 14:23:38.279,77.96954314720811,5.558084076120165,-5.78033602379815,-0.2222536925340189,-0.0095465722527142
2025-03-08 14:23:38.281,77.96954314720811,5.499009827010417,-5.71756911761387,-0.2185610406451913,-0.009038286767094
2025-03-08 14:23:38.283,77.96954314720811,5.438339643780779,-5.652431870559965,-0.2140939820964914,-0.0090905757390237
2025-03-08 14:23:38.285,77.96954314720811,5.373291415622063,-5.582950228531736,-0.2096605736367874,-0.0093658388483154
2025-03-08 14:23:38.287,77.96954314720811,5.302570739357448,-5.508856234911629,-0.2062872617975122,-0.0093901934606074
2025-03-08 14:23:38.289,77.96954314720811,5.226882650859094,-5.431615412326032,-0.2047345332473407,-0.0087654848302838
2025-03-08 14:23:38.291,77.96954314720811,5.148052783410144,-5.353159713867949,-0.2051087076867782,-0.0074332111532666
2025-03-08 14:23:38.293,77.96954314720811,5.067643667313265,-5.2744256425141245,-0.2067837576976142,-0.0057649403012525
2025-03-08 14:23:38.295,77.96954314720811,4.98625308912402,-5.19492753281676,-0.2086762312360414,-0.0043782076143732
2025-03-08 14:23:38.297,77.96954314720811,4.903790563571955,-5.113505546825538,-0.2097167756509676,-0.0038175441233184
2025-03-08 14:23:38.299,77.96954314720811,4.8201515567834745,-5.029415633688639,-0.2092658740547499,-0.0043310513043493
2025-03-08 14:23:38.301,77.96954314720811,4.735731621273772,-4.943018370883229,-0.2072885515290199,-0.0058423275065679
2025-03-08 14:23:38.303,77.96954314720811,4.651622971712638,-4.85588802706523,-0.2042668621597169,-0.0080369077778805
2025-03-08 14:23:38.305,77.96954314720811,4.569407799930274,-4.77036364692779,-0.2009576588430348,-0.0104490448960894
2025-03-08 14:23:38.307,77.96954314720811,4.490504379224925,-4.688626866962923,-0.1981243047167295,-0.0125368143913436
2025-03-08 14:23:38.309,77.96954314720811,4.415443528931547,-4.611763199027574,-0.196321492173725,-0.0138066072391763
2025-03-08 14:23:38.311,77.96954314720811,4.343690902275947,-4.539454640207279,-0.1957655649250439,-0.0140034301338974
2025-03-08 14:23:38.313,77.96954314720811,4.274085273624803,-4.470391856766273,-0.1963084147694729,-0.0132715824634808
2025-03-08 14:23:38.315,77.96954314720811,4.205266029924356,-4.402792891632721,-0.197528697693077,-0.0121361852830554
2025-03-08 14:23:38.317,77.96954314720811,4.135628329007542,-4.334552336585988,-0.1989258477564676,-0.0112517099181973
2025-03-08 14:23:38.318,77.96954314720811,4.063148950861395,-4.2632900527687045,-0.2001429462917392,-0.0110499733775501
2025-03-08 14:23:38.320,77.96954314720811,3.9857147480653294,-4.186804056989312,-0.2010911576828388,-0.0115274972217552
2025-03-08 14:23:38.322,77.96954314720811,3.9019785223012895,-4.103855103388211,-0.2018784344413368,-0.0123219122817674
2025-03-08 14:23:38.324,77.96954314720811,3.812126021768422,-4.014716736690106,-0.2025925730095125,-0.0129921055369607
2025-03-08 14:23:38.326,77.96954314720811,3.718024842417786,-3.921158158524924,-0.2031351788796025,-0.0132624111629178
2025-03-08 14:23:38.328,77.96954314720811,3.622724224868111,-3.8259939145683375,-0.2032715569073805,-0.0130772408088614
2025-03-08 14:23:38.330,77.96954314720811,3.5295508881840494,-3.732408235496199,-0.2028592185905272,-0.0125096969104395
2025-03-08 14:23:38.332,77.96954314720811,3.441118519363388,-3.6431681535326823,-0.2020515091924498,-0.0116606743096174
2025-03-08 14:23:38.334,77.96954314720811,3.3586763262112584,-3.559973884582907,-0.2012994369887163,-0.0106444751130241
2025-03-08 14:23:38.336,77.96954314720811,3.2821312239810854,-3.483273086192132,-0.2011437445005067,-0.0096470762485381
2025-03-08 14:23:38.338,77.96954314720811,3.210609880687956,-3.412543974922295,-0.2019359804410193,-0.0089367340162267
2025-03-08 14:23:38.340,77.96954314720811,3.1430897155974677,-3.3467368714568337,-0.2036490462427346,-0.0087320695362865
2025-03-08 14:23:38.342,77.96954314720811,3.078864659137834,-3.2847290243538443,-0.2058662598857177,-0.0090001962223043
2025-03-08 14:23:38.344,77.96954314720811,3.017931091376253,-3.22588835643506,-0.2079591638830231,-0.0093616175138888
2025-03-08 14:23:38.346,77.96954314720811,2.96116158585422,-3.170555733963609,-0.2093960507460402,-0.0092056439905467
2025-03-08 14:23:38.348,77.96954314720811,2.909819199286789,-3.1198541984017822,-0.210036905152826,-0.0079872061976384
2025-03-08 14:23:38.350,77.96954314720811,2.8644031020973983,-3.074626210681916,-0.2102250177226913,-0.0055672967205711
2025-03-08 14:23:38.352,77.96954314720811,2.8237130860168294,-3.0343044562292656,-0.2105932823852594,-0.0023761199667842
2025-03-08 14:23:38.354,77.96954314720811,2.785126017848018,-2.9968397194452905,-0.2117156169778498,0.0007745972816146
2025-03-08 14:23:38.356,77.96954314720811,2.7460239270725038,-2.959859484736344,-0.2138374765433561,0.0031578139891963
2025-03-08 14:23:38.358,77.96954314720811,2.705285635573744,-2.922099154198984,-0.2168154412303413,0.0045621952215286
2025-03-08 14:23:38.360,77.96954314720811,2.6638671268887326,-2.884091535444716,-0.2202263348999525,0.0053998159946567
2025-03-08 14:23:38.361,77.96954314720811,2.6243453714137424,-2.8478857077580244,-0.2235422661901236,0.0064602177224011
2025-03-08 14:23:38.363,77.96954314720811,2.5898350803016195,-2.8161379052773814,-0.226304757930186,0.0084938307043524
2025-03-08 14:23:38.365,77.96954314720811,2.562750096171962,-2.7910113928266957,-0.2282632323427317,0.011835527020691
2025-03-08 14:23:38.367,77.96954314720811,2.5439236660372324,-2.7733635191637407,-0.2294417913538537,0.0162351157169439
2025-03-08 14:23:38.369,77.96954314720811,2.5325347185995435,-2.7626438215917912,-0.2301110438104583,0.0210053074033189
2025-03-08 14:23:38.371,77.96954314720811,2.5267624862295843,-2.7574372023864253,-0.2306766597978836,0.0254217771255295
2025-03-08 14:23:38.373,77.96954314720811,2.5245397165620886,-2.756059627066468,-0.2315218572219304,0.0290854385932206
2025-03-08 14:23:38.375,77.96954314720811,2.52394934787926,-2.756807584474001,-0.2328601864977804,0.0319815573518912
2025-03-08 14:23:38.377,77.96954314720811,2.523449200859683,-2.758119231724104,-0.2346719838312978,0.0342752429840115
2025-03-08 14:23:38.379,77.96954314720811,2.522216179235444,-2.7589794137705352,-0.2367651902513448,0.036106232786319
2025-03-08 14:23:38.381,77.96954314720811,2.520361173209572,-2.759269346826323,-0.2389101317129812,0.0375577854720939
2025-03-08 14:23:38.383,77.96954314720811,2.5185535477674805,-2.75949623619768,-0.2409446486436982,0.0387521729266178
2025-03-08 14:23:38.385,77.96954314720811,2.517185987228771,-2.759980567340873,-0.2427965423854955,0.0399230985864797
2025-03-08 14:23:38.387,77.96954314720811,2.515812979759442,-2.760263974901205,-0.2444529596083076,0.0413789013965255
2025-03-08 14:23:38.389,77.96954314720811,2.51336217383222,-2.7592892712981256,-0.2459290643334468,0.0433950654642902
2025-03-08 14:23:38.391,77.96954314720811,2.508864003736231,-2.756120129378037,-0.2472580950414478,0.0461276617437252
2025-03-08 14:23:38.393,77.96954314720811,2.5020820095825465,-2.7505741316473937,-0.2484940939470903,0.0495734609780318
2025-03-08 14:23:38.395,77.96954314720811,2.493670699487541,-2.74337722016728,-0.2497084948121233,0.0535383036283604
2025-03-08 14:23:38.397,77.96954314720811,2.4848459127240528,-2.7358125165765177,-0.2509685799157242,0.0576321677912649
2025-03-08 14:23:38.399,77.96954314720811,2.4767645498550643,-2.729063826774724,-0.252301254646014,0.0613833656871942
2025-03-08 14:23:38.401,77.96954314720811,2.469978778732597,-2.7236355423903147,-0.2536587429341995,0.0644839607424793
2025-03-08 14:23:38.402,77.96954314720811,2.464318879839894,-2.7192238966523976,-0.2549069976942887,0.0670008345262106
2025-03-08 14:23:38.404,77.96954314720811,2.4591662216786463,-2.715017723364776,-0.2558534843163746,0.0693379025746078
2025-03-08 14:23:38.406,77.96954314720811,2.453687671646595,-2.7100027104443227,-0.2563170232820804,0.0719154834035611
2025-03-08 14:23:38.408,77.96954314720811,2.446793589343978,-2.7030118721383944,-0.2562202691017212,0.0748000676741579
2025-03-08 14:23:38.410,77.96954314720811,2.4371206563644456,-2.69278724628161,-0.2556685778609178,0.0776136245407846
2025-03-08 14:23:38.412,77.96954314720811,2.423413967676773,-2.6783814897350773,-0.2549695113665744,0.07983683440541
2025-03-08 14:23:38.414,77.96954314720811,2.405168180045758,-2.6597087410412907,-0.2545425514270817,0.0812540522177019
2025-03-08 14:23:38.416,77.96954314720811,2.383035596616263,-2.6377425613558105,-0.2547089561787938,0.0821294171848854
2025-03-08 14:23:38.418,77.96954314720811,2.358717872790124,-2.614179335675469,-0.2554634553623023,0.0829505187682631
2025-03-08 14:23:38.420,77.96954314720811,2.3343843680361704,-2.590793578994469,-0.2564112045836534,0.0840040874615158
2025-03-08 14:23:38.422,77.96954314720811,2.3117824846383157,-2.5687434928886264,-0.2569630031046982,0.0852037818473825
2025-03-08 14:23:38.424,77.96954314720811,2.291392819902128,-2.548053105022273,-0.2566622811624576,0.0863085833485144
2025-03-08 14:23:38.426,77.96954314720811,2.2722333230191967,-2.5276210120594675,-0.2553896860880435,0.0872772009007264
2025-03-08 14:23:38.428,77.96954314720811,2.252643831360049,-2.505926959671108,-0.2532851261037616,0.08839268487099
2025-03-08 14:23:38.430,77.96954314720811,2.231524269468704,-2.481967675157366,-0.2504454039966622,0.090013594967148
2025-03-08 14:23:38.432,77.96954314720811,2.209027177826788,-2.4556475593515352,-0.2466223802404828,0.0921560539287494
2025-03-08 14:23:38.434,77.96954314720811,2.186288259413076,-2.4274508408261517,-0.2411645805713859,0.0943140492360265
2025-03-08 14:23:38.436,77.96954314720811,2.1646846928575267,-2.397989601276907,-0.2333069081348539,0.095773224715037
2025-03-08 14:23:38.438,77.96954314720811,2.1452258381785105,-2.3679144469922524,-0.2226906091707475,0.0962372794838547
2025-03-08 14:23:38.440,77.96954314720811,2.1281140372123626,-2.3379390376518296,-0.2098270013979719,0.0962493410076388
2025-03-08 14:23:38.442,77.96954314720811,2.1123027498383142,-2.308524277688666,-0.196223529221973,0.0969909525910604
2025-03-08 14:23:38.443,77.96954314720811,2.0953176716840765,-2.279386429091594,-0.1840707589165072,0.0995310800238122
2025-03-08 14:23:38.445,77.96954314720811,2.073843765818664,-2.249451646662115,-0.1756098822390084,0.1040648154270814
2025-03-08 14:23:38.447,77.96954314720811,2.0450607036372013,-2.217473585461353,-0.1724148829808938,0.1097103185638292
2025-03-08 14:23:38.449,77.96954314720811,2.008033494721825,-2.182862158441508,-0.1748306646691104,0.1150051694747004
2025-03-08 14:23:38.451,77.96954314720811,1.964382555603827,-2.1461699498871853,-0.1817893951574056,0.1187391336683541
2025-03-08 14:23:38.453,77.96954314720811,1.9178535803129648,-2.1089950947652527,-0.191143515369217,0.1205623449035644
2025-03-08 14:23:38.455,77.96954314720811,1.8728603324410875,-2.0732848976914715,-0.2004265662059117,0.1210076742181868
2025-03-08 14:23:38.457,77.96954314720811,1.8325787750327616,-2.040281302002124,-0.2077045277937755,0.1209837587034891
2025-03-08 14:23:38.459,77.96954314720811,1.797640591751192,-2.009773527511057,-0.2121349361660024,0.1211409706720756
2025-03-08 14:23:38.461,77.96954314720811,1.7662939773602304,-1.9803318526781903,-0.2140398750149819,0.1215637949867538
2025-03-08 14:23:38.463,77.96954314720811,1.7358435243416095,-1.9503940902013777,-0.2145525646710625,0.1219839098233226
2025-03-08 14:23:38.465,77.96954314720811,1.7041961575828193,-1.9192520279516765,-0.2150578682894438,0.1223251144593636
2025-03-08 14:23:38.467,77.96954314720811,1.670501586778892,-1.887174348488268,-0.2166747588705979,0.1231316106461459
2025-03-08 14:23:38.469,77.96954314720811,1.6348843449051664,-1.8548445230432196,-0.2199621746976674,0.1254738021150235
2025-03-08 14:23:38.471,77.96954314720811,1.5978711172165512,-1.8227827378200665,-0.2249136166200437,0.1302867517846462
2025-03-08 14:23:38.473,77.96954314720811,1.5598837520146789,-1.7910524386080826,-0.2311706819525598,0.1375554287104794
2025-03-08 14:23:38.475,77.96954314720811,1.5208488026106888,-1.7591350910305297,-0.2382882828531332,0.1459549159026805
2025-03-08 14:23:38.477,77.96954314720811,1.4800814307987813,-1.7259761712273514,-0.245896733614701,0.1532799629587684
2025-03-08 14:23:38.479,77.96954314720811,1.4366648079575213,-1.690377463538647,-0.2537146472762477,0.1574491001322123
2025-03-08 14:23:38.481,77.96954314720811,1.3901763880921274,-1.6516355274672685,-0.2614611295023841,0.1574869826202697
2025-03-08 14:23:38.483,77.96954314720811,1.34128518944686,-1.6100182968166017,-0.2687350960201276,0.1539436392498189
2025-03-08 14:23:38.485,77.96954314720811,1.2919134590298775,-1.5668458452280802,-0.2749343735424001,0.1485862698312853
2025-03-08 14:23:38.486,77.96954314720811,1.2449466031753758,-1.5242630113553777,-0.2793183943378783,0.1435953419503343
2025-03-08 14:23:38.488,77.96954314720811,1.203473734567179,-1.4847580230739006,-0.2812862734439201,0.1406820465077648
2025-03-08 14:23:38.490,77.96954314720811,1.1696144691845964,-1.450391575546526,-0.2807790898679708,0.1404804103415443
2025-03-08 14:23:38.492,77.96954314720811,1.143462833312921,-1.4220052175311737,-0.2785443659771984,0.1423922511645999
2025-03-08 14:23:38.494,77.96954314720811,1.1229387269387965,-1.3989448104217133,-0.2760080631987553,0.1449063381963815
2025-03-08 14:23:38.496,77.96954314720811,1.1047444325458011,-1.3794555186890542,-0.2747130636537516,0.1462707026750507
2025-03-08 14:23:38.498,77.96954314720811,1.085750533698759,-1.3613182077101198,-0.2755696493309825,0.1452591590672553
2025-03-08 14:23:38.500,77.96954314720811,1.0640120954773342,-1.3423519128907366,-0.2783417906838424,0.1417160016330968
2025-03-08 14:23:38.502,77.96954314720811,1.039183285366959,-1.3209019310315917,-0.281720617040162,0.1366458724077865
2025-03-08 14:23:38.504,77.96954314720811,1.0124431108437997,-1.29645250714149,-0.2840113658260057,0.1317960822891866
2025-03-08 14:23:38.506,77.96954314720811,0.9859161584158722,-1.2699897188781548,-0.2840755280227263,0.1288732173967602
2025-03-08 14:23:38.508,77.96954314720811,0.9616208168495332,-1.243610503428408,-0.2819916519088364,0.1287172967113199
2025-03-08 14:23:38.510,77.96954314720811,0.9404545811458064,-1.2195020963425731,-0.27904947799072,0.1308627693151113
2025-03-08 14:23:38.512,77.96954314720811,0.9219450740232982,-1.1990082308032466,-0.2770651168083639,0.1337671165528629
2025-03-08 14:23:38.514,77.96954314720811,0.9049588876237252,-1.1823338020406504,-0.2773768716033443,0.1355818066009413
2025-03-08 14:23:38.516,77.96954314720811,0.8888236122082953,-1.1688909446311364,-0.2800692868405774,0.1350282668670274
2025-03-08 14:23:38.518,77.96954314720811,0.8741445224780673,-1.1580205596201696,-0.283877988934528,0.1319769976136767
2025-03-08 14:23:38.520,77.96954314720811,0.8628820094028418,-1.1497392546643712,-0.2868591945291285,0.1275265239099875
2025-03-08 14:23:38.522,77.96954314720811,0.8575129802457185,-1.1449658534568885,-0.2874548199242761,0.1235192492041117
2025-03-08 14:23:38.524,77.96954314720811,0.8594308868736025,-1.1447740545830771,-0.2853451116904182,0.1216150837770406
2025-03-08 14:23:38.526,77.96954314720811,0.8673933800048685,-1.1490042624508927,-0.2816128234272415,0.1223478912386431
2025-03-08 14:23:38.527,77.96954314720811,0.8772471717890211,-1.1553842848837663,-0.2781390508202456,0.1247358331353376
2025-03-08 14:23:38.529,77.96954314720811,0.8835441993743134,-1.1601126607503416,-0.2765703956927733,0.1267355515613381
2025-03-08 14:23:38.531,77.96954314720811,0.8822999683109676,-1.1597276271428192,-0.2774295897250011,0.1263013964516989
2025-03-08 14:23:38.533,77.96954314720811,0.873248395631219,-1.1531179127363942,-0.279871444661794,0.1224655601836777
2025-03-08 14:23:38.535,77.96954314720811,0.8602039541491338,-1.142433557437513,-0.282231527611384,0.1158921045268778
2025-03-08 14:23:38.537,77.96954314720811,0.8491919132388892,-1.1322405855544628,-0.2830505934340336,0.1086394824601499
2025-03-08 14:23:38.539,77.96954314720811,0.8452264972998087,-1.127179130553643,-0.2819545510752846,0.1032055582751176
2025-03-08 14:23:38.541,77.96954314720811,0.8495128181959086,-1.1293554245502404,-0.2798445206809291,0.1012646993876829
2025-03-08 14:23:38.543,77.96954314720811,0.8587949335145361,-1.1370779288282165,-0.278284905910296,0.1027432264743666
2025-03-08 14:23:38.545,77.96954314720811,0.8672428311787512,-1.145719091531077,-0.278478167028966,0.1058023174333413
2025-03-08 14:23:38.547,77.96954314720811,0.8695265779462188,-1.1499758329778522,-0.280451157697725,0.1078242143153283
2025-03-08 14:23:38.549,77.96954314720811,0.8631042131151914,-1.146046356131048,-0.2829440416810712,0.1069025312353456
2025-03-08 14:23:38.551,77.96954314720811,0.8487145362319524,-1.1328240215862253,-0.2841113800793881,0.1030696931075878
2025-03-08 14:23:38.553,77.96954314720811,0.829461935914142,-1.1121562261184648,-0.2826961810305504,0.0987459202137824
2025-03-08 14:23:38.555,77.96954314720811,0.8094476224099152,-1.0884470580138756,-0.2790013224977216,0.0983906509547974
2025-03-08 14:23:38.557,77.96954314720811,0.7926656328555756,-1.0676273165163666,-0.2749635665000192,0.107626269890397
2025-03-08 14:23:38.559,77.96954314720811,0.7825660371705706,-1.0556107381048032,-0.2730465795391314,0.1320237263551179
2025-03-08 14:23:38.561,77.96954314720811,0.782394971706035,-1.0567502679168128,-0.2743571703994977,0.1755439475059743
2025-03-08 14:23:38.563,77.96954314720811,0.7958211139135507,-1.0727871704403786,-0.2769679261661473,0.2386981362244259
2025-03-08 14:23:38.565,77.96954314720811,0.8268550036374472,-1.1023406174553,-0.2754874788447003,0.3169051397524597
2025-03-08 14:23:38.567,77.96954314720811,0.8785488484102588,-1.1408215750681323,-0.2622745870647626,0.3998879930810167
2025-03-08 14:23:38.568,77.96954314720811,0.951221865831687,-1.1809125727785676,-0.2296925627429162,0.4727916167743562
2025-03-08 14:23:38.570,77.96954314720811,1.0415857347910702,-1.2138210715619115,-0.1722371879403073,0.5190503216085264
2025-03-08 14:23:38.572,77.96954314720811,1.143464468909236,-1.2311801169480625,-0.0877174945172846,0.5243564370063691
2025-03-08 14:23:38.574,77.96954314720811,1.2496718786793182,-1.2272162689402109,0.0224537680629514,0.4807140829962544
2025-03-08 14:23:38.576,77.96954314720811,1.3539179202450495,-1.2007274359548876,0.153188647552361,0.389433014002017
2025-03-08 14:23:38.578,77.96954314720811,1.4513801293852988,-1.1560429371731753,0.2953353605451342,0.2618603598096092
2025-03-08 14:23:38.580,77.96954314720811,1.5369652825772069,-1.1017576327752716,0.4352058233137759,0.1169179382319763
2025-03-08 14:23:38.582,77.96954314720811,1.601852217873465,-1.046831159328104,0.5550192373131235,-0.0243383568420101
2025-03-08 14:23:38.584,77.96954314720811,1.631036694891326,-0.9957441115869292,0.6352907673805445,-0.1451096227014189
2025-03-08 14:23:38.586,77.96954314720811,1.605171921276538,-0.9458984861095738,0.6592716245918693,-0.237145559146787
2025-03-08 14:23:38.588,77.96954314720811,1.5076778676840477,-0.889471503777058,0.6182045587213345,-0.3008855859192683
2025-03-08 14:23:38.590,77.96954314720811,1.3342508967476503,-0.8189932589810349,0.5152558380207565,-0.3418574015267468
2025-03-08 14:23:38.592,77.96954314720811,1.0994495138763292,-0.733342885252998,0.3661048343838489,-0.3658543109327589
2025-03-08 14:23:38.594,77.96954314720811,0.8357603883338479,-0.6404252557591473,0.1953333439286781,-0.3757858286237229
2025-03-08 14:23:38.596,77.96954314720811,0.5841583329135314,-0.5546571164732349,0.0294994334957954,-0.3715917090732282
2025-03-08 14:23:38.598,77.96954314720811,0.3799569806521909,-0.4905267619003852,-0.1105715583686808,-0.3523684492118452
2025-03-08 14:23:38.600,77.96954314720811,0.2410817432099597,-0.4560681321250652,-0.2149881600898964,-0.3185999141993073
2025-03-08 14:23:38.602,77.96954314720811,0.1650233090988768,-0.450141253417919,-0.2851197094478153,-0.272942350296233
2025-03-08 14:23:38.604,77.96954314720811,0.1353232063277449,-0.4645973283589256,-0.3292758810517518,-0.2195530192470114
2025-03-08 14:23:38.606,77.96954314720811,0.1323713090815489,-0.489026660508995,-0.3566571043179326,-0.1629722318659543
2025-03-08 14:23:38.608,77.96954314720811,0.1415836306434367,-0.5147570552533829,-0.3731751713704673,-0.1074228871316209
2025-03-08 14:23:38.610,77.96954314720811,0.1555827757858904,-0.5364691255871803,-0.3808880904198741,-0.0566280126346187
2025-03-08 14:23:38.611,77.96954314720811,0.1718832505584715,-0.5519316041083605,-0.3800500879678559,-0.0137545842300088
2025-03-08 14:23:38.613,77.96954314720811,0.1896515376925664,-0.5610060837925154,-0.3713562741959332,0.018818631901876
2025-03-08 14:23:38.615,77.96954314720811,0.207913093935781,-0.5645924077214385,-0.3566810353907338,0.0398799094089032
2025-03-08 14:23:38.617,77.96954314720811,0.2254343104433634,-0.5638395692811174,-0.3384069737787828,0.0497012677978201
2025-03-08 14:23:38.619,77.96954314720811,0.2413314414173807,-0.5598995830433293,-0.3185698497778532,0.0501043957525947
2025-03-08 14:23:38.621,77.96954314720811,0.2554418175899747,-0.5541681390495873,-0.2987280227793014,0.044159685081984
2025-03-08 14:23:38.623,77.96954314720811,0.2680395487912999,-0.5484511376775894,-0.2804132834072389,0.0354815334471971
2025-03-08 14:23:38.625,77.96954314720811,0.2791344593044008,-0.5445633369890404,-0.2654305654701351,0.0272436254890696
2025-03-08 14:23:38.627,77.96954314720811,0.2880014065235171,-0.5435604260204292,-0.2555607005724573,0.0212733157338171
2025-03-08 14:23:38.629,77.96954314720811,0.2934297243497779,-0.5452806403324405,-0.2518525902818066,0.0177013083405071
2025-03-08 14:23:38.631,77.96954314720811,0.2945893766763604,-0.5486087430287027,-0.2540210337065032,0.0154227316153235
2025-03-08 14:23:38.633,77.96954314720811,0.2919678696564181,-0.5523203383009995,-0.2603541288265796,0.0131173278601397
2025-03-08 14:23:38.635,77.96954314720811,0.2878465087835671,-0.5560623857427313,-0.2682175297619985,0.0101759130052232
2025-03-08 14:23:38.637,77.96954314720811,0.285963603222969,-0.5609119129504436,-0.2749499550392437,0.0069756011154542
2025-03-08 14:23:38.639,77.96954314720811,0.2901888304058066,-0.5689554066094755,-0.2787682140383807,0.0044566641330885
2025-03-08 14:23:38.641,77.96954314720811,0.3025368683832242,-0.5818244114764471,-0.2792891735577713,0.0034003425532989
2025-03-08 14:23:38.643,77.96954314720811,0.3216215889979053,-0.5990779801194815,-0.2774580143318838,0.003875224614484
2025-03-08 14:23:38.645,77.96954314720811,0.3427938350872322,-0.6177511771449273,-0.274958958045062,0.0051224427821637
2025-03-08 14:23:38.647,77.96954314720811,0.3601854500487262,-0.6335775995265255,-0.2733937581343858,0.0059103324400349
2025-03-08 14:23:38.649,77.96954314720811,0.3695350694887859,-0.6430907909589717,-0.2735573225647625,0.0051722021812432
2025-03-08 14:23:38.651,77.96954314720811,0.3702001508909305,-0.6452822313413946,-0.2750836737101105,0.0025816070182886
2025-03-08 14:23:38.652,77.96954314720811,0.3653152935755676,-0.6419435210060009,-0.2766298126487453,-0.0012594033934066
2025-03-08 14:23:38.654,77.96954314720811,0.3600077731568037,-0.6365813806447596,-0.2765751846043165,-0.0051055102979891
2025-03-08 14:23:38.656,77.96954314720811,0.3585458261468671,-0.6324960883554703,-0.2739518313156178,-0.007642169098032
2025-03-08 14:23:38.658,77.96954314720811,0.3620273158678229,-0.6311487826153098,-0.269123028019435,-0.0080620053421404
2025-03-08 14:23:38.660,77.96954314720811,0.368070919183823,-0.6318416498147582,-0.2637722842071829,-0.0064060929643656
2025-03-08 14:23:38.662,77.96954314720811,0.3726336470421854,-0.6327418132737643,-0.2601097121138639,-0.0035238142602108
2025-03-08 14:23:38.664,77.96954314720811,0.372544798453444,-0.6322264443389534,-0.2596831839030828,-0.0006576001798058
2025-03-08 14:23:38.666,77.96954314720811,0.3670793315756454,-0.629552634829339,-0.2624748331169325,0.0011343857850804
2025-03-08 14:23:38.668,77.96954314720811,0.3579854127027114,-0.6248240273070971,-0.2668401360221456,0.0014295739141333
2025-03-08 14:23:38.670,77.96954314720811,0.3484673058585457,-0.6188224678918324,-0.2703566748352826,0.0006029438483814
2025-03-08 14:23:38.672,77.96954314720811,0.3417636067347559,-0.6128543204188402,-0.2710922178851174,-0.000344474302028
2025-03-08 14:23:38.674,77.96954314720811,0.3396969065218569,-0.608246821148619,-0.2685514103978542,-0.0002931540570601
2025-03-08 14:23:38.676,77.96954314720811,0.3416926308382504,-0.6054898872676795,-0.2637987439881453,0.0013115122296605
2025-03-08 14:23:38.678,77.96954314720811,0.3449240032425525,-0.6037063525131359,-0.2587838287449628,0.0040142516694478
2025-03-08 14:23:38.680,77.96954314720811,0.345702986198641,-0.6010151122384648,-0.255313597375395,0.0065226184200567
2025-03-08 14:23:38.682,77.96954314720811,0.3413274630672975,-0.5955357322473042,-0.2542097321388253,0.0074415957477711
2025-03-08 14:23:38.684,77.96954314720811,0.3312987381399124,-0.586318397577883,-0.2550211136922832,0.0060936898329809
2025-03-08 14:23:38.686,77.96954314720811,0.317335831630443,-0.5737024403613956,-0.2563680540053474,0.002924535823863
2025-03-08 14:23:38.688,77.96954314720811,0.3022877935373141,-0.5589808487495815,-0.2566944914021897,-0.0007014173261747
2025-03-08 14:23:38.690,77.96954314720811,0.2885156612180431,-0.5435474236517737,-0.25503318963897,-0.0031727258824896
2025-03-08 14:23:38.692,77.96954314720811,0.2766600960235745,-0.5280931870292296,-0.2514345094600752,-0.0034363184562611
2025-03-08 14:23:38.693,77.96954314720811,0.2656658065682014,-0.5125695399900122,-0.2469051433537192,-0.0015683429704154
2025-03-08 14:23:38.695,77.96954314720811,0.2540777136087866,-0.4969891215725576,-0.2429128094575643,0.0011756905762247
2025-03-08 14:23:38.697,77.96954314720811,0.2414938374898563,-0.4821687653988373,-0.2406763208390478,0.0029276135931181
2025-03-08 14:23:38.699,77.96954314720811,0.2289439189822627,-0.4695078449540648,-0.2405653100434305,0.0021910564615965
2025-03-08 14:23:38.701,77.96954314720811,0.2181026397244194,-0.46001983196983,-0.2419185671228802,-0.001251127610395
2025-03-08 14:23:38.703,77.96954314720811,0.2102738756596597,-0.453670373603707,-0.243397863401126,-0.0060729378243088
2025-03-08 14:23:38.705,77.96954314720811,0.2058800660780116,-0.4495751610438595,-0.2436964509818724,-0.0100413507154281
2025-03-08 14:23:38.707,77.96954314720811,0.2043735190768116,-0.4465802946699636,-0.2422081223452384,-0.0112447150946629
2025-03-08 14:23:38.709,77.96954314720811,0.2042639559211653,-0.4435557133166558,-0.2392930951503732,-0.0091746592790941
2025-03-08 14:23:38.711,77.96954314720811,0.203355949133958,-0.4393862453619348,-0.2360316251883758,-0.004981873076463
2025-03-08 14:23:38.713,77.96954314720811,0.1994515979855641,-0.4330945828264214,-0.2336443050246584,-0.0007703901628107
2025-03-08 14:23:38.715,77.96954314720811,0.1914267169604159,-0.4243212553302965,-0.2328958495836973,0.0015868930466339
2025-03-08 14:23:38.717,77.96954314720811,0.1802198241583471,-0.4139776179296239,-0.2337590956916886,0.0013934622789118
2025-03-08 14:23:38.719,77.96954314720811,0.1691614989879363,-0.4046353690586797,-0.2354751623915107,-0.0006450538841701
2025-03-08 14:23:38.721,77.96954314720811,0.1631448106924655,-0.4001064421653597,-0.2369629140430005,-0.0029515770839312
2025-03-08 14:23:38.723,77.96954314720811,0.1665759597131931,-0.403931817614496,-0.2373571307838408,-0.0040245755073125
2025-03-08 14:23:38.725,77.96954314720811,0.1809799628644159,-0.4173708696686808,-0.236392170227043,-0.0032591637021047
2025-03-08 14:23:38.727,77.96954314720811,0.2038248346115628,-0.4382808801921643,-0.234457299804678,-0.0011619049313659
2025-03-08 14:23:38.729,77.96954314720811,0.2295371114719913,-0.4618774914578522,-0.2323416251595069,0.0011384379244483
2025-03-08 14:23:38.731,77.96954314720811,0.2520797962397447,-0.4828993858249599,-0.2308208256571717,0.0026956379800236
2025-03-08 14:23:38.733,77.96954314720811,0.2674146811179768,-0.4976889234512486,-0.2302754690679021,0.0032912842336219
2025-03-08 14:23:38.735,77.96954314720811,0.2746122135886299,-0.5051164288686376,-0.2305054323646937,0.0033955604535196
2025-03-08 14:23:38.736,77.96954314720811,0.2755411047014748,-0.5063721850348967,-0.2308322875223334,0.0036510535325138
2025-03-08 14:23:38.738,77.96954314720811,0.2737231457744205,-0.5041799461508779,-0.2304579975979362,0.0042938726538431
2025-03-08 14:23:38.740,77.96954314720811,0.2728876690506191,-0.5017908109289397,-0.2289043292533424,0.0049516747913921
2025-03-08 14:23:38.742,77.96954314720811,0.2756454581949776,-0.5019254313353074,-0.2262811509055235,0.0049726055706015
2025-03-08 14:23:38.744,77.96954314720811,0.282756331633164,-0.5059649509614594,-0.2232097877047651,0.0040091041675528
2025-03-08 14:23:38.746,77.96954314720811,0.2932906605997751,-0.5137259051536234,-0.2204364036284899,0.0023648739361149
2025-03-08 14:23:38.748,77.96954314720811,0.3054804237556558,-0.5238484190742432,-0.2183691449957968,0.00081876024382
2025-03-08 14:23:38.750,77.96954314720811,0.3177173427035057,-0.5345434999278325,-0.216827297268852,7.02645603984026e-05
2025-03-08 14:23:38.752,77.96954314720811,0.3292492111397724,-0.5444139262660048,-0.2151658452722637,0.0002426980890286
2025-03-08 14:23:38.754,77.96954314720811,0.3403263429861357,-0.5530246852549312,-0.2126994623392864,0.0008329434557154
2025-03-08 14:23:38.756,77.96954314720811,0.3516879496312925,-0.560831160558567,-0.2091443209054549,0.0011571593210423
2025-03-08 14:23:38.758,77.96954314720811,0.3636229849911549,-0.568404007971976,-0.2047821230021986,0.0009440417899614
2025-03-08 14:23:38.760,77.96954314720811,0.3752999190867612,-0.5755497380633231,-0.2002509092497264,0.0005866628796842
2025-03-08 14:23:38.762,77.96954314720811,0.3849688364944023,-0.5810963557607204,-0.1961285999642422,0.0008336948921753
2025-03-08 14:23:38.764,77.96954314720811,0.3908566539455444,-0.5834576402865982,-0.192602057515699,0.0021670900448636
2025-03-08 14:23:38.766,77.96954314720811,0.3919742486574803,-0.5813985756555795,-0.1894253885564348,0.0043649723914793
2025-03-08 14:23:38.768,77.96954314720811,0.3883040228199483,-0.5744584405110555,-0.1861554694392953,0.0065896659129996
2025-03-08 14:23:38.770,77.96954314720811,0.3804695980833335,-0.5629488350604461,-0.182480278707859,0.0079273910712209
2025-03-08 14:23:38.772,77.96954314720811,0.3692679784549086,-0.5476908298760592,-0.1784238830018211,0.0079624062280437
2025-03-08 14:23:38.774,77.96954314720811,0.3553841752909014,-0.5296908154747391,-0.1743076616063033,0.0069736432062536
2025-03-08 14:23:38.776,77.96954314720811,0.3394970920739918,-0.5100031460453431,-0.1705070653448147,0.0056910500037799
2025-03-08 14:23:38.777,77.96954314720811,0.3227052525402196,-0.4898792758406645,-0.1671750247947607,0.0048780961257504
2025-03-08 14:23:38.779,77.96954314720811,0.3067565920752717,-0.4708736840440097,-0.164118083735897,0.0050101190856459
2025-03-08 14:23:38.781,77.96954314720811,0.2935432842154026,-0.4544449417376136,-0.1609026396300893,0.00613063959775
2025-03-08 14:23:38.783,77.96954314720811,0.2840426050789151,-0.4411627211282659,-0.1571210884538263,0.0078781998645649
2025-03-08 14:23:38.785,77.96954314720811,0.2776178017482846,-0.4302697098628306,-0.1526528706788375,0.009685890867329
2025-03-08 14:23:38.787,77.96954314720811,0.2723591713543321,-0.4201097078171579,-0.1477514890141718,0.0110934489238025
2025-03-08 14:23:38.789,77.96954314720811,0.2661309273032315,-0.4090110414925902,-0.1428810565897274,0.011994529479133
2025-03-08 14:23:38.791,77.96954314720811,0.2574213295208652,-0.3958156537906319,-0.1383952564729956,0.0126522645427655
2025-03-08 14:23:38.793,77.96954314720811,0.2455649094075597,-0.3798574337493599,-0.1342934464149403,0.0134893210617586
2025-03-08 14:23:38.795,77.96954314720811,0.2306095151319711,-0.3608632338173192,-0.1302546307849383,0.0148188771000371
2025-03-08 14:23:38.797,77.96954314720811,0.2131550697442047,-0.339088139717395,-0.1259339722837748,0.0166917874027827
2025-03-08 14:23:38.799,77.96954314720811,0.1941718006680882,-0.315462146746508,-0.1212912387357887,0.018921454546557
2025-03-08 14:23:38.801,77.96954314720811,0.1747737792444385,-0.291461067939508,-0.1166881717249988,0.0212177645389695
2025-03-08 14:23:38.803,77.96954314720811,0.1560539492860446,-0.2687159485432717,-0.1126628725575968,0.0233121533437937
2025-03-08 14:23:38.805,77.96954314720811,0.1389710906893686,-0.2485020184003021,-0.1095317910899629,0.0250139549440161
2025-03-08 14:23:38.807,77.96954314720811,0.124164233366814,-0.2312674112029991,-0.1071040310961934,0.026221010151225
2025-03-08 14:23:38.809,77.96954314720811,0.1118025519933553,-0.2165253419658091,-0.1047236330060259,0.0269296208861162
2025-03-08 14:23:38.811,77.96954314720811,0.101736010720852,-0.2033720160442045,-0.1016368381780479,0.0272625280544751
2025-03-08 14:23:38.813,77.96954314720811,0.0938179980328341,-0.1912739368054927,-0.0974567616491317,0.0274890082054507
2025-03-08 14:23:38.815,77.96954314720811,0.0878675369844536,-0.1802804723937935,-0.0924137485853232,0.0279670592700044
2025-03-08 14:23:38.817,77.96954314720811,0.0831438082920225,-0.1703568780304758,-0.087213873446875,0.0289684159106864
2025-03-08 14:23:38.819,77.96954314720811,0.0780163594632621,-0.1606215514140802,-0.0826059862672776,0.0304776985494041
2025-03-08 14:23:38.820,77.96954314720811,0.070505179015046,-0.1494658741214298,-0.0789614799037688,0.0321436691994863
2025-03-08 14:23:38.822,77.96954314720811,0.059382771850051,-0.1355142878340228,-0.0761322909850204,0.0334621594944036
2025-03-08 14:23:38.824,77.96954314720811,0.0448577904140885,-0.1184850370458831,-0.0736280115437575,0.0340696778774664
2025-03-08 14:23:38.826,77.96954314720811,0.0283520579773279,-0.0992969309701391,-0.0709456276640115,0.0339463245666957
2025-03-08 14:23:38.828,77.96954314720811,0.011769726724139,-0.0796004901372028,-0.0678315079329581,0.0334352033530774
2025-03-08 14:23:38.830,77.96954314720811,-0.0031705475979368,-0.0611707728954857,-0.0643420551786968,0.0331104498475158
2025-03-08 14:23:38.832,77.96954314720811,-0.0153807221625351,-0.0453277382117725,-0.0607091856371306,0.033529147942414
2025-03-08 14:23:38.834,77.96954314720811,-0.02465960106559,-0.0324673986478,-0.057127715869314,0.0348962530947663
2025-03-08 14:23:38.836,77.96954314720811,-0.0316975896760511,-0.021914402343048,-0.0536126991293124,0.0367960226070054
2025-03-08 14:23:38.838,77.96954314720811,-0.0378367034068344,-0.012173426861581,-0.0500108281017412,0.0382558628516791
2025-03-08 14:23:38.840,77.96954314720811,-0.0447599583070763,-0.0013741901127225,-0.0461348365643698,0.0382447858662324
2025-03-08 14:23:38.842,77.96954314720811,-0.0541677186283847,0.0122513839684022,-0.0419170127381952,0.0363281761765105
2025-03-08 14:23:38.844,77.96954314720811,-0.0673048996112245,0.0298093599408528,-0.0374962075524456,0.0330055395346038
2025-03-08 14:23:38.846,77.96954314720811,-0.0844207311976793,0.0512118099309085,-0.033209579170722,0.0294873497907818
2025-03-08 14:23:38.848,77.96954314720811,-0.1046369130036127,0.0751435030629383,-0.0294940583579815,0.0270861468268695
2025-03-08 14:23:38.850,77.96954314720811,-0.1265451589935067,0.099820326909338,-0.026725471558067,0.0266173253175072
2025-03-08 14:23:38.852,77.96954314720811,-0.1491522461999342,0.1240869203355067,-0.0250659567275343,0.0281269441739506
2025-03-08 14:23:38.854,77.96954314720811,-0.172412321493052,0.1479917509234861,-0.0244211927762469,0.0310370642598243
2025-03-08 14:23:38.856,77.96954314720811,-0.1970276840943481,0.1724679197382604,-0.0245603775036948,0.0345631697454475
2025-03-08 14:23:38.858,77.96954314720811,-0.2238766121218095,0.1985515414647081,-0.0253256741962323,0.0381213145904411
2025-03-08 14:23:38.860,77.96954314720811,-0.2535642117260406,0.2267995187311918,-0.026765286528841,0.0414963240837015
2025-03-08 14:23:38.861,77.96954314720811,-0.2862582813513726,0.2571835534604599,-0.0290753114118032,0.0447414045519054
2025-03-08 14:23:38.863,77.96954314720811,-0.3217316406115508,0.2893337835997459,-0.0323984309450545,0.0479549974310911
2025-03-08 14:23:38.865,77.96954314720811,-0.3595051619972009,0.3228585961434344,-0.0366471308783151,0.0511136628081619
2025-03-08 14:23:38.867,77.96954314720811,-0.398933216137035,0.3574475385674192,-0.0414862342969109,0.0540483610866057
2025-03-08 14:23:38.869,77.96954314720811,-0.4390932982299769,0.3926221452175036,-0.0464717016868433,0.0565352560759303
2025-03-08 14:23:38.871,77.96954314720811,-0.4786506811949587,0.4274199544308947,-0.051231267143289,0.0584138287014256
2025-03-08 14:23:38.873,77.96954314720811,-0.5161047053384931,0.4605370081977031,-0.0555682286277623,0.0596583592133487
2025-03-08 14:23:38.875,77.96954314720811,-0.5504616405026159,0.4910111413005075,-0.0594510211688751,0.0603781728862196
2025-03-08 14:23:38.877,77.96954314720811,-0.5817610242907204,0.5188289892286173,-0.0629325472034142,0.0607636123866018
2025-03-08 14:23:38.879,77.96954314720811,-0.6109061087178789,0.5448435554605868,-0.0660630557885685,0.0610039600184955
2025-03-08 14:23:38.881,77.96954314720811,-0.6389699196485996,0.570130832224489,-0.0688395810137266,0.0612045439495877
2025-03-08 14:23:38.883,77.96954314720811,-0.6666180215867055,0.5953948773041433,-0.0712236297445787,0.0613589135204275
2025-03-08 14:23:38.885,77.96954314720811,-0.6939970582517354,0.6207541175308977,-0.0732434186217793,0.0614353383612616
2025-03-08 14:23:38.887,77.96954314720811,-0.7209537630879822,0.6458260503682753,-0.0751281831036085,0.0615402456939467
2025-03-08 14:23:38.889,77.96954314720811,-0.7473274744748563,0.6699877526627737,-0.0773401841922492,0.0620081331510882
2025-03-08 14:23:38.891,77.96954314720811,-0.7731224528614239,0.6927190631947353,-0.0804038432964333,0.0632943415864897
2025-03-08 14:23:38.893,77.96954314720811,-0.7984286663925155,0.71382243140489,-0.0846066792753815,0.0657099153668259
2025-03-08 14:23:38.895,77.96954314720811,-0.8232148978611342,0.733424105458581,-0.0897912272567846,0.0691868480760791
2025-03-08 14:23:38.897,77.96954314720811,-0.847414030493777,0.7520124657012245,-0.0954019907131837,0.0732603451961198
2025-03-08 14:23:38.899,77.96954314720811,-0.8714686634840054,0.7707190736921903,-0.1007500076539342,0.0772823984603788
2025-03-08 14:23:38.901,77.96954314720811,-0.8967608727391629,0.7914521430712136,-0.1053091403045162,0.0806976223748858
2025-03-08 14:23:38.902,77.96954314720811,-0.9251247747805088,0.8162468809054175,-0.1088782976737735,0.0832145470452976
2025-03-08 14:23:38.904,77.96954314720811,-0.9575405429965452,0.8459701447416269,-0.111570794981356,0.0848433028584667
2025-03-08 14:23:38.906,77.96954314720811,-0.9931958526986988,0.8795085433437279,-0.1136876982997,0.0858341091983669
2025-03-08 14:23:38.908,77.96954314720811,-1.0299275730563688,0.9143822090962902,-0.1155457443375942,0.0865323730591131
2025-03-08 14:23:38.910,77.96954314720811,-1.0656881182501894,0.9483630270809906,-0.1173254625634806,0.0872098280172234
2025-03-08 14:23:38.912,77.96954314720811,-1.0997229689153982,0.9807107138323916,-0.1190126177059631,0.0879926604612887
2025-03-08 14:23:38.914,77.96954314720811,-1.1325961244350795,1.0121301244094385,-0.1204663546499537,0.0889277939410493
2025-03-08 14:23:38.916,77.96954314720811,-1.1653019552107051,1.0437512195021637,-0.1215510833060273,0.090074393781067
2025-03-08 14:23:38.918,77.96954314720811,-1.1982813403264572,1.0760589540220278,-0.1222227275766067,0.0914937247907978
2025-03-08 14:23:38.920,77.96954314720811,-1.23103352446089,1.108506509203445,-0.1225273503039764,0.0931487022899065
2025-03-08 14:23:38.922,77.96954314720811,-1.2625507051215472,1.1399905986556185,-0.1225604347665482,0.0948359664060853
2025-03-08 14:23:38.924,77.96954314720811,-1.2921520763239525,1.169713041881914,-0.1224393551640445,0.0962518957168605
2025-03-08 14:23:38.926,77.96954314720811,-1.3197979562135,1.1975073678545096,-0.1222909008309706,0.0971749191662
2025-03-08 14:23:38.928,77.96954314720811,-1.345348078785461,1.2231074948235947,-0.1222408880656455,0.0976363031642003
2025-03-08 14:23:38.930,77.96954314720811,-1.3674544069576569,1.245047806108372,-0.1224068971236732,0.097951009518386
2025-03-08 14:23:38.932,77.96954314720811,-1.3834795201633905,1.260600460781772,-0.1228793487823446,0.0985781084068243
2025-03-08 14:23:38.934,77.96954314720811,-1.390944062460013,1.2672855333615591,-0.1236588125395915,0.0998764891431117
2025-03-08 14:23:38.936,77.96954314720811,-1.3894315179425247,1.2648624690473718,-0.1245693268128178,0.1018804204924774
2025-03-08 14:23:38.938,77.96954314720811,-1.3814181081971195,1.256171057981738,-0.1252473223831522,0.1042397862412429
2025-03-08 14:23:38.940,77.96954314720811,-1.371495248439154,1.2462146718806515,-0.1252808422515417,0.1063765427062215
2025-03-08 14:23:38.942,77.96954314720811,-1.3646033329741067,1.2401791624005931,-0.1244244289945143,0.1077295781547099
2025-03-08 14:23:38.944,77.96954314720811,-1.364216879164412,1.241504746669058,-0.1227123832374459,0.1079209628914634
2025-03-08 14:23:38.945,77.96954314720811,-1.3712223868951403,1.2508397894761585,-0.1203828407217541,0.106838637234975
2025-03-08 14:23:38.947,77.96954314720811,-1.3839712810782452,1.2662612281984345,-0.1177102895446024,0.1047299220932429
2025-03-08 14:23:38.949,77.96954314720811,-1.3994678836276933,1.2845587790454098,-0.1149093355933415,0.1022810830282258
2025-03-08 14:23:38.951,77.96954314720811,-1.4148895875735037,1.302722559191278,-0.1121672544353513,0.1005265342176972
2025-03-08 14:23:38.953,77.96954314720811,-1.428434048153976,1.3187098087258056,-0.1097244606159775,0.1005105346139303
2025-03-08 14:23:38.955,77.96954314720811,-1.4392342631140385,1.3313609692555757,-0.1078735096767276,0.1028254998532239
2025-03-08 14:23:38.957,77.96954314720811,-1.4468960221931009,1.3400850205943338,-0.106811211267254,0.1072471232288979
2025-03-08 14:23:38.959,77.96954314720811,-1.4511814892556756,1.3447631215526132,-0.1064185706280554,0.1126473572722667
2025-03-08 14:23:38.961,77.96954314720811,-1.4518780375635878,1.3457209684801932,-0.1061572652161416,0.1172991052920564
2025-03-08 14:23:38.963,77.96954314720811,-1.448819370369341,1.3435865748069984,-0.1052329854655702,0.1195619962690797
2025-03-08 14:23:38.965,77.96954314720811,-1.442238232059449,1.3392493669228638,-0.1029890497281293,0.1186866380427668
2025-03-08 14:23:38.967,77.96954314720811,-1.4333855195321608,1.3340730967607484,-0.0993126028853816,0.1152706394962789
2025-03-08 14:23:38.969,77.96954314720811,-1.4247566460288132,1.3299586289653975,-0.0947981930638453,0.111030352045006
2025-03-08 14:23:38.971,77.96954314720811,-1.4192953493171998,1.3287585094592549,-0.0905370115083502,0.107994592887058
2025-03-08 14:23:38.973,77.96954314720811,-1.4188818326603028,1.3312744800511618,-0.0876075192622427,0.1075957708215183
2025-03-08 14:23:38.975,77.96954314720811,-1.423211583544738,1.3366929835336774,-0.0865187610119186,0.1101250025263763
2025-03-08 14:23:38.977,77.96954314720811,-1.4298855771440446,1.3429768615902549,-0.0869088706382764,0.1147358407254194
2025-03-08 14:23:38.979,77.96954314720811,-1.4355898191363563,1.3478986089839669,-0.0876913596297913,0.1199157267004243
2025-03-08 14:23:38.981,77.96954314720811,-1.4376329138156343,1.350035632249419,-0.0875974261940157,0.1241970197010928
2025-03-08 14:23:38.983,77.96954314720811,-1.4350715096655555,1.3492618927697375,-0.0858097575206251,0.1267944075223873
2025-03-08 14:23:38.985,77.96954314720811,-1.4289023416001485,1.3465903279536446,-0.0823121508078626,0.127859192417733
2025-03-08 14:23:38.986,77.96954314720811,-1.4213010160173771,1.3435300102364411,-0.07777113948969,0.1282272683744057
2025-03-08 14:23:38.988,77.96954314720811,-1.414535718341111,1.341457304126464,-0.0730785440189315,0.1288476101575741
