Timestamp,GSR_Filtered,PPG_Filtered
2025-03-08 14:23:37.039,-6.624844235844423e-06,-3.966011215434425
2025-03-08 14:23:37.058,0.0001598412115471,-4.379261619035022
2025-03-08 14:23:37.078,0.0003233830492068,-4.730168938135224
2025-03-08 14:23:37.097,0.0004806033530597,-4.999707754677091
2025-03-08 14:23:37.117,0.0006285490972112,-5.170483751778135
2025-03-08 14:23:37.136,0.0007646913365655,-5.227955811029516
2025-03-08 14:23:37.156,0.0008867698533359,-5.161582649598434
2025-03-08 14:23:37.175,0.0009926858288694,-4.965966349688802
2025-03-08 14:23:37.195,0.0010806329776071,-4.642012844746296
2025-03-08 14:23:37.214,0.0011495326793448,-4.197985501885404
2025-03-08 14:23:37.234,0.0011996533476749,-3.65018825442155
2025-03-08 14:23:37.253,0.0012331536474875,-3.022951730802838
2025-03-08 14:23:37.273,0.0012542642869208,-2.347637543590244
2025-03-08 14:23:37.292,0.0012689350727611,-1.6605244559921235
2025-03-08 14:23:37.312,0.0012839761528975,-0.9996772055578824
2025-03-08 14:23:37.331,0.0013059045665966,-0.4011683936641214
2025-03-08 14:23:37.351,0.0013397769249964,0.104763675917252
2025-03-08 14:23:37.371,0.0013882469496421,0.4969614611213643
2025-03-08 14:23:37.390,0.0014510045171414,0.7654221545553331
2025-03-08 14:23:37.410,0.0015246934011403,0.9118357168394396
2025-03-08 14:23:37.429,0.0016033651754522,0.9485101766590234
2025-03-08 14:23:37.449,0.0016794545387971,0.8958976525628745
2025-03-08 14:23:37.468,0.0017451282418303,0.7791569403733362
2025-03-08 14:23:37.488,0.0017937153203251,0.6243015270263143
2025-03-08 14:23:37.507,0.0018208693842374,0.4545016410004742
2025-03-08 14:23:37.527,0.0018252009511858,0.2870812643785795
2025-03-08 14:23:37.546,0.0018083066731383,0.1316866515990396
2025-03-08 14:23:37.566,0.0017743059546119,-0.0100399289825599
2025-03-08 14:23:37.585,0.0017290779183046,-0.1432054725203723
2025-03-08 14:23:37.605,0.0016793511970588,-0.2770984228664092
2025-03-08 14:23:37.624,0.0016317128842734,-0.4219105230245358
2025-03-08 14:23:37.644,0.0015915785998062,-0.5855627454022653
2025-03-08 14:23:37.664,0.0015622246572081,-0.7714474310348001
2025-03-08 14:23:37.683,0.0015440555929361,-0.9776506100060086
2025-03-08 14:23:37.703,0.0015343062647504,-1.1977780769851385
2025-03-08 14:23:37.722,0.0015273536502508,-1.4230114117378574
2025-03-08 14:23:37.742,0.0015157391336659,-1.644637682404847
2025-03-08 14:23:37.761,0.001491845956443,-1.8561696899851423
2025-03-08 14:23:37.781,0.0014499307764832,-2.054350116113699
2025-03-08 14:23:37.800,0.0013879667983235,-2.238746117117754
2025-03-08 14:23:37.820,0.0013086843919577,-2.4101418141439
2025-03-08 14:23:37.839,0.001219384009228,-2.56835307106766
2025-03-08 14:23:37.859,0.0011304681058991,-2.7102832535610646
2025-03-08 14:23:37.878,0.0010530256238453,-2.8289514145456245
2025-03-08 14:23:37.898,0.000996073775521,-2.9139008080652107
2025-03-08 14:23:37.917,0.0009641542525501,-2.95295943766392
2025-03-08 14:23:37.937,0.0009558802873977,-2.934913882896884
2025-03-08 14:23:37.956,0.0009637839047771,-2.852378703950639
2025-03-08 14:23:37.976,0.000975506202991,-2.704062494096574
2025-03-08 14:23:37.996,0.0009760714764994,-2.495776108610939
2025-03-08 14:23:38.015,0.0009507299573095,-2.239870044887118
2025-03-08 14:23:38.035,0.0008877110890606,-1.98428702819241
2025-03-08 14:23:38.054,0.0007802677239902,-1.6791774051700867
2025-03-08 14:23:38.074,0.0006276033489301,-1.3403454770172976
2025-03-08 14:23:38.093,0.0004345648784303,-0.9790959023549364
2025-03-08 14:23:38.113,0.0002102454048097,-0.6016358402612227
2025-03-08 14:23:38.132,-3.417840864498263e-05,-0.2102420768377226
2025-03-08 14:23:38.152,-0.0002879464430264,0.1941037313286001
2025-03-08 14:23:38.171,-0.0005430739474884,0.6083895242798099
2025-03-08 14:23:38.191,-0.0007960847778617,1.024609833107573
2025-03-08 14:23:38.210,-0.0010487026716227,1.4281680131639225
2025-03-08 14:23:38.230,-0.0013072587424552,1.7982685252525292
2025-03-08 14:23:38.249,-0.0015808413379934,2.1103378334426157
2025-03-08 14:23:38.269,-0.0018785103233872,2.3399129308785915
2025-03-08 14:23:38.289,-0.0022061474506311,2.467019089858893
2025-03-08 14:23:38.308,-0.0025636637154582,2.4799452659424888
2025-03-08 14:23:38.328,-0.0029432964898985,2.377524784271577
2025-03-08 14:23:38.347,-0.0033295818123143,2.1694475313343724
2025-03-08 14:23:38.367,-0.003701291201929,1.874624968123982
2025-03-08 14:23:38.386,-0.0040352342769982,1.5180611694414994
2025-03-08 14:23:38.406,-0.0043114186073016,1.1269536392758954
2025-03-08 14:23:38.425,-0.004518665799866,0.7268213526578132
2025-03-08 14:23:38.445,-0.004659454153906,0.3383567645313279
2025-03-08 14:23:38.464,-0.0047526252884628,-0.0245218616479888
2025-03-08 14:23:38.484,-0.0048328137513417,-0.3552195614096077
2025-03-08 14:23:38.503,-0.0049460443051433,-0.6536974812156111
2025-03-08 14:23:38.523,-0.0051417079150303,-0.9247085961777332
2025-03-08 14:23:38.542,-0.0054618584832916,-1.1755058644950442
2025-03-08 14:23:38.562,-0.0059293665947577,-1.4135159151943346
2025-03-08 14:23:38.582,-0.0065369238006132,-1.6443556850315215
2025-03-08 14:23:38.601,-0.0072392099801604,-1.870365874911012
2025-03-08 14:23:38.621,-0.0079506151279594,-2.0896557299815024
2025-03-08 14:23:38.640,-0.0085505192847626,-2.295599855033448
2025-03-08 14:23:38.660,-0.0088970605198546,-2.476805214309272
2025-03-08 14:23:38.679,-0.0088485616671961,-2.6176775046882157
2025-03-08 14:23:38.699,-0.0082896659281092,-2.699743067751742
2025-03-08 14:23:38.718,-0.007157316884879,-2.703777668179039
2025-03-08 14:23:38.738,-0.0054606415229524,-2.61259643711099
2025-03-08 14:23:38.757,-0.0032890823642064,-2.4141479586912955
2025-03-08 14:23:38.777,-0.0008050802107793,-2.10439368536922
2025-03-08 14:23:38.796,0.0017788615725705,-1.6893789361939466
2025-03-08 14:23:38.816,0.0042345665222533,-1.185940247916725
2025-03-08 14:23:38.835,0.006356223626457,-0.6206691309830251
2025-03-08 14:23:38.855,0.007992957488393,-0.0270673238525907
2025-03-08 14:23:38.874,0.009068560715892,0.5587614302577084
2025-03-08 14:23:38.894,0.0095850669882534,1.1031361337610637
2025-03-08 14:23:38.914,0.0096114088642764,1.579532443427036
2025-03-08 14:23:38.933,0.0092618087836912,1.9720052437886428
2025-03-08 14:23:38.953,0.0086700058558401,2.276537615093224
2025-03-08 14:23:38.972,0.0079650470330586,2.5000140075195505
2025-03-08 14:23:38.992,0.0072527955797982,2.6570491686042046
2025-03-08 14:23:39.011,0.0066052676216964,2.7653743259246584
2025-03-08 14:23:39.031,0.0060579997212763,2.840780414221019
2025-03-08 14:23:39.050,0.0056142208500419,2.892693646404313
2025-03-08 14:23:39.070,0.0052537259348212,2.921323329194039
2025-03-08 14:23:39.089,0.0049439466757835,2.9170215093089014
2025-03-08 14:23:39.109,0.0046507249617967,2.862071078484914
2025-03-08 14:23:39.128,0.0043467236395734,2.7346133418555683
2025-03-08 14:23:39.148,0.0040162300180218,2.513916649470348
2025-03-08 14:23:39.167,0.0036561339593695,2.185813312557292
2025-03-08 14:23:39.187,0.0032737921924329,1.7470412348757636
2025-03-08 14:23:39.207,0.0028830628712358,1.2074833322305525
2025-03-08 14:23:39.226,0.0024999039774488,0.5898283298741243
2025-03-08 14:23:39.246,0.0021386339702906,-0.0731924650524257
2025-03-08 14:23:39.265,0.0018094342635003,-0.7432940432681118
2025-03-08 14:23:39.285,0.0015171683752233,-1.381833691759477
2025-03-08 14:23:39.304,0.0012612893690115,-1.9546543541903447
2025-03-08 14:23:39.324,0.0010365468814011,-2.435722078754748
2025-03-08 14:23:39.343,0.0008342835561502,-2.809063641850486
2025-03-08 14:23:39.363,0.0006441756595982,-3.068911101797561
2025-03-08 14:23:39.382,0.000456232584598,-3.2183114404886943
2025-03-08 14:23:39.402,0.0002627465198346,-3.266700396594411
2025-03-08 14:23:39.421,5.978631095219624e-05,-3.227037241789885
2025-03-08 14:23:39.441,-0.0001521331565885,-3.1130594116832864
2025-03-08 14:23:39.460,-0.0003683846758181,-2.937096582129826
2025-03-08 14:23:39.480,-0.000581481410644,-2.7087474215979186
2025-03-08 14:23:39.500,-0.0007829349437093,-2.43458838218131
2025-03-08 14:23:39.519,-0.0009652726840885,-2.1189204923428044
2025-03-08 14:23:39.539,-0.0011237464534359,-1.7653428587879514
2025-03-08 14:23:39.558,-0.0012573397596775,-1.378708258041123
2025-03-08 14:23:39.578,-0.0013688359323081,-0.9668521607582402
2025-03-08 14:23:39.597,-0.0014639222546248,-0.5414710006789311
2025-03-08 14:23:39.617,-0.0015495499551679,-0.1176997858637659
2025-03-08 14:23:39.636,-0.0016319978189654,0.2877074506823281
2025-03-08 14:23:39.656,-0.0017152105391609,0.6592394752316335
2025-03-08 14:23:39.675,-0.0017999050941954,0.9857712137877144
2025-03-08 14:23:39.695,-0.0018836486187092,1.263019625985956
2025-03-08 14:23:39.714,-0.0019617478863526,1.4944309497209167
2025-03-08 14:23:39.734,-0.002028560276892,1.6900086338172684
2025-03-08 14:23:39.753,-0.0020788379595495,1.863186321623794
2025-03-08 14:23:39.773,-0.0021088570337595,2.0264703348560134
2025-03-08 14:23:39.792,-0.002117186745484,2.1870167801713745
2025-03-08 14:23:39.812,-0.0021049621530671,2.343408282336368
2025-03-08 14:23:39.832,-0.0020755453513201,2.484599313353047
2025-03-08 14:23:39.851,-0.0020336090978374,2.5913964915009817
2025-03-08 14:23:39.871,-0.0019839062308832,2.640138852300117
2025-03-08 14:23:39.890,-0.0019301340172835,2.607673241199722
2025-03-08 14:23:39.910,-0.0018742563622021,2.4764329222427697
2025-03-08 14:23:39.929,-0.0018164456994296,2.238459459269809
2025-03-08 14:23:39.949,-0.001755568686127,1.8975099384205123
2025-03-08 14:23:39.968,-0.0016899662021692,1.468869965961942
2025-03-08 14:23:39.988,-0.0016182169063911,0.9770287737933676
2025-03-08 14:23:40.007,-0.0015396311063333,0.4518406736597133
2025-03-08 14:23:40.027,-0.001454366480093,-0.0759032434914054
2025-03-08 14:23:40.046,-0.0013632216858189,-0.5784904078334854
2025-03-08 14:23:40.066,-0.0012672774070042,-1.0340370617826615
2025-03-08 14:23:40.085,-0.0011675841027275,-1.4274769102771043
2025-03-08 14:23:40.105,-0.0010650432022428,-1.7497856160745278
2025-03-08 14:23:40.125,-0.0009605111619062,-1.9959523191141844
2025-03-08 14:23:40.144,-0.0008550200845979,-2.162584980445022
2025-03-08 14:23:40.164,-0.0007499290344917,-2.246131876308459
2025-03-08 14:23:40.183,-0.0006468533592554,-2.242459183735248
2025-03-08 14:23:40.203,-0.0005473581767478,-2.1480112956899173
2025-03-08 14:23:40.222,-0.000452565627352,-1.9621728353747343
2025-03-08 14:23:40.242,-0.0003629002774578,-1.689968928620572
2025-03-08 14:23:40.261,-0.0002781259561802,-1.3440583038120275
2025-03-08 14:23:40.281,-0.0001976606743077,-0.9451543209482342
2025-03-08 14:23:40.300,-0.0001210027243251,-0.5204829907933778
2025-03-08 14:23:40.320,-4.804376146464178e-05,-0.1004877220592164
2025-03-08 14:23:40.339,2.089196430734716e-05,0.2854851660837623
2025-03-08 14:23:40.359,8.529223799155274e-05,0.6135073495597573
2025-03-08 14:23:40.378,0.0001448438748038,0.8684207895165039
2025-03-08 14:23:40.398,0.0001997629483258,1.0455483058403952
2025-03-08 14:23:40.417,0.0002509213100992,1.150516016542516
2025-03-08 14:23:40.437,0.0002997137536804,1.1973437492869186
2025-03-08 14:23:40.457,0.0003476854405386,1.2052499194904234
2025-03-08 14:23:40.476,0.0003960089411341,1.194787438663217
2025-03-08 14:23:40.496,0.0004449718836895,1.184003696244858
2025-03-08 14:23:40.515,0.0004936686389148,1.1853013854451726
2025-03-08 14:23:40.535,0.0005400377578873,1.20353630786828
2025-03-08 14:23:40.554,0.0005812576931214,1.2356141302330774
2025-03-08 14:23:40.574,0.0006143766289558,1.2715021448760842
2025-03-08 14:23:40.593,0.0006369919896102,1.2962692101081106
2025-03-08 14:23:40.613,0.0006478233855503,1.2926079003740754
2025-03-08 14:23:40.632,0.0006470730920297,1.243312422654296
2025-03-08 14:23:40.652,0.0006364980240733,1.133351082120466
2025-03-08 14:23:40.671,0.0006191553437958,0.9514103670475578
2025-03-08 14:23:40.691,0.000598857446445,0.691014057388761
2025-03-08 14:23:40.710,0.0005794556080954,0.3514537197035067
2025-03-08 14:23:40.730,0.0005641230237825,-0.0612565389507742
2025-03-08 14:23:40.750,0.0005548064146767,-0.5333861061603759
2025-03-08 14:23:40.769,0.0005519614780424,-1.0427513852232506
2025-03-08 14:23:40.789,0.0005546032182258,-1.5588125282632312
2025-03-08 14:23:40.808,0.0005606303031781,-2.0442472188865466
2025-03-08 14:23:40.828,0.0005673485321288,-2.458391380793718
2025-03-08 14:23:40.847,0.0005720943655827,-2.7623952621392545
2025-03-08 14:23:40.867,0.0005728150601977,-2.9252962061626837
2025-03-08 14:23:40.886,0.0005684380445989,-2.929708267059551
2025-03-08 14:23:40.906,0.0005589232791187,-2.7756856614881444
2025-03-08 14:23:40.925,0.0005450252025822,-2.48161842821732
2025-03-08 14:23:40.945,0.0005279113026622,-2.081695323188113
2025-03-08 14:23:40.964,0.0005088207999606,-1.6203214737374128
2025-03-08 14:23:40.984,0.0004888822424026,-1.1446481390008754
2025-03-08 14:23:41.003,0.0004690799216851,-0.6968352334900161
2025-03-08 14:23:41.023,0.0004502513978107,-0.3077085902771569
2025-03-08 14:23:41.043,0.0004329995432025,0.0068936504833403
2025-03-08 14:23:41.062,0.0004175131597374,0.2464539350303617
2025-03-08 14:23:41.082,0.0004034077167006,0.4229466969869742
2025-03-08 14:23:41.101,0.0003897198516068,0.5557444264202067
2025-03-08 14:23:41.121,0.0003751095221737,0.6656619345308467
2025-03-08 14:23:41.140,0.0003582164687551,0.7696765625573057
2025-03-08 14:23:41.160,0.0003380581881301,0.8775661977865545
2025-03-08 14:23:41.179,0.0003143608798838,0.991064194169627
2025-03-08 14:23:41.199,0.0002877454995321,1.105355198955281
2025-03-08 14:23:41.218,0.0002597111648037,1.2120879558221571
2025-03-08 14:23:41.238,0.000232372443038,1.302753290472238
2025-03-08 14:23:41.257,0.0002079566703387,1.371325771577521
2025-03-08 14:23:41.277,0.0001881739850173,1.415425005883147
2025-03-08 14:23:41.296,0.0001736807466126,1.4357745028580045
2025-03-08 14:23:41.316,0.0001638669927639,1.4342689935633095
2025-03-08 14:23:41.335,0.0001570698809351,1.4113755012856897
2025-03-08 14:23:41.355,0.0001511124022253,1.3637986926963874
2025-03-08 14:23:41.375,0.0001439175519734,1.283296233963074
2025-03-08 14:23:41.394,0.0001339559044087,1.157250283093079
2025-03-08 14:23:41.414,0.0001204320743142,0.9711496194932516
2025-03-08 14:23:41.433,0.0001032590273833,0.7126051242541296
2025-03-08 14:23:41.453,8.288718787596486e-05,0.3760209044979749
2025-03-08 14:23:41.472,5.999184303405782e-05,-0.0332942411853312
2025-03-08 14:23:41.492,3.502210721138656e-05,-0.4968304371766958
2025-03-08 14:23:41.511,7.726540218104088e-06,-0.98331129326169
2025-03-08 14:23:41.531,-2.311802956684197e-05,-1.4521011306389815
2025-03-08 14:23:41.550,-5.9568749240628174e-05,-1.859018080878168
2025-03-08 14:23:41.570,-0.0001039243618077,-2.1633239213801154
2025-03-08 14:23:41.589,-0.0001578330233331,-2.334365420893378
2025-03-08 14:23:41.609,-0.0002213923525905,-2.356473146539971
2025-03-08 14:23:41.628,-0.000292550199706,-2.231186526814059
2025-03-08 14:23:41.648,-0.0003670077055824,-1.9764922989967375
2025-03-08 14:23:41.668,-0.0004386550406135,-1.623370967224878
2025-03-08 14:23:41.687,-0.0005004284910137,-1.210434219526994
2025-03-08 14:23:41.707,-0.0005454156500308,-0.7777407415112846
2025-03-08 14:23:41.726,-0.0005680175255474,-0.3609500896234432
2025-03-08 14:23:41.746,-0.00056494550937,0.0132020137714361
2025-03-08 14:23:41.765,-0.0005358055341748,0.3294958645605328
2025-03-08 14:23:41.785,-0.0004830876465923,0.584726989043532
2025-03-08 14:23:41.804,-0.0004115740029572,0.7863483753620467
2025-03-08 14:23:41.824,-0.0003274045364873,0.9497398140993736
2025-03-08 14:23:41.843,-0.0002371341564518,1.0946622335398153
2025-03-08 14:23:41.863,-0.0001470147500968,1.2414004705945323
2025-03-08 14:23:41.882,-6.254443354560044e-05,1.4070077528185911
2025-03-08 14:23:41.902,1.1798522351055586e-05,1.6020234250302636
2025-03-08 14:23:41.921,7.272935337337773e-05,1.8280619333897576
2025-03-08 14:23:41.941,0.0001182855470474,2.0767058969652985
2025-03-08 14:23:41.961,0.0001479168801593,2.330076578322624
2025-03-08 14:23:41.980,0.0001625092517158,2.563220629789376
2025-03-08 14:23:42.000,0.0001642815771499,2.748046371097812
2025-03-08 14:23:42.019,0.0001564778697092,2.8580818508934307
2025-03-08 14:23:42.039,0.0001428032935685,2.8729992127852664
2025-03-08 14:23:42.058,0.0001266408358534,2.7818188145936684
2025-03-08 14:23:42.078,0.0001102180795484,2.5840215951888013
2025-03-08 14:23:42.097,9.400289956827096e-05,2.2883750801883376
2025-03-08 14:23:42.117,7.659953249452508e-05,1.9099363892302517
2025-03-08 14:23:42.136,5.525669097331096e-05,1.466215228894565
2025-03-08 14:23:42.156,2.6858278199794384e-05,0.9736773636180536
2025-03-08 14:23:42.175,-1.0928404629195595e-05,0.4455763105421523
2025-03-08 14:23:42.195,-5.872782454646205e-05,-0.1084000687136886
2025-03-08 14:23:42.214,-0.0001150348998495,-0.6808011891379729
2025-03-08 14:23:42.234,-0.0001763839644216,-1.264061186218808
2025-03-08 14:23:42.253,-0.0002380124315944,-1.848043930433372
2025-03-08 14:23:42.273,-0.0002948151341191,-2.418345978545384
2025-03-08 14:23:42.293,-0.0003423386707423,-2.955890247483468
2025-03-08 14:23:42.312,-0.0003775590894917,-3.4379046745153072
2025-03-08 14:23:42.332,-0.0003992456677134,-3.839998095880133
2025-03-08 14:23:42.351,-0.000407856339428,-4.138819440611592
2025-03-08 14:23:42.371,-0.0004050827592362,-4.314730216313147
2025-03-08 14:23:42.390,-0.0003932732470044,-4.353999422609271
2025-03-08 14:23:42.410,-0.0003749551883979,-4.2501991992468815
2025-03-08 14:23:42.429,-0.000352563017865,-4.004693090500666
2025-03-08 14:23:42.449,-0.0003283156577244,-3.626313359307032
2025-03-08 14:23:42.468,-0.0003040828730926,-3.130462829247274
2025-03-08 14:23:42.488,-0.0002811272408152,-2.537915874446369
2025-03-08 14:23:42.507,-0.000259788721713,-1.8735375036397208
2025-03-08 14:23:42.527,-0.0002393400268298,-1.1650252362557092
2025-03-08 14:23:42.546,-0.0002182317090048,-0.4416557605570658
2025-03-08 14:23:42.566,-0.000194753232403,0.2670625953832645
2025-03-08 14:23:42.586,-0.0001678790909464,0.9329356491197648
2025-03-08 14:23:42.605,-0.0001379101152184,1.5308560543531846
2025-03-08 14:23:42.625,-0.0001065764397845,2.0406970324858804
2025-03-08 14:23:42.644,-7.652212894083264e-05,2.449063161854909
2025-03-08 14:23:42.664,-5.038049079357997e-05,2.750501769615371
2025-03-08 14:23:42.683,-2.98043544888284e-05,2.9477404476847977
2025-03-08 14:23:42.703,-1.4794402652102223e-05,3.0506418433999243
2025-03-08 14:23:42.722,-3.536400291709936e-06,3.073872496128377
2025-03-08 14:23:42.742,7.208005462464532e-06,3.0336870431812035
2025-03-08 14:23:42.761,2.1266344592922003e-05,2.944572147080362
2025-03-08 14:23:42.781,4.200222530482694e-05,2.8166143441297025
2025-03-08 14:23:42.800,7.133113250183277e-05,2.6542745337557365
2025-03-08 14:23:42.820,0.0001090849736182,2.456817752850445
2025-03-08 14:23:42.839,0.0001529233343974,2.220121090794261
2025-03-08 14:23:42.859,0.0001988379837114,1.9391738138588843
2025-03-08 14:23:42.879,0.0002421090302899,1.610457697231526
2025-03-08 14:23:42.898,0.0002784210034322,1.2335904031456189
2025-03-08 14:23:42.918,0.0003048146579114,0.8120120212030898
2025-03-08 14:23:42.937,0.0003202388838252,0.3528841486409491
2025-03-08 14:23:42.957,0.0003255990527737,-0.1334228797591188
2025-03-08 14:23:42.976,0.0003233176759919,-0.6338994128428712
2025-03-08 14:23:42.996,0.0003165420359277,-1.133331314894939
2025-03-08 14:23:43.015,0.0003082479168543,-1.614593101590637
2025-03-08 14:23:43.035,0.0003005287478059,-2.058920590011002
2025-03-08 14:23:43.054,0.000294268711793,-2.446349842869072
2025-03-08 14:23:43.074,0.0002892232603308,-2.756528037788256
2025-03-08 14:23:43.093,0.0002843835604596,-2.9700601850865525
2025-03-08 14:23:43.113,0.000278449116857,-3.0704173693878807
2025-03-08 14:23:43.132,0.0002702584399389,-3.046204484205236
2025-03-08 14:23:43.152,0.0002590850757333,-2.8933585974886062
2025-03-08 14:23:43.171,0.0002447652595128,-2.6167462104835706
2025-03-08 14:23:43.191,0.0002276705454815,-2.2307063996748417
2025-03-08 14:23:43.211,0.0002085684555141,-1.7582995263717658
2025-03-08 14:23:43.230,0.0001884258763532,-1.229268931176108
2025-03-08 14:23:43.250,0.0001682068302881,-0.6769337083271373
2025-03-08 14:23:43.269,0.000148703707258,-0.1343882084140822
2025-03-08 14:23:43.289,0.0001304248335032,0.369493700409688
2025-03-08 14:23:43.308,0.0001135460970554,0.8136503565803079
2025-03-08 14:23:43.328,9.792311336389298e-05,1.187359662390738
2025-03-08 14:23:43.347,8.315388120992009e-05,1.4910796268764297
2025-03-08 14:23:43.367,6.867913821926469e-05,1.7351895559668031
2025-03-08 14:23:43.386,5.390683314425604e-05,1.93663270616447
2025-03-08 14:23:43.406,3.834642006959059e-05,2.1140123807525786
2025-03-08 14:23:43.425,2.173695032466458e-05,2.2822106552052546
2025-03-08 14:23:43.445,4.1503408386331e-06,2.447864811545638
2025-03-08 14:23:43.464,-1.395084151033172e-05,2.6068934269659123
2025-03-08 14:23:43.484,-3.1720960710326275e-05,2.744710794823173
2025-03-08 14:23:43.504,-4.801826528937218e-05,2.838993457647849
2025-03-08 14:23:43.523,-6.15729713921555e-05,2.8641701520015324
2025-03-08 14:23:43.543,-7.122024214390119e-05,2.796453225617188
2025-03-08 14:23:43.562,-7.616122850912114e-05,2.618284715196816
2025-03-08 14:23:43.582,-7.619768263689169e-05,2.321411582571008
2025-03-08 14:23:43.601,-7.187811627547123e-05,1.908241183287436
2025-03-08 14:23:43.621,-6.450324852883098e-05,1.3915234138268238
2025-03-08 14:23:43.640,-5.597065670317388e-05,0.7927025772712162
2025-03-08 14:23:43.660,-4.849104816272406e-05,0.1394506868472124
2025-03-08 14:23:43.679,-4.425996275178499e-05,-0.5370948607688893
2025-03-08 14:23:43.699,-4.5175893810427575e-05,-1.2050066848169676
2025-03-08 14:23:43.718,-5.263622284121773e-05,-1.833982897897655
2025-03-08 14:23:43.738,-6.736622773437783e-05,-2.397477584632014
2025-03-08 14:23:43.757,-8.923060387402031e-05,-2.8745150975843474
2025-03-08 14:23:43.777,-0.0001170565723055,-3.251014338176107
2025-03-08 14:23:43.796,-0.0001485755022283,-3.520297068759193
2025-03-08 14:23:43.816,-0.0001805778680389,-3.6824539306515143
2025-03-08 14:23:43.836,-0.0002092871179702,-3.7424820306772286
2025-03-08 14:23:43.855,-0.0002308761913643,-3.7075359546804174
2025-03-08 14:23:43.875,-0.0002420257354694,-3.58406879595333
2025-03-08 14:23:43.894,-0.0002404360627658,-3.3758555529677454
2025-03-08 14:23:43.914,-0.0002252200602368,-3.0837265186516856
2025-03-08 14:23:43.933,-0.0001971119643073,-2.7072876250470914
2025-03-08 14:23:43.953,-0.0001584391657773,-2.2481522475427846
2025-03-08 14:23:43.972,-0.0001128362737649,-1.7135636111454964
2025-03-08 14:23:43.992,-6.4731251805916e-05,-1.1190332483612908
2025-03-08 14:23:44.011,-1.8676676216274943e-05,-0.488876134773978
2025-03-08 14:23:44.031,2.138155153450305e-05,0.1458081846160478
2025-03-08 14:23:44.050,5.278291874228303e-05,0.7513263256073625
2025-03-08 14:23:44.070,7.461538422130624e-05,1.2966752194030358
2025-03-08 14:23:44.089,8.778070384953487e-05,1.7585252197501111
2025-03-08 14:23:44.109,9.456735127370989e-05,2.124657184997233
2025-03-08 14:23:44.129,9.782246365227384e-05,2.3951099449670634
2025-03-08 14:23:44.148,9.99977465859212e-05,2.5809143600810307
2025-03-08 14:23:44.168,0.0001024108319883,2.7008225565412265
2025-03-08 14:23:44.187,0.0001049667398167,2.7767922235699576
2025-03-08 14:23:44.207,0.0001063852061417,2.8291477464176604
2025-03-08 14:23:44.226,0.0001047989463751,2.8723275020613848
2025-03-08 14:23:44.246,9.849963448692678e-05,2.911957606473568
2025-03-08 14:23:44.265,8.660543935356025e-05,2.943700338612881
2025-03-08 14:23:44.285,6.947017958045811e-05,2.953967594490128
2025-03-08 14:23:44.304,4.872725508180648e-05,2.9222420132307336
2025-03-08 14:23:44.324,2.695193909504248e-05,2.824495372425017
2025-03-08 14:23:44.343,7.025306848864796e-06,2.637101804591876
2025-03-08 14:23:44.363,-8.62145426181544e-06,2.3407150525892075
2025-03-08 14:23:44.382,-1.864263236075069e-05,1.9237314174911249
2025-03-08 14:23:44.402,-2.3075435983970777e-05,1.3850716508562584
2025-03-08 14:23:44.422,-2.3207986463705223e-05,0.7360188620669078
2025-03-08 14:23:44.441,-2.1101207975101103e-05,0.0007895807931543
2025-03-08 14:23:44.461,-1.896633007733626e-05,-0.7844884895860109
2025-03-08 14:23:44.480,-1.860870011407536e-05,-1.5745627049136548
2025-03-08 14:23:44.500,-2.1077632800700357e-05,-2.319450366959186
2025-03-08 14:23:44.519,-2.6567415513121264e-05,-2.969885602987065
2025-03-08 14:23:44.539,-3.4533506798622264e-05,-3.482940421299464
2025-03-08 14:23:44.558,-4.393718201075695e-05,-3.8268397108437777
2025-03-08 14:23:44.578,-5.351730673081191e-05,-3.984156726315516
2025-03-08 14:23:44.597,-6.200803252514052e-05,-3.95295066141864
2025-03-08 14:23:44.617,-6.826865233650849e-05,-3.74585797245292
2025-03-08 14:23:44.636,-7.135268464009133e-05,-3.387536635044569
2025-03-08 14:23:44.656,-7.058862024064805e-05,-2.9110956349555552
2025-03-08 14:23:44.675,-6.573127443123498e-05,-2.354191745771102
2025-03-08 14:23:44.695,-5.715541028239381e-05,-1.7553715669399674
2025-03-08 14:23:44.714,-4.5966662122944126e-05,-1.151044153203982
2025-03-08 14:23:44.734,-3.3903020929499254e-05,-0.573254110533954
2025-03-08 14:23:44.754,-2.3021237402348585e-05,-0.0482315413385443
2025-03-08 14:23:44.773,-1.5308836571424042e-05,0.4044466176554058
2025-03-08 14:23:44.793,-1.239540270671662e-05,0.772313396530628
2025-03-08 14:23:44.812,-1.5415598251017492e-05,1.0502835555806942
2025-03-08 14:23:44.832,-2.491708323648811e-05,1.240810809959161
2025-03-08 14:23:44.851,-4.067811163576832e-05,1.3538225487522346
2025-03-08 14:23:44.871,-6.144160464472635e-05,1.4061751368510562
2025-03-08 14:23:44.890,-8.474757353356517e-05,1.4203424509325473
2025-03-08 14:23:44.910,-0.0001070909471725,1.42217407642713
2025-03-08 14:23:44.929,-0.0001245102643933,1.437785534340836
2025-03-08 14:23:44.949,-0.0001335036200315,1.4898709196709268
2025-03-08 14:23:44.968,-0.0001319821422827,1.593891092916759
2025-03-08 14:23:44.988,-0.0001199056501092,1.7546872287301325
2025-03-08 14:23:45.007,-9.934810074517429e-05,1.964122211919171
2025-03-08 14:23:45.027,-7.39634176986994e-05,2.200344718327796
2025-03-08 14:23:45.047,-4.8042048118801e-05,2.4291374059431146
2025-03-08 14:23:45.066,-2.545999993058552e-05,2.6074943015789267
2025-03-08 14:23:45.086,-8.801443866517046e-06,2.689105592937622
2025-03-08 14:23:45.105,1.165759961878441e-06,2.6309570533671485
2025-03-08 14:23:45.125,5.588435918184023e-06,2.399961929606398
2025-03-08 14:23:45.144,7.196464815369775e-06,1.978541708458614
2025-03-08 14:23:45.164,9.589393101606988e-06,1.3683252366802785
2025-03-08 14:23:45.183,1.626360108166228e-05,0.5915089410579383
2025-03-08 14:23:45.203,2.9593688101754462e-05,-0.3102279636987169
2025-03-08 14:23:45.222,5.003681571276379e-05,-1.2791048656375796
2025-03-08 14:23:45.242,7.5797238547877e-05,-2.246596906486769
2025-03-08 14:23:45.261,0.0001030677876117,-3.140290213542811
2025-03-08 14:23:45.281,0.0001268039004187,-3.891565760467461
2025-03-08 14:23:45.300,0.0001418451098093,-4.443230292446274
2025-03-08 14:23:45.320,0.0001441132155899,-4.756057787957071
2025-03-08 14:23:45.340,0.0001315985902061,-4.8132062140755485
2025-03-08 14:23:45.359,0.0001049042131921,-4.621702561494054
2025-03-08 14:23:45.379,6.723597481929424e-05,-4.21064625705788
2025-03-08 14:23:45.398,2.3862108603358334e-05,-3.626381413679446
2025-03-08 14:23:45.418,-1.8827526293543584e-05,-2.9254772840743817
2025-03-08 14:23:45.437,-5.446470602976901e-05,-2.1667687789695096
2025-03-08 14:23:45.457,-7.782257408487145e-05,-1.403837985391296
2025-03-08 14:23:45.476,-8.569183100807463e-05,-0.6791482358687623
2025-03-08 14:23:45.496,-7.733448419997367e-05,-0.0206404301347083
2025-03-08 14:23:45.515,-5.441712447641933e-05,0.5589198286326874
2025-03-08 14:23:45.535,-2.0448932609163867e-05,1.0600733485174731
2025-03-08 14:23:45.554,2.0102990310325235e-05,1.4929196625536405
2025-03-08 14:23:45.574,6.273651096772546e-05,1.872384017585735
2025-03-08 14:23:45.593,0.0001035933952887,2.2134623337415964
2025-03-08 14:23:45.613,0.0001397502956983,2.5273113779256944
2025-03-08 14:23:45.632,0.0001691738638131,2.818819399524592
2025-03-08 14:23:45.652,0.0001905264922021,3.0859586050094645
2025-03-08 14:23:45.672,0.0002030181182623,3.3208334396972408
2025-03-08 14:23:45.691,0.000206408838748,3.511974219448162
2025-03-08 14:23:45.711,0.0002011458474351,3.647172037579167
2025-03-08 14:23:45.730,0.0001885208003137,3.716070850902491
2025-03-08 14:23:45.750,0.0001706935610574,3.711850365737255
2025-03-08 14:23:45.769,0.000150467385078,3.631637570553651
2025-03-08 14:23:45.789,0.0001308072686329,3.4757130086753416
2025-03-08 14:23:45.808,0.0001142146406929,3.246000461784733
2025-03-08 14:23:45.828,0.0001021514275093,2.944584817061154
2025-03-08 14:23:45.847,9.471485956066868e-05,2.572978069987833
2025-03-08 14:23:45.867,9.069502114823708e-05,2.132535689581177
2025-03-08 14:23:45.886,8.801122684728366e-05,1.6259165835203155
2025-03-08 14:23:45.906,8.436047411982733e-05,1.058974531499285
2025-03-08 14:23:45.925,7.780371122560333e-05,0.4421923588203112
2025-03-08 14:23:45.945,6.705629922792358e-05,-0.2091289633760726
2025-03-08 14:23:45.965,5.144661554910767e-05,-0.8762501896292673
2025-03-08 14:23:45.984,3.07277771244381e-05,-1.5396186261267253
2025-03-08 14:23:46.004,4.9914675339094375e-06,-2.1818481838593864
2025-03-08 14:23:46.023,-2.5206730890037087e-05,-2.7899282168327577
2025-03-08 14:23:46.043,-5.8608634517437e-05,-3.355753281045054
2025-03-08 14:23:46.062,-9.310786583692776e-05,-3.874676489836816
2025-03-08 14:23:46.082,-0.0001258658384331,-4.34254685895672
2025-03-08 14:23:46.101,-0.0001537341495175,-4.752282317707166
2025-03-08 14:23:46.121,-0.0001738937365271,-5.0912294760788885
2025-03-08 14:23:46.140,-0.0001845219882973,-5.340323848282171
2025-03-08 14:23:46.160,-0.0001852615253338,-5.475509800500849
2025-03-08 14:23:46.179,-0.0001773049533993,-5.471210329103667
2025-03-08 14:23:46.199,-0.0001630311806878,-5.305051253431615
2025-03-08 14:23:46.218,-0.0001453030864092,-4.962687623000096
2025-03-08 14:23:46.238,-0.0001266883197742,-4.44153435191599
2025-03-08 14:23:46.257,-0.0001088992871031,-3.752485080742837
2025-03-08 14:23:46.277,-9.262914373367057e-05,-2.919247974836502
2025-03-08 14:23:46.297,-7.775810969126399e-05,-1.9755794680356773
2025-03-08 14:23:46.316,-6.374150070906836e-05,-0.961245358449448
2025-03-08 14:23:46.336,-4.995378395744663e-05,0.0822060754137849
2025-03-08 14:23:46.355,-3.585687432729882e-05,1.114893391254634
2025-03-08 14:23:46.375,-2.101028930795732e-05,2.100733955126059
2025-03-08 14:23:46.394,-5.034665495780962e-06,3.008264806669569
2025-03-08 14:23:46.414,1.2379582459598388e-05,3.810605375390077
2025-03-08 14:23:46.433,3.141391063970707e-05,4.48520458197898
2025-03-08 14:23:46.453,5.206624991068516e-05,5.013908483521712
2025-03-08 14:23:46.472,7.412679609087623e-05,5.383563401749599
2025-03-08 14:23:46.492,9.714660023262884e-05,5.5869908233518455
2025-03-08 14:23:46.511,0.0001203397793505,5.623901122027766
2025-03-08 14:23:46.531,0.0001424267157639,5.50126119969379
2025-03-08 14:23:46.550,0.0001615233510971,5.232804319776494
2025-03-08 14:23:46.570,0.0001752113563328,4.837682798652682
2025-03-08 14:23:46.590,0.0001808412597775,4.338578655904022
2025-03-08 14:23:46.609,0.000175980522472,3.759768404398645
2025-03-08 14:23:46.629,0.0001588308614202,3.125605012342918
2025-03-08 14:23:46.648,0.0001284698021619,2.459648927433182
2025-03-08 14:23:46.668,8.488668884537317e-05,1.7843645140407407
2025-03-08 14:23:46.687,2.8895872328723603e-05,1.121048291925752
2025-03-08 14:23:46.707,-3.794186620413029e-05,0.4895753166582665
2025-03-08 14:23:46.726,-0.0001132843638745,-0.0923418867757863
2025-03-08 14:23:46.746,-0.0001938319798597,-0.6104445549077596
2025-03-08 14:23:46.765,-0.0002750781404513,-1.0555454744978383
2025-03-08 14:23:46.785,-0.000351132135937,-1.4250247368512157
2025-03-08 14:23:46.804,-0.0004147916131665,-1.7236828312590555
2025-03-08 14:23:46.824,-0.0004580133663196,-1.9635467202624035
2025-03-08 14:23:46.843,-0.0004728451409232,-2.1624757874090377
2025-03-08 14:23:46.863,-0.0004527615360341,-2.3416828995010706
2025-03-08 14:23:46.883,-0.000394231298909,-2.522468626252557
2025-03-08 14:23:46.902,-0.0002982630927102,-2.7225484382093894
2025-03-08 14:23:46.922,-0.0001716324547597,-2.9524001202291106
2025-03-08 14:23:46.941,-2.746317688676567e-05,-3.2121371999516786
2025-03-08 14:23:46.961,0.0001151716449078,-3.489506672006684
2025-03-08 14:23:46.980,0.0002329037878428,-3.7596162741974952
2025-03-08 14:23:47.000,0.0003010843405773,-3.9868149834696776
2025-03-08 14:23:47.019,0.0002979680766782,-4.128759063670673
2025-03-08 14:23:47.039,0.0002094739984881,-4.142186968442874
2025-03-08 14:23:47.058,3.3523587187147115e-05,-3.989469613267711
2025-03-08 14:23:47.078,-0.0002172300937531,-3.6447681138775
2025-03-08 14:23:47.097,-0.0005152522287435,-3.0987072202600463
2025-03-08 14:23:47.117,-0.0008209285474264,-2.3608200762028737
2025-03-08 14:23:47.136,-0.0010879655468617,-1.4594960868638962
2025-03-08 14:23:47.156,-0.0012704518399238,-0.4396068011507408
2025-03-08 14:23:47.175,-0.0013303361851989,0.6417049650111158
2025-03-08 14:23:47.195,-0.0012440254016296,1.720426270565837
2025-03-08 14:23:47.215,-0.0010069571200559,2.731575323099488
2025-03-08 14:23:47.234,-0.0006353237125527,3.614953572033713
2025-03-08 14:23:47.254,-0.0001645665569568,4.320203384573785
2025-03-08 14:23:47.273,0.0003552325969308,4.810766406561395
2025-03-08 14:23:47.293,0.0008664132808299,5.066472735237451
2025-03-08 14:23:47.312,0.0013121410420227,5.084592372067248
2025-03-08 14:23:47.332,0.0016447615068407,4.879266181091306
2025-03-08 14:23:47.351,0.0018326786733017,4.479353052980747
2025-03-08 14:23:47.371,0.0018645534437062,3.92490749683538
2025-03-08 14:23:47.390,0.0017500597545461,3.2627058788293555
2025-03-08 14:23:47.410,0.001517060392255,2.54140289095328
2025-03-08 14:23:47.429,0.0012057881756854,1.8069552821273327
2025-03-08 14:23:47.449,0.0008612734351888,1.0988610919996036
2025-03-08 14:23:47.468,0.0005256391215448,0.4475552145753034
2025-03-08 14:23:47.488,0.0002318470474683,-0.1269374820800115
2025-03-08 14:23:47.508,3.105237364289264e-08,-0.6151730774793905
2025-03-08 14:23:47.527,-0.0001631475597112,-1.0174603751158364
2025-03-08 14:23:47.547,-0.0002624250629411,-1.3422435972265545
2025-03-08 14:23:47.566,-0.0003100299278408,-1.6039156487022028
2025-03-08 14:23:47.586,-0.0003211394704262,-1.820289135982058
2025-03-08 14:23:47.605,-0.0003098611432511,-2.009960745329898
2025-03-08 14:23:47.625,-0.0002865850679052,-2.1898064144888125
2025-03-08 14:23:47.644,-0.0002570723865854,-2.372829409488286
2025-03-08 14:23:47.664,-0.0002231389526243,-2.5665428101326824
2025-03-08 14:23:47.683,-0.0001843923690327,-2.772006167380776
2025-03-08 14:23:47.703,-0.0001402724847326,-2.9835767542651888
2025-03-08 14:23:47.722,-9.167289879148568e-05,-3.189400720437383
2025-03-08 14:23:47.742,-4.1661732752968585e-05,-3.3726405381202227
2025-03-08 14:23:47.761,4.823832215327075e-06,-3.5133614873195484
2025-03-08 14:23:47.781,4.210285696701028e-05,-3.590866053658266
2025-03-08 14:23:47.801,6.52796306287208e-05,-3.5861356443708656
2025-03-08 14:23:47.820,7.168541037574825e-05,-3.484005881593813
2025-03-08 14:23:47.840,6.178025899847774e-05,-3.2747894632663845
2025-03-08 14:23:47.859,3.92061321148162e-05,-2.9552066414582097
2025-03-08 14:23:47.879,9.92180275754385e-06,-2.528608154422966
2025-03-08 14:23:47.898,-1.935543158814181e-05,-2.004548479910705
2025-03-08 14:23:47.918,-4.291401268047034e-05,-1.3978076063456846
2025-03-08 14:23:47.937,-5.742811409709989e-05,-0.7269973307864172
2025-03-08 14:23:47.957,-6.250816306161937e-05,-0.012933982415077
2025-03-08 14:23:47.976,-6.032056882682164e-05,0.7230008174392016
2025-03-08 14:23:47.996,-5.453891146760834e-05,1.4602777209286577
2025-03-08 14:23:48.015,-4.90835342570616e-05,2.1802041390322886
2025-03-08 14:23:48.035,-4.706707451097671e-05,2.8663143677247582
2025-03-08 14:23:48.054,-5.018485020705148e-05,3.504090172393268
2025-03-08 14:23:48.074,-5.86154677475171e-05,4.0800851190343375
2025-03-08 14:23:48.093,-7.13786636814172e-05,4.580731300596701
2025-03-08 14:23:48.113,-8.699336000726234e-05,4.991287908130926
2025-03-08 14:23:48.133,-0.0001041797690955,5.295430317760305
2025-03-08 14:23:48.152,-0.0001223250727668,5.475821540460789
2025-03-08 14:23:48.172,-0.000141540435449,5.515715353103555
2025-03-08 14:23:48.191,-0.0001623297372495,5.401342835222693
2025-03-08 14:23:48.211,-0.000185050709829,5.124640059923543
2025-03-08 14:23:48.230,-0.0002094049381255,4.6858128320918055
2025-03-08 14:23:48.250,-0.0002341556226658,4.095263629986725
2025-03-08 14:23:48.269,-0.0002571841231702,3.3744713748921797
2025-03-08 14:23:48.289,-0.0002758900482813,2.555501151873802
2025-03-08 14:23:48.308,-0.0002878360587212,1.6789629591282482
2025-03-08 14:23:48.328,-0.0002914569549292,0.7904742392850183
2025-03-08 14:23:48.347,-0.0002866118040827,-0.0640083932882774
2025-03-08 14:23:48.367,-0.0002747735810768,-0.8433261906915379
2025-03-08 14:23:48.386,-0.0002587324541939,-1.5158878969512355
2025-03-08 14:23:48.406,-0.0002418329376591,-2.0632460986538392
2025-03-08 14:23:48.426,-0.0002269388025373,-2.4818422122340724
2025-03-08 14:23:48.445,-0.0002154472508239,-2.7825954624788185
2025-03-08 14:23:48.465,-0.0002066756078464,-2.988382193917123
2025-03-08 14:23:48.484,-0.0001978188234723,-3.129807860857777
2025-03-08 14:23:48.504,-0.0001845088258695,-3.239950978438042
2025-03-08 14:23:48.523,-0.0001618643673837,-3.348917576173457
2025-03-08 14:23:48.543,-0.0001258027180761,-3.4790718695873037
2025-03-08 14:23:48.562,-7.429503627298896e-05,-3.641696231361141
2025-03-08 14:23:48.582,-8.232892002150974e-06,-3.835579439704424
2025-03-08 14:23:48.601,6.833017580590479e-05,-4.047666333391352
2025-03-08 14:23:48.621,0.0001486268999257,-4.255502588986877
2025-03-08 14:23:48.640,0.0002242166591315,-4.4308805425283255
2025-03-08 14:23:48.660,0.0002864151990074,-4.543921354693504
2025-03-08 14:23:48.679,0.0003278441778614,-4.566848718850919
2025-03-08 14:23:48.699,0.0003437846538412,-4.476900742219135
2025-03-08 14:23:48.718,0.0003330306498805,-4.258129859773252
2025-03-08 14:23:48.738,0.0002980479588113,-3.9021596548504416
2025-03-08 14:23:48.758,0.0002444187749621,-3.408190430034224
2025-03-08 14:23:48.777,0.000179721588995,-2.782603013224916
2025-03-08 14:23:48.797,0.000112110953254,-2.0384266763740704
2025-03-08 14:23:48.816,4.891653417893778e-05,-1.194805031156822
2025-03-08 14:23:48.836,-4.426261612593457e-06,-0.2764899339938118
2025-03-08 14:23:48.855,-4.489018614014526e-05,0.6866775064427441
2025-03-08 14:23:48.875,-7.17627806686779e-05,1.6604180295097115
2025-03-08 14:23:48.894,-8.608489230163138e-05,2.6070143646110946
2025-03-08 14:23:48.914,-8.987025285570895e-05,3.486935424292461
2025-03-08 14:23:48.933,-8.534527608978016e-05,4.261281086538921
2025-03-08 14:23:48.953,-7.436639684386263e-05,4.894983968316405
2025-03-08 14:23:48.972,-5.809018350569088e-05,5.360340880959195
2025-03-08 14:23:48.992,-3.692209518824767e-05,5.640159828586657
2025-03-08 14:23:49.011,-1.07377925048297e-05,5.729768340453052
2025-03-08 14:23:49.031,2.0671742209968777e-05,5.637379241540043
2025-03-08 14:23:49.051,5.703541509469287e-05,5.382740519880581
2025-03-08 14:23:49.070,9.707205803452634e-05,4.994412984627925
2025-03-08 14:23:49.090,0.0001381769065109,4.506259740617908
2025-03-08 14:23:49.109,0.000176481004365,3.95375056711084
2025-03-08 14:23:49.129,0.0002073356893524,3.370558886399305
2025-03-08 14:23:49.148,0.000226121475877,2.7857766914165563
2025-03-08 14:23:49.168,0.0002291693172813,2.221963702733556
2025-03-08 14:23:49.187,0.00021457460314,1.6941759378982928
2025-03-08 14:23:49.207,0.0001827524335616,1.2100363129329512
2025-03-08 14:23:49.226,0.00013665163999,0.7707777829668067
2025-03-08 14:23:49.246,8.157211924135351e-05,0.3730259789086396
2025-03-08 14:23:49.265,2.4537004637903843e-05,0.0109603632804329
2025-03-08 14:23:49.285,-2.677889216411444e-05,-0.3215443860436447
2025-03-08 14:23:49.304,-6.543182658077307e-05,-0.6291447184913931
2025-03-08 14:23:49.324,-8.660824655277975e-05,-0.9138739853248482
2025-03-08 14:23:49.344,-8.866062112915993e-05,-1.174751811077188
2025-03-08 14:23:49.363,-7.345936322621979e-05,-1.4081903095011776
2025-03-08 14:23:49.383,-4.59270437297777e-05,-1.6091055089406094
2025-03-08 14:23:49.402,-1.287003664895823e-05,-1.7724963149814408
2025-03-08 14:23:49.422,1.8558923576369324e-05,-1.8951096231301732
2025-03-08 14:23:49.441,4.234418499721377e-05,-1.9767300505417944
2025-03-08 14:23:49.461,5.469028895974447e-05,-2.020682311662682
2025-03-08 14:23:49.480,5.453752133477713e-05,-2.033337565367781
2025-03-08 14:23:49.500,4.351212487365119e-05,-2.022730398884661
2025-03-08 14:23:49.519,2.5399756912210327e-05,-1.9967156956026264
2025-03-08 14:23:49.539,5.238981928877697e-06,-1.9612852683731556
2025-03-08 14:23:49.558,-1.1864249608367833e-05,-1.919616415876302
2025-03-08 14:23:49.578,-2.202032487138256e-05,-1.872141785243555
2025-03-08 14:23:49.597,-2.362200567109437e-05,-1.817540460760448
2025-03-08 14:23:49.617,-1.782764589203964e-05,-1.7542318587548378
2025-03-08 14:23:49.636,-8.248812564963292e-06,-1.6818250687842815
2025-03-08 14:23:49.656,7.450750499046647e-08,-1.6020443102208497
2025-03-08 14:23:49.676,2.0727911774718367e-06,-1.5188509393881997
2025-03-08 14:23:49.695,-5.999692430732967e-06,-1.4377406554939285
2025-03-08 14:23:49.715,-2.5594039942424364e-05,-1.3644484434555662
2025-03-08 14:23:49.734,-5.545980346408833e-05,-1.3034738776691248
2025-03-08 14:23:49.754,-9.183205372033142e-05,-1.256876676791112
2025-03-08 14:23:49.773,-0.0001291267377376,-1.2236630823237051
2025-03-08 14:23:49.793,-0.0001609825439474,-1.1998436834164323
2025-03-08 14:23:49.812,-0.0001814459193249,-1.179007763197522
2025-03-08 14:23:49.832,-0.0001860835124786,-1.1531361267880813
2025-03-08 14:23:49.851,-0.0001728219530917,-1.1134054085155414
2025-03-08 14:23:49.871,-0.0001423629553883,-1.050883748113301
2025-03-08 14:23:49.890,-9.81075259323046e-05,-0.9571902321995908
2025-03-08 14:23:49.910,-4.56345030939745e-05,-0.8252929212594541
2025-03-08 14:23:49.929,8.13211807429029e-06,-0.6505947441404988
2025-03-08 14:23:49.949,5.591831489430057e-05,-0.4323037534366541
2025-03-08 14:23:49.969,9.115264181116976e-05,-0.1748563493178196
2025-03-08 14:23:49.988,0.0001089885843796,0.1110540966615872
2025-03-08 14:23:50.008,0.0001071578638613,0.408387494393081
2025-03-08 14:23:50.027,8.645792407897198e-05,0.6950323786434065
2025-03-08 14:23:50.047,5.070320033138472e-05,0.946525758919231
2025-03-08 14:23:50.066,6.102853256418042e-06,1.1398382617054124
2025-03-08 14:23:50.086,-3.9802393220186e-05,1.2574742086856343
2025-03-08 14:23:50.105,-7.940357552081301e-05,1.2910051465814891
2025-03-08 14:23:50.125,-0.0001062384073101,1.2432777533791843
2025-03-08 14:23:50.144,-0.0001159644330307,1.1288140976607333
2025-03-08 14:23:50.164,-0.0001069635810807,0.9722432272218094
2025-03-08 14:23:50.183,-8.050796985685224e-05,0.8049152457550747
2025-03-08 14:23:50.203,-4.047000525552555e-05,0.6601486593633439
2025-03-08 14:23:50.222,7.376091082412529e-06,0.5678411913838043
2025-03-08 14:23:50.242,5.633875042302374e-05,0.5493825309151507
2025-03-08 14:23:50.262,9.989728301073632e-05,0.6138573015647146
2025-03-08 14:23:50.281,0.0001327011386906,0.7563471080881038
2025-03-08 14:23:50.301,0.0001513308331863,0.9587402934658892
2025-03-08 14:23:50.320,0.0001547417605529,1.192940690413033
2025-03-08 14:23:50.340,0.0001443687114966,1.4258785249295705
2025-03-08 14:23:50.359,0.0001238796478847,1.625383363109658
2025-03-08 14:23:50.379,9.855274655357838e-05,1.765832465574093
2025-03-08 14:23:50.398,7.428116559771584e-05,1.8325386763816909
2025-03-08 14:23:50.418,5.632393629978184e-05,1.8240645663948616
2025-03-08 14:23:50.437,4.80709815552126e-05,1.7520090452730437
2025-03-08 14:23:50.457,5.017645171111448e-05,1.6382664644388094
2025-03-08 14:23:50.476,6.036052580257328e-05,1.5102466387962217
2025-03-08 14:23:50.496,7.398509182444019e-05,1.3949818427403011
2025-03-08 14:23:50.515,8.52527451295742e-05,1.313328944995561
2025-03-08 14:23:50.535,8.86750852308551e-05,1.2755065076862728
2025-03-08 14:23:50.554,8.03897080599205e-05,1.278944502028131
2025-03-08 14:23:50.574,5.898623510526336e-05,1.308905663858413
2025-03-08 14:23:50.594,2.5678429342438145e-05,1.3416847667266318
2025-03-08 14:23:50.613,-1.613262146540805e-05,1.3495880830419344
2025-03-08 14:23:50.633,-6.167879489477381e-05,1.30652170773445
2025-03-08 14:23:50.652,-0.0001057208065923,1.1929745522328812
2025-03-08 14:23:50.672,-0.0001432827689964,0.9994458311635634
2025-03-08 14:23:50.691,-0.0001701689507293,0.7278159924061791
2025-03-08 14:23:50.711,-0.0001833500511511,0.390640915281279
2025-03-08 14:23:50.730,-0.0001813068224248,0.0087374147246105
2025-03-08 14:23:50.750,-0.0001643124670806,-0.3923366171599865
2025-03-08 14:23:50.769,-0.0001345357852256,-0.7862150531653382
2025-03-08 14:23:50.789,-9.583507251543598e-05,-1.1493941469104485
2025-03-08 14:23:50.808,-5.319608678766153e-05,-1.4640612924886818
2025-03-08 14:23:50.828,-1.1896461978257204e-05,-1.7196747950274025
2025-03-08 14:23:50.847,2.3411768598871715e-05,-1.9131345690448007
2025-03-08 14:23:50.867,4.94683026958679e-05,-2.0476686425880937
2025-03-08 14:23:50.887,6.48316745907463e-05,-2.130809374540694
2025-03-08 14:23:50.906,6.98914068700216e-05,-2.171971514494808
2025-03-08 14:23:50.926,6.651219255920052e-05,-2.180146452975626
2025-03-08 14:23:50.945,5.744216652280504e-05,-2.162133078063711
2025-03-08 14:23:50.965,4.564831983079284e-05,-2.121596651831493
2025-03-08 14:23:50.984,3.3727136117786e-05,-2.059109158826228
2025-03-08 14:23:51.004,2.349436007724168e-05,-1.9731612822128364
2025-03-08 14:23:51.023,1.5802048523346242e-05,-1.8619278763974512
2025-03-08 14:23:51.043,1.0578305053347956e-05,-1.7253373430341636
2025-03-08 14:23:51.062,7.044859221240583e-06,-1.5668231124602048
2025-03-08 14:23:51.082,4.043951167336625e-06,-1.3941345100475817
2025-03-08 14:23:51.101,3.983723557218305e-07,-1.218815807685368
2025-03-08 14:23:51.121,-4.766202679843174e-06,-1.054370983666114
2025-03-08 14:23:51.140,-1.179337859162054e-05,-0.9135656520012212
2025-03-08 14:23:51.160,-2.0400194544976734e-05,-0.8056130272853301
2025-03-08 14:23:51.179,-2.9728692305959505e-05,-0.734046382850828
2025-03-08 14:23:51.199,-3.8536804920214125e-05,-0.6958871846545442
2025-03-08 14:23:51.219,-4.549656618763012e-05,-0.6823514513452699
2025-03-08 14:23:51.238,-4.954500871984757e-05,-0.6809191426852338
2025-03-08 14:23:51.258,-5.021481609724782e-05,-0.6782424029829096
2025-03-08 14:23:51.277,-4.786241182159395e-05,-0.6631712610066691
2025-03-08 14:23:51.297,-4.3716150419786666e-05,-0.6291624897437654
2025-03-08 14:23:51.316,-3.969143550856641e-05,-0.5754955520943281
2025-03-08 14:23:51.336,-3.796508538089168e-05,-0.5070060853317178
2025-03-08 14:23:51.355,-4.03655925544196e-05,-0.4324008163912513
2025-03-08 14:23:51.375,-4.7710565865439205e-05,-0.3615603912697911
2025-03-08 14:23:51.394,-5.92902918459863e-05,-0.3024846161289181
2025-03-08 14:23:51.414,-7.272227398886789e-05,-0.2586211853800777
2025-03-08 14:23:51.433,-8.433579011564977e-05,-0.227215903018522
2025-03-08 14:23:51.453,-9.00690901719934e-05,-0.1990560505811476
2025-03-08 14:23:51.472,-8.664219977511893e-05,-0.1596337224096121
2025-03-08 14:23:51.492,-7.262571407085643e-05,-0.0914451949258977
2025-03-08 14:23:51.512,-4.903224706448759e-05,0.0230540637918006
2025-03-08 14:23:51.531,-1.919895350703599e-05,0.1983874116952597
2025-03-08 14:23:51.551,1.2045221671279362e-05,0.4434044329138942
2025-03-08 14:23:51.570,3.968866727898935e-05,0.75944872133645
2025-03-08 14:23:51.590,5.9907522735117786e-05,1.139599424248294
2025-03-08 14:23:51.609,7.106178376604427e-05,1.569060973365169
2025-03-08 14:23:51.629,7.402092373090505e-05,2.026612762735902
2025-03-08 14:23:51.648,7.173830176228889e-05,2.4869004216771926
2025-03-08 14:23:51.668,6.821265131812029e-05,2.9232395539646605
2025-03-08 14:23:51.687,6.71724356292075e-05,3.310504187852564
2025-03-08 14:23:51.707,7.093521987908251e-05,3.627619618171785
2025-03-08 14:23:51.726,7.982964212609368e-05,3.859227565598868
2025-03-08 14:23:51.746,9.231688962492797e-05,3.996261057220666
2025-03-08 14:23:51.765,0.0001056596637742,4.035420815086191
2025-03-08 14:23:51.785,0.0001168250698508,3.977816396903707
2025-03-08 14:23:51.805,0.0001233133406324,3.8272535835042008
2025-03-08 14:23:51.824,0.000123708397123,3.5887499432025667
2025-03-08 14:23:51.844,0.0001178713226213,3.267789983148819
2025-03-08 14:23:51.863,0.0001068022527922,2.870571554519301
2025-03-08 14:23:51.883,9.226482235882288e-05,2.405098173168333
2025-03-08 14:23:51.902,7.629790964635612e-05,1.8825764288404303
2025-03-08 14:23:51.922,6.073744196014029e-05,1.3183668351707467
2025-03-08 14:23:51.941,4.684626195978912e-05,0.7318361714923255
2025-03-08 14:23:51.961,3.511330674595772e-05,0.1448503322743556
2025-03-08 14:23:51.980,2.524389010025536e-05,-0.4208317241480617
2025-03-08 14:23:52.000,1.63271204815489e-05,-0.9465667469153332
2025-03-08 14:23:52.019,7.1378780126761866e-06,-1.4193678047918985
2025-03-08 14:23:52.039,-3.489416999474108e-06,-1.8332579792231196
2025-03-08 14:23:52.058,-1.628948038460717e-05,-2.1891267031029957
2025-03-08 14:23:52.078,-3.127385647279369e-05,-2.493263216778262
2025-03-08 14:23:52.097,-4.758637078209272e-05,-2.7551017652100995
2025-03-08 14:23:52.117,-6.355574135788469e-05,-2.984827594690012
2025-03-08 14:23:52.137,-7.696321769496813e-05,-3.1913693364375826
2025-03-08 14:23:52.156,-8.550086457720949e-05,-3.3810476381929244
2025-03-08 14:23:52.176,-8.734803781225329e-05,-3.556890590891417
2025-03-08 14:23:52.195,-8.174865624512544e-05,-3.718452795666265
2025-03-08 14:23:52.215,-6.944242449899524e-05,-3.86191714742731
2025-03-08 14:23:52.234,-5.2802882382032574e-05,-3.9803026949804376
2025-03-08 14:23:52.254,-3.5575592403749195e-05,-4.0637130734295575
2025-03-08 14:23:52.273,-2.2196119378557186e-05,-4.0996962342070455
2025-03-08 14:23:52.293,-1.6791789650168074e-05,-4.073900747411583
2025-03-08 14:23:52.312,-2.209960516214726e-05,-3.971250338162408
2025-03-08 14:23:52.332,-3.860385096223075e-05,-3.777764207345222
2025-03-08 14:23:52.351,-6.416456615927809e-05,-3.48292256563351
2025-03-08 14:23:52.371,-9.428735867837468e-05,-3.0821951504088383
2025-03-08 14:23:52.390,-0.0001230236955417,-2.5791482419849223
2025-03-08 14:23:52.410,-0.0001443180131488,-1.986523081652925
2025-03-08 14:23:52.430,-0.0001534688461707,-1.3258480234189731
2025-03-08 14:23:52.449,-0.0001483093348518,-0.6254528583490477
2025-03-08 14:23:52.469,-0.0001297748586939,0.0828802417714282
2025-03-08 14:23:52.488,-0.000101686804586,0.7680514111408822
2025-03-08 14:23:52.508,-6.97905684424284e-05,1.40375443359975
2025-03-08 14:23:52.527,-4.029170184505734e-05,1.9717103933375424
2025-03-08 14:23:52.547,-1.827614384025932e-05,2.4633293457797474
2025-03-08 14:23:52.566,-6.427129857859199e-06,2.879425678644063
2025-03-08 14:23:52.586,-4.363521615392728e-06,3.22801562440597
2025-03-08 14:23:52.605,-8.77116410209105e-06,3.5206401282705064
2025-03-08 14:23:52.625,-1.4321762281597796e-05,3.7680137259047433
2025-03-08 14:23:52.644,-1.5182493260584784e-05,3.976009084110181
2025-03-08 14:23:52.664,-6.736226821285331e-06,4.14295815784311
2025-03-08 14:23:52.683,1.297624532520069e-05,4.25896594530545
2025-03-08 14:23:52.703,4.254052587267621e-05,4.307470414246324
2025-03-08 14:23:52.723,7.741895376030815e-05,4.268764550962928
2025-03-08 14:23:52.742,0.0001110933708105,4.124728911915634
2025-03-08 14:23:52.762,0.0001367460370569,3.863691706763957
2025-03-08 14:23:52.781,0.0001489968194381,3.4842246558941548
2025-03-08 14:23:52.801,0.0001452554436605,2.996867368094936
2025-03-08 14:23:52.820,0.0001263868964544,2.423256890456245
2025-03-08 14:23:52.840,9.655767612064508e-05,1.7928202611016877
2025-03-08 14:23:52.859,6.230076902598956e-05,1.1378635026838937
2025-03-08 14:23:52.879,3.100058266560671e-05,0.4883352375690074
2025-03-08 14:23:52.898,9.147923044238815e-06,-0.1323888807362751
2025-03-08 14:23:52.918,8.192970597637481e-07,-0.7096761693717003
2025-03-08 14:23:52.937,6.826507613219188e-06,-1.2373382149691308
2025-03-08 14:23:52.957,2.479755095645864e-05,-1.715138082283745
2025-03-08 14:23:52.976,5.012542197019872e-05,-2.1449733132524216
2025-03-08 14:23:52.996,7.741862331262154e-05,-2.5269391664356
2025-03-08 14:23:53.015,0.0001019616931907,-2.856465552306613
2025-03-08 14:23:53.035,0.0001207680060723,-3.123368943669257
2025-03-08 14:23:53.055,0.000132993815898,-3.313070937294686
2025-03-08 14:23:53.074,0.0001396881600816,-3.409595575561734
2025-03-08 14:23:53.094,0.000143023298134,-3.3994722765978587
2025-03-08 14:23:53.113,0.0001452602657024,-3.275473879190443
2025-03-08 14:23:53.133,0.0001477454860503,-3.039229810468186
2025-03-08 14:23:53.152,0.0001502097565895,-2.702098760901362
2025-03-08 14:23:53.172,0.0001505610100822,-2.2841425394011163
2025-03-08 14:23:53.191,0.0001452435931377,-1.8114870726303576
2025-03-08 14:23:53.211,0.0001301004129952,-1.3126879699819227
2025-03-08 14:23:53.230,0.000101544723686,-0.8148827660469464
2025-03-08 14:23:53.250,5.775244368851553e-05,-0.3405036204359825
2025-03-08 14:23:53.269,-4.494253486034878e-07,0.0948346389298172
2025-03-08 14:23:53.289,-6.92747777226158e-05,0.4829346223219986
2025-03-08 14:23:53.308,-0.0001423861097474,0.8221217560037938
2025-03-08 14:23:53.328,-0.0002119412773944,1.1152263918330352
2025-03-08 14:23:53.348,-0.0002699947531936,1.3670733191700122
2025-03-08 14:23:53.367,-0.0003098682263972,1.5821932432565775
2025-03-08 14:23:53.387,-0.0003271642203024,1.7633459063856896
2025-03-08 14:23:53.406,-0.0003202679678064,1.911138956123245
2025-03-08 14:23:53.426,-0.0002903680317119,2.0246362002827936
2025-03-08 14:23:53.445,-0.0002411429473061,2.1025160769008004
2025-03-08 14:23:53.465,-0.000178266191358,2.144191836203799
2025-03-08 14:23:53.484,-0.0001087891102159,2.1503815009368954
2025-03-08 14:23:53.504,-4.036570373744919e-05,2.1228658043895297
2025-03-08 14:23:53.523,1.970420577074637e-05,2.063493563832256
2025-03-08 14:23:53.543,6.55131323701349e-05,1.9727819340601616
2025-03-08 14:23:53.562,9.344727506409104e-05,1.8486295646793944
2025-03-08 14:23:53.582,0.0001027238959415,1.6856634766572285
2025-03-08 14:23:53.601,9.543045617141454e-05,1.47557514152105
2025-03-08 14:23:53.621,7.605375156780876e-05,1.2085209949647326
2025-03-08 14:23:53.640,5.058696481803266e-05,0.8753569300374798
2025-03-08 14:23:53.660,2.537022081162364e-05,0.4702426657041795
2025-03-08 14:23:53.680,5.867074407725444e-06,-0.0069367216993402
2025-03-08 14:23:53.699,-4.387072943579819e-06,-0.5488116821206234
2025-03-08 14:23:53.719,-4.423139767197834e-06,-1.1397297016804775
2025-03-08 14:23:53.738,4.11556470068168e-06,-1.756023410084064
2025-03-08 14:23:53.758,1.7545506531946496e-05,-2.36732662230692
2025-03-08 14:23:53.777,3.1170729265718974e-05,-2.938866320984739
2025-03-08 14:23:53.797,4.047807790773057e-05,-3.4346048522661494
2025-03-08 14:23:53.816,4.219910178596727e-05,-3.820970904866855
2025-03-08 14:23:53.836,3.500960142305089e-05,-4.070697695302533
2025-03-08 14:23:53.855,1.9741980622279992e-05,-4.166091891183
2025-03-08 14:23:53.875,-9.078853551477436e-07,-4.101038875879566
2025-03-08 14:23:53.894,-2.309886192964684e-05,-3.881281635436376
2025-03-08 14:23:53.914,-4.2820027531446415e-05,-3.522925011271377
2025-03-08 14:23:53.933,-5.688547082361189e-05,-3.04955697629409
2025-03-08 14:23:53.953,-6.368001639724593e-05,-2.488692808191056
2025-03-08 14:23:53.973,-6.343823458545798e-05,-1.868349685517897
2025-03-08 14:23:53.992,-5.798907496194174e-05,-1.2144305505826951
2025-03-08 14:23:54.012,-5.00884953792169e-05,-0.5492815769329861
2025-03-08 14:23:54.031,-4.258804989016912e-05,0.1086073151842697
2025-03-08 14:23:54.051,-3.769619642342629e-05,0.7441209259465671
2025-03-08 14:23:54.070,-3.651150727713358e-05,1.3447628613583091
2025-03-08 14:23:54.090,-3.890013514963555e-05,1.9000509690151464
2025-03-08 14:23:54.109,-4.369158833403451e-05,2.4012521202529333
2025-03-08 14:23:54.129,-4.909466581015594e-05,2.8413848682371547
2025-03-08 14:23:54.148,-5.319675409085987e-05,3.215260275939391
2025-03-08 14:23:54.168,-5.440587100532188e-05,3.519325325379608
2025-03-08 14:23:54.187,-5.1722726953987374e-05,3.751193908302541
2025-03-08 14:23:54.207,-4.4783780866159e-05,3.908928246935797
2025-03-08 14:23:54.226,-3.3688251361634666e-05,3.990292952443675
2025-03-08 14:23:54.246,-1.870073650780887e-05,3.992284800632488
2025-03-08 14:23:54.266,1.9503702036520432e-08,3.9112086690210823
2025-03-08 14:23:54.285,2.251336708002484e-05,3.743422649237769
2025-03-08 14:23:54.305,4.887338743306597e-05,3.4866595749378155
2025-03-08 14:23:54.324,7.890130016140888e-05,3.1416359031775225
2025-03-08 14:23:54.344,0.0001117045096998,2.713560884126881
2025-03-08 14:23:54.363,0.0001453919064166,2.213172339305095
2025-03-08 14:23:54.383,0.0001770126328276,1.657001348418977
2025-03-08 14:23:54.402,0.000202817595933,1.0666625964656031
2025-03-08 14:23:54.422,0.0002188150841773,0.467090887171966
2025-03-08 14:23:54.441,0.0002214839605501,-0.1161658413472019
2025-03-08 14:23:54.461,0.0002084615073007,-0.6602369614275357
2025-03-08 14:23:54.480,0.0001790556154929,-1.1482028224738707
2025-03-08 14:23:54.500,0.000134507956511,-1.571609620374823
2025-03-08 14:23:54.519,7.800406262481392e-05,-1.9315050386820467
2025-03-08 14:23:54.539,1.444496373387132e-05,-2.237493298890464
2025-03-08 14:23:54.558,-5.003871420041583e-05,-2.504726017708768
2025-03-08 14:23:54.578,-0.0001088655462325,-2.749301972369808
2025-03-08 14:23:54.598,-0.000156025441755,-2.9830969641100955
2025-03-08 14:23:54.617,-0.0001871317751079,-3.209376714635701
2025-03-08 14:23:54.637,-0.0002001819699306,-3.420485150176631
2025-03-08 14:23:54.656,-0.0001957612774861,-3.5984038578324458
2025-03-08 14:23:54.676,-0.0001766281556139,-3.7181752871589175
2025-03-08 14:23:54.695,-0.0001468590610642,-3.753334042603953
2025-03-08 14:23:54.715,-0.0001108753721389,-3.681890449697511
2025-03-08 14:23:54.734,-7.264518400954025e-05,-3.4912631823066262
2025-03-08 14:23:54.754,-3.5189724227357025e-05,-3.180899490130908
2025-03-08 14:23:54.773,-3.77827790417652e-07,-2.7620226210688843
2025-03-08 14:23:54.793,3.103664859713694e-05,-2.254777291084786
2025-03-08 14:23:54.812,5.914565589287863e-05,-1.6837600523335978
2025-03-08 14:23:54.832,8.441097300366429e-05,-1.073326243673955
2025-03-08 14:23:54.851,0.0001070856684917,-0.4440512733551192
2025-03-08 14:23:54.871,0.0001267126050597,0.1887074038290471
2025-03-08 14:23:54.891,0.0001418864314071,0.8139262508017012
2025-03-08 14:23:54.910,0.0001503887329587,1.4222752427084324
2025-03-08 14:23:54.930,0.0001496781856454,2.0028695824447498
2025-03-08 14:23:54.949,0.0001376047962735,2.5407440281999
2025-03-08 14:23:54.969,0.000113170434475,3.0161073052207423
2025-03-08 14:23:54.988,7.715852869244797e-05,3.4058075937592105
2025-03-08 14:23:55.008,3.245557895959384e-05,3.686682090453345
2025-03-08 14:23:55.027,-1.6097895190766856e-05,3.839841048929525
2025-03-08 14:23:55.047,-6.239526039076021e-05,3.854659789923324
2025-03-08 14:23:55.066,-0.0001001865823511,3.7313884939353232
2025-03-08 14:23:55.086,-0.0001243661507311,3.481745132513216
2025-03-08 14:23:55.105,-0.0001320744728386,3.127436724423991
2025-03-08 14:23:55.125,-0.0001233042090173,2.69705751598105
2025-03-08 14:23:55.144,-0.0001008504036725,2.222107865098363
2025-03-08 14:23:55.164,-6.964259811412467e-05,1.7329356036233592
2025-03-08 14:23:55.184,-3.5645731547841145e-05,1.255285569886915
2025-03-08 14:23:55.203,-4.576733976376661e-06,0.8079495555727264
2025-03-08 14:23:55.223,1.931109112328656e-05,0.4017949554677842
2025-03-08 14:23:55.242,3.412542521899691e-05,0.0402116304272973
2025-03-08 14:23:55.262,4.0671142379541145e-05,-0.2792579593607854
2025-03-08 14:23:55.281,4.2053291734374544e-05,-0.5626033246740506
2025-03-08 14:23:55.301,4.256931123917265e-05,-0.8169965541446793
2025-03-08 14:23:55.320,4.619224738433235e-05,-1.049024576425913
2025-03-08 14:23:55.340,5.514993834496114e-05,-1.2638871790111696
2025-03-08 14:23:55.359,6.908329258574176e-05,-1.465580851007312
2025-03-08 14:23:55.379,8.502820117712491e-05,-1.6576999175538547
2025-03-08 14:23:55.398,9.816605262884476e-05,-1.844208419408838
2025-03-08 14:23:55.418,0.0001030906938599,-2.02949938348836
2025-03-08 14:23:55.437,9.527928238601552e-05,-2.2173222903189838
2025-03-08 14:23:55.457,7.244017114670596e-05,-2.4086524948471104
2025-03-08 14:23:55.476,3.538633871446297e-05,-2.599103590289256
2025-03-08 14:23:55.496,-1.1873347277088167e-05,-2.776820668349019
2025-03-08 14:23:55.516,-6.292679309455794e-05,-2.9217973576957905
2025-03-08 14:23:55.535,-0.0001104258153611,-3.007229927146785
2025-03-08 14:23:55.555,-0.0001477784523106,-3.0029715640664176
2025-03-08 14:23:55.574,-0.0001705727923553,-2.8805469213398363
2025-03-08 14:23:55.594,-0.0001773718974587,-2.6187021587850694
2025-03-08 14:23:55.613,-0.000169732328393,-2.2082440126063685
2025-03-08 14:23:55.633,-0.0001515090546322,-1.6550461886396848
2025-03-08 14:23:55.652,-0.0001276803572065,-0.980549237696414
2025-03-08 14:23:55.672,-0.0001030453204923,-0.2197090371197428
2025-03-08 14:23:55.691,-8.119365855614715e-05,0.5830522232348706
2025-03-08 14:23:55.711,-6.407542579195298e-05,1.3789626950194631
2025-03-08 14:23:55.730,-5.22686464024786e-05,2.120094747578116
2025-03-08 14:23:55.750,-4.571908395599803e-05,2.76385627751581
2025-03-08 14:23:55.769,-4.448771518019408e-05,3.27633586485892
2025-03-08 14:23:55.789,-4.904808536522367e-05,3.6343694779885327
2025-03-08 14:23:55.809,-5.9932625354195546e-05,3.826409485224472
2025-03-08 14:23:55.828,-7.689473316499792e-05,3.852392998450004
2025-03-08 14:23:55.848,-9.80412042065615e-05,3.722844641765472
2025-03-08 14:23:55.867,-0.0001194475925546,3.4574155943063545
2025-03-08 14:23:55.887,-0.0001355724731914,3.082974958025316
2025-03-08 14:23:55.906,-0.0001404471212604,2.6312848213732685
2025-03-08 14:23:55.926,-0.0001292922216713,2.1362705858305824
2025-03-08 14:23:55.945,-0.0001000235675971,1.630966771171437
2025-03-08 14:23:55.965,-5.411969506036032e-05,1.1443421489349532
2025-03-08 14:23:55.984,3.465817861029275e-06,0.6983278966736879
2025-03-08 14:23:56.004,6.533491631859417e-05,0.3054473325919826
2025-03-08 14:23:56.023,0.0001232892964024,-0.0325325086965872
2025-03-08 14:23:56.043,0.0001700875063982,-0.3245367888193226
2025-03-08 14:23:56.062,0.0002008443680708,-0.5884207850794239
2025-03-08 14:23:56.082,0.0002137802312653,-0.8474557789187096
2025-03-08 14:23:56.101,0.0002102442079957,-1.1253874995435944
2025-03-08 14:23:56.121,0.0001941094828212,-1.440843565428785
2025-03-08 14:23:56.141,0.0001707434575506,-1.802222097022848
2025-03-08 14:23:56.160,0.0001457985818098,-2.204272510373519
2025-03-08 14:23:56.180,0.0001240713798102,-2.6272965945394184
2025-03-08 14:23:56.199,0.0001086552700384,-3.039313860696272
2025-03-08 14:23:56.219,0.0001005653274142,-3.4008236764060484
2025-03-08 14:23:56.238,9.891328246894756e-05,-3.671169906027826
2025-03-08 14:23:56.258,0.0001015489021533,-3.815150058131679
2025-03-08 14:23:56.277,0.0001059202642234,-3.8085042636467454
2025-03-08 14:23:56.297,0.000109840431954,-3.641253563972824
2025-03-08 14:23:56.316,0.0001119242927838,-3.3184158961810524
2025-03-08 14:23:56.336,0.0001116294208674,-2.8582430852880445
2025-03-08 14:23:56.355,0.0001090081507142,-2.288631666423636
2025-03-08 14:23:56.375,0.0001043672346745,-1.6426556796339935
2025-03-08 14:23:56.394,9.799736521262984e-05,-0.9542109793319068
2025-03-08 14:23:56.414,9.002954780967393e-05,-0.254568074638932
2025-03-08 14:23:56.434,8.040140904157019e-05,0.4297284201226724
2025-03-08 14:23:56.453,6.891472671509358e-05,1.077590387568058
2025-03-08 14:23:56.473,5.5378254795947e-05,1.6730622787799612
2025-03-08 14:23:56.492,3.979646093439928e-05,2.2044220918340085
2025-03-08 14:23:56.512,2.251366857812421e-05,2.6631616542581567
2025-03-08 14:23:56.531,4.227119947531371e-06,3.043158319709088
2025-03-08 14:23:56.551,-1.4152684509475468e-05,3.340193967400051
2025-03-08 14:23:56.570,-3.174805746732628e-05,3.551868499372948
2025-03-08 14:23:56.590,-4.7977265160700686e-05,3.6778777510541913
2025-03-08 14:23:56.609,-6.272608966369384e-05,3.7205240191286144
2025-03-08 14:23:56.629,-7.635002746156689e-05,3.685189874656405
2025-03-08 14:23:56.648,-8.951386372023004e-05,3.580408887599189
2025-03-08 14:23:56.668,-0.0001029367792014,3.4172167076860296
2025-03-08 14:23:56.687,-0.0001170951950198,3.2076930202683247
2025-03-08 14:23:56.707,-0.0001319109114062,2.9629226068395966
2025-03-08 14:23:56.727,-0.0001465044916947,2.6908691370796785
2025-03-08 14:23:56.746,-0.0001591720814029,2.394761441667864
2025-03-08 14:23:56.766,-0.0001677105681014,2.0725121548625056
2025-03-08 14:23:56.785,-0.0001700389725384,1.7174582064469075
2025-03-08 14:23:56.805,-0.0001648785333281,1.3203907325891608
2025-03-08 14:23:56.824,-0.0001522146599169,0.8724980293305207
2025-03-08 14:23:56.844,-0.0001333857022689,0.3685702407864881
2025-03-08 14:23:56.863,-0.0001108123707925,-0.1902892089251719
2025-03-08 14:23:56.883,-8.748224375397767e-05,-0.7950757121771221
2025-03-08 14:23:56.902,-6.631226292314866e-05,-1.428739077058593
2025-03-08 14:23:56.922,-4.948996742125846e-05,-2.067435222817586
2025-03-08 14:23:56.941,-3.791328361539528e-05,-2.6828359765286764
2025-03-08 14:23:56.961,-3.090642670252032e-05,-3.2450129191306503
2025-03-08 14:23:56.980,-2.6392629229934e-05,-3.725404708270972
2025-03-08 14:23:57.000,-2.1566830187960552e-05,-4.099468979510346
2025-03-08 14:23:57.019,-1.3871316649438912e-05,-4.348757636255071
2025-03-08 14:23:57.039,-1.8924286673060944e-06,-4.462284241972444
2025-03-08 14:23:57.059,1.4185359350139525e-05,-4.437138050061007
2025-03-08 14:23:57.078,3.270999231084118e-05,-4.278341300105291
2025-03-08 14:23:57.098,5.115000810075182e-05,-3.997975230187852
2025-03-08 14:23:57.117,6.686299858107349e-05,-3.613653772296777
2025-03-08 14:23:57.137,7.777502068681337e-05,-3.146523519109284
2025-03-08 14:23:57.156,8.280110712714676e-05,-2.6190936537970604
2025-03-08 14:23:57.176,8.195273245459962e-05,-2.053281227805462
2025-03-08 14:23:57.195,7.617082743234981e-05,-1.469018597691784
2025-03-08 14:23:57.215,6.69795908147706e-05,-0.8835913231151049
2025-03-08 14:23:57.234,5.6076127223448366e-05,-0.3116234884964101
2025-03-08 14:23:57.254,4.496026216725543e-05,0.2345797055880903
2025-03-08 14:23:57.273,3.4678234057238654e-05,0.7446912902987366
2025-03-08 14:23:57.293,2.5714767459464148e-05,1.2102942886650323
2025-03-08 14:23:57.312,1.803021465392206e-05,1.625159257379718
2025-03-08 14:23:57.332,1.1209976694523324e-05,1.985713518859579
2025-03-08 14:23:57.352,4.675854648854164e-06,2.291366954351347
2025-03-08 14:23:57.371,-2.096093338125073e-06,2.544295848628146
2025-03-08 14:23:57.391,-9.400781495113929e-06,2.748398452730661
2025-03-08 14:23:57.410,-1.7208028826866314e-05,2.907432057540411
2025-03-08 14:23:57.430,-2.5161852747751056e-05,3.022738197623016
2025-03-08 14:23:57.449,-3.267094429520464e-05,3.0912904693267715
2025-03-08 14:23:57.469,-3.906634275282222e-05,3.104876975823061
2025-03-08 14:23:57.488,-4.378636571749208e-05,3.0509672688984613
2025-03-08 14:23:57.508,-4.6539515725850645e-05,2.9152801625322824
2025-03-08 14:23:57.527,-4.739605848436039e-05,2.68547113763495
2025-03-08 14:23:57.547,-4.6770450790959765e-05,2.354941172447424
2025-03-08 14:23:57.566,-4.528084179508709e-05,1.9256941602999136
2025-03-08 14:23:57.586,-4.35075756935749e-05,1.4094542774857404
2025-03-08 14:23:57.605,-4.1716427376294095e-05,0.8267869878422079
2025-03-08 14:23:57.625,-3.96549379018068e-05,0.2045616166434414
2025-03-08 14:23:57.645,-3.6546741557078817e-05,-0.4274545938014584
2025-03-08 14:23:57.664,-3.135836558533481e-05,-1.039924954206911
2025-03-08 14:23:57.684,-2.3282384515092887e-05,-1.6064256988297094
2025-03-08 14:23:57.703,-1.223643940279575e-05,-2.104726073881168
2025-03-08 14:23:57.723,8.698156888678698e-07,-2.516971527738708
2025-03-08 14:23:57.742,1.4248015818609807e-05,-2.8292060287371323
2025-03-08 14:23:57.762,2.5683858169957024e-05,-3.030778740815997
2025-03-08 14:23:57.781,3.3134772989804914e-05,-3.1140895121674697
2025-03-08 14:23:57.801,3.5263108422111286e-05,-3.0749242951219937
2025-03-08 14:23:57.820,3.180640937283501e-05,-2.913397567237104
2025-03-08 14:23:57.840,2.378582933009336e-05,-2.6352907039871307
2025-03-08 14:23:57.859,1.3528392271872405e-05,-2.253362702204164
2025-03-08 14:23:57.879,4.38393167621924e-06,-1.7880452686582833
2025-03-08 14:23:57.898,2.0634056481476443e-08,-1.2668997858459892
2025-03-08 14:23:57.918,3.367509276429538e-06,-0.7224020476902004
2025-03-08 14:23:57.937,1.5528510256502552e-05,-0.1880520080892594
2025-03-08 14:23:57.957,3.511383517757291e-05,0.3066250436700771
2025-03-08 14:23:57.977,5.8309041965067353e-05,0.741105887411479
2025-03-08 14:23:57.996,7.971727718149859e-05,1.1075812110150722
2025-03-08 14:23:58.016,9.374526617165577e-05,1.412121636446619
2025-03-08 14:23:58.035,9.615908301921702e-05,1.6725901240566967
2025-03-08 14:23:58.055,8.539026808219381e-05,1.9134300898618943
2025-03-08 14:23:58.074,6.320102706947198e-05,2.158384739091237
2025-03-08 14:23:58.094,3.444895852520604e-05,2.4229125179059907
2025-03-08 14:23:58.113,5.938900336719291e-06,2.7082872151916977
2025-03-08 14:23:58.133,-1.535580769716375e-05,2.9990019843867266
2025-03-08 14:23:58.152,-2.419309265566636e-05,3.2642427163361565
2025-03-08 14:23:58.172,-1.850712119825476e-05,3.46313104618994
2025-03-08 14:23:58.191,5.1735293542650894e-08,3.552483697125437
2025-03-08 14:23:58.211,2.6646934648450583e-05,3.4952540716472544
2025-03-08 14:23:58.230,5.466817030059132e-05,3.267746519297566
2025-03-08 14:23:58.250,7.756030081879865e-05,2.8641055067140906
2025-03-08 14:23:58.270,9.051443536753436e-05,2.2973319847089395
2025-03-08 14:23:58.289,9.157128205799576e-05,1.5969439801544505
2025-03-08 14:23:58.309,8.189823323967008e-05,0.804147418994146
2025-03-08 14:23:58.328,6.523299052548558e-05,-0.0341641834875181
2025-03-08 14:23:58.348,4.669015608968072e-05,-0.8711938473865182
2025-03-08 14:23:58.367,3.1278897994957434e-05,-1.664711721357859
2025-03-08 14:23:58.387,2.255173203759741e-05,-2.379642073129415
2025-03-08 14:23:58.406,2.175757482820333e-05,-2.9887880294537728
2025-03-08 14:23:58.426,2.7695978952386523e-05,-3.472200089034012
2025-03-08 14:23:58.445,3.72327101698577e-05,-3.815953531887629
2025-03-08 14:23:58.465,4.625387983747864e-05,-4.011093556983775
2025-03-08 14:23:58.484,5.0768070266214985e-05,-4.053271942558577
2025-03-08 14:23:58.504,4.78910118239912e-05,-3.9432293574355937
2025-03-08 14:23:58.523,3.651591336199704e-05,-3.687894765758525
2025-03-08 14:23:58.543,1.7554102072806874e-05,-3.3015854874417814
2025-03-08 14:23:58.563,-6.285700839321313e-06,-2.806663204781915
2025-03-08 14:23:58.582,-3.112816517776791e-05,-2.233059471617275
2025-03-08 14:23:58.602,-5.283930913635495e-05,-1.6163301735741842
2025-03-08 14:23:58.621,-6.800392596961071e-05,-0.9942890844526546
2025-03-08 14:23:58.641,-7.472044769598916e-05,-0.4027003906704189
2025-03-08 14:23:58.660,-7.299205914590093e-05,0.1291578839490184
2025-03-08 14:23:58.680,-6.462139348371243e-05,0.5821180509369392
2025-03-08 14:23:58.699,-5.268836055902073e-05,0.9491069831026092
2025-03-08 14:23:58.719,-4.0807215230260986e-05,1.235003559151417
2025-03-08 14:23:58.738,-3.237153151759196e-05,1.4543804721985634
2025-03-08 14:23:58.758,-2.9936559139324145e-05,1.6276700770005552
2025-03-08 14:23:58.777,-3.48132985255496e-05,1.7766855409972482
2025-03-08 14:23:58.797,-4.689027114068672e-05,1.920532362497977
2025-03-08 14:23:58.816,-6.466629555880355e-05,2.0727062537734744
2025-03-08 14:23:58.836,-8.54668566786402e-05,2.2396832584300115
2025-03-08 14:23:58.855,-0.0001058174328902,2.420779923755493
2025-03-08 14:23:58.875,-0.0001219469131426,2.6087273462213987
2025-03-08 14:23:58.895,-0.0001303832718161,2.790394421315337
2025-03-08 14:23:58.914,-0.0001285789484182,2.9473802429868714
2025-03-08 14:23:58.934,-0.0001154705489335,3.0566020398582903
2025-03-08 14:23:58.953,-9.18503212168762e-05,3.091313240679101
2025-03-08 14:23:58.973,-6.0424097158270825e-05,3.023028878190696
2025-03-08 14:23:58.992,-2.5470430842552344e-05,2.824570918359411
2025-03-08 14:23:59.012,7.89267527362768e-06,2.4739814451294806
2025-03-08 14:23:59.031,3.470101245541301e-05,1.958598693421589
2025-03-08 14:23:59.051,5.115617447017638e-05,1.2783659227484
2025-03-08 14:23:59.070,5.538214192198522e-05,0.447562645107953
2025-03-08 14:23:59.090,4.771856563030961e-05,-0.505430230496853
2025-03-08 14:23:59.109,3.048893987993873e-05,-1.5401827743005714
2025-03-08 14:23:59.129,7.355348741977157e-06,-2.6075244696192668
2025-03-08 14:23:59.148,-1.7502421727523654e-05,-3.65341362187422
2025-03-08 14:23:59.168,-4.012982597265547e-05,-4.622807794673038
2025-03-08 14:23:59.188,-5.731081963190314e-05,-5.463237775642141
2025-03-08 14:23:59.207,-6.685168309466384e-05,-6.128015573294622
2025-03-08 14:23:59.227,-6.772751547567542e-05,-6.579109318045611
2025-03-08 14:23:59.246,-6.015838048276535e-05,-6.789691775472892
2025-03-08 14:23:59.266,-4.55949643478152e-05,-6.746262832560637
2025-03-08 14:23:59.285,-2.6538659458862208e-05,-6.450118055738581
2025-03-08 14:23:59.305,-6.1391127991347136e-06,-5.917836119912063
2025-03-08 14:23:59.324,1.2408453780142838e-05,-5.180432748905216
2025-03-08 14:23:59.344,2.6539465893843864e-05,-4.280922788605766
2025-03-08 14:23:59.363,3.487055607936089e-05,-3.2702807354630568
2025-03-08 14:23:59.383,3.743751317143932e-05,-2.2021805776680163
2025-03-08 14:23:59.402,3.553199634091226e-05,-1.1273223148207847
2025-03-08 14:23:59.422,3.1181119475088946e-05,-0.088427441033788
2025-03-08 14:23:59.441,2.642475965658958e-05,0.8830667165023891
2025-03-08 14:23:59.461,2.260479556237211e-05,1.768006344377642
2025-03-08 14:23:59.480,1.988113373747197e-05,2.558255752109517
2025-03-08 14:23:59.500,1.7134676901543832e-05,3.2538229686307467
2025-03-08 14:23:59.520,1.2317618886642693e-05,3.8593762702112735
2025-03-08 14:23:59.539,3.1832040045279984e-06,4.38112992240536
2025-03-08 14:23:59.559,-1.180466725632002e-05,4.82474986580935
2025-03-08 14:23:59.578,-3.2674497567492314e-05,5.194458483524459
2025-03-08 14:23:59.598,-5.755089996953706e-05,5.493089409261317
2025-03-08 14:23:59.617,-8.281600857055288e-05,5.7225978781805455
2025-03-08 14:23:59.637,-0.0001037843165438,5.884511599648447
2025-03-08 14:23:59.656,-0.0001156843763514,5.979959964504693
2025-03-08 14:23:59.676,-0.0001146820819852,6.009154247899246
2025-03-08 14:23:59.695,-9.871194695216486e-05,5.970435578292388
2025-03-08 14:23:59.715,-6.796412686570601e-05,5.859221287922045
2025-03-08 14:23:59.734,-2.4969201234536068e-05,5.6673326416307415
2025-03-08 14:23:59.754,2.570766342862912e-05,5.383231494166892
2025-03-08 14:23:59.773,7.812057460758564e-05,4.993572629553945
2025-03-08 14:23:59.793,0.0001258706113528,4.486158360334925
2025-03-08 14:23:59.813,0.0001631634807481,3.853902195833109
2025-03-08 14:23:59.832,0.0001857861204086,3.0989079697485917
2025-03-08 14:23:59.852,0.0001917996725782,2.2354521998787265
2025-03-08 14:23:59.871,0.0001818334384332,1.2907003168560138
2025-03-08 14:23:59.891,0.0001589674226357,0.3024569431401001
2025-03-08 14:23:59.910,0.0001282592041718,-0.6859522697669445
2025-03-08 14:23:59.930,9.5998131481534e-05,-1.6326837231903466
2025-03-08 14:23:59.949,6.877504408827968e-05,-2.5045950370852847
2025-03-08 14:23:59.969,5.246017440669181e-05,-3.2827607290299183
2025-03-08 14:23:59.988,5.119866338123111e-05,-3.964655822408547
2025-03-08 14:24:00.008,6.656219631034158e-05,-4.56216852321889
2025-03-08 14:24:00.027,9.702280811010097e-05,-5.095707584773994
2025-03-08 14:24:00.047,0.0001379171324561,-5.585794792353985
2025-03-08 14:24:00.066,0.0001820201338249,-6.044336316175155
2025-03-08 14:24:00.086,0.0002207307287166,-6.467967159031424
2025-03-08 14:24:00.106,0.000245701994154,-6.835362348818498
2025-03-08 14:24:00.125,0.0002505816186564,-7.1093521442997165
2025-03-08 14:24:00.145,0.0002324345071927,-7.243399214956425
2025-03-08 14:24:00.164,0.0001924444212389,-7.190878434811603
2025-03-08 14:24:00.184,0.0001356512601398,-6.914950475403112
2025-03-08 14:24:00.203,6.975744875342976e-05,-6.396783849005725
2025-03-08 14:24:00.223,3.3402713340210945e-06,-5.640413214703736
2025-03-08 14:24:00.242,-5.600961510971437e-05,-4.673423457407572
2025-03-08 14:24:00.262,-0.0001031282321718,-3.5436386788209218
2025-03-08 14:24:00.281,-0.000135992263442,-2.3128074505623
2025-03-08 14:24:00.301,-0.000155643215189,-1.048739337044344
2025-03-08 14:24:00.320,-0.0001654568010125,0.1825752657553361
2025-03-08 14:24:00.340,-0.0001700117093583,1.3235629640200108
2025-03-08 14:24:00.359,-0.0001738503770429,2.329503132204371
2025-03-08 14:24:00.379,-0.0001803979813341,3.170425544629552
2025-03-08 14:24:00.398,-0.0001912366485353,3.8306178200175225
2025-03-08 14:24:00.418,-0.0002058417237391,4.306366619344231
2025-03-08 14:24:00.438,-0.0002217934633339,4.602874606885904
2025-03-08 14:24:00.457,-0.0002353928240397,4.731335306922872
2025-03-08 14:24:00.477,-0.0002425418843661,4.706869512052961
2025-03-08 14:24:00.496,-0.0002397035974647,4.547532556101255
2025-03-08 14:24:00.516,-0.0002247380734525,4.274102908526254
2025-03-08 14:24:00.535,-0.0001974307601797,3.9100643782595688
2025-03-08 14:24:00.555,-0.0001595893971027,3.481190986154254
2025-03-08 14:24:00.574,-0.0001146936798158,3.0143907333960915
2025-03-08 14:24:00.594,-6.721350775922276e-05,2.5358261081298266
2025-03-08 14:24:00.613,-2.1808748096159583e-05,2.068654060999602
2025-03-08 14:24:00.633,1.7378647621641117e-05,1.63090742256282
2025-03-08 14:24:00.652,4.722100959414378e-05,1.2340310654503588
2025-03-08 14:24:00.672,6.586653328603246e-05,0.8824154674504606
2025-03-08 14:24:00.691,7.278741595420059e-05,0.5740135515483974
2025-03-08 14:24:00.711,6.865350728528951e-05,0.3018730053921193
2025-03-08 14:24:00.731,5.50931985908008e-05,0.056233090282825
2025-03-08 14:24:00.750,3.441945066378236e-05,-0.1732465097704921
2025-03-08 14:24:00.770,9.386834235340862e-06,-0.3955362628809671
2025-03-08 14:24:00.789,-1.6992363693241216e-05,-0.6168706307727162
2025-03-08 14:24:00.809,-4.158936053475395e-05,-0.8400958947883705
2025-03-08 14:24:00.828,-6.130506439181603e-05,-1.0646563749377556
2025-03-08 14:24:00.848,-7.327389916480238e-05,-1.286965844745219
2025-03-08 14:24:00.867,-7.515355741901461e-05,-1.500843893572892
2025-03-08 14:24:00.887,-6.548261017943013e-05,-1.6977842925519997
2025-03-08 14:24:00.906,-4.40362244660159e-05,-1.867017978190826
2025-03-08 14:24:00.926,-1.2075525241192005e-05,-1.995524505164268
2025-03-08 14:24:00.945,2.761175965226103e-05,-2.0682376248694663
2025-03-08 14:24:00.965,7.094197975556847e-05,-2.068664736645141
2025-03-08 14:24:00.984,0.000113048442391,-1.980040513552863
2025-03-08 14:24:01.004,0.0001490417268426,-1.787016605809166
2025-03-08 14:24:01.024,0.0001749188695557,-1.4777834415882714
2025-03-08 14:24:01.043,0.0001884245768348,-1.046429593668203
2025-03-08 14:24:01.063,0.0001895965914946,-0.4952528830088376
2025-03-08 14:24:01.082,0.0001807712116401,0.1633608799713323
2025-03-08 14:24:01.102,0.0001659898398665,0.905942009487014
2025-03-08 14:24:01.121,0.0001499559932541,1.69823299673675
2025-03-08 14:24:01.141,0.0001368520216313,2.4969911608702837
2025-03-08 14:24:01.160,0.0001293635628341,3.2532107838553284
2025-03-08 14:24:01.180,0.0001281544729609,3.916384083791478
2025-03-08 14:24:01.199,0.000131849190886,4.439237517079561
2025-03-08 14:24:01.219,0.0001374254792833,4.782336361772619
2025-03-08 14:24:01.238,0.000140859292499,4.918010628711842
2025-03-08 14:24:01.258,0.0001378733812448,4.833166876942805
2025-03-08 14:24:01.277,0.0001246739370909,4.530677070565395
2025-03-08 14:24:01.297,9.858758504476794e-05,4.029163628563032
2025-03-08 14:24:01.316,5.852939565605807e-05,3.361139492577552
2025-03-08 14:24:01.336,5.24876675100549e-06,2.569638449319364
2025-03-08 14:24:01.356,-5.86745502943499e-05,1.7036926455432404
2025-03-08 14:24:01.375,-0.0001290776756024,0.8132417106423415
2025-03-08 14:24:01.395,-0.0002006754127577,-0.0557908472029036
2025-03-08 14:24:01.414,-0.000267700777117,-0.8655228851866937
2025-03-08 14:24:01.434,-0.0003246687398782,-1.5886959734730133
2025-03-08 14:24:01.453,-0.0003671365631658,-2.209589237551454
2025-03-08 14:24:01.473,-0.000392268617804,-2.723387637755418
2025-03-08 14:24:01.492,-0.0003990364068728,-3.134402791012905
2025-03-08 14:24:01.512,-0.0003880051257794,-3.453684495654286
2025-03-08 14:24:01.531,-0.0003608103408442,-3.696549453963789
2025-03-08 14:24:01.551,-0.0003195378801556,-3.880406301569344
2025-03-08 14:24:01.570,-0.0002662365655051,-4.0230215826723725
2025-03-08 14:24:01.590,-0.0002027128109011,-4.141132603872484
2025-03-08 14:24:01.609,-0.0001306388076639,-4.249166158789524
2025-03-08 14:24:01.629,-5.191846101573728e-05,-4.357835029745829
2025-03-08 14:24:01.649,3.080821112178433e-05,-4.472558445469609
2025-03-08 14:24:01.668,0.0001137165154888,-4.591913323111606
2025-03-08 14:24:01.688,0.0001916547546097,-4.706551878044793
2025-03-08 14:24:01.707,0.0002585138920488,-4.79910932703487
2025-03-08 14:24:01.727,0.0003081370025533,-4.84551006609164
2025-03-08 14:24:01.746,0.0003355564808056,-4.81776682765492
2025-03-08 14:24:01.766,0.0003381777983978,-4.687942466487595
2025-03-08 14:24:01.785,0.0003165216434367,-4.432554389982898
2025-03-08 14:24:01.805,0.0002742812132476,-4.036485205911303
2025-03-08 14:24:01.824,0.0002176730335929,-3.495499023036293
2025-03-08 14:24:01.844,0.0001542774924254,-2.81676504391159
2025-03-08 14:24:01.863,9.170216071717656e-05,-2.0173039642833497
2025-03-08 14:24:01.883,3.639918400491603e-05,-1.120858650321719
2025-03-08 14:24:01.902,-7.149850087312507e-06,-0.1541469823722726
2025-03-08 14:24:01.922,-3.680383578102336e-05,0.8563943300577495
2025-03-08 14:24:01.941,-5.269667082371165e-05,1.886479881501256
2025-03-08 14:24:01.961,-5.680302154505601e-05,2.9140656602589146
2025-03-08 14:24:01.981,-5.225649590971346e-05,3.917887146379791
2025-03-08 14:24:02.000,-4.258008138896098e-05,4.875217873325442
2025-03-08 14:24:02.020,-3.098874082892311e-05,5.759906538434173
2025-03-08 14:24:02.039,-1.988624456682317e-05,6.541676353930684
2025-03-08 14:24:02.059,-1.0619735839035493e-05,7.187266818904654
2025-03-08 14:24:02.078,-3.4943241414719604e-06,7.663414460284903
2025-03-08 14:24:02.098,2.000461222831529e-06,7.941095071409006
2025-03-08 14:24:02.117,6.832828889121295e-06,8.000042548747649
2025-03-08 14:24:02.137,1.2032187461523365e-05,7.832414703473757
2025-03-08 14:24:02.156,1.834085395994875e-05,7.444629352983616
2025-03-08 14:24:02.176,2.598156572114188e-05,6.856816406299043
2025-03-08 14:24:02.195,3.45803283853118e-05,6.099924544022379
2025-03-08 14:24:02.215,4.325214162010607e-05,5.211123611378968
2025-03-08 14:24:02.234,5.0825241297260393e-05,4.228580707777602
2025-03-08 14:24:02.254,5.615134790826822e-05,3.186836795385034
2025-03-08 14:24:02.274,5.84287222191706e-05,2.1138421958685343
2025-03-08 14:24:02.293,5.745559649547615e-05,1.0302804848709046
2025-03-08 14:24:02.313,5.373782323989833e-05,-0.048770890328063
2025-03-08 14:24:02.332,4.8399617989598346e-05,-1.1104030805177292
2025-03-08 14:24:02.352,4.289117328938678e-05,-2.139726859641181
2025-03-08 14:24:02.371,3.854912951941962e-05,-3.1163474516632927
2025-03-08 14:24:02.391,3.61352564061642e-05,-4.01271689275707
2025-03-08 14:24:02.410,3.552686668600945e-05,-4.795147383262884
2025-03-08 14:24:02.430,3.5712542044700547e-05,-5.427508503027593
2025-03-08 14:24:02.449,3.513732050675111e-05,-5.876809284780328
2025-03-08 14:24:02.469,3.229749183997566e-05,-6.1192596455888095
2025-03-08 14:24:02.488,2.639414370089236e-05,-6.145226422571353
2025-03-08 14:24:02.508,1.7835868780247078e-05,-5.961809143605593
2025-03-08 14:24:02.527,8.39440146359679e-06,-5.592445490558305
2025-03-08 14:24:02.547,8.674048219367683e-07,-5.073771393835713
2025-03-08 14:24:02.567,-1.7536643637728014e-06,-4.450628862402461
2025-03-08 14:24:02.586,2.618061974714155e-06,-3.770429077144255
2025-03-08 14:24:02.606,1.4222335149129026e-05,-3.0779757860696337
2025-03-08 14:24:02.625,3.1086789232449495e-05,-2.411444644945829
2025-03-08 14:24:02.645,4.9421087519632587e-05,-1.7997319321442449
2025-03-08 14:24:02.664,6.460243434203706e-05,-1.2610575497239096
2025-03-08 14:24:02.684,7.234334580996792e-05,-0.8026203267670897
2025-03-08 14:24:02.703,6.963220884499474e-05,-0.4211799234701017
2025-03-08 14:24:02.723,5.523370706385276e-05,-0.1045254066560416
2025-03-08 14:24:02.742,2.976223909442686e-05,0.1662162396958476
2025-03-08 14:24:02.762,-4.554039732131041e-06,0.4135711453064759
2025-03-08 14:24:02.781,-4.432706916464352e-05,0.6602590530439015
2025-03-08 14:24:02.801,-8.562363921341937e-05,0.9256148439033608
2025-03-08 14:24:02.820,-0.0001246385644717,1.2222766324170102
2025-03-08 14:24:02.840,-0.0001582560479941,1.5535603514226055
2025-03-08 14:24:02.859,-0.0001843449417758,1.9119339859450752
2025-03-08 14:24:02.879,-0.0002017439171735,2.278920361441951
2025-03-08 14:24:02.899,-0.0002100207052334,2.626584815109249
2025-03-08 14:24:02.918,-0.0002091654262528,2.9205375727483
2025-03-08 14:24:02.938,-0.0001993791865678,3.1241585918613493
2025-03-08 14:24:02.957,-0.0001810569642619,3.203574354203732
2025-03-08 14:24:02.977,-0.0001549657532757,3.132783335951102
2025-03-08 14:24:02.996,-0.0001225194476172,2.8982312919063857
2025-03-08 14:24:03.016,-8.598556084620688e-05,2.5021008780745504
2025-03-08 14:24:03.035,-4.84532865606879e-05,1.9636595949300084
2025-03-08 14:24:03.055,-1.346237410991102e-05,1.3182559842218473
2025-03-08 14:24:03.074,1.5667575516708215e-05,0.6139540694426224
2025-03-08 14:24:03.094,3.659814834255056e-05,-0.0937451937763772
2025-03-08 14:24:03.113,4.850426603587969e-05,-0.74826844850034
2025-03-08 14:24:03.133,5.2110834267710674e-05,-1.2984086469157003
2025-03-08 14:24:03.152,4.920064957567081e-05,-1.7038724960620355
2025-03-08 14:24:03.172,4.184269437095538e-05,-1.9392085487853885
2025-03-08 14:24:03.192,3.1721108705468255e-05,-1.9957295201154912
2025-03-08 14:24:03.211,1.9834257194686196e-05,-1.88139581463951
2025-03-08 14:24:03.231,6.5868014295328085e-06,-1.618919829971913
2025-03-08 14:24:03.250,-7.888692937929267e-06,-1.2425346842404237
2025-03-08 14:24:03.270,-2.337264634081992e-05,-0.7939279780591029
2025-03-08 14:24:03.289,-3.928074690545184e-05,-0.3177942347913264
2025-03-08 14:24:03.309,-5.451764938017495e-05,0.1426271339791534
2025-03-08 14:24:03.328,-6.749775165970314e-05,0.5497139800568941
2025-03-08 14:24:03.348,-7.637575254896549e-05,0.8749912555045357
2025-03-08 14:24:03.367,-7.948121849766395e-05,1.1016430836684723
2025-03-08 14:24:03.387,-7.58321896389693e-05,1.2256258240440472
2025-03-08 14:24:03.406,-6.551744730091404e-05,1.2551410221452135
2025-03-08 14:24:03.426,-4.979203968340482e-05,1.2084988167482162
2025-03-08 14:24:03.445,-3.088481159797509e-05,1.110715836322968
2025-03-08 14:24:03.465,-1.1627995410289684e-05,0.9894323857339248
2025-03-08 14:24:03.485,4.980458781717384e-06,0.8708252501495929
2025-03-08 14:24:03.504,1.6225748743012122e-05,0.7761228454999499
2025-03-08 14:24:03.524,2.011784418617884e-05,0.7191434138037427
2025-03-08 14:24:03.543,1.5803808282995796e-05,0.7050448403678365
2025-03-08 14:24:03.563,3.885250820886254e-06,0.7302599602932713
2025-03-08 14:24:03.582,-1.3476184430325176e-05,0.7834340119200235
2025-03-08 14:24:03.602,-3.277653496045722e-05,0.8470949476562266
2025-03-08 14:24:03.621,-4.9726054665832446e-05,0.8997680658206939
2025-03-08 14:24:03.641,-6.002438201429148e-05,0.9182873516718638
2025-03-08 14:24:03.660,-6.015082235543066e-05,0.8801504172855599
2025-03-08 14:24:03.680,-4.79887674843996e-05,0.7658801219949248
2025-03-08 14:24:03.699,-2.319364762249684e-05,0.5614207256006276
2025-03-08 14:24:03.719,1.2715215496080788e-05,0.2605322494620873
2025-03-08 14:24:03.738,5.6544098379530657e-05,-0.1330570918197834
2025-03-08 14:24:03.758,0.0001039021582808,-0.6042292102640733
2025-03-08 14:24:03.777,0.000149933304797,-1.1264041150306878
2025-03-08 14:24:03.797,0.0001901806234209,-1.6633094491989926
2025-03-08 14:24:03.817,0.0002213792613993,-2.172679476254715
2025-03-08 14:24:03.836,0.0002419720590166,-2.611422357277872
2025-03-08 14:24:03.856,0.0002522270076344,-2.9413254822256136
2025-03-08 14:24:03.875,0.0002539377519455,-3.134171580964081
2025-03-08 14:24:03.895,0.0002497636187772,-3.17527083200513
2025-03-08 14:24:03.914,0.0002423403212561,-3.064799893693323
2025-03-08 14:24:03.934,0.0002333863649099,-2.816842789281845
2025-03-08 14:24:03.953,0.0002230954861367,-2.456516117681721
2025-03-08 14:24:03.973,0.0002100633203417,-2.015914714237202
2025-03-08 14:24:03.992,0.0001918189811233,-1.5297525818881537
2025-03-08 14:24:04.012,0.0001657927545862,-1.0314815397495551
2025-03-08 14:24:04.031,0.0001303783547974,-0.5504000073055938
2025-03-08 14:24:04.051,8.572047560269942e-05,-0.1099164381783899
2025-03-08 14:24:04.070,3.396682400564103e-05,0.2731810953073413
2025-03-08 14:24:04.090,-2.1080463456802667e-05,0.5887885146834927
2025-03-08 14:24:04.110,-7.47569747403802e-05,0.8332566500719661
2025-03-08 14:24:04.129,-0.0001224550254116,1.00913987539963
2025-03-08 14:24:04.149,-0.0001603520093775,1.1250009611618106
2025-03-08 14:24:04.168,-0.0001858019148592,1.195136301544116
2025-03-08 14:24:04.188,-0.0001974595245185,1.2389169098654405
2025-03-08 14:24:04.207,-0.0001952929398433,1.2793794139322612
2025-03-08 14:24:04.227,-0.0001805556329973,1.34079590967778
2025-03-08 14:24:04.246,-0.0001556691584113,1.4452100930361655
2025-03-08 14:24:04.266,-0.0001239560947621,1.6082856244517092
2025-03-08 14:24:04.285,-8.924760080302892e-05,1.8351464534609645
2025-03-08 14:24:04.305,-5.545141368717456e-05,2.117076712104774
2025-03-08 14:24:04.324,-2.615028039909655e-05,2.4299316162178943
2025-03-08 14:24:04.344,-4.263764006320007e-06,2.734901443097306
2025-03-08 14:24:04.363,8.20281937926601e-06,2.981916669730805
2025-03-08 14:24:04.383,1.030211493166552e-05,3.11554029314536
2025-03-08 14:24:04.402,2.1851126227166965e-06,3.0827176426732428
2025-03-08 14:24:04.422,-1.4931530797386e-05,2.841310896520741
2025-03-08 14:24:04.442,-3.884026916753473e-05,2.3680335384104496
2025-03-08 14:24:04.461,-6.645457388185864e-05,1.6643327136229649
2025-03-08 14:24:04.481,-9.398718838728795e-05,0.7590111835312797
2025-03-08 14:24:04.500,-0.0001172448850951,-0.2930926815530895
2025-03-08 14:24:04.520,-0.0001320819354242,-1.416350593430154
2025-03-08 14:24:04.539,-0.0001350124827119,-2.522788278464446
2025-03-08 14:24:04.559,-0.0001239134758759,-3.522441599116811
2025-03-08 14:24:04.578,-9.86745314052153e-05,-4.334055609619147
2025-03-08 14:24:04.598,-6.159731002006238e-05,-4.894578695121405
2025-03-08 14:24:04.617,-1.7345069158431956e-05,-5.166167038028537
2025-03-08 14:24:04.637,2.76828628405924e-05,-5.139821595079297
2025-03-08 14:24:04.656,6.652026488416379e-05,-4.835253705558684
2025-03-08 14:24:04.676,9.310728553538633e-05,-4.297074553671486
2025-03-08 14:24:04.695,0.0001036553990625,-3.587898366015306
2025-03-08 14:24:04.715,9.746763678253434e-05,-2.7793899807560325
2025-03-08 14:24:04.735,7.695485804115444e-05,-1.942596291931272
2025-03-08 14:24:04.754,4.689214366101247e-05,-1.1389995986205326
2025-03-08 14:24:04.774,1.3220565908030986e-05,-0.4135817905068867
2025-03-08 14:24:04.793,-1.822247318207778e-05,0.2091807022118881
2025-03-08 14:24:04.813,-4.276306713127304e-05,0.7259722973667903
2025-03-08 14:24:04.832,-5.760452411493541e-05,1.152045493975013
2025-03-08 14:24:04.852,-6.213207650239675e-05,1.5159370834493695
2025-03-08 14:24:04.871,-5.776348400681324e-05,1.852409521036313
2025-03-08 14:24:04.891,-4.734717137679779e-05,2.194781226181412
2025-03-08 14:24:04.910,-3.422845625414601e-05,2.5679029426534314
2025-03-08 14:24:04.930,-2.125256095738732e-05,2.982919812739602
2025-03-08 14:24:04.949,-1.0040846738689578e-05,3.4346191228565583
2025-03-08 14:24:04.969,-7.794696717942244e-07,3.901668888122296
2025-03-08 14:24:04.988,7.462800044282273e-06,4.349526165863317
2025-03-08 14:24:05.008,1.607568113784588e-05,4.7353667767458205
2025-03-08 14:24:05.028,2.6168943425730977e-05,5.014147284999562
2025-03-08 14:24:05.047,3.796790721824042e-05,5.144863148676389
2025-03-08 14:24:05.067,5.047616232684904e-05,5.096147120331051
2025-03-08 14:24:05.086,6.148204022057239e-05,4.850479907639476
2025-03-08 14:24:05.106,6.793707765229093e-05,4.406440084754887
2025-03-08 14:24:05.125,6.666239738782074e-05,3.7786492678081287
2025-03-08 14:24:05.145,5.5239214664382845e-05,2.9954207385278964
2025-03-08 14:24:05.164,3.28475237616425e-05,2.094569612696645
2025-03-08 14:24:05.184,7.944490408182781e-07,1.1182714425384557
2025-03-08 14:24:05.203,-3.743973571325236e-05,0.1081021447542216
2025-03-08 14:24:05.223,-7.665489612264656e-05,-0.8986679740238236
2025-03-08 14:24:05.242,-0.0001107693584899,-1.8708420113480444
2025-03-08 14:24:05.262,-0.0001338707472448,-2.7830580869587624
2025-03-08 14:24:05.281,-0.0001412988007617,-3.614112458877041
2025-03-08 14:24:05.301,-0.0001305831185945,-4.344825218518575
2025-03-08 14:24:05.320,-0.0001020632717444,-4.956467749177064
2025-03-08 14:24:05.340,-5.903850670490763e-05,-5.430454184611237
2025-03-08 14:24:05.360,-7.352138039310656e-06,-5.749484349329582
2025-03-08 14:24:05.379,4.557167163429764e-05,-5.899801034844568
2025-03-08 14:24:05.399,9.20659429323997e-05,-5.873841364845111
2025-03-08 14:24:05.418,0.0001256269795869,-5.672421978089233
2025-03-08 14:24:05.438,0.0001420580631095,-5.305738518988076
2025-03-08 14:24:05.457,0.0001401316878255,-4.7928312256830745
2025-03-08 14:24:05.477,0.0001217088851134,-4.15963411941225
2025-03-08 14:24:05.496,9.134554389511506e-05,-3.436110266613351
2025-03-08 14:24:05.516,5.543478538912692e-05,-2.6531428639865595
2025-03-08 14:24:05.535,2.0969385497917796e-05,-1.839771099728269
2025-03-08 14:24:05.555,-5.885179660527364e-06,-1.0211198876672472
2025-03-08 14:24:05.574,-2.1082548951799303e-05,-0.217125416372465
2025-03-08 14:24:05.594,-2.347662286800362e-05,0.5579734250028611
2025-03-08 14:24:05.613,-1.483984362442685e-05,1.2954001763629912
2025-03-08 14:24:05.633,8.60917298536291e-07,1.990815871342518
2025-03-08 14:24:05.653,1.8642612687396347e-05,2.642449107376444
2025-03-08 14:24:05.672,3.373903503942517e-05,3.248468151221829
2025-03-08 14:24:05.692,4.255565913703292e-05,3.803970193137918
2025-03-08 14:24:05.711,4.317236403796748e-05,4.298281806787763
2025-03-08 14:24:05.731,3.538221488252733e-05,4.71343696574584
2025-03-08 14:24:05.750,2.0372488990747996e-05,5.024582810082499
2025-03-08 14:24:05.770,2.1324176124201765e-07,5.202637526883375
2025-03-08 14:24:05.789,-2.2678046367757143e-05,5.218909785651151
2025-03-08 14:24:05.809,-4.596588751209922e-05,5.0507972693238905
2025-03-08 14:24:05.828,-6.765151298858974e-05,4.687318548293288
2025-03-08 14:24:05.848,-8.614780311145398e-05,4.13320493202078
2025-03-08 14:24:05.867,-0.000100219546357,3.410569041821971
2025-03-08 14:24:05.887,-0.0001088615785338,2.557673592298928
2025-03-08 14:24:05.906,-0.0001111901457221,1.6249202360414077
2025-03-08 14:24:05.926,-0.0001064061809015,0.6687431234169082
2025-03-08 14:24:05.946,-9.386349584333647e-05,-0.2554842952211603
2025-03-08 14:24:05.965,-7.325043761639805e-05,-1.1002316893521409
2025-03-08 14:24:05.985,-4.486708281623751e-05,-1.8310825039115013
2025-03-08 14:24:06.004,-9.930276998320568e-06,-2.429640947961436
2025-03-08 14:24:06.024,2.9234704038475324e-05,-2.89371334125826
2025-03-08 14:24:06.043,6.928909885263569e-05,-3.2349091067885825
2025-03-08 14:24:06.063,0.0001063465080895,-3.4742523548278346
2025-03-08 14:24:06.082,0.0001367079356126,-3.636733118875264
2025-03-08 14:24:06.102,0.0001576140034769,-3.74590448874232
2025-03-08 14:24:06.121,0.0001677533229589,-3.8195846944108336
2025-03-08 14:24:06.141,0.0001673821596932,-3.867424163205188
2025-03-08 14:24:06.160,0.0001580622199972,-3.890605606876211
2025-03-08 14:24:06.180,0.0001421383060683,-3.8834035220465934
2025-03-08 14:24:06.199,0.0001221303739969,-3.835900039462932
2025-03-08 14:24:06.219,0.0001002092250986,-3.736945596616266
2025-03-08 14:24:06.238,7.787743540906012e-05,-3.576502090335916
2025-03-08 14:24:06.258,5.590701905831256e-05,-3.346797762524076
2025-03-08 14:24:06.278,3.451238040679242e-05,-3.0421929047441902
2025-03-08 14:24:06.297,1.3677703825032187e-05,-2.6581712519155003
2025-03-08 14:24:06.317,-6.476681141830676e-06,-2.190250221479644
2025-03-08 14:24:06.336,-2.5408818208429217e-05,-1.6336869627451531
2025-03-08 14:24:06.356,-4.204496443626072e-05,-0.9845980582339848
2025-03-08 14:24:06.375,-5.488968513844715e-05,-0.2425917787427995
2025-03-08 14:24:06.395,-6.23378446922501e-05,0.5855937129125756
2025-03-08 14:24:06.414,-6.310682946361334e-05,1.4824516273496646
2025-03-08 14:24:06.434,-5.665973084496878e-05,2.417309565579812
2025-03-08 14:24:06.453,-4.3473792390190974e-05,3.3463015227439983
2025-03-08 14:24:06.473,-2.503565264934812e-05,4.215358061913889
2025-03-08 14:24:06.492,-3.522029213373488e-06,4.96611202548489
2025-03-08 14:24:06.512,1.875437399101033e-05,5.543791018444051
2025-03-08 14:24:06.531,3.99220924866487e-05,5.9055301377874585
2025-03-08 14:24:06.551,5.8872741783748455e-05,6.027309410886382
2025-03-08 14:24:06.571,7.513339217070058e-05,5.907977770517455
2025-03-08 14:24:06.590,8.833335966868317e-05,5.569475038826957
2025-03-08 14:24:06.610,9.756063887074012e-05,5.053195422255948
2025-03-08 14:24:06.629,0.0001009810474029,4.413227269301216
2025-03-08 14:24:06.649,9.594585124575514e-05,3.707797437306466
2025-03-08 14:24:06.668,7.957468938400415e-05,2.990561676866306
2025-03-08 14:24:06.688,4.963701468965577e-05,2.303372230830373
2025-03-08 14:24:06.707,5.507081447013933e-06,1.6718113032757014
2025-03-08 14:24:06.727,-5.1041264179686815e-05,1.104160522057675
2025-03-08 14:24:06.746,-0.0001154614585603,0.5937231567888732
2025-03-08 14:24:06.766,-0.0001807430216999,0.1237230147969009
2025-03-08 14:24:06.785,-0.0002385333553306,-0.3264520642025535
2025-03-08 14:24:06.805,-0.0002809292972491,-0.7750319952018613
2025-03-08 14:24:06.824,-0.0003024952601305,-1.2328973436377018
2025-03-08 14:24:06.844,-0.0003019104472857,-1.7007600030896362
2025-03-08 14:24:06.863,-0.0002827215353373,-2.1689480610311818
2025-03-08 14:24:06.883,-0.0002529164972205,-2.619732232953824
2025-03-08 14:24:06.903,-0.0002233229371862,-3.0315801162057814
2025-03-08 14:24:06.922,-0.0002051153717955,-3.384252436724474
2025-03-08 14:24:06.942,-0.000206971152047,-3.663418249901064
2025-03-08 14:24:06.961,-0.0002325712193623,-3.863584813353022
2025-03-08 14:24:06.981,-0.000279107316619,-3.988614054882916
2025-03-08 14:24:07.000,-0.0003372226855237,-4.049783581415198
2025-03-08 14:24:07.020,-0.0003924565780972,-4.0620088534826655
2025-03-08 14:24:07.039,-0.0004278880320637,-4.039263760104704
2025-03-08 14:24:07.059,-0.0004273926592049,-3.990327058457465
2025-03-08 14:24:07.078,-0.0003788335425302,-3.915782795926644
2025-03-08 14:24:07.098,-0.0002766057744903,-3.806837224602116
2025-03-08 14:24:07.117,-0.0001231339622989,-3.646119387028484
2025-03-08 14:24:07.137,7.091732573650214e-05,-3.4103056625086445
2025-03-08 14:24:07.156,0.0002878080894917,-3.074186459635976
2025-03-08 14:24:07.176,0.0005051467215853,-2.6156512710194737
2025-03-08 14:24:07.196,0.0006992046591964,-2.020946218877634
2025-03-08 14:24:07.215,0.0008485303568146,-1.289415596223497
2025-03-08 14:24:07.235,0.0009371781554634,-0.4368175622313635
2025-03-08 14:24:07.254,0.0009569622997343,0.5036698672174911
2025-03-08 14:24:07.274,0.0009083908885084,1.483343578542209
2025-03-08 14:24:07.293,0.0008002142793836,2.4427974891601725
2025-03-08 14:24:07.313,0.0006477425020378,3.319001260793298
2025-03-08 14:24:07.332,0.0004702373371449,4.053361145927865
2025-03-08 14:24:07.352,0.000287807451609,4.599201950026246
2025-03-08 14:24:07.371,0.0001183401298934,4.927261079085366
2025-03-08 14:24:07.391,-2.495893822444036e-05,5.028326461904215
2025-03-08 14:24:07.410,-0.0001349421760934,4.912871907676013
2025-03-08 14:24:07.430,-0.0002105832609651,4.608181657519148
2025-03-08 14:24:07.449,-0.000255828784198,4.1538185208143465
2025-03-08 14:24:07.469,-0.0002776395370207,3.5963383327233798
2025-03-08 14:24:07.489,-0.0002837854114353,2.9839908776463413
2025-03-08 14:24:07.508,-0.0002809479336108,2.361929712598604
2025-03-08 14:24:07.528,-0.0002735316422447,1.7682887080417664
2025-03-08 14:24:07.547,-0.0002633527916192,1.2313888732197515
2025-03-08 14:24:07.567,-0.0002501291384073,0.7682655794516432
2025-03-08 14:24:07.586,-0.0002324968858652,0.3845950924974887
2025-03-08 14:24:07.606,-0.0002091731592866,0.0759340559025317
2025-03-08 14:24:07.625,-0.0001798879079995,-0.1699951976870055
2025-03-08 14:24:07.645,-0.0001458275183482,-0.370374749179638
2025-03-08 14:24:07.664,-0.0001095271356153,-0.5441644267157776
2025-03-08 14:24:07.684,-7.4336949531741e-05,-0.7091863615392028
2025-03-08 14:24:07.703,-4.368088063503661e-05,-0.8797327371044114
2025-03-08 14:24:07.723,-2.0312828617946462e-05,-1.0648906437298806
2025-03-08 14:24:07.742,-5.726695640854245e-06,-1.267664208275603
2025-03-08 14:24:07.762,1.5943666845759246e-07,-1.4848844748287393
2025-03-08 14:24:07.781,-1.0295447358598988e-06,-1.7078417086164392
2025-03-08 14:24:07.801,-6.50209346769558e-06,-1.923543880405033
2025-03-08 14:24:07.821,-1.2926463408191069e-05,-2.116471740294805
2025-03-08 14:24:07.840,-1.715650315845841e-05,-2.2706363695772005
2025-03-08 14:24:07.860,-1.6894917851574975e-05,-2.371647146286586
2025-03-08 14:24:07.879,-1.1164590483893511e-05,-2.40841268590716
2025-03-08 14:24:07.899,-5.22689340770873e-07,-2.3741042791688063
2025-03-08 14:24:07.918,1.297894317935922e-05,-2.2661670106677443
2025-03-08 14:24:07.938,2.605370332447404e-05,-2.0854484401008646
2025-03-08 14:24:07.957,3.465485036365377e-05,-1.834832785453948
2025-03-08 14:24:07.977,3.4689822564245687e-05,-1.5179921769876827
2025-03-08 14:24:07.996,2.294353391794924e-05,-1.13888621035926
2025-03-08 14:24:08.016,-1.970474053330069e-06,-0.7024065079617107
2025-03-08 14:24:08.035,-3.8942229511450536e-05,-0.2161149169411051
2025-03-08 14:24:08.055,-8.426365881049122e-05,0.3074965332073017
2025-03-08 14:24:08.074,-0.0001321742249002,0.8491807305253709
2025-03-08 14:24:08.094,-0.0001758950929671,1.3825584716398311
2025-03-08 14:24:08.114,-0.0002088619318295,1.875846571341116
2025-03-08 14:24:08.133,-0.000225872822553,2.2956650237387324
2025-03-08 14:24:08.153,-0.0002239447538478,2.6121207934293262
2025-03-08 14:24:08.172,-0.0002027557571586,2.803800922720324
2025-03-08 14:24:08.192,-0.0001646203125525,2.8612086138660646
2025-03-08 14:24:08.211,-0.0001140129035872,2.787624851396377
2025-03-08 14:24:08.231,-5.673400253338691e-05,2.5972208030576645
2025-03-08 14:24:08.250,1.0997117441376791e-06,2.3111459408593378
2025-03-08 14:24:08.270,5.400773755392848e-05,1.9529152254231283
2025-03-08 14:24:08.289,9.78455426299216e-05,1.544506053006102
2025-03-08 14:24:08.309,0.0001301690214514,1.1041664333407075
2025-03-08 14:24:08.328,0.0001502827806271,0.646227519054786
2025-03-08 14:24:08.348,0.0001590316694317,0.182481764293853
2025-03-08 14:24:08.367,0.0001584041556532,-0.2758180819509006
2025-03-08 14:24:08.387,0.0001510321364096,-0.7164131735148132
2025-03-08 14:24:08.407,0.0001396862450411,-1.125755159041959
2025-03-08 14:24:08.426,0.0001268571059128,-1.490250924228106
2025-03-08 14:24:08.446,0.00011448050091,-1.7986831986971978
2025-03-08 14:24:08.465,0.000103821889299,-2.0449766609752014
2025-03-08 14:24:08.485,9.54974726969116e-05,-2.2302886254315326
2025-03-08 14:24:08.504,8.958457748057802e-05,-2.3635433791110376
2025-03-08 14:24:08.524,8.576739901603482e-05,-2.459947888746317
2025-03-08 14:24:08.543,8.347365211566356e-05,-2.537604156488085
2025-03-08 14:24:08.563,8.197795622828644e-05,-2.612907824489978
2025-03-08 14:24:08.582,8.047131638752555e-05,-2.695829087494701
2025-03-08 14:24:08.602,7.81152327202623e-05,-2.7862957826425627
2025-03-08 14:24:08.621,7.410789729014717e-05,-2.872702834713282
2025-03-08 14:24:08.641,6.778577075899934e-05,-2.933094580701942
2025-03-08 14:24:08.660,5.876742289976917e-05,-2.938914926518247
2025-03-08 14:24:08.680,4.712232846044188e-05,-2.8605689721244585
2025-03-08 14:24:08.699,3.3522556083109724e-05,-2.673584499138093
2025-03-08 14:24:08.719,1.93184453584736e-05,-2.364032458175996
2025-03-08 14:24:08.739,6.478159510226471e-06,-1.9320626780102044
2025-03-08 14:24:08.758,-2.649770619820502e-06,-1.3928304359741346
2025-03-08 14:24:08.778,-5.752188586962534e-06,-0.7746096422347244
2025-03-08 14:24:08.797,-1.0927557649347949e-06,-0.1144251288490986
2025-03-08 14:24:08.817,1.1929401255701163e-05,0.5479730749333184
2025-03-08 14:24:08.836,3.235354135034745e-05,1.176605467560479
2025-03-08 14:24:08.856,5.7521682833844345e-05,1.7448932265176371
2025-03-08 14:24:08.875,8.335184164452742e-05,2.239220846429074
2025-03-08 14:24:08.895,0.0001050437635276,2.6596398982886678
2025-03-08 14:24:08.914,0.0001180994523347,3.01753192494043
2025-03-08 14:24:08.934,0.0001193925637352,3.330727590706599
2025-03-08 14:24:08.953,0.000107948059252,3.617180802243523
2025-03-08 14:24:08.973,8.517727500404235e-05,3.888684192115696
2025-03-08 14:24:08.992,5.453353739343255e-05,4.1461805752010426
2025-03-08 14:24:09.012,2.0764890663897276e-05,4.377916049603467
2025-03-08 14:24:09.032,-1.0994595568268735e-05,4.561010982287144
2025-03-08 14:24:09.051,-3.612843130258485e-05,4.6661222864171865
2025-03-08 14:24:09.071,-5.135820892688217e-05,4.663983669295109
2025-03-08 14:24:09.090,-5.540423182598554e-05,4.532049434270812
2025-03-08 14:24:09.110,-4.934685411156913e-05,4.259462832815635
2025-03-08 14:24:09.129,-3.65247630074708e-05,3.8491415109968585
2025-03-08 14:24:09.149,-2.1884025618333764e-05,3.316702158618499
2025-03-08 14:24:09.168,-1.0850832887603888e-05,2.68687964153749
2025-03-08 14:24:09.188,-7.973605748393116e-06,1.9887060434199189
2025-03-08 14:24:09.207,-1.5689645824094722e-05,1.2508411081554478
2025-03-08 14:24:09.227,-3.3570537636629666e-05,0.4981410926095091
2025-03-08 14:24:09.246,-5.8305123106154975e-05,-0.2499757283016448
2025-03-08 14:24:09.266,-8.453224810207714e-05,-0.9793398801377216
2025-03-08 14:24:09.285,-0.0001064461508457,-1.6794014971839082
2025-03-08 14:24:09.305,-0.0001198629109092,-2.340816876730787
2025-03-08 14:24:09.324,-0.0001242096035651,-2.9530482407887333
2025-03-08 14:24:09.344,-0.0001237835799613,-3.502761091101639
2025-03-08 14:24:09.364,-0.0001277136886624,-3.9735977267330713
2025-03-08 14:24:09.383,-0.00014834288892,-4.347513940742196
2025-03-08 14:24:09.403,-0.0001981668906589,-4.607374157761753
2025-03-08 14:24:09.422,-0.0002858990067617,-4.740061233766616
2025-03-08 14:24:09.442,-0.0004125834419379,-4.739143558997046
2025-03-08 14:24:09.461,-0.0005688523363242,-4.606266015941569
2025-03-08 14:24:09.481,-0.0007343348264773,-4.350863684698249
2025-03-08 14:24:09.500,-0.0008798340318936,-3.988362580360955
2025-03-08 14:24:09.520,-0.0009722178808259,-3.5375039900770053
2025-03-08 14:24:09.539,-0.0009811617462093,-3.0176492536383863
2025-03-08 14:24:09.559,-0.0008861903964532,-2.446847359946713
2025-03-08 14:24:09.578,-0.0006821898051456,-1.841127379231946
2025-03-08 14:24:09.598,-0.0003818747678509,-1.2150152030463963
2025-03-08 14:24:09.617,-1.451923657280905e-05,-0.5828149707201986
2025-03-08 14:24:09.637,0.0003787455850448,0.0400913417178612
2025-03-08 14:24:09.657,0.0007519411476216,0.6366610935637329
2025-03-08 14:24:09.676,0.0010619924178663,1.188748753226985
2025-03-08 14:24:09.696,0.0012756196596855,1.6787593529516025
2025-03-08 14:24:09.715,0.0013740943607595,2.0919301991031354
2025-03-08 14:24:09.735,0.0013551499892395,2.418549406155244
2025-03-08 14:24:09.754,0.0012319829030656,2.6554377288336437
2025-03-08 14:24:09.774,0.0010298318035554,2.8062344909741563
2025-03-08 14:24:09.793,0.0007809887763661,2.8803519104426285
2025-03-08 14:24:09.813,0.0005192541609547,2.89079896553563
2025-03-08 14:24:09.832,0.0002748182501165,2.851343264812671
2025-03-08 14:24:09.852,7.036540359416993e-05,2.773623021194672
2025-03-08 14:24:09.871,-8.110043642760036e-05,2.6648206412427333
2025-03-08 14:24:09.891,-0.0001765588580641,2.5263779586692485
2025-03-08 14:24:09.910,-0.0002216039946984,2.354016938343619
2025-03-08 14:24:09.930,-0.0002278928235958,2.139090942391719
2025-03-08 14:24:09.950,-0.0002100626639877,1.8710755651456676
2025-03-08 14:24:09.969,-0.0001827641916906,1.5408209332631837
2025-03-08 14:24:09.989,-0.000158304024123,1.144010866254371
2025-03-08 14:24:10.008,-0.0001451619538952,0.6841117086334372
2025-03-08 14:24:10.028,-0.0001474197516799,0.174011314745128
2025-03-08 14:24:10.047,-0.0001649671601242,-0.3643371243798299
2025-03-08 14:24:10.067,-0.00019426128956,-0.9025554353306504
2025-03-08 14:24:10.086,-0.0002294039744365,-1.4104183030579542
2025-03-08 14:24:10.106,-0.0002633427945596,-1.8613494287046533
2025-03-08 14:24:10.125,-0.0002890614140031,-2.237391109220245
2025-03-08 14:24:10.145,-0.000300672729419,-2.532235650732405
2025-03-08 14:24:10.164,-0.000294345861054,-2.7514171695386613
2025-03-08 14:24:10.184,-0.0002689850106491,-2.909564814868602
2025-03-08 14:24:10.203,-0.0002265521541413,-3.0254316883355936
2025-03-08 14:24:10.223,-0.0001719162873263,-3.115991720814595
2025-03-08 14:24:10.242,-0.0001121522587988,-3.1911062654347098
2025-03-08 14:24:10.262,-5.532356824694119e-05,-3.2500875059552694
2025-03-08 14:24:10.282,-8.952080981766931e-06,-3.28099604235637
2025-03-08 14:24:10.301,2.146767739088856e-05,-3.2628308223414706
2025-03-08 14:24:10.321,3.351428664592321e-05,-3.170067923924929
2025-03-08 14:24:10.340,2.8179472795948177e-05,-2.9784583273665146
2025-03-08 14:24:10.360,9.46850694937308e-06,-2.670736586882985
2025-03-08 14:24:10.379,-1.6574796541003252e-05,-2.24096606577145
2025-03-08 14:24:10.399,-4.3177367163200414e-05,-1.6966067942266272
2025-03-08 14:24:10.418,-6.424850918865268e-05,-1.0579380842660735
2025-03-08 14:24:10.438,-7.565768893133364e-05,-0.3550793339018585
2025-03-08 14:24:10.457,-7.609352112157575e-05,0.3765959448496552
2025-03-08 14:24:10.477,-6.721341988098741e-05,1.1014965492148745
2025-03-08 14:24:10.496,-5.2941094205553176e-05,1.7880906692411327
2025-03-08 14:24:10.516,-3.805923831408584e-05,2.4115145789028363
2025-03-08 14:24:10.535,-2.652245018511671e-05,2.9541783689931096
2025-03-08 14:24:10.555,-2.002142705822401e-05,3.404683523320946
2025-03-08 14:24:10.575,-1.7234102904716278e-05,3.755856535488616
2025-03-08 14:24:10.594,-1.3981471079510678e-05,4.002866869288655
2025-03-08 14:24:10.614,-4.255693122425792e-06,4.142207319031298
2025-03-08 14:24:10.633,1.8135509067824853e-05,4.171876598804284
2025-03-08 14:24:10.653,5.772325841708971e-05,4.092600400087042
2025-03-08 14:24:10.672,0.0001158107241637,3.909532114399622
2025-03-08 14:24:10.692,0.0001896138258153,3.6336897428227983
2025-03-08 14:24:10.711,0.0002723630610152,3.282434932946196
2025-03-08 14:24:10.731,0.0003543471651181,2.878560004570111
2025-03-08 14:24:10.750,0.0004245916156476,2.447959350865186
2025-03-08 14:24:10.770,0.0004726900891927,2.016312711218777
2025-03-08 14:24:10.789,0.0004903407426142,1.6055535069824003
2025-03-08 14:24:10.809,0.0004723571413611,1.231011091529508
2025-03-08 14:24:10.828,0.0004171795108292,0.8999525340003101
2025-03-08 14:24:10.848,0.0003270518447096,0.6118546930044353
2025-03-08 14:24:10.868,0.0002080115633898,0.3602446714226869
2025-03-08 14:24:10.887,6.972447201391232e-05,0.1355311921064309
2025-03-08 14:24:10.907,-7.493114990937778e-05,-0.0719534921984076
2025-03-08 14:24:10.926,-0.0002107141672057,-0.269440031308609
2025-03-08 14:24:10.946,-0.0003214802925449,-0.4602559273744351
2025-03-08 14:24:10.965,-0.0003922969740134,-0.6436298264813308
2025-03-08 14:24:10.985,-0.0004120187544567,-0.8156903980329266
2025-03-08 14:24:11.004,-0.0003758430269073,-0.9713144960260552
2025-03-08 14:24:11.024,-0.0002871461070525,-1.106263785687031
2025-03-08 14:24:11.043,-0.0001578911873121,-1.2189471779690595
2025-03-08 14:24:11.063,-7.1921227072205306e-06,-1.3112325031054357
2025-03-08 14:24:11.082,0.0001418577622588,-1.388023727468242
2025-03-08 14:24:11.102,0.0002664243596136,-1.4557414969162334
2025-03-08 14:24:11.121,0.0003481981486779,-1.5202420420617506
2025-03-08 14:24:11.141,0.0003766099607071,-1.5849151630906966
2025-03-08 14:24:11.160,0.0003502551731717,-1.6496139531822849
2025-03-08 14:24:11.180,0.0002763476364337,-1.7107236999924305
2025-03-08 14:24:11.200,0.0001685559669641,-1.7622467696206423
2025-03-08 14:24:11.219,4.387812013354557e-05,-1.7974628484550856
2025-03-08 14:24:11.239,-8.072288593134055e-05,-1.8106227422072887
2025-03-08 14:24:11.258,-0.0001912653843979,-1.798226185685481
2025-03-08 14:24:11.278,-0.0002787547540815,-1.7596297629633757
2025-03-08 14:24:11.297,-0.0003399355412118,-1.6969408060151483
2025-03-08 14:24:11.317,-0.0003767634382839,-1.6143195094102705
2025-03-08 14:24:11.336,-0.0003948644019789,-1.516915814236852
2025-03-08 14:24:11.356,-0.0004014532661163,-1.4097252866490164
2025-03-08 14:24:11.375,-0.0004032483216452,-1.2966774110923192
2025-03-08 14:24:11.395,-0.0004048495032341,-1.180249447848872
2025-03-08 14:24:11.414,-0.0004078867082812,-1.0617779598109978
2025-03-08 14:24:11.434,-0.0004110398548436,-0.9424064451892952
2025-03-08 14:24:11.453,-0.0004108286274567,-0.8243349333893838
2025-03-08 14:24:11.473,-0.0004029044718361,-0.7118445451361488
2025-03-08 14:24:11.493,-0.0003834776702739,-0.6115450147173666
2025-03-08 14:24:11.512,-0.0003504961280861,-0.5314646745042094
2025-03-08 14:24:11.532,-0.000304268392846,-0.4789511563457711
2025-03-08 14:24:11.551,-0.0002473871703996,-0.4578055377711972
2025-03-08 14:24:11.571,-0.0001840291003304,-0.4654896942696627
2025-03-08 14:24:11.590,-0.0001189049403983,-0.4914381736185659
2025-03-08 14:24:11.610,-5.6215522419084287e-05,-0.5173349596124676
2025-03-08 14:24:11.629,1.1043512821084006e-06,-0.5196939648341607
2025-03-08 14:24:11.649,5.1733433924817486e-05,-0.4743829170761253
2025-03-08 14:24:11.668,9.59200429815602e-05,-0.3621011570586431
2025-03-08 14:24:11.688,0.0001351180497879,-0.1734668647194963
2025-03-08 14:24:11.707,0.0001713797790553,0.0876227026353805
2025-03-08 14:24:11.727,0.0002066111154821,0.4033434351323784
2025-03-08 14:24:11.746,0.0002418547116113,0.7443850673022446
2025-03-08 14:24:11.766,0.000276793974456,1.075113740161303
2025-03-08 14:24:11.785,0.0003096225078142,1.3603836974120125
2025-03-08 14:24:11.805,0.0003373336059063,1.572452941232858
2025-03-08 14:24:11.825,0.0003563886748128,1.6963804846151396
2025-03-08 14:24:11.844,0.0003636178559397,1.732646171455446
2025-03-08 14:24:11.864,0.0003570976784563,1.696433030224184
2025-03-08 14:24:11.883,0.0003367066272279,1.6138391132993393
2025-03-08 14:24:11.903,0.0003041605537397,1.516014352340153
2025-03-08 14:24:11.922,0.0002625583048853,1.432663830226316
2025-03-08 14:24:11.942,0.0002156810865745,1.3864188379852076
2025-03-08 14:24:11.961,0.000167347351015,1.389260593172608
2025-03-08 14:24:11.981,0.0001210197429081,1.4416052379420123
2025-03-08 14:24:12.000,7.968827534339073e-05,1.5339894991677758
2025-03-08 14:24:12.020,4.591273251775207e-05,1.6506907154887696
2025-03-08 14:24:12.039,2.1848771315641387e-05,1.7742004056249252
2025-03-08 14:24:12.059,9.1181288611434e-06,1.889342740393413
2025-03-08 14:24:12.078,8.495895949431373e-06,1.9860214389259971
2025-03-08 14:24:12.098,1.9525471352120797e-05,2.060027077362641
2025-03-08 14:24:12.118,4.025494418478168e-05,2.1118962917229585
2025-03-08 14:24:12.137,6.726060080169141e-05,2.1443205165039494
2025-03-08 14:24:12.157,9.601108689768364e-05,2.1589310857372666
2025-03-08 14:24:12.176,0.000121513637379,2.153386205222798
2025-03-08 14:24:12.196,0.0001391187069643,2.11957040021119
2025-03-08 14:24:12.215,0.0001453242566268,2.0434485349605542
2025-03-08 14:24:12.235,0.0001384000583803,1.906757099013425
2025-03-08 14:24:12.254,0.0001186751179417,1.6903132525094953
2025-03-08 14:24:12.274,8.84261482783984e-05,1.3783296607367554
2025-03-08 14:24:12.293,5.143209301059302e-05,0.9628211107194288
2025-03-08 14:24:12.313,1.2335824752206664e-05,0.4470757075954043
2025-03-08 14:24:12.332,-2.405413196422748e-05,-0.152693320450955
2025-03-08 14:24:12.352,-5.343903573971283e-05,-0.8080137300974489
2025-03-08 14:24:12.371,-7.263229434370958e-05,-1.4811137533694807
2025-03-08 14:24:12.391,-8.002883113912748e-05,-2.129640746740118
2025-03-08 14:24:12.411,-7.585031749734145e-05,-2.7122414530343617
2025-03-08 14:24:12.430,-6.207770081219546e-05,-3.1939616674916067
2025-03-08 14:24:12.450,-4.205792668058868e-05,-3.550504535175871
2025-03-08 14:24:12.469,-1.9884139499237257e-05,-3.770655945678158
2025-03-08 14:24:12.489,2.859733489181889e-07,-3.856574663800208
2025-03-08 14:24:12.508,1.4828616988629235e-05,-3.8220648868594393
2025-03-08 14:24:12.528,2.10921299060208e-05,-3.6893055502814662
2025-03-08 14:24:12.547,1.766062537372218e-05,-3.484731926732573
2025-03-08 14:24:12.567,4.4594740524107065e-06,-3.2348247176767644
2025-03-08 14:24:12.586,-1.7281140167781007e-05,-2.962483461244688
2025-03-08 14:24:12.606,-4.520524707278427e-05,-2.6844975774492754
2025-03-08 14:24:12.625,-7.616679438755918e-05,-2.410425937950204
2025-03-08 14:24:12.645,-0.0001067266275792,-2.142969340283181
2025-03-08 14:24:12.664,-0.000133770340379,-1.8796677816239875
2025-03-08 14:24:12.684,-0.0001551280171938,-1.6154977543800175
2025-03-08 14:24:12.703,-0.000169996598274,-1.3457462950173105
2025-03-08 14:24:12.723,-0.0001789561765421,-1.0684728785283957
2025-03-08 14:24:12.743,-0.0001835018312142,-0.7859802909502315
2025-03-08 14:24:12.762,-0.0001852492299829,-0.5049834948441515
2025-03-08 14:24:12.782,-0.0001851585188178,-0.2355081402031265
2025-03-08 14:24:12.801,-0.0001831119698641,0.0111489204371525
2025-03-08 14:24:12.821,-0.0001779851269446,0.2248895299198518
2025-03-08 14:24:12.840,-0.0001681122647202,0.3991606908250562
2025-03-08 14:24:12.860,-0.0001519096571765,0.5326583249854892
2025-03-08 14:24:12.879,-0.0001284313625449,0.6299576374580815
2025-03-08 14:24:12.899,-9.773889609221922e-05,0.7008100266008248
2025-03-08 14:24:12.918,-6.107310083517296e-05,0.7581394835973131
2025-03-08 14:24:12.938,-2.0854863019793864e-05,0.8151576835297476
2025-03-08 14:24:12.957,1.9486984417001734e-05,0.8823576823886415
2025-03-08 14:24:12.977,5.589805817396712e-05,0.9652585014061278
2025-03-08 14:24:12.996,8.431289506572719e-05,1.063565358440315
2025-03-08 14:24:13.016,0.000101437339463,1.1719588337513276
2025-03-08 14:24:13.036,0.0001055119992729,1.2822189953848813
2025-03-08 14:24:13.055,9.67957879391488e-05,1.3860096587162716
2025-03-08 14:24:13.075,7.757091339287054e-05,1.4774940652218391
2025-03-08 14:24:13.094,5.165821146219837e-05,1.5550374059218786
2025-03-08 14:24:13.114,2.361130898842266e-05,1.6215222339677575
2025-03-08 14:24:13.133,-2.1876604018722306e-06,1.683178009818711
2025-03-08 14:24:13.153,-2.235254464558193e-05,1.747215980435672
2025-03-08 14:24:13.172,-3.5100121704938024e-05,1.818878576662837
2025-03-08 14:24:13.192,-4.05126882058529e-05,1.898686161596077
2025-03-08 14:24:13.211,-4.0373216108240144e-05,1.9806509765740576
2025-03-08 14:24:13.231,-3.760290336477774e-05,2.0520266679200825
2025-03-08 14:24:13.250,-3.546413484480255e-05,2.094810779133057
2025-03-08 14:24:13.270,-3.675762583234778e-05,2.0887922999024138
2025-03-08 14:24:13.289,-4.319777084553027e-05,2.015540388596889
2025-03-08 14:24:13.309,-5.504607885661573e-05,1.862474388328346
2025-03-08 14:24:13.329,-7.101603719927948e-05,1.6261154733155214
2025-03-08 14:24:13.348,-8.846372913531058e-05,1.313798723121376
2025-03-08 14:24:13.368,-0.0001038774087458,0.9434515128666277
2025-03-08 14:24:13.387,-0.0001136063791948,0.5414275867818733
2025-03-08 14:24:13.407,-0.0001146549969009,0.1387551567187003
2025-03-08 14:24:13.426,-0.0001053091967995,-0.2335391986051259
2025-03-08 14:24:13.446,-8.541643882552034e-05,-0.5491819293985928
2025-03-08 14:24:13.465,-5.627906716127003e-05,-0.7906029842848982
2025-03-08 14:24:13.485,-2.027510024067344e-05,-0.9513545658432172
2025-03-08 14:24:13.504,1.9595832152801414e-05,-1.036561025784038
2025-03-08 14:24:13.524,6.0091985407892896e-05,-1.0613472009871794
2025-03-08 14:24:13.543,9.802509335622432e-05,-1.0475826484995117
2025-03-08 14:24:13.563,0.0001305546127767,-1.019584008955589
2025-03-08 14:24:13.582,0.0001555191583603,-0.9995757679478532
2025-03-08 14:24:13.602,0.0001717345381535,-1.0037065456663108
