Timestamp,GSR_Filtered,PPG_Filtered
2025-03-17 13:10:47.179,-0.0010505126896320422,-11.276840061983119
2025-03-17 13:10:47.199,-0.0007942421857852201,-12.736758948758506
2025-03-17 13:10:47.218,-0.0005086838808115607,-13.982834427328264
2025-03-17 13:10:47.238,-0.0001764203673482129,-14.735985802685004
2025-03-17 13:10:47.257,0.00020777344295274788,-14.71244024424
2025-03-17 13:10:47.277,0.0006345826927219917,-13.682273180847426
2025-03-17 13:10:47.296,0.0010813931264621274,-11.524304868589411
2025-03-17 13:10:47.316,0.0015167451757496298,-8.264848834127465
2025-03-17 13:10:47.335,0.0019067615375403602,-4.090230872608396
2025-03-17 13:10:47.355,0.0022218892974183364,0.6717004679332865
2025-03-17 13:10:47.374,0.002442455435243948,5.598820939944405
2025-03-17 13:10:47.394,0.002562010801800277,10.2416117309668
2025-03-17 13:10:47.413,0.002587887644478764,14.19581456290583
2025-03-17 13:10:47.433,0.002538806526631754,17.165745313413037
2025-03-17 13:10:47.452,0.00243996712294176,19.005629604110762
2025-03-17 13:10:47.472,0.0023168357912500682,19.73168331344315
2025-03-17 13:10:47.492,0.0021894108385915826,19.50433121053676
2025-03-17 13:10:47.511,0.002068681734418521,18.586219608185054
2025-03-17 13:10:47.531,0.001956215170529718,17.28614587143124
2025-03-17 13:10:47.550,0.0018466257697833273,15.900901646797188
2025-03-17 13:10:47.570,0.0017316843640706534,14.666183293704668
2025-03-17 13:10:47.589,0.0016044454924957138,13.724670685821211
2025-03-17 13:10:47.609,0.0014621094027823147,13.115078614745384
2025-03-17 13:10:47.628,0.0013070500938575952,12.78154940692724
2025-03-17 13:10:47.648,0.0011461114280158654,12.599098861214921
2025-03-17 13:10:47.667,0.0009886645483184818,12.408494436683092
2025-03-17 13:10:47.687,0.0008440691944972562,12.05310714810982
2025-03-17 13:10:47.706,0.0007192275615999452,11.41083967697314
2025-03-17 13:10:47.726,0.0006168851637950148,10.415922761438843
2025-03-17 13:10:47.745,0.0005351169094336011,9.06779749339217
2025-03-17 13:10:47.765,0.0004680117676730318,7.426978099542604
2025-03-17 13:10:47.785,0.00040713644990000023,5.60019829074005
2025-03-17 13:10:47.804,0.000343226533828872,3.7188293215609027
2025-03-17 13:10:47.824,0.00026780334441146386,1.9152427710782305
2025-03-17 13:10:47.843,0.0001747312479616318,0.30145547870033473
2025-03-17 13:10:47.863,6.17244730111252e-05,-1.0467199216199974
2025-03-17 13:10:47.882,-6.849161895106799e-05,-2.0982699271418737
2025-03-17 13:10:47.902,-0.00020784394943918036,-2.8679776613430867
2025-03-17 13:10:47.921,-0.0003436598604206002,-3.410543803764955
2025-03-17 13:10:47.941,-0.0004603367450214681,-3.809216613524217
2025-03-17 13:10:47.960,-0.0005415562069663426,-4.160671188123823
2025-03-17 13:10:47.980,-0.000572790627007384,-4.558037361803368
2025-03-17 13:10:47.999,-0.0005440259775832407,-5.074021983161371
2025-03-17 13:10:48.019,-0.00045249480688651833,-5.746064433531313
2025-03-17 13:10:48.038,-0.00030478449752974126,-6.565446144426279
2025-03-17 13:10:48.058,-0.00011736404701565603,-7.472225095791352
2025-03-17 13:10:48.077,8.523779611527852e-05,-8.357656607665767
2025-03-17 13:10:48.097,0.00027462578080516593,-9.075186268842822
2025-03-17 13:10:48.117,0.0004241615691779515,-9.45998848715637
2025-03-17 13:10:48.136,0.000514404737635163,-9.355371032148808
2025-03-17 13:10:48.156,0.0005367703181874637,-8.642425111048427
2025-03-17 13:10:48.175,0.0004944759086144613,-7.395266330010935
2025-03-17 13:10:48.195,0.00040075040695668397,-5.339976152283728
2025-03-17 13:10:48.214,0.00027494259857182744,-2.56159013738236
2025-03-17 13:10:48.234,0.00013752494118207507,0.7770729460128308
2025-03-17 13:10:48.253,5.221594498125337e-06,4.4412455726024636
2025-03-17 13:10:48.273,-0.00011241257082947838,8.141444752491823
2025-03-17 13:10:48.292,-0.00021395829857349366,11.56121336117761
2025-03-17 13:10:48.312,-0.00030448921936752574,14.39204483632092
2025-03-17 13:10:48.331,-0.00039216495798726213,16.370516042759988
2025-03-17 13:10:48.351,-0.0004844833192655982,17.31206318311396
2025-03-17 13:10:48.370,-0.0005854935236089018,17.136219645491877
2025-03-17 13:10:48.390,-0.0006946152122141762,15.879234917355074
2025-03-17 13:10:48.410,-0.0008069505596702493,13.691594165082455
2025-03-17 13:10:48.429,-0.0009145592649059271,10.819958057665955
2025-03-17 13:10:48.449,-0.0010082230423113063,7.575353197378953
2025-03-17 13:10:48.468,-0.0010794575195963241,4.291816755756445
2025-03-17 13:10:48.488,-0.0011225353589180945,1.2816613443554095
2025-03-17 13:10:48.507,-0.0011360570194608093,-1.2054845034968011
2025-03-17 13:10:48.527,-0.0011235228329299011,-3.013089428425661
2025-03-17 13:10:48.546,-0.0010926652305962633,-4.092625607251041
2025-03-17 13:10:48.566,-0.0010537738810407619,-4.500907735188393
2025-03-17 13:10:48.585,-0.001017506726363433,-4.381142884116243
2025-03-17 13:10:48.605,-0.000992653586898535,-3.931948559791687
2025-03-17 13:10:48.624,-0.000984232091273133,-3.3705139462592877
2025-03-17 13:10:48.644,-0.0009922937420323201,-2.8965786880444373
2025-03-17 13:10:48.663,-0.0010118122186760484,-2.6630699494579044
2025-03-17 13:10:48.683,-0.0010338643870851571,-2.7574818343882033
2025-03-17 13:10:48.702,-0.0010479430218472956,-3.1959050145903176
2025-03-17 13:10:48.722,-0.0010447537864640669,-3.9294357390186736
2025-03-17 13:10:48.742,-0.001018509100509377,-4.86078898060834
2025-03-17 13:10:48.761,-0.000967852320098957,-5.867479945872236
2025-03-17 13:10:48.781,-0.0008951869765746218,-6.827041331071893
2025-03-17 13:10:48.800,-0.0008049787219886163,-7.639520597181006
2025-03-17 13:10:48.820,-0.0007020199407837362,-8.243042813277569
2025-03-17 13:10:48.839,-0.0005904698206189252,-8.619538043534979
2025-03-17 13:10:48.859,-0.00047389618285191744,-8.789674647569324
2025-03-17 13:10:48.878,-0.00035594756636335835,-8.798297673058334
2025-03-17 13:10:48.898,-0.0002410010709347368,-8.693800193984947
2025-03-17 13:10:48.917,-0.00013423956321580695,-8.506371942937305
2025-03-17 13:10:48.937,-4.096153378588319e-05,-8.230582787927734
2025-03-17 13:10:48.956,3.4685027821327725e-05,-7.817080501124085
2025-03-17 13:10:48.976,9.106818464617953e-05,-7.176366533643086
2025-03-17 13:10:48.995,0.0001299588244165033,-6.194949426380731
2025-03-17 13:10:49.015,0.0001564847931600994,-4.761189232638019
2025-03-17 13:10:49.035,0.00017804300519993474,-2.795564552154943
2025-03-17 13:10:49.054,0.0002025202241581734,-0.2786669959327986
2025-03-17 13:10:49.074,0.00023650517892832284,2.7295661864494205
2025-03-17 13:10:49.093,0.00028412477841467394,6.0840575925280005
2025-03-17 13:10:49.113,0.00034672379756742075,9.564018643520264
2025-03-17 13:10:49.132,0.00042317179923634135,12.896237349725098
2025-03-17 13:10:49.152,0.0005104472803045443,15.78826076047763
2025-03-17 13:10:49.171,0.0006043174239050643,17.965996280382697
2025-03-17 13:10:49.191,0.0007001401130801214,19.209955424897753
2025-03-17 13:10:49.210,0.0007938135416793991,19.38502416207815
2025-03-17 13:10:49.230,0.0008826670420811515,18.45983925571008
2025-03-17 13:10:49.249,0.0009658485852596121,16.513220016707134
2025-03-17 13:10:49.269,0.0010438193625026395,13.72651826752619
2025-03-17 13:10:49.288,0.0011170268724076575,10.362291337351328
2025-03-17 13:10:49.308,0.0011844257624311588,6.731480486993921
2025-03-17 13:10:49.328,0.0012427457025849858,3.1531834140715826
2025-03-17 13:10:49.347,0.0012870146288453909,-0.08724526440802932
2025-03-17 13:10:49.367,0.0013121190154397587,-2.7751682934495845
2025-03-17 13:10:49.386,0.001314654071454979,-4.792452277415093
2025-03-17 13:10:49.406,0.0012942775686323321,-6.127467119825344
2025-03-17 13:10:49.425,0.00125412980295842,-6.867458639424284
2025-03-17 13:10:49.445,0.001200314935495339,-7.174756842160982
2025-03-17 13:10:49.464,0.0011407074902190092,-7.251401348851601
2025-03-17 13:10:49.484,0.0010834184479970091,-7.298996867598142
2025-03-17 13:10:49.503,0.0010352615578996733,-7.481447275949385
2025-03-17 13:10:49.523,0.0010005903015499833,-7.897470714991121
2025-03-17 13:10:49.542,0.0009808472689627169,-8.567657773578665
2025-03-17 13:10:49.562,0.0009749484118319473,-9.437805952545304
2025-03-17 13:10:49.581,0.0009802416971450346,-10.397010031120399
2025-03-17 13:10:49.601,0.0009934659731714135,-11.306145636381967
2025-03-17 13:10:49.620,0.001011174140216034,-12.030442394379902
2025-03-17 13:10:49.640,0.0010295548464752515,-12.469119743643889
2025-03-17 13:10:49.660,0.0010441825264512154,-12.57569756898263
2025-03-17 13:10:49.679,0.0010504129526568379,-12.364543645171931
2025-03-17 13:10:49.699,0.001044664732780161,-11.90218706522987
2025-03-17 13:10:49.718,0.0010260341142610042,-11.285368252048482
2025-03-17 13:10:49.738,0.0009972461020928206,-10.610992485762756
2025-03-17 13:10:49.757,0.0009642069503537724,-9.945350899391395
2025-03-17 13:10:49.777,0.0009341503749060799,-9.300549185624003
2025-03-17 13:10:49.796,0.000913039084850905,-8.624723433664279
2025-03-17 13:10:49.816,0.0009031750317081467,-7.809466773985334
2025-03-17 13:10:49.835,0.0009018871636748666,-6.713604635212107
2025-03-17 13:10:49.855,0.0009018257422345626,-5.198119590097429
2025-03-17 13:10:49.874,0.0008928931091891764,-3.1638508484334915
2025-03-17 13:10:49.894,0.0008652675068716047,-0.5825620005747052
2025-03-17 13:10:49.913,0.0008124818606183349,2.486489571950657
2025-03-17 13:10:49.933,0.0007333672182369402,5.89857072601281
2025-03-17 13:10:49.953,0.0006320923046328614,9.443229879658908
2025-03-17 13:10:49.972,0.0005164052387009319,12.876370259855348
2025-03-17 13:10:49.992,0.00039497194278388735,15.956438618844002
2025-03-17 13:10:50.011,0.00027489953633650196,18.47634802427435
2025-03-17 13:10:50.031,0.0001601235586416907,20.285025665899035
2025-03-17 13:10:50.050,5.075576522929196e-05,21.296225776858495
2025-03-17 13:10:50.070,-5.683420235778657e-05,21.48609847165286
2025-03-17 13:10:50.089,-0.00016938476152840947,20.883698017879134
2025-03-17 13:10:50.109,-0.0002955332919920478,19.559401408639037
2025-03-17 13:10:50.128,-0.00044396418699615026,17.61506728386717
2025-03-17 13:10:50.148,-0.0006211145898575461,15.177389658295981
2025-03-17 13:10:50.167,-0.0008290419577669743,12.393418595378073
2025-03-17 13:10:50.187,-0.0010642318354050786,9.425696569910512
2025-03-17 13:10:50.206,-0.0013178750249213148,6.4444322063667
2025-03-17 13:10:50.226,-0.001577604504289053,3.6154485511252155
2025-03-17 13:10:50.246,-0.00183016482386241,1.0846466603120382
2025-03-17 13:10:50.265,-0.0020642358893926812,-1.0383854152977015
2025-03-17 13:10:50.285,-0.002272675756680951,-2.69387416135315
2025-03-17 13:10:50.304,-0.002453640035578656,-3.878763588877705
2025-03-17 13:10:50.324,-0.002610275295139248,-4.6445327489037265
2025-03-17 13:10:50.343,-0.002749017804194282,-5.085551690785161
2025-03-17 13:10:50.363,-0.002876995890951734,-5.320025337524116
2025-03-17 13:10:50.382,-0.002999449131207975,-5.467612100795616
2025-03-17 13:10:50.402,-0.003118125691151083,-5.628820884939746
2025-03-17 13:10:50.421,-0.003231186830905432,-5.870911551320055
2025-03-17 13:10:50.441,-0.0033344584322732218,-6.223266978708852
2025-03-17 13:10:50.460,-0.003423311632799034,-6.682525758305373
2025-03-17 13:10:50.480,-0.0034943197360631584,-7.224956213426808
2025-03-17 13:10:50.499,-0.0035461456600098494,-7.821481967610449
2025-03-17 13:10:50.519,-0.0035796108373061307,-8.450076590226722
2025-03-17 13:10:50.538,-0.003597234609186197,-9.101153760240999
2025-03-17 13:10:50.558,-0.003602526960503213,-9.773856242945943
2025-03-17 13:10:50.578,-0.0035991083228589242,-10.464163336380555
2025-03-17 13:10:50.597,-0.003589639351926058,-11.148625268994229
2025-03-17 13:10:50.617,-0.0035747200739353613,-11.76942896218146
2025-03-17 13:10:50.636,-0.003552192287066855,-12.226789148451443
2025-03-17 13:10:50.656,-0.003517339672188519,-12.383151870221191
2025-03-17 13:10:50.675,-0.0034641649651316157,-12.080684008056584
2025-03-17 13:10:50.695,-0.003387399942781103,-11.169724594916845
2025-03-17 13:10:50.714,-0.003284526375666878,-9.54231126742237
2025-03-17 13:10:50.734,-0.0031570566653081463,-7.162670359079751
2025-03-17 13:10:50.753,-0.0030105773636030907,-4.086540104497211
2025-03-17 13:10:50.773,-0.002853437895931762,-0.4636460657064873
2025-03-17 13:10:50.792,-0.002694357288364003,3.478024298148753
2025-03-17 13:10:50.812,-0.002539553521095674,7.462645548308343
2025-03-17 13:10:50.831,-0.0023902145151256313,11.20441731570251
2025-03-17 13:10:50.851,-0.0022411654609563844,14.444186577861858
2025-03-17 13:10:50.871,-0.0020813636563517296,16.977417101096236
2025-03-17 13:10:50.890,-0.0018963103211391814,18.66942109864027
2025-03-17 13:10:50.910,-0.0016717347283641264,19.45784667100137
2025-03-17 13:10:50.929,-0.0013973600790964742,19.34578055958441
2025-03-17 13:10:50.949,-0.0010695556963867632,18.39039900856982
2025-03-17 13:10:50.968,-0.0006921762814359433,16.691570078011754
2025-03-17 13:10:50.988,-0.00027549966307925563,14.382724297038814
2025-03-17 13:10:51.007,0.00016641357927119736,11.623783388143675
2025-03-17 13:10:51.027,0.000619356051886602,8.594122903843168
2025-03-17 13:10:51.046,0.0010727139233084756,5.483147133957114
2025-03-17 13:10:51.066,0.0015221341496524337,2.477110816754465
2025-03-17 13:10:51.085,0.0019700515287727777,-0.2572257571855183
2025-03-17 13:10:51.105,0.0024237414427536598,-2.58956681076835
2025-03-17 13:10:51.124,0.0028916483995334295,-4.440039298026981
2025-03-17 13:10:51.144,0.0033795449937199613,-5.786735004935142
2025-03-17 13:10:51.163,0.0038880650797811374,-6.664883334239274
2025-03-17 13:10:51.183,0.004412328801450225,-7.157780023966401
2025-03-17 13:10:51.203,0.004943324846424137,-7.381539298458157
2025-03-17 13:10:51.222,0.005470131962035148,-7.466929718645764
2025-03-17 13:10:51.242,0.005982154826547547,-7.541717293484046
2025-03-17 13:10:51.261,0.006470941658405919,-7.716144788516263
2025-03-17 13:10:51.281,0.006931361946218072,-8.072770291820369
2025-03-17 13:10:51.300,0.007361894039260554,-8.66038764607513
2025-03-17 13:10:51.320,0.007763840853390329,-9.490708655436938
2025-03-17 13:10:51.339,0.008139664322068668,-10.536306323446388
2025-03-17 13:10:51.359,0.0084910596931031,-11.729073770110377
2025-03-17 13:10:51.378,0.00881748641124294,-12.959818415547009
2025-03-17 13:10:51.398,0.009115571979296615,-14.080961951497144
2025-03-17 13:10:51.417,0.009379382083814608,-14.914966022026102
2025-03-17 13:10:51.437,0.009601267368138058,-15.270561488902963
2025-03-17 13:10:51.456,0.009772952459212255,-14.967031730213066
2025-03-17 13:10:51.476,0.00988668048872726,-13.864071973393086
2025-03-17 13:10:51.496,0.009936355772117555,-11.891927879826927
2025-03-17 13:10:51.515,0.009918515064814283,-9.074651207815641
2025-03-17 13:10:51.535,0.009832704975901245,-5.5393462838262835
2025-03-17 13:10:51.554,0.009680860947187984,-1.506669757156481
2025-03-17 13:10:51.574,0.00946579124862868,2.7377716940395653
2025-03-17 13:10:51.593,0.009189535114683086,6.88630158463742
2025-03-17 13:10:51.613,0.008852572419201989,10.657197715183775
2025-03-17 13:10:51.632,0.008454336879744373,13.836787651404167
2025-03-17 13:10:51.652,0.007994598458705064,16.305715753884616
2025-03-17 13:10:51.671,0.00747472698132134,18.043476780334988
2025-03-17 13:10:51.691,0.006898004965531355,19.11096790885278
2025-03-17 13:10:51.710,0.00626879204996989,19.616531747818023
2025-03-17 13:10:51.730,0.005590936312071159,19.675188039384892
2025-03-17 13:10:51.749,0.004866069471443032,19.37234393375654
2025-03-17 13:10:51.769,0.00409236815577669,18.741785723945267
2025-03-17 13:10:51.789,0.003264237523432077,17.763567582749804
2025-03-17 13:10:51.808,0.00237328981174089,16.38166670839289
2025-03-17 13:10:51.828,0.0014107989368681768,14.535587813845927
2025-03-17 13:10:51.847,0.0003712990299302663,12.196113714463493
2025-03-17 13:10:51.867,-0.0007437181313835727,9.394272447160553
2025-03-17 13:10:51.886,-0.0019234586189594166,6.234617948059029
2025-03-17 13:10:51.906,-0.00314794734365114,2.8884273266947447
2025-03-17 13:10:51.925,-0.004390721070911864,-0.4319903959114073
2025-03-17 13:10:51.945,-0.005623121852769046,-3.511624797920807
2025-03-17 13:10:51.964,-0.006818706743413383,-6.174288222714729
2025-03-17 13:10:51.984,-0.007956514341144125,-8.317203732490544
2025-03-17 13:10:52.003,-0.009022562885663402,-9.930274874685436
2025-03-17 13:10:52.023,-0.010009580407826629,-11.095214599064711
2025-03-17 13:10:52.042,-0.010915402439508452,-11.964195841083443
2025-03-17 13:10:52.062,-0.011740731397997892,-12.722157097723192
2025-03-17 13:10:52.081,-0.012487040112693333,-13.540488133134446
2025-03-17 13:10:52.101,-0.013155247180873571,-14.531850115261394
2025-03-17 13:10:52.121,-0.013745370202063888,-15.715950622080655
2025-03-17 13:10:52.140,-0.014256832775017828,-17.004156012567204
2025-03-17 13:10:52.160,-0.014688761249585448,-18.207218337225754
2025-03-17 13:10:52.179,-0.015039705277502665,-19.065783895901504
2025-03-17 13:10:52.199,-0.0153067298155857,-19.29861572475685
2025-03-17 13:10:52.218,-0.015484393474943504,-18.659552798947942
2025-03-17 13:10:52.238,-0.015564300838619746,-16.991986609195465
2025-03-17 13:10:52.257,-0.0155355808197123,-14.269612760787222
2025-03-17 13:10:52.277,-0.01538612871706268,-10.614535664995975
2025-03-17 13:10:52.296,-0.01510417318800478,-6.288098971378527
2025-03-17 13:10:52.316,-0.014679812669861559,-1.6552398624207434
2025-03-17 13:10:52.335,-0.014106413660490426,2.8714466067521913
2025-03-17 13:10:52.355,-0.01338190357660009,6.89760033009663
2025-03-17 13:10:52.374,-0.012509909829816744,10.110612845879688
2025-03-17 13:10:52.394,-0.01150051578796377,12.328948246021934
2025-03-17 13:10:52.414,-0.01037035489723881,13.52825557215255
2025-03-17 13:10:52.433,-0.009141962291219876,13.83967405629748
2025-03-17 13:10:52.453,-0.007842621088446812,13.52082346197019
2025-03-17 13:10:52.472,-0.006503089403973791,12.90479572195482
2025-03-17 13:10:52.492,-0.0051563899878413096,12.336237008414999
2025-03-17 13:10:52.511,-0.003836462170237871,12.105785862677264
2025-03-17 13:10:52.531,-0.0025763386163452358,12.394417615770893
2025-03-17 13:10:52.550,-0.0014058110821972534,13.237606492306982
2025-03-17 13:10:52.570,-0.0003490044014342627,14.515912743015948
2025-03-17 13:10:52.589,0.0005775494329516761,15.974152192603164
2025-03-17 13:10:52.609,0.0013659651858823096,17.26638544379459
2025-03-17 13:10:52.628,0.002017137188627378,18.019300225348175
2025-03-17 13:10:52.648,0.002539999460711192,17.902886175335723
2025-03-17 13:10:52.667,0.002949842964593561,16.695332091552434
2025-03-17 13:10:52.687,0.0032656060521162305,14.32941484002459
2025-03-17 13:10:52.707,0.003506395613105945,10.910593162611587
2025-03-17 13:10:52.726,0.0036880434013193486,6.702325357808624
2025-03-17 13:10:52.746,0.003820790010750829,2.080874121273692
2025-03-17 13:10:52.765,0.003908903577815098,-2.5314654056721735
2025-03-17 13:10:52.785,0.003952344499546307,-6.740889251732528
2025-03-17 13:10:52.804,0.003949916350357265,-10.248777230743219
2025-03-17 13:10:52.824,0.00390296836153685,-12.896839903867512
2025-03-17 13:10:52.843,0.0038186059914334463,-14.681972817798366
2025-03-17 13:10:52.863,0.003711403434108562,-15.73881682593019
2025-03-17 13:10:52.882,0.0036028206525010823,-16.294899931622925
2025-03-17 13:10:52.902,0.003518058549073022,-16.60874578472479
2025-03-17 13:10:52.921,0.003480947052783804,-16.904448633961298
2025-03-17 13:10:52.941,0.0035083211193036507,-17.316504893651917
2025-03-17 13:10:52.960,0.0036057133203670163,-17.85629844677713
2025-03-17 13:10:52.980,0.003765830306659019,-18.407137618756806
2025-03-17 13:10:52.999,0.003970338425028285,-18.74898791713616
2025-03-17 13:10:53.019,0.004194368451100193,-18.6080369972393
2025-03-17 13:10:53.039,0.004412306814234615,-17.721022085240598
2025-03-17 13:10:53.058,0.0046032104806247595,-15.900841435028132
2025-03-17 13:10:53.078,0.004754625539304268,-13.0891507821999
2025-03-17 13:10:53.097,0.004864365741192842,-9.383824256848513
2025-03-17 13:10:53.117,0.0049403987418045565,-5.034168923007721
2025-03-17 13:10:53.136,0.004999161621278011,-0.4037231973390527
2025-03-17 13:10:53.156,0.005062588948576902,4.092219976713299
2025-03-17 13:10:53.175,0.005154196650050781,8.061368463149668
2025-03-17 13:10:53.195,0.005294792463547677,11.205565476277325
2025-03-17 13:10:53.214,0.005498613687452272,13.373149383885398
2025-03-17 13:10:53.234,0.005770719378241205,14.58150868066216
2025-03-17 13:10:53.253,0.0061062032796575265,15.00523373943862
2025-03-17 13:10:53.273,0.006491361775533607,14.932495513216303
2025-03-17 13:10:53.292,0.006906556864064909,14.698764040282231
2025-03-17 13:10:53.312,0.007330225682085796,14.611474235801543
2025-03-17 13:10:53.332,0.007743208871355735,14.880997304822717
2025-03-17 13:10:53.351,0.008132308464204638,15.572053382217877
2025-03-17 13:10:53.371,0.008492012826088101,16.585757326106737
2025-03-17 13:10:53.390,0.008823904630377698,17.676505083939638
2025-03-17 13:10:53.410,0.009134236118967437,18.50093096125676
2025-03-17 13:10:53.429,0.009430911261267206,18.689495934437993
2025-03-17 13:10:53.449,0.009721108197650792,17.92625474313151
2025-03-17 13:10:53.468,0.010010036330955123,16.0201499457689
2025-03-17 13:10:53.488,0.010300470857285771,12.952492623942462
2025-03-17 13:10:53.507,0.010592410664879696,8.890096097104596
2025-03-17 13:10:53.527,0.01088257194123794,4.160930894480636
2025-03-17 13:10:53.546,0.011163953914290498,-0.8025387232335828
2025-03-17 13:10:53.566,0.011425844598233006,-5.5400777370840215
2025-03-17 13:10:53.585,0.01165434691543659,-9.64409928715949
2025-03-17 13:10:53.605,0.011833231496576594,-12.827225576646349
2025-03-17 13:10:53.625,0.01194498000044691,-14.963952507990014
2025-03-17 13:10:53.644,0.011972123421709464,-16.09945082921836
2025-03-17 13:10:53.664,0.011899047754083123,-16.425542575785823
2025-03-17 13:10:53.683,0.011714223786171107,-16.23025944102628
2025-03-17 13:10:53.703,0.011412525995675268,-15.831963067908838
2025-03-17 13:10:53.722,0.010997176731073012,-15.511195958378169
2025-03-17 13:10:53.742,0.010480908213232222,-15.453168689987235
2025-03-17 13:10:53.761,0.00988599961185423,-15.711380705071257
2025-03-17 13:10:53.781,0.009242788248088262,-16.198836475830138
2025-03-17 13:10:53.800,0.00858620841444018,-16.708279686071677
2025-03-17 13:10:53.820,0.007950190210131682,-16.957523481820342
2025-03-17 13:10:53.839,0.00736047913718498,-16.65109811649884
2025-03-17 13:10:53.859,0.006827332832639132,-15.545946684930536
2025-03-17 13:10:53.878,0.006340103474007591,-13.507614249596358
2025-03-17 13:10:53.898,0.005865551182698773,-10.544854746113954
2025-03-17 13:10:53.917,0.005350870544856838,-6.814838549900174
2025-03-17 13:10:53.937,0.004731226398415388,-2.5974867849085377
2025-03-17 13:10:53.957,0.003940502164538489,1.755484236232098
2025-03-17 13:10:53.976,0.0029231310997161826,5.885215292446378
2025-03-17 13:10:53.996,0.0016443967314477244,9.489156444420288
2025-03-17 13:10:54.015,9.673995727128952e-05,12.368833017197858
2025-03-17 13:10:54.035,-0.0016993984497969679,14.451540769538015
2025-03-17 13:10:54.054,-0.0037001509045813206,15.78228744935439
2025-03-17 13:10:54.074,-0.00584673633655968,16.489787543003484
2025-03-17 13:10:54.093,-0.00807555011208836,16.736630063011372
2025-03-17 13:10:54.113,-0.010327300066087518,16.66730877736884
2025-03-17 13:10:54.132,-0.012553240369227987,16.367817031129363
2025-03-17 13:10:54.152,-0.014717664481306464,15.847034075297799
2025-03-17 13:10:54.171,-0.016796961640869145,15.044064144826123
2025-03-17 13:10:54.191,-0.018776267869499486,13.858573148247945
2025-03-17 13:10:54.210,-0.02064496833394763,12.194873695528038
2025-03-17 13:10:54.230,-0.02239223211060495,10.00679238388955
2025-03-17 13:10:54.250,-0.024003548283735843,7.330305122713935
2025-03-17 13:10:54.269,-0.025458900291343546,4.294542083691735
2025-03-17 13:10:54.289,-0.026732762171769293,1.107890136212862
2025-03-17 13:10:54.308,-0.02779563186574664,-1.9773339182699907
2025-03-17 13:10:54.328,-0.028616514091860962,-4.712742530466826
2025-03-17 13:10:54.347,-0.02916575391301318,-6.902617358531737
2025-03-17 13:10:54.367,-0.029417869451332655,-8.442205745537828
2025-03-17 13:10:54.386,-0.02935432282785447,-9.337188409328396
2025-03-17 13:10:54.406,-0.028966207337943452,-9.700453467430856
2025-03-17 13:10:54.425,-0.028256515972040836,-9.727226086401485
2025-03-17 13:10:54.445,-0.02724128621427348,-9.653878630881877
2025-03-17 13:10:54.464,-0.025948944580850564,-9.708665766978376
2025-03-17 13:10:54.484,-0.02441772357706682,-10.063827589174087
2025-03-17 13:10:54.503,-0.022691723577273882,-10.79795247251996
2025-03-17 13:10:54.523,-0.02081654451992486,-11.875453544953425
2025-03-17 13:10:54.542,-0.018835267419329556,-13.146955513648122
2025-03-17 13:10:54.562,-0.01678523827936678,-14.370853849247657
2025-03-17 13:10:54.582,-0.014696008161681748,-15.252805333713182
2025-03-17 13:10:54.601,-0.012588936930191703,-15.496876339363155
2025-03-17 13:10:54.621,-0.010478954368425357,-14.859887414329014
2025-03-17 13:10:54.640,-0.008378399989329134,-13.199469290182412
2025-03-17 13:10:54.660,-0.006301897548929,-10.50675521931619
2025-03-17 13:10:54.679,-0.004270536859008462,-6.916669708685199
2025-03-17 13:10:54.699,-0.002313755921545505,-2.692429926505467
2025-03-17 13:10:54.718,-0.00046811276682604387,1.814243181468122
2025-03-17 13:10:54.738,0.0012269317815287299,6.220503749400389
2025-03-17 13:10:54.757,0.0027354347806813973,10.176394886381168
2025-03-17 13:10:54.777,0.004032441458658511,13.422482963520029
2025-03-17 13:10:54.796,0.005111085135775378,15.828979665498046
2025-03-17 13:10:54.816,0.005987638585547432,17.40798057924961
2025-03-17 13:10:54.835,0.006702818246824914,18.29622409993402
2025-03-17 13:10:54.855,0.007318245572558748,18.712186883521152
2025-03-17 13:10:54.875,0.00790823268757326,18.89691616558708
2025-03-17 13:10:54.894,0.008548426356544986,19.05156825206641
2025-03-17 13:10:54.914,0.009303613131806674,19.285475254682673
2025-03-17 13:10:54.933,0.010216962616732415,19.586527336928533
2025-03-17 13:10:54.953,0.011302527476526589,19.821061024529723
2025-03-17 13:10:54.972,0.012542320116715753,19.764078561171484
2025-03-17 13:10:54.992,0.013888747360594601,19.15371145024655
2025-03-17 13:10:55.011,0.0152723454633198,17.757906585221217
2025-03-17 13:10:55.031,0.016613558799281558,15.437894957017118
2025-03-17 13:10:55.050,0.017836117549054387,12.193220749931802
2025-03-17 13:10:55.070,0.018878964192295938,8.177190404769942
2025-03-17 13:10:55.089,0.019704009397316164,3.678617671917728
2025-03-17 13:10:55.109,0.020298120027370494,-0.9261998762690324
2025-03-17 13:10:55.128,0.02066912057760563,-5.24044325872191
2025-03-17 13:10:55.148,0.020836794303551457,-8.91787198693548
2025-03-17 13:10:55.168,0.020820910488512263,-11.723000974398781
2025-03-17 13:10:55.187,0.02062936794365943,-13.568463754802766
2025-03-17 13:10:55.207,0.02025044630605642,-14.52315271579447
2025-03-17 13:10:55.226,0.019653105583534815,-14.791006662640225
2025-03-17 13:10:55.246,0.018797370603622056,-14.665940497767851
2025-03-17 13:10:55.265,0.017653102753844113,-14.472329177381663
2025-03-17 13:10:55.285,0.016221425621673728,-14.502188309765723
2025-03-17 13:10:55.304,0.014550982318794554,-14.959820169402947
2025-03-17 13:10:55.324,0.012742360139974882,-15.922700306968073
2025-03-17 13:10:55.343,0.010937846147776408,-17.324405627001266
2025-03-17 13:10:55.363,0.009298331184444534,-18.961997855172825
2025-03-17 13:10:55.382,0.00797286493654549,-20.52684895336433
2025-03-17 13:10:55.402,0.007068197855635394,-21.654621342270044
2025-03-17 13:10:55.421,0.006625656568892878,-21.987149502946007
2025-03-17 13:10:55.441,0.006611232925075074,-21.23659466983172
2025-03-17 13:10:55.460,0.006921966245386031,-19.240958944511938
2025-03-17 13:10:55.480,0.007407710907385242,-16.000464659243505
2025-03-17 13:10:55.500,0.007903040406811586,-11.686878478982207
2025-03-17 13:10:55.519,0.008260963502176161,-6.622521075614425
2025-03-17 13:10:55.539,0.008379783660757586,-1.2316701532866283
2025-03-17 13:10:55.558,0.008217022133586663,4.027035886343699
2025-03-17 13:10:55.578,0.0077885988623444145,8.73428425025694
2025-03-17 13:10:55.597,0.00715557235659196,12.575406651860233
2025-03-17 13:10:55.617,0.006403337149935532,15.38449645565875
2025-03-17 13:10:55.636,0.00561895439525791,17.158892371089724
2025-03-17 13:10:55.656,0.004871688506594341,18.0417638169569
2025-03-17 13:10:55.675,0.004200446330949087,18.277122153287596
2025-03-17 13:10:55.695,0.003610035624185235,18.14722297377084
2025-03-17 13:10:55.714,0.003076079543925141,17.905875479738544
2025-03-17 13:10:55.734,0.002556257113655954,17.721921631565703
2025-03-17 13:10:55.753,0.002003965251299786,17.64491946616273
2025-03-17 13:10:55.773,0.0013803026236453443,17.600254317537445
2025-03-17 13:10:55.793,0.0006615486743457292,17.4144208507381
2025-03-17 13:10:55.812,-0.00015873390700339469,16.86440141492242
2025-03-17 13:10:55.832,-0.0010721645092501852,15.739464437589342
2025-03-17 13:10:55.851,-0.002060805715068163,13.900745269596912
2025-03-17 13:10:55.871,-0.0031031567387117057,11.32451947644782
2025-03-17 13:10:55.890,-0.004179035029938859,8.11909534173257
2025-03-17 13:10:55.910,-0.005272111875628492,4.511707540375999
2025-03-17 13:10:55.929,-0.006369754156893513,0.8089495862141518
2025-03-17 13:10:55.949,-0.007460817666187583,-2.6597512795124736
2025-03-17 13:10:55.968,-0.008532808666034938,-5.602786559551881
2025-03-17 13:10:55.988,-0.009569931194199462,-7.818234807598884
2025-03-17 13:10:56.007,-0.010552794569021534,-9.226873975027225
2025-03-17 13:10:56.027,-0.011459440287260638,-9.881001539480538
2025-03-17 13:10:56.046,-0.01226670353129695,-9.949028137635702
2025-03-17 13:10:56.066,-0.012951190069634504,-9.680432594910604
2025-03-17 13:10:56.086,-0.013489964264458204,-9.358731374056092
2025-03-17 13:10:56.105,-0.01386166603346436,-9.251267008673377
2025-03-17 13:10:56.125,-0.014048742611794143,-9.564012356270608
2025-03-17 13:10:56.144,-0.01404088012528088,-10.407732910393262
2025-03-17 13:10:56.164,-0.01383898572237018,-11.779403509206716
2025-03-17 13:10:56.183,-0.013458596334933036,-13.560337552306308
2025-03-17 13:10:56.203,-0.012931490051918196,-15.530450743105787
2025-03-17 13:10:56.222,-0.012304486041171316,-17.396561461325128
2025-03-17 13:10:56.242,-0.011634898584734672,-18.831481285321928
2025-03-17 13:10:56.261,-0.01098287567350887,-19.519604788829945
2025-03-17 13:10:56.281,-0.010401856664022371,-19.203600675644648
2025-03-17 13:10:56.300,-0.00992936699274524,-17.725774184341223
2025-03-17 13:10:56.320,-0.009580796419987849,-15.057205260065441
2025-03-17 13:10:56.339,-0.009348154769271168,-11.30853612702842
2025-03-17 13:10:56.359,-0.009204127580822242,-6.718767607705786
2025-03-17 13:10:56.378,-0.009109915190994338,-1.6225326006993095
2025-03-17 13:10:56.398,-0.009024349261317262,3.5988109347587
2025-03-17 13:10:56.418,-0.008911969731192808,8.57272352965002
2025-03-17 13:10:56.437,-0.008748616885708322,12.986074195406536
2025-03-17 13:10:56.457,-0.008523965431483756,16.620200199532327
2025-03-17 13:10:56.476,-0.008241016911179705,19.363845955604436
2025-03-17 13:10:56.496,-0.007912971104365289,21.20324977804009
2025-03-17 13:10:56.515,-0.007558270013566615,22.19463422855982
2025-03-17 13:10:56.535,-0.0071949584758127134,22.428670886750055
2025-03-17 13:10:56.554,-0.006835670754332705,21.99786850778975
2025-03-17 13:10:56.574,-0.006484346910064538,20.97592741567532
2025-03-17 13:10:56.593,-0.006135261924242199,19.41357265886303
2025-03-17 13:10:56.613,-0.0057744197345905865,17.349689869089854
2025-03-17 13:10:56.632,-0.005383026253444606,14.831565224931776
2025-03-17 13:10:56.652,-0.0049425066061712965,11.935266835909227
2025-03-17 13:10:56.671,-0.004440162081911742,8.777524109408096
2025-03-17 13:10:56.691,-0.003874050584513448,5.513650531981539
2025-03-17 13:10:56.711,-0.0032553536491493435,2.3209502626239034
2025-03-17 13:10:56.730,-0.002606904196003229,-0.6280484970698238
2025-03-17 13:10:56.750,-0.0019578752868591133,-3.1949030893684345
2025-03-17 13:10:56.769,-0.0013362722262269052,-5.298776050429746
2025-03-17 13:10:56.789,-0.0007618270285935917,-6.927735016429802
2025-03-17 13:10:56.808,-0.00024160314871101912,-8.135084545562764
2025-03-17 13:10:56.828,0.00023063884099039668,-9.022168364130692
2025-03-17 13:10:56.847,0.0006716894084498824,-9.71253894096345
2025-03-17 13:10:56.867,0.0011040355395892537,-10.324272646402775
2025-03-17 13:10:56.886,0.0015503972532923218,-10.947164448456588
2025-03-17 13:10:56.906,0.0020289187241472875,-11.62968577131897
2025-03-17 13:10:56.925,0.002549930190987745,-12.377474910946654
2025-03-17 13:10:56.945,0.0031147995885047923,-13.161652927313275
2025-03-17 13:10:56.964,0.003716829899091524,-13.932488517820211
2025-03-17 13:10:56.984,0.004343511889485442,-14.632770500444193
2025-03-17 13:10:57.003,0.004979112549437951,-15.20606937033722
2025-03-17 13:10:57.023,0.005606853705638247,-15.59758017696277
2025-03-17 13:10:57.043,0.006210574414115599,-15.748546012683718
2025-03-17 13:10:57.062,0.006776228011047232,-15.588195590813621
2025-03-17 13:10:57.082,0.007293514841562756,-15.028641927912297
2025-03-17 13:10:57.101,0.007757501289990095,-13.967684749338508
2025-03-17 13:10:57.121,0.008169618189556227,-12.301981134653916
2025-03-17 13:10:57.140,0.008537382014529837,-9.949320339020629
2025-03-17 13:10:57.160,0.008872658764639012,-6.874999069479812
2025-03-17 13:10:57.179,0.009188960309983746,-3.1149135374143784
2025-03-17 13:10:57.199,0.009498626390091289,1.2120353753817268
2025-03-17 13:10:57.218,0.00981061331878697,5.907085092953089
2025-03-17 13:10:57.238,0.010129238496191512,10.710818908510928
2025-03-17 13:10:57.257,0.010453980667057139,15.334307418618096
2025-03-17 13:10:57.277,0.010780358800853861,19.494772089965753
2025-03-17 13:10:57.296,0.011101749531283966,22.947598506678936
2025-03-17 13:10:57.316,0.011411626574875008,25.50844845776357
2025-03-17 13:10:57.336,0.011705369710863183,27.06294516689414
2025-03-17 13:10:57.355,0.011980861911018886,27.565416144358622
2025-03-17 13:10:57.375,0.01223765663072524,27.030966410352903
2025-03-17 13:10:57.394,0.012475253057289222,25.525824962593948
2025-03-17 13:10:57.414,0.01269148688110558,23.159482220234025
2025-03-17 13:10:57.433,0.012881927906329606,20.079481900176642
2025-03-17 13:10:57.453,0.01304056126685137,16.46714610131103
2025-03-17 13:10:57.472,0.013161289911506023,12.531152032818149
2025-03-17 13:10:57.492,0.013239367489468128,8.496262175806303
2025-03-17 13:10:57.511,0.013272021745961588,4.586352799475892
2025-03-17 13:10:57.531,0.013258113408676558,1.0033265017027824
2025-03-17 13:10:57.550,0.013197176433758374,-2.0944626418508245
2025-03-17 13:10:57.570,0.013088239184724123,-4.609731834256366
2025-03-17 13:10:57.589,0.012928622054560078,-6.515696691853155
2025-03-17 13:10:57.609,0.012712871696450315,-7.855061470772697
2025-03-17 13:10:57.629,0.012432192177913312,-8.728579401500856
2025-03-17 13:10:57.648,0.012074797002348123,-9.275475911441875
2025-03-17 13:10:57.668,0.011627252384598556,-9.649629833874794
2025-03-17 13:10:57.687,0.01107636034469048,-9.995963515803869
2025-03-17 13:10:57.707,0.010410939360977381,-10.430958002419354
2025-03-17 13:10:57.726,0.009623118649255179,-11.029826293756626
2025-03-17 13:10:57.746,0.008709109910067882,-11.821084214973327
2025-03-17 13:10:57.765,0.007669524803479759,-12.787572929251791
2025-03-17 13:10:57.785,0.00650921819307199,-13.871880674853337
2025-03-17 13:10:57.804,0.005236624942803507,-14.98387674484562
2025-03-17 13:10:57.824,0.0038627539146773512,-16.008712287092223
2025-03-17 13:10:57.843,0.0024002448937527504,-16.81484096860347
2025-03-17 13:10:57.863,0.0008628758984299138,-17.262815216425917
2025-03-17 13:10:57.882,-0.0007344714458311168,-17.216236702663736
2025-03-17 13:10:57.902,-0.002375831207669071,-16.555898936954023
2025-03-17 13:10:57.921,-0.004044706220890729,-15.196835791002504
2025-03-17 13:10:57.941,-0.005725352707780504,-13.106074693300657
2025-03-17 13:10:57.961,-0.007404445923695537,-10.317108708265385
2025-03-17 13:10:57.980,-0.009072408161140648,-6.936289494032301
2025-03-17 13:10:58.000,-0.010723730142649424,-3.1371527028436823
2025-03-17 13:10:58.019,-0.012356038099040957,0.8587526028359787
2025-03-17 13:10:58.039,-0.013968137827196045,4.812224085833796
2025-03-17 13:10:58.058,-0.015557497230680197,8.501911958719674
2025-03-17 13:10:58.078,-0.01711761926025949,11.756553552338485
2025-03-17 13:10:58.097,-0.018635766338525123,14.475535703036947
2025-03-17 13:10:58.117,-0.02009164735593549,16.632039115850784
2025-03-17 13:10:58.136,-0.021457742768803526,18.257661402351342
2025-03-17 13:10:58.156,-0.022701597650913313,19.412715812816103
2025-03-17 13:10:58.175,-0.023789678040780526,20.150787076427903
2025-03-17 13:10:58.195,-0.024691723083020842,20.488234380124176
2025-03-17 13:10:58.214,-0.025384413628570638,20.38839840074908
2025-03-17 13:10:58.234,-0.025853649103254987,19.766370194344027
2025-03-17 13:10:58.254,-0.02609535795318524,18.514272998458363
2025-03-17 13:10:58.273,-0.026115099703335413,16.54072593786942
2025-03-17 13:10:58.293,-0.025926637308698413,13.813384637745733
2025-03-17 13:10:58.312,-0.02554946132860464,10.391761981343025
2025-03-17 13:10:58.332,-0.025005327329354815,6.439625072083974
2025-03-17 13:10:58.351,-0.02431430151020973,2.211643022215527
2025-03-17 13:10:58.371,-0.023491240891474904,-1.9839627435128688
2025-03-17 13:10:58.390,-0.022543657396387373,-5.838371797939809
2025-03-17 13:10:58.410,-0.021471500426099476,-9.098064768336343
2025-03-17 13:10:58.429,-0.020268822221840236,-11.61025426329375
2025-03-17 13:10:58.449,-0.018926818487701096,-13.34718255321284
2025-03-17 13:10:58.468,-0.01743746411681162,-14.403890442568375
2025-03-17 13:10:58.488,-0.015796895521311086,-14.970291630967402
2025-03-17 13:10:58.507,-0.014007784505082315,-15.284002713031262
2025-03-17 13:10:58.527,-0.012080183842654267,-15.574210664262585
2025-03-17 13:10:58.547,-0.010030733362251904,-16.008333343623775
2025-03-17 13:10:58.566,-0.007880643240533277,-16.652329668113328
2025-03-17 13:10:58.586,-0.005653274148630507,-17.45262300021942
2025-03-17 13:10:58.605,-0.003372163880968033,-18.24332405610056
2025-03-17 13:10:58.625,-0.0010600103313098924,-18.7775379467341
2025-03-17 13:10:58.644,0.0012613699363172078,-18.776867907365403
2025-03-17 13:10:58.664,0.0035704834087518234,-17.989621756821457
2025-03-17 13:10:58.683,0.005845492341710254,-16.246353511059304
2025-03-17 13:10:58.703,0.00806373292853837,-13.501623345594764
2025-03-17 13:10:58.722,0.01020141672455858,-9.853291201034928
2025-03-17 13:10:58.742,0.012233410253014963,-5.534937387927045
2025-03-17 13:10:58.761,0.014133161280272677,-0.8823619800008822
2025-03-17 13:10:58.781,0.015873098365283014,3.719569811922954
2025-03-17 13:10:58.800,0.017425907448555704,7.899432136228765
2025-03-17 13:10:58.820,0.018766854616870304,11.359000904621336
2025-03-17 13:10:58.839,0.019876877527541324,13.919002194725785
2025-03-17 13:10:58.859,0.020745783133008865,15.542635346074382
2025-03-17 13:10:58.879,0.021374761354378075,16.33307551550851
2025-03-17 13:10:58.898,0.021777486850774515,16.505924552089724
2025-03-17 13:10:58.918,0.021979199811867085,16.34187880192699
2025-03-17 13:10:58.937,0.022013414621249894,16.128178042057687
2025-03-17 13:10:58.957,0.0219164994340901,16.09932583378284
2025-03-17 13:10:58.976,0.021721219999440308,16.387855156234362
2025-03-17 13:10:58.996,0.021450963117449675,16.994423158601492
2025-03-17 13:10:59.015,0.02111626349464158,17.783380994217
2025-03-17 13:10:59.035,0.020714454082443465,18.505598503586253
2025-03-17 13:10:59.054,0.02023222948931632,18.84537068262516
2025-03-17 13:10:59.074,0.019650201431701948,18.48346940809496
2025-03-17 13:10:59.093,0.01894835991098661,17.16468946104936
2025-03-17 13:10:59.113,0.01811154883869225,14.756440349805764
2025-03-17 13:10:59.132,0.017134251701935065,11.285753302644904
2025-03-17 13:10:59.152,0.01602396974650641,6.945766988330397
2025-03-17 13:10:59.172,0.014802409849233557,2.068891313112259
2025-03-17 13:10:59.191,0.013503897726133444,-2.9287943408630213
2025-03-17 13:10:59.211,0.012171041328190595,-7.62056128930556
2025-03-17 13:10:59.230,0.010848453895727354,-11.643741280954723
2025-03-17 13:10:59.250,0.00957585347625131,-14.759720339297509
2025-03-17 13:10:59.269,0.008381880197071133,-16.886143682914685
2025-03-17 13:10:59.289,0.007279750374535385,-18.094792675211874
2025-03-17 13:10:59.308,0.006265665588608876,-18.576663782346607
2025-03-17 13:10:59.328,0.005320592655573118,-18.583370608548094
2025-03-17 13:10:59.347,0.004415336373416736,-18.359295827103555
2025-03-17 13:10:59.367,0.003517801234442657,-18.0807472802793
2025-03-17 13:10:59.386,0.002600486203215073,-17.816353217641772
2025-03-17 13:10:59.406,0.0016461319297280308,-17.517561478420678
2025-03-17 13:10:59.425,0.0006501988286067847,-17.040645425332215
2025-03-17 13:10:59.445,-0.0003798770019269449,-16.19384797641202
2025-03-17 13:10:59.464,-0.0014275938169605658,-14.79714566102325
2025-03-17 13:10:59.484,-0.002471006724346406,-12.739192442554845
2025-03-17 13:10:59.504,-0.003486015148742068,-10.017101740589215
2025-03-17 13:10:59.523,-0.004449035165903166,-6.749510476863114
2025-03-17 13:10:59.543,-0.005339282079940809,-3.1604285615781733
2025-03-17 13:10:59.562,-0.0061408586515340965,0.4613219464532574
2025-03-17 13:10:59.582,-0.006844498857227752,3.8167049687876973
2025-03-17 13:10:59.601,-0.007448531526892522,6.6521960713379675
2025-03-17 13:10:59.621,-0.00795860678869344,8.804522068411853
2025-03-17 13:10:59.640,-0.008385971392236784,10.225773990621063
2025-03-17 13:10:59.660,-0.008744485561341235,10.985146440802923
2025-03-17 13:10:59.679,-0.009047006918403506,11.248513649622922
2025-03-17 13:10:59.699,-0.009302078589780214,11.241034070109274
2025-03-17 13:10:59.718,-0.009511911191000092,11.200442313186757
2025-03-17 13:10:59.738,-0.009672347724549382,11.329557149722069
2025-03-17 13:10:59.757,-0.00977486477135752,11.756025138796012
2025-03-17 13:10:59.777,-0.009809903698511454,12.505783427794295
2025-03-17 13:10:59.797,-0.009770314142939288,13.494514550730425
2025-03-17 13:10:59.816,-0.009653746781796922,14.538751110076518
2025-03-17 13:10:59.836,-0.009463443556338715,15.385455091188295
2025-03-17 13:10:59.855,-0.009207623664990363,15.75602540647747
2025-03-17 13:10:59.875,-0.008898044835544409,15.398055160615531
2025-03-17 13:10:59.894,-0.008548231594714264,14.136185950337117
2025-03-17 13:10:59.914,-0.008171650842190742,11.91260872786092
2025-03-17 13:10:59.933,-0.007780068583607197,8.80863596803039
2025-03-17 13:10:59.953,-0.0073823895281234335,5.041581677712083
2025-03-17 13:10:59.972,-0.006984286034630279,0.9357100363640559
2025-03-17 13:10:59.992,-0.006588758676319349,-3.128584018355324
2025-03-17 13:11:00.011,-0.0061974403148154205,-6.778199812388232
2025-03-17 13:11:00.031,-0.005812131493049175,-9.710938238138787
2025-03-17 13:11:00.050,-0.005435992081610544,-11.74629893794125
2025-03-17 13:11:00.070,-0.005074067511842271,-12.852860940099983
2025-03-17 13:11:00.090,-0.004733150612595974,-13.146467939533757
2025-03-17 13:11:00.109,-0.004421062252138572,-12.859579007214993
2025-03-17 13:11:00.129,-0.004145255954624466,-12.288180919576535
2025-03-17 13:11:00.148,-0.003910576694076107,-11.727256739547743
2025-03-17 13:11:00.168,-0.003716379024343436,-11.408030160672583
2025-03-17 13:11:00.187,-0.0035538860990955937,-11.44969877153019
2025-03-17 13:11:00.207,-0.0034050994260924365,-11.835349675782192
2025-03-17 13:11:00.226,-0.003244327851709681,-12.416863737358847
2025-03-17 13:11:00.246,-0.0030425315809721348,-12.947771907274815
2025-03-17 13:11:00.265,-0.0027735941856934167,-13.137294685376384
2025-03-17 13:11:00.285,-0.0024208512393428467,-12.7142847116843
2025-03-17 13:11:00.304,-0.001982027223728342,-11.487494619922213
2025-03-17 13:11:00.324,-0.0014711502531028122,-9.389162657113225
2025-03-17 13:11:00.343,-0.0009168053511437857,-6.492437961337551
2025-03-17 13:11:00.363,-0.00035704658355115154,-2.999026981302218
2025-03-17 13:11:00.382,0.00016773806190434776,0.7996883380872168
2025-03-17 13:11:00.402,0.0006220263830329072,4.5786553950519355
2025-03-17 13:11:00.422,0.0009804661002577814,8.03905554946072
2025-03-17 13:11:00.441,0.0012302022498893248,10.958394979474015
2025-03-17 13:11:00.461,0.0013704472786244277,13.219959255987348
2025-03-17 13:11:00.480,0.0014104693427380486,14.816231683875344
2025-03-17 13:11:00.500,0.0013672601115567553,15.827379598385182
2025-03-17 13:11:00.519,0.0012634615714553772,16.38186418516
2025-03-17 13:11:00.539,0.0011253241635097104,16.610213932129525
2025-03-17 13:11:00.558,0.0009801927581272274,16.60414121498495
2025-03-17 13:11:00.578,0.0008534020865812144,16.391304830080337
2025-03-17 13:11:00.597,0.0007650775189576411,15.931665691979081
2025-03-17 13:11:00.617,0.0007276569329373728,15.135644252857787
2025-03-17 13:11:00.636,0.0007447957175168062,13.898578179315477
2025-03-17 13:11:00.656,0.000811877135954656,12.141730246066638
2025-03-17 13:11:00.675,0.0009179037839012181,9.848428426744963
2025-03-17 13:11:00.695,0.0010482401762541016,7.085309912931609
2025-03-17 13:11:00.715,0.0011875389688662916,4.0027217021898345
2025-03-17 13:11:00.734,0.0013222328207479724,0.8139465412041812
2025-03-17 13:11:00.754,0.001442209492398039,-2.2415264873104297
2025-03-17 13:11:00.773,0.0015416108802903913,-4.941509245013741
2025-03-17 13:11:00.793,0.0016189596363654975,-7.120835484609653
2025-03-17 13:11:00.812,0.0016769153098169396,-8.69811019820266
2025-03-17 13:11:00.832,0.0017218415718053372,-9.683896646235656
2025-03-17 13:11:00.851,0.0017630755200938688,-10.169502257767945
2025-03-17 13:11:00.871,0.001811556809791163,-10.300186930012632
2025-03-17 13:11:00.890,0.0018775760093580737,-10.240063289324091
2025-03-17 13:11:00.910,0.0019678956209282375,-10.137416558735067
2025-03-17 13:11:00.929,0.0020831002106953974,-10.098373044467559
2025-03-17 13:11:00.949,0.00221628790936876,-10.17408905765613
2025-03-17 13:11:00.968,0.002353853457188771,-10.362724410959286
2025-03-17 13:11:00.988,0.0024782973595692233,-10.623508754472166
2025-03-17 13:11:01.008,0.002572227211652955,-10.89727351277534
2025-03-17 13:11:01.027,0.002622441455707823,-11.126627533186552
2025-03-17 13:11:01.047,0.0026232046042067507,-11.26969709846039
2025-03-17 13:11:01.066,0.002578131811918654,-11.30371416726176
2025-03-17 13:11:01.086,0.002500223913565382,-11.218038829762236
2025-03-17 13:11:01.105,0.00240973438754558,-10.999584653670354
2025-03-17 13:11:01.125,0.0023300329618417487,-10.61621659046656
2025-03-17 13:11:01.144,0.0022823796948792364,-10.004799757155284
2025-03-17 13:11:01.164,0.002281074142750961,-9.069786526642455
2025-03-17 13:11:01.183,0.002330402382497385,-7.69557647237416
2025-03-17 13:11:01.203,0.0024241849458498175,-5.771937268253937
2025-03-17 13:11:01.222,0.002547872367770121,-3.2275841233069924
2025-03-17 13:11:01.242,0.0026824084750052325,-0.06385199219239354
2025-03-17 13:11:01.261,0.002808696478257951,3.6206862325235813
2025-03-17 13:11:01.281,0.002911492106430049,7.622385439042668
2025-03-17 13:11:01.300,0.002981821465278421,11.645677217100507
2025-03-17 13:11:01.320,0.0030174681414567683,15.336748051938402
2025-03-17 13:11:01.340,0.0030215940270799427,18.332710277086875
2025-03-17 13:11:01.359,0.0030000455375698764,20.317729526018944
2025-03-17 13:11:01.379,0.0029582661819838973,21.075781822709818
2025-03-17 13:11:01.398,0.002898889535561692,20.529871110118766
2025-03-17 13:11:01.418,0.0028208763931122025,18.759605509809266
2025-03-17 13:11:01.437,0.002720457260379208,15.992759584056095
2025-03-17 13:11:01.457,0.0025934026961753455,12.571326169435473
2025-03-17 13:11:01.476,0.0024376618901683915,8.89771933873288
2025-03-17 13:11:01.496,0.0022553965512554282,5.371079897989291
2025-03-17 13:11:01.515,0.002053774876959757,2.3259164088366435
2025-03-17 13:11:01.535,0.001844279916807113,-0.015135461395878735
2025-03-17 13:11:01.554,0.0016405866560024916,-1.5658300047380698
2025-03-17 13:11:01.574,0.0014554206486001912,-2.374617209075908
2025-03-17 13:11:01.593,0.0012973141342057805,-2.5989645637041328
2025-03-17 13:11:01.613,0.0011685021619564095,-2.4627582128007774
2025-03-17 13:11:01.633,0.0010649186095392177,-2.2066583525866283
2025-03-17 13:11:01.652,0.0009783755802570317,-2.0415997673689916
2025-03-17 13:11:01.672,0.0009000378529418426,-2.1137237161717395
2025-03-17 13:11:01.691,0.0008237906122736595,-2.4857110336420187
2025-03-17 13:11:01.711,0.000748277495092384,-3.13574538257521
2025-03-17 13:11:01.730,0.0006770555183765066,-3.9720203524296727
2025-03-17 13:11:01.750,0.000617039790327659,-4.858356092933693
2025-03-17 13:11:01.769,0.0005758932628681055,-5.6453122479814395
2025-03-17 13:11:01.789,0.0005592148748701869,-6.201096701852651
2025-03-17 13:11:01.808,0.0005683521120967821,-6.437320822874283
2025-03-17 13:11:01.828,0.0005994368285292522,-6.32592293178387
2025-03-17 13:11:01.847,0.0006438294834241325,-5.905081803361396
2025-03-17 13:11:01.867,0.0006896445951416768,-5.27346901052205
2025-03-17 13:11:01.886,0.0007236470762082483,-4.573646006252695
2025-03-17 13:11:01.906,0.0007328287897499174,-3.9667701384750194
2025-03-17 13:11:01.925,0.0007054244156311062,-3.6020032205602854
2025-03-17 13:11:01.945,0.0006316369473809205,-3.585038929258031
2025-03-17 13:11:01.965,0.0005044734755020463,-3.9508499518943596
2025-03-17 13:11:01.984,0.0003207812571995632,-4.645916214211107
2025-03-17 13:11:02.004,8.213693756974397e-05,-5.524590120624164
2025-03-17 13:11:02.023,-0.00020499083694649524,-6.362650844603877
2025-03-17 13:11:02.043,-0.0005302435178060064,-6.888424566010361
2025-03-17 13:11:02.062,-0.0008814681642713285,-6.8283495884093215
2025-03-17 13:11:02.082,-0.0012472306468262746,-5.960183887177393
2025-03-17 13:11:02.101,-0.001618822916216753,-4.164135830522552
2025-03-17 13:11:02.121,-0.0019911554945044874,-1.4610515430272335
2025-03-17 13:11:02.140,-0.0023625105606816838,1.9718923273633855
2025-03-17 13:11:02.160,-0.0027335231098647465,5.8137186856567205
2025-03-17 13:11:02.179,-0.003105820835571416,9.640523134661848
2025-03-17 13:11:02.199,-0.003480678631959036,12.988724451419097
2025-03-17 13:11:02.218,-0.003857976374994235,15.42964452813872
2025-03-17 13:11:02.238,-0.004235641325433634,16.64150487489488
2025-03-17 13:11:02.258,-0.004609563506337993,16.46493190705867
2025-03-17 13:11:02.277,-0.004973801429135265,14.930957722814252
2025-03-17 13:11:02.297,-0.005320894894409765,12.25574330636593
2025-03-17 13:11:02.316,-0.00564226444633701,8.802831038342331
2025-03-17 13:11:02.336,-0.005928836415155414,5.02029766542551
2025-03-17 13:11:02.355,-0.00617202966811264,1.3652437358050418
2025-03-17 13:11:02.375,-0.006365045225614094,-1.7696118735975312
2025-03-17 13:11:02.394,-0.0065041294615483525,-4.113432419148906
2025-03-17 13:11:02.414,-0.006589356156232663,-5.549013296684274
2025-03-17 13:11:02.433,-0.006624647333080624,-6.114779688268924
2025-03-17 13:11:02.453,-0.006617123221929493,-5.979258049580872
2025-03-17 13:11:02.472,-0.006576156160039259,-5.3954162894600435
2025-03-17 13:11:02.492,-0.006512519507197475,-4.6453756567433695
2025-03-17 13:11:02.511,-0.006437776993347993,-3.9866703955141882
2025-03-17 13:11:02.531,-0.0063636931622471716,-3.6096869348071534
2025-03-17 13:11:02.551,-0.006301244205953929,-3.612776127197906
2025-03-17 13:11:02.570,-0.0062590274033316766,-3.9975953391270322
2025-03-17 13:11:02.590,-0.006241393569225254,-4.683282759024508
2025-03-17 13:11:02.609,-0.006246991958641517,-5.534753072231046
2025-03-17 13:11:02.629,-0.0062682977692594365,-6.398214110739738
2025-03-17 13:11:02.648,-0.006292252678275938,-7.136208150809506
2025-03-17 13:11:02.668,-0.006301787818621332,-7.655119506937868
2025-03-17 13:11:02.687,-0.00627790202168018,-7.919984807963739
2025-03-17 13:11:02.707,-0.00620202320697802,-7.954230991414976
2025-03-17 13:11:02.726,-0.006058405820092433,-7.8251443925461555
2025-03-17 13:11:02.746,-0.005836239350845271,-7.6188645163523105
2025-03-17 13:11:02.765,-0.005531036731316936,-7.410933457108921
2025-03-17 13:11:02.785,-0.005144922979730511,-7.239452697006757
2025-03-17 13:11:02.804,-0.004685775678288285,-7.087431734958534
2025-03-17 13:11:02.824,-0.004165607292596263,-6.878967915534203
2025-03-17 13:11:02.843,-0.003598740951199719,-6.490810566597754
2025-03-17 13:11:02.863,-0.0030000645441203514,-5.777265027888811
2025-03-17 13:11:02.883,-0.002383280296323004,-4.603102044221873
2025-03-17 13:11:02.902,-0.0017590488223794731,-2.876997603419187
2025-03-17 13:11:02.922,-0.0011332848356522482,-0.5776810879114689
2025-03-17 13:11:02.941,-0.0005061556845521175,2.2333759358385867
2025-03-17 13:11:02.961,0.00012782814898031558,5.415609146443151
2025-03-17 13:11:02.980,0.0007787318187918972,8.768188324767715
2025-03-17 13:11:03.000,0.0014595286081676645,12.059210282465237
2025-03-17 13:11:03.019,0.002184086463688166,15.058228106387311
2025-03-17 13:11:03.039,0.002964730368274097,17.56492088488921
2025-03-17 13:11:03.058,0.003809353083228932,19.428576536463787
2025-03-17 13:11:03.078,0.004718560906640425,20.556280187788502
2025-03-17 13:11:03.097,0.005683847737790078,20.91113786855673
2025-03-17 13:11:03.117,0.006687737806007331,20.504343594029685
2025-03-17 13:11:03.136,0.007706145162797856,19.385636894908046
2025-03-17 13:11:03.156,0.008712307543690515,17.63560405952952
2025-03-17 13:11:03.176,0.009681102904069082,15.36097538745994
2025-03-17 13:11:03.195,0.010592589238451777,12.691653549410189
2025-03-17 13:11:03.215,0.011434077738661777,9.776759684724675
2025-03-17 13:11:03.234,0.01220061160428598,6.777094635025235
2025-03-17 13:11:03.254,0.012894117862127295,3.8529387237624353
2025-03-17 13:11:03.273,0.013521671035684656,1.1483128468569486
2025-03-17 13:11:03.293,0.01409330751018982,-1.2252534019244041
2025-03-17 13:11:03.312,0.014619745938043108,-3.201509921071377
2025-03-17 13:11:03.332,0.015110303899937814,-4.765350586119883
2025-03-17 13:11:03.351,0.015571275290042532,-5.949907272377204
2025-03-17 13:11:03.371,0.0160049601687749,-6.82529519020579
2025-03-17 13:11:03.390,0.016409374139529,-7.481626829808264
2025-03-17 13:11:03.410,0.01677850960499086,-8.010376568177337
2025-03-17 13:11:03.429,0.01710300631750291,-8.488483983712587
2025-03-17 13:11:03.449,0.017371182131040195,-8.968641583849271
2025-03-17 13:11:03.469,0.017570397920079753,-9.477294488308393
2025-03-17 13:11:03.488,0.017688578584207193,-10.019551936562861
2025-03-17 13:11:03.508,0.017715521783947415,-10.58817065019713
2025-03-17 13:11:03.527,0.017643665811028497,-11.17263162072489
2025-03-17 13:11:03.547,0.017468321328384582,-11.764451238960826
2025-03-17 13:11:03.566,0.017187684538994604,-12.356264497122627
2025-03-17 13:11:03.586,0.016802865950321662,-12.934557404822588
2025-03-17 13:11:03.605,0.016317738318756048,-13.468547577733494
2025-03-17 13:11:03.625,0.0157381166580762,-13.899761586073117
2025-03-17 13:11:03.644,0.015070029641450117,-14.13754101672249
2025-03-17 13:11:03.664,0.014317461006154244,-14.064588566667185
2025-03-17 13:11:03.683,0.013480348081746021,-13.55387085154067
2025-03-17 13:11:03.703,0.012553462190730244,-12.494462466522245
2025-03-17 13:11:03.722,0.011526309053713806,-10.820418162163001
2025-03-17 13:11:03.742,0.010383881931862104,-8.534745014784551
2025-03-17 13:11:03.761,0.009108154185006299,-5.720892117219584
2025-03-17 13:11:03.781,0.007680348464209374,-2.5370189053158096
2025-03-17 13:11:03.801,0.006083936445920908,0.8070869517167978
2025-03-17 13:11:03.820,0.004307976312350425,4.0855904158301435
2025-03-17 13:11:03.840,0.002350050914636881,7.096060265110687
2025-03-17 13:11:03.859,0.00021799267924410245,9.69278810735868
2025-03-17 13:11:03.879,-0.002070172446126456,11.805438360181117
2025-03-17 13:11:03.898,-0.004488178569646432,13.438385032983147
2025-03-17 13:11:03.918,-0.00700500047183548,14.651321954056327
2025-03-17 13:11:03.937,-0.009589094897980292,15.526860005679248
2025-03-17 13:11:03.957,-0.012212408205895912,16.134436745084177
2025-03-17 13:11:03.976,-0.014853177089308077,16.500948763954344
2025-03-17 13:11:03.996,-0.017496858663713262,16.596726910177914
2025-03-17 13:11:04.015,-0.020135021327069624,16.34122358580463
2025-03-17 13:11:04.035,-0.022762532916501797,15.627178162709843
2025-03-17 13:11:04.054,-0.025373785050531474,14.356637204666178
2025-03-17 13:11:04.074,-0.027958914297022658,12.478643718087802
2025-03-17 13:11:04.094,-0.03050091827912947,10.017809809539928
2025-03-17 13:11:04.113,-0.032974188083800475,7.085559759371753
2025-03-17 13:11:04.133,-0.03534445046292776,3.8707306722211623
2025-03-17 13:11:04.152,-0.037569717471768405,0.6118504678518276
2025-03-17 13:11:04.172,-0.03960177471609051,-2.4419562456363666
2025-03-17 13:11:04.191,-0.041387983309933214,-5.072101961971888
2025-03-17 13:11:04.211,-0.04287350690995606,-7.1246418920841155
2025-03-17 13:11:04.230,-0.044004200593043,-8.530764096963082
2025-03-17 13:11:04.250,-0.044730129021404795,-9.310817095749918
2025-03-17 13:11:04.269,-0.04500916602946565,-9.56291299347114
2025-03-17 13:11:04.289,-0.044809800317366325,-9.440194285449852
2025-03-17 13:11:04.308,-0.044112468539875584,-9.122438964177313
2025-03-17 13:11:04.328,-0.042909365640083616,-8.787658342233422
2025-03-17 13:11:04.347,-0.04120331196005348,-8.588043680934048
2025-03-17 13:11:04.367,-0.03900648932156126,-8.63266258480089
2025-03-17 13:11:04.386,-0.03633960730013044,-8.97736986890688
2025-03-17 13:11:04.406,-0.033231568509893186,-9.621024750622611
2025-03-17 13:11:04.426,-0.029719329968146628,-10.506592693753719
2025-03-17 13:11:04.445,-0.025847592239241886,-11.526033415809712
2025-03-17 13:11:04.465,-0.021668072814124587,-12.528698178512649
2025-03-17 13:11:04.484,-0.01723822603860423,-13.333739917198965
2025-03-17 13:11:04.504,-0.012619340749300795,-13.747244994900262
2025-03-17 13:11:04.523,-0.007874105018236426,-13.584116981717012
2025-03-17 13:11:04.543,-0.0030639735434321766,-12.693246123359664
2025-03-17 13:11:04.562,0.0017531703223039902,-10.982649280060622
2025-03-17 13:11:04.582,0.006524627292744436,-8.4398167505902
2025-03-17 13:11:04.601,0.011203551662203876,-5.142232895486725
2025-03-17 13:11:04.621,0.01574865873248532,-1.2544009040056698
2025-03-17 13:11:04.640,0.02012306146886361,2.9894538117027345
2025-03-17 13:11:04.660,0.024292444431426453,7.314295849451253
2025-03-17 13:11:04.679,0.028223028804355146,11.439050694787102
2025-03-17 13:11:04.699,0.03188006487387204,15.109989884110119
2025-03-17 13:11:04.719,0.035227611950014136,18.126119674650162
2025-03-17 13:11:04.738,0.03822995114970728,20.352511174324366
2025-03-17 13:11:04.758,0.0408542949765042,21.72108551600271
2025-03-17 13:11:04.777,0.0430739145266879,22.221754540617468
2025-03-17 13:11:04.797,0.044870714788705364,21.888925963142057
2025-03-17 13:11:04.816,0.046236631412842316,20.78861434351688
2025-03-17 13:11:04.836,0.04717369220609948,19.00982505829138
2025-03-17 13:11:04.855,0.04769289711978611,16.661190385313542
2025-03-17 13:11:04.875,0.0478122054478644,13.871097632736468
2025-03-17 13:11:04.894,0.04755404216348731,10.787798335406542
2025-03-17 13:11:04.914,0.04694289451411868,7.57584368870613
2025-03-17 13:11:04.933,0.04600359598670073,4.40662860778577
2025-03-17 13:11:04.953,0.044760621868400706,1.443230535087464
2025-03-17 13:11:04.972,0.043238221409831065,-1.1778200366129754
2025-03-17 13:11:04.992,0.04146076200051265,-3.363575881064816
2025-03-17 13:11:05.012,0.03945254285512292,-5.075999307864849
2025-03-17 13:11:05.031,0.037236675598191236,-6.334235331322146
2025-03-17 13:11:05.051,0.034833257926243026,-7.206691364309311
2025-03-17 13:11:05.070,0.03225752754903778,-7.7943363587061425
2025-03-17 13:11:05.090,0.029518626190222712,-8.208821661731049
2025-03-17 13:11:05.109,0.026619210261075672,-8.550284882762808
2025-03-17 13:11:05.129,0.0235559180734275,-8.88971563054225
2025-03-17 13:11:05.148,0.02032081449078786,-9.259550149633442
2025-03-17 13:11:05.168,0.016904065060533442,-9.654065758114335
2025-03-17 13:11:05.187,0.013297941905834616,-10.038739161778905
2025-03-17 13:11:05.207,0.009501911307255207,-10.365628599806904
2025-03-17 13:11:05.226,0.005528242171361892,-10.590524344986807
2025-03-17 13:11:05.246,0.0014073694399833053,-10.687352636717385
2025-03-17 13:11:05.265,-0.002807984028650161,-10.656129477144006
2025-03-17 13:11:05.285,-0.007041224071764977,-10.522413182026881
2025-03-17 13:11:05.304,-0.011194249261572602,-10.328285529703605
2025-03-17 13:11:05.324,-0.01515469887131348,-10.116922264494638
2025-03-17 13:11:05.344,-0.018807840914336463,-9.91438197713555
2025-03-17 13:11:05.363,-0.022051307547374804,-9.713079727219617
2025-03-17 13:11:05.383,-0.0248095817650579,-9.461388262375129
2025-03-17 13:11:05.402,-0.027044656174596254,-9.062890875315395
2025-03-17 13:11:05.422,-0.02875994225368686,-8.387054691727156
2025-03-17 13:11:05.441,-0.02999624943196125,-7.2907147974883015
2025-03-17 13:11:05.461,-0.030820951860289655,-5.647190010907765
2025-03-17 13:11:05.480,-0.03131340433787426,-3.377710562423409
2025-03-17 13:11:05.500,-0.03155041233404384,-0.4787572836958694
2025-03-17 13:11:05.519,-0.031594895179010936,2.96073003080825
2025-03-17 13:11:05.539,-0.03148934369003212,6.75657963118984
2025-03-17 13:11:05.558,-0.031254108474889984,10.642711944597533
2025-03-17 13:11:05.578,-0.030889562811576437,14.299346161670991
2025-03-17 13:11:05.597,-0.030380881447859116,17.39235218319919
2025-03-17 13:11:05.617,-0.02970435178462277,19.61817012414646
2025-03-17 13:11:05.637,-0.028834460014651002,20.74765088796201
2025-03-17 13:11:05.656,-0.02775112432760494,20.66189917564333
2025-03-17 13:11:05.676,-0.0264462117812426,19.37383215618675
2025-03-17 13:11:05.695,-0.024928101298908954,17.03087037934337
2025-03-17 13:11:05.715,-0.023222996444304388,13.896992600950547
2025-03-17 13:11:05.734,-0.02137221635705204,10.316020158274853
2025-03-17 13:11:05.754,-0.0194257124610275,6.661757399399707
2025-03-17 13:11:05.773,-0.017433244918855992,3.28355787558458
2025-03-17 13:11:05.793,-0.015435551797424675,0.4571321333405959
2025-03-17 13:11:05.812,-0.013457979853361082,-1.6505035149422098
2025-03-17 13:11:05.832,-0.011508248423175207,-2.9959621015418088
2025-03-17 13:11:05.851,-0.009578699429792404,-3.6525250250536136
2025-03-17 13:11:05.871,-0.00765224692291204,-3.7839079688111603
2025-03-17 13:11:05.890,-0.005710643827072426,-3.6049480782336136
2025-03-17 13:11:05.910,-0.003743469193542679,-3.337429663140871
2025-03-17 13:11:05.930,-0.0017560893906403364,-3.169485453784319
2025-03-17 13:11:05.949,0.00022528617920500972,-3.225595590325673
2025-03-17 13:11:05.969,0.0021531576256704297,-3.5516113917424064
2025-03-17 13:11:05.988,0.003963770430677816,-4.116059748243061
2025-03-17 13:11:06.008,0.005587041375291625,-4.8258809085985
2025-03-17 13:11:06.027,0.006959203653638255,-5.552292796192935
2025-03-17 13:11:06.047,0.00803508807181434,-6.161057152665097
2025-03-17 13:11:06.066,0.008797148631775026,-6.541190955245331
2025-03-17 13:11:06.086,0.00925937953373229,-6.627000848400658
2025-03-17 13:11:06.105,0.009465512736563191,-6.409909021293151
2025-03-17 13:11:06.125,0.00948192561769378,-5.9385092932198145
2025-03-17 13:11:06.144,0.009386528014267743,-5.307301946994962
2025-03-17 13:11:06.164,0.009255607060715388,-4.6363444060023
2025-03-17 13:11:06.183,0.009151078864471932,-4.045436923979988
2025-03-17 13:11:06.203,0.009110616986823012,-3.6273161931595923
2025-03-17 13:11:06.222,0.009142577228572715,-3.4245916029218337
2025-03-17 13:11:06.242,0.009226616703439614,-3.414806783488767
2025-03-17 13:11:06.262,0.009319721327496889,-3.5070309512197815
2025-03-17 13:11:06.281,0.009366346292994149,-3.5517769084495034
2025-03-17 13:11:06.301,0.009310707593887262,-3.3638827990560567
2025-03-17 13:11:06.320,0.009108946535216577,-2.7555452765664348
2025-03-17 13:11:06.340,0.008738929225689362,-1.5744193698763305
2025-03-17 13:11:06.359,0.00820589235907722,0.25985008054990033
2025-03-17 13:11:06.379,0.007542981944457101,2.727701002616363
2025-03-17 13:11:06.398,0.006806752612218527,5.696438794212944
2025-03-17 13:11:06.418,0.006068583935939005,8.925680158268007
2025-03-17 13:11:06.437,0.005403488903581641,12.092331626470681
2025-03-17 13:11:06.457,0.004877977752089544,14.8324878788953
2025-03-17 13:11:06.476,0.004538764658162189,16.794312755785942
2025-03-17 13:11:06.496,0.004404286735472403,17.6934138155036
2025-03-17 13:11:06.515,0.004460954675018201,17.360985189183097
2025-03-17 13:11:06.535,0.004665352128031391,15.775495134994667
2025-03-17 13:11:06.555,0.004952230178966074,13.071120557675012
2025-03-17 13:11:06.574,0.005246628783789239,9.520267084662578
2025-03-17 13:11:06.594,0.0054774926720481155,5.492626144617738
2025-03-17 13:11:06.613,0.005590092063362792,1.3981298539936517
2025-03-17 13:11:06.633,0.005555177730886814,-2.3754292590013315
2025-03-17 13:11:06.652,0.005373530815173411,-5.518394334314475
2025-03-17 13:11:06.672,0.005075083390423105,-7.838862678273299
2025-03-17 13:11:06.691,0.004712280546493995,-9.279762290403362
2025-03-17 13:11:06.711,0.004348261165517711,-9.912045232559011
2025-03-17 13:11:06.730,0.00404185558342597,-9.907266748965158
2025-03-17 13:11:06.750,0.003832779045131813,-9.496279677850373
2025-03-17 13:11:06.769,0.003730882274442495,-8.922586814312703
2025-03-17 13:11:06.789,0.003712500227286176,-8.398973231639745
2025-03-17 13:11:06.808,0.003725126612015714,-8.074595864898168
2025-03-17 13:11:06.828,0.0036994462741815276,-8.017150109464751
2025-03-17 13:11:06.847,0.0035657589862173834,-8.211622932145476
2025-03-17 13:11:06.867,0.003270589131615974,-8.574106417154914
2025-03-17 13:11:06.887,0.002789233666046435,-8.976733767571773
2025-03-17 13:11:06.906,0.0021311855956926053,-9.278348025056202
2025-03-17 13:11:06.926,0.0013373705855557999,-9.355108183260567
2025-03-17 13:11:06.945,0.0004703008635518146,-9.125764980432528
2025-03-17 13:11:06.965,-0.0004000735863785326,-8.567571334066246
2025-03-17 13:11:06.984,-0.0012112482497588341,-7.720468224137125
2025-03-17 13:11:07.004,-0.0019203244618730647,-6.679072514797029
2025-03-17 13:11:07.023,-0.002510814303313543,-5.573901513289711
2025-03-17 13:11:07.043,-0.00299280367558316,-4.5450205344614805
2025-03-17 13:11:07.062,-0.003396806262799796,-3.7126765105052026
2025-03-17 13:11:07.082,-0.0037631550915915605,-3.150240888715464
2025-03-17 13:11:07.101,-0.004129800608753497,-2.864729860364557
2025-03-17 13:11:07.121,-0.004521679200381177,-2.7891988494690882
2025-03-17 13:11:07.140,-0.00494430272983501,-2.7894507201482175
2025-03-17 13:11:07.160,-0.00538296355773824,-2.684951617166464
2025-03-17 13:11:07.180,-0.005807287886914745,-2.2810118615320887
2025-03-17 13:11:07.199,-0.006179397312576848,-1.406731176417096
2025-03-17 13:11:07.219,-0.006463186682421565,0.04843520329614904
2025-03-17 13:11:07.238,-0.006632351500584108,2.1068287476781404
2025-03-17 13:11:07.258,-0.006675538573859223,4.689329262396694
2025-03-17 13:11:07.277,-0.0065978980289000235,7.619682680766656
2025-03-17 13:11:07.297,-0.006419084160515277,10.6458510113252
2025-03-17 13:11:07.316,-0.0061683753297527245,13.474514910900103
2025-03-17 13:11:07.336,-0.005878111841103882,15.812608885884622
2025-03-17 13:11:07.355,-0.005576990871415961,17.408948913883197
2025-03-17 13:11:07.375,-0.005284771879609709,18.089520484903588
2025-03-17 13:11:07.394,-0.005009597636830741,17.7814262188913
2025-03-17 13:11:07.414,-0.004748456720321834,16.522393575249815
2025-03-17 13:11:07.433,-0.004490415810469851,14.454791808256761
2025-03-17 13:11:07.453,-0.004221407634771457,11.805143472864456
2025-03-17 13:11:07.473,-0.0039289076180718165,8.85206164541467
2025-03-17 13:11:07.492,-0.0036049582922931954,5.887272026251392
2025-03-17 13:11:07.512,-0.0032466758430793304,3.175621332783609
2025-03-17 13:11:07.531,-0.002854377679295092,0.9203683834720273
2025-03-17 13:11:07.551,-0.00242841432212717,-0.7606674470383651
2025-03-17 13:11:07.570,-0.0019662410480512393,-1.844355828514588
2025-03-17 13:11:07.590,-0.0014610332899487176,-2.395775676402398
2025-03-17 13:11:07.609,-0.0009024380865765163,-2.5477602418015706
2025-03-17 13:11:07.629,-0.00027924929194197577,-2.4707829504364556
2025-03-17 13:11:07.648,0.0004168387018353119,-2.3392008184867894
2025-03-17 13:11:07.668,0.0011875897969705826,-2.3003303984706975
2025-03-17 13:11:07.687,0.0020258463683059317,-2.4519448956722094
2025-03-17 13:11:07.707,0.002915097225141829,-2.8317780765740372
2025-03-17 13:11:07.726,0.00383100338749961,-3.4199798140892392
2025-03-17 13:11:07.746,0.004744375961542736,-4.152766581227533
2025-03-17 13:11:07.765,0.005624955806270243,-4.943288671330617
2025-03-17 13:11:07.785,0.006445404856850286,-5.704426023947001
2025-03-17 13:11:07.805,0.007184878147319117,-6.368102767669184
2025-03-17 13:11:07.824,0.007831405773338056,-6.896827624619046
2025-03-17 13:11:07.844,0.00838241421659669,-7.285276908991888
2025-03-17 13:11:07.863,0.008843253782474995,-7.552316792105525
2025-03-17 13:11:07.883,0.009224303884521228,-7.72626284029516
2025-03-17 13:11:07.902,0.009537628602268809,-7.827818677572444
2025-03-17 13:11:07.922,0.0097940429821928,-7.8556523855340155
2025-03-17 13:11:07.941,0.010001006004086186,-7.778853853546164
2025-03-17 13:11:07.961,0.010161333625238312,-7.538732079642406
2025-03-17 13:11:07.980,0.010272580427347177,-7.059960635130071
2025-03-17 13:11:08.000,0.010327064422432027,-6.268539883563645
2025-03-17 13:11:08.019,0.010312682987764632,-5.112074005730394
2025-03-17 13:11:08.039,0.010214653642988951,-3.5770544833818847
2025-03-17 13:11:08.058,0.010018045494752744,-1.6985303732564896
2025-03-17 13:11:08.078,0.009710608852516045,0.4403912722415137
2025-03-17 13:11:08.098,0.009285242394514911,2.718940907869572
2025-03-17 13:11:08.117,0.008741587985702823,4.996009690690626
2025-03-17 13:11:08.137,0.008086542261257263,7.1297448233895535
2025-03-17 13:11:08.156,0.007333661500026767,8.994601783345345
2025-03-17 13:11:08.176,0.006501480302401825,10.492385844358358
2025-03-17 13:11:08.195,0.00561085692259884,11.556110687352868
2025-03-17 13:11:08.215,0.004681700133538642,12.147867505959336
2025-03-17 13:11:08.234,0.003729671660506221,12.253506175250713
2025-03-17 13:11:08.254,0.0027635072183063198,11.877327126189021
2025-03-17 13:11:08.273,0.0017834765015067708,11.039202625654811
2025-03-17 13:11:08.293,0.0007813460236532753,9.775005671101352
2025-03-17 13:11:08.312,-0.00025794236504177507,8.139513772631963
2025-03-17 13:11:08.332,-0.0013529037358693226,6.209637026318583
2025-03-17 13:11:08.351,-0.0025208861591820082,4.085291569874459
2025-03-17 13:11:08.371,-0.0037731074912314986,1.8856563286977532
2025-03-17 13:11:08.391,-0.005110567752338869,-0.26019483123413634
2025-03-17 13:11:08.410,-0.006521916287627228,-2.2275521234698505
2025-03-17 13:11:08.430,-0.007983772772285526,-3.912772801085791
2025-03-17 13:11:08.449,-0.009463243724005449,-5.248831283191452
2025-03-17 13:11:08.469,-0.010921798856304834,-6.2159214466781565
2025-03-17 13:11:08.488,-0.012319481501625701,-6.844169327329418
2025-03-17 13:11:08.508,-0.013618602459133749,-7.207192927326397
2025-03-17 13:11:08.527,-0.014786432516657401,-7.4072794887782845
2025-03-17 13:11:08.547,-0.01579675902846604,-7.554796542576657
2025-03-17 13:11:08.566,-0.016630404937702924,-7.745675707337784
2025-03-17 13:11:08.586,-0.017274979837102404,-8.041191434774461
2025-03-17 13:11:08.605,-0.01772430053383141,-8.453817074155227
2025-03-17 13:11:08.625,-0.017977971053510074,-8.941859839426526
2025-03-17 13:11:08.644,-0.01804136310708162,-9.414099845591277
2025-03-17 13:11:08.664,-0.01792571012055427,-9.744015983127886
2025-03-17 13:11:08.683,-0.017647560870521092,-9.791571915489955
2025-03-17 13:11:08.703,-0.017226870160244795,-9.429153655792518
2025-03-17 13:11:08.723,-0.01668367739528526,-8.567302116900686
2025-03-17 13:11:08.742,-0.016034251724027247,-7.175574706734278
2025-03-17 13:11:08.762,-0.015288085286489466,-5.2943682627375885
2025-03-17 13:11:08.781,-0.014446825483100756,-3.034901969519601
2025-03-17 13:11:08.801,-0.01350542289178395,-0.5666443983277262
2025-03-17 13:11:08.820,-0.012455028652324925,1.9061292609321914
2025-03-17 13:11:08.840,-0.011286861662081525,4.1747997089928095
2025-03-17 13:11:08.859,-0.009996273324122545,6.058607151320614
2025-03-17 13:11:08.879,-0.008586261270680422,7.432897530834749
2025-03-17 13:11:08.898,-0.007069659503665136,8.248323388730453
2025-03-17 13:11:08.918,-0.0054693978505154376,8.537397570235647
2025-03-17 13:11:08.937,-0.003816713666308396,8.406909025695695
2025-03-17 13:11:08.957,-0.002147788729125596,8.01713716473525
2025-03-17 13:11:08.976,-0.0004996516027792774,7.551189839825513
2025-03-17 13:11:08.996,0.0010937791437116494,7.179745864493783
2025-03-17 13:11:09.016,0.0026048566423916494,7.027604760434724
2025-03-17 13:11:09.035,0.004014233527577448,7.148422261766583
2025-03-17 13:11:09.055,0.005311624520452844,7.512746442841223
2025-03-17 13:11:09.074,0.006495207179299223,8.01214636387039
2025-03-17 13:11:09.094,0.007569611904571475,8.479235490313753
2025-03-17 13:11:09.113,0.008542718127025345,8.720244266050837
2025-03-17 13:11:09.133,0.009421889407881585,8.554061352362037
2025-03-17 13:11:09.152,0.010210559765060646,7.849940316434542
2025-03-17 13:11:09.172,0.010906032937260883,6.555893540772261
2025-03-17 13:11:09.191,0.011499039617426996,4.711463632430465
2025-03-17 13:11:09.211,0.011975184841472265,2.441922064569486
2025-03-17 13:11:09.230,0.012317979002463503,-0.06472000162818169
2025-03-17 13:11:09.250,0.012512695892921857,-2.5923515517068516
2025-03-17 13:11:09.269,0.012549967227942695,-4.934775357163307
2025-03-17 13:11:09.289,0.01242804747271811,-6.928326036983119
2025-03-17 13:11:09.308,0.012153215459773556,-8.472194188047402
2025-03-17 13:11:09.328,0.011738644930145913,-9.53316283251265
2025-03-17 13:11:09.348,0.011202789900273914,-10.135683375611643
2025-03-17 13:11:09.367,0.010568446342634196,-10.341841697847386
2025-03-17 13:11:09.387,0.009863102225812518,-10.227825941515746
2025-03-17 13:11:09.406,0.009120289879167671,-9.863530026121193
2025-03-17 13:11:09.426,0.008380876078389658,-9.300059544994681
2025-03-17 13:11:09.445,0.0076929436446648665,-8.56688792217366
2025-03-17 13:11:09.465,0.007109243766329064,-7.677304464573159
2025-03-17 13:11:09.484,0.006681943261076584,-6.638591525088328
2025-03-17 13:11:09.504,0.006455229299167834,-5.462637082212162
2025-03-17 13:11:09.523,0.006456995195434934,-4.173429884553891
2025-03-17 13:11:09.543,0.006691191476038191,-2.809584046362104
2025-03-17 13:11:09.562,0.007132521361435596,-1.421929279951844
2025-03-17 13:11:09.582,0.007725087037190324,-0.06760223685010786
2025-03-17 13:11:09.601,0.00838629998678363,1.19734471404392
2025-03-17 13:11:09.621,0.009016580079503385,2.3249715415249748
2025-03-17 13:11:09.641,0.009513891657637264,3.280878003603444
2025-03-17 13:11:09.660,0.009790342567846234,4.047485307657439
2025-03-17 13:11:09.680,0.009786833026138322,4.625155583720722
2025-03-17 13:11:09.699,0.009481962419846838,5.031401205489332
2025-03-17 13:11:09.719,0.008893105025830069,5.2984668862585895
2025-03-17 13:11:09.738,0.008069895978364007,5.469455687488151
2025-03-17 13:11:09.758,0.00708234013520151,5.593049111634241
2025-03-17 13:11:09.777,0.006006809331036447,5.716878028557757
2025-03-17 13:11:09.797,0.004913224273125715,5.87982261439849
2025-03-17 13:11:09.816,0.0038559290552329403,6.103946734308506
2025-03-17 13:11:09.836,0.002869506730322595,6.387288994691039
2025-03-17 13:11:09.855,0.001969410497916833,6.699143854008443
2025-03-17 13:11:09.875,0.001156124407915645,6.979553668099393
2025-03-17 13:11:09.894,0.00042090156387471293,7.144328142127887
2025-03-17 13:11:09.914,-0.0002488757090516885,7.095963122147968
2025-03-17 13:11:09.934,-0.0008660428479987747,6.73946439977321
2025-03-17 13:11:09.953,-0.001442067210912863,6.0005938894584725
2025-03-17 13:11:09.973,-0.001987039083058621,4.842890647223186
2025-03-17 13:11:09.992,-0.00251037793963444,3.2794514866243936
2025-03-17 13:11:10.012,-0.0030214931887244975,1.3761961191418612
2025-03-17 13:11:10.031,-0.0035299018250073986,-0.7548445684157215
2025-03-17 13:11:10.051,-0.0040445056295086695,-2.9712304273743926
2025-03-17 13:11:10.070,-0.004571969983747069,-5.121458071635564
2025-03-17 13:11:10.090,-0.0051145966339875655,-7.06708708788517
2025-03-17 13:11:10.109,-0.005668580608452556,-8.700615805978021
2025-03-17 13:11:10.129,-0.006223658295683715,-9.955336027770283
2025-03-17 13:11:10.148,-0.006764661424032941,-10.805686200847138
2025-03-17 13:11:10.168,-0.007274615777405733,-11.259221418706705
2025-03-17 13:11:10.187,-0.007738258856053229,-11.343456061586446
2025-03-17 13:11:10.207,-0.008144618320698365,-11.091945953600394
2025-03-17 13:11:10.226,-0.00848770220742288,-10.533820348773542
2025-03-17 13:11:10.246,-0.008765153156894469,-9.689632607605292
2025-03-17 13:11:10.266,-0.008975484352434329,-8.574244450650722
2025-03-17 13:11:10.285,-0.009114961056178955,-7.20510335507248
2025-03-17 13:11:10.305,-0.009175319830681029,-5.612441287905728
2025-03-17 13:11:10.324,-0.009143398273285806,-3.8472284685622036
2025-03-17 13:11:10.344,-0.009003307400680446,-1.9834087633972048
2025-03-17 13:11:10.363,-0.008740949395831922,-0.11278452801131693
2025-03-17 13:11:10.383,-0.008349691466360576,1.6667308889977566
2025-03-17 13:11:10.402,-0.007835337556829016,3.266691913364624
2025-03-17 13:11:10.422,-0.0072185747735249274,4.623535342543975
2025-03-17 13:11:10.441,-0.006533819841908956,5.709801386290206
2025-03-17 13:11:10.461,-0.005824549662922319,6.538150387906074
2025-03-17 13:11:10.480,-0.005136334381864182,7.156865287303044
2025-03-17 13:11:10.500,-0.004509482199894854,7.637461015713962
2025-03-17 13:11:10.519,-0.003973212623614758,8.05678471737308
2025-03-17 13:11:10.539,-0.003542636291111343,8.477276494492557
2025-03-17 13:11:10.559,-0.0032188099368216467,8.92963740911759
2025-03-17 13:11:10.578,-0.002991173048274872,9.40187492333868
2025-03-17 13:11:10.598,-0.0028411418284994584,9.837554628756084
2025-03-17 13:11:10.617,-0.00274567197183405,10.144247718339333
2025-03-17 13:11:10.637,-0.0026800790642411707,10.21097666477731
2025-03-17 13:11:10.656,-0.0026200475746962523,9.931402353528714
2025-03-17 13:11:10.676,-0.0025432087477960364,9.228044582499312
2025-03-17 13:11:10.695,-0.0024306866783078062,8.072345649788467
2025-03-17 13:11:10.715,-0.0022687094260494165,6.496041520519418
2025-03-17 13:11:10.734,-0.002050058039508651,4.591031039715288
2025-03-17 13:11:10.754,-0.0017749536178170518,2.4974019680175044
2025-03-17 13:11:10.773,-0.0014510023780396183,0.381914184529521
2025-03-17 13:11:10.793,-0.001092036883531719,-1.588620067744895
2025-03-17 13:11:10.812,-0.0007159941186086176,-3.2735430502121625
2025-03-17 13:11:10.832,-0.000342155961014146,-4.578870173146514
2025-03-17 13:11:10.852,1.1900920117537893e-05,-5.468282064385205
2025-03-17 13:11:10.871,0.0003332761931410856,-5.9629740601357915
2025-03-17 13:11:10.891,0.0006161187642919643,-6.131203615129733
2025-03-17 13:11:10.910,0.0008627253346807316,-6.0705113585808155
2025-03-17 13:11:10.930,0.0010827980362617341,-5.886947284773864
2025-03-17 13:11:10.949,0.0012907891295380078,-5.675932591167039
2025-03-17 13:11:10.969,0.001501926308829935,-5.508594807951532
2025-03-17 13:11:10.988,0.0017279723403902983,-5.425752083607121
2025-03-17 13:11:11.008,0.001973806725525983,-5.439627773337934
2025-03-17 13:11:11.027,0.002235609046554798,-5.5413905949119995
2025-03-17 13:11:11.047,0.0025010305127362823,-5.71124376810005
2025-03-17 13:11:11.066,0.0027514004417661976,-5.927370444242448
2025-03-17 13:11:11.086,0.0029656388503087627,-6.170687051565659
2025-03-17 13:11:11.105,0.0031250597055320992,-6.423910841215728
2025-03-17 13:11:11.125,0.003217828804482824,-6.665528667526546
2025-03-17 13:11:11.144,0.0032417975318112815,-6.861295811035448
2025-03-17 13:11:11.164,0.0032049115656286667,-6.957257554312977
2025-03-17 13:11:11.184,0.0031232087903200695,-6.878436065730778
2025-03-17 13:11:11.203,0.0030171645357696016,-6.536033099811289
2025-03-17 13:11:11.223,0.0029074729003965103,-5.843488944616135
2025-03-17 13:11:11.242,0.0028112535513603936,-4.738687491015347
2025-03-17 13:11:11.262,0.002739393652920667,-3.206971548983045
2025-03-17 13:11:11.281,0.0026954592831421177,-1.2983767886753674
2025-03-17 13:11:11.301,0.002676291155648037,0.8668256496984788
2025-03-17 13:11:11.320,0.0026739678397132015,3.1076273795296423
2025-03-17 13:11:11.340,0.0026784216660794696,5.206419679099396
2025-03-17 13:11:11.359,0.0026798777583583217,6.943501215095355
2025-03-17 13:11:11.379,0.002670534638503324,8.134818214237125
2025-03-17 13:11:11.398,0.0026453405917079573,8.664725882340127
2025-03-17 13:11:11.418,0.0026020834705371035,8.506558935996356
2025-03-17 13:11:11.437,0.002541150872721977,7.726572231050625
2025-03-17 13:11:11.457,0.0024652075914102446,6.470611393038719
2025-03-17 13:11:11.477,0.002378761655766722,4.936717121667501
2025-03-17 13:11:11.496,0.0022873929081812525,3.3397984663688254
2025-03-17 13:11:11.516,0.0021965529193415934,1.8758523036615866
2025-03-17 13:11:11.535,0.002110230611642465,0.6927425200249095
2025-03-17 13:11:11.555,0.002030003075166677,-0.12743947271838021
2025-03-17 13:11:11.574,0.0019548012471000908,-0.5722893802767297
2025-03-17 13:11:11.594,0.001881332525975806,-0.690122469874416
2025-03-17 13:11:11.613,0.001804901072256898,-0.5713824915269685
2025-03-17 13:11:11.633,0.0017204243052170115,-0.3251160368237134
2025-03-17 13:11:11.652,0.00162353006875804,-0.05553318790231767
2025-03-17 13:11:11.672,0.0015115778852668857,0.15696967866755196
2025-03-17 13:11:11.691,0.0013843576346387924,0.2673174553988024
2025-03-17 13:11:11.711,0.0012442265028634373,0.26855619464801384
2025-03-17 13:11:11.730,0.0010956107681421863,0.18651687295269886
2025-03-17 13:11:11.750,0.000944061713961883,0.06841633177542207
2025-03-17 13:11:11.769,0.0007952493963037217,-0.03159168110976246
2025-03-17 13:11:11.789,0.0006542494787935024,-0.06662902970841784
2025-03-17 13:11:11.809,0.0005252426231424681,-0.008139928891973725
2025-03-17 13:11:11.828,0.0004114842002073532,0.14829148703375758
2025-03-17 13:11:11.848,0.00031529242433913355,0.38321094407707984
2025-03-17 13:11:11.867,0.00023789965957784812,0.6591822970342576
2025-03-17 13:11:11.887,0.00017922570084073528,0.9306346824801744
2025-03-17 13:11:11.906,0.00013777084246898507,1.1552027730825385
2025-03-17 13:11:11.926,0.00011075818277677752,1.3038424739085395
2025-03-17 13:11:11.945,9.448458617441285e-05,1.3673537261895345
2025-03-17 13:11:11.965,8.47788001100971e-05,1.3578076341727097
2025-03-17 13:11:11.984,7.75076790050692e-05,1.3045617841592843
2025-03-17 13:11:12.004,6.90361842219073e-05,1.2457955234393419
2025-03-17 13:11:12.023,5.643401035164348e-05,1.2175366435516497
2025-03-17 13:11:12.043,3.7250898237369214e-05,1.2427602662087625
2025-03-17 13:11:12.062,8.956863880482938e-06,1.3231949617093985
2025-03-17 13:11:12.082,-3.152435722796854e-05,1.4359616299229012
2025-03-17 13:11:12.102,-8.767943666787104e-05,1.5361884228454066
2025-03-17 13:11:12.121,-0.0001624703237159665,1.5654592809118373
2025-03-17 13:11:12.141,-0.00025691315810051033,1.4646003989698284
2025-03-17 13:11:12.160,-0.00036881083297310316,1.1881669202816572
2025-03-17 13:11:12.180,-0.000492212604071625,0.7173347395770557
2025-03-17 13:11:12.199,-0.0006178355907878887,0.06794002991718695
2025-03-17 13:11:12.219,-0.0007343580987974043,-0.7087605869982798
2025-03-17 13:11:12.238,-0.0008303555275880551,-1.5334767981530693
2025-03-17 13:11:12.258,-0.0008965950033705213,-2.313271404015916
2025-03-17 13:11:12.277,-0.0009282389431928361,-2.959830639528046
2025-03-17 13:11:12.297,-0.0009262851911570094,-3.407207111758051
2025-03-17 13:11:12.316,-0.0008975872018915311,-3.624537238996392
2025-03-17 13:11:12.336,-0.0008532227734853444,-3.620516610712639
2025-03-17 13:11:12.355,-0.0008056564835746814,-3.438714184912005
2025-03-17 13:11:12.375,-0.000765688614485299,-3.1453540116745025
2025-03-17 13:11:12.395,-0.0007402362559032884,-2.813127363780376
2025-03-17 13:11:12.414,-0.000731493596442239,-2.505323428242857
2025-03-17 13:11:12.434,-0.0007373411800148903,-2.263986469617131
2025-03-17 13:11:12.453,-0.0007524933861347057,-2.104303599608741
2025-03-17 13:11:12.473,-0.000769910770757776,-2.0156178316575337
2025-03-17 13:11:12.492,-0.0007822281431848899,-1.9678978752847769
2025-03-17 13:11:12.512,-0.0007831228776040949,-1.9214895746213816
2025-03-17 13:11:12.531,-0.0007685769394234536,-1.8376021008083894
2025-03-17 13:11:12.551,-0.0007378686375217188,-1.6871876064096976
2025-03-17 13:11:12.570,-0.0006939751720578714,-1.4565303988175622
2025-03-17 13:11:12.590,-0.0006430776279305121,-1.1487947665148739
2025-03-17 13:11:12.609,-0.0005931457800936328,-0.7817721386919857
2025-03-17 13:11:12.629,-0.0005519974178871685,-0.38288527348730644
2025-03-17 13:11:12.648,-0.0005254775515560868,0.01704514742801871
2025-03-17 13:11:12.668,-0.0005163239869512311,0.3897670448347659
2025-03-17 13:11:12.687,-0.0005239835493357655,0.7141597340573472
2025-03-17 13:11:12.707,-0.000545312604429373,0.9787928979738092
2025-03-17 13:11:12.727,-0.0005758428587804066,1.1823867000796997
2025-03-17 13:11:12.746,-0.0006111665199587235,1.3324387108175737
2025-03-17 13:11:12.766,-0.0006480169977521315,1.4424918610025332
2025-03-17 13:11:12.785,-0.000684772893271567,1.5286251847060384
2025-03-17 13:11:12.805,-0.0007213560691005125,1.605803974338506
2025-03-17 13:11:12.824,-0.0007587423139388198,1.684737895050292
2025-03-17 13:11:12.844,-0.000798389343832669,1.7698380118275565
2025-03-17 13:11:12.863,-0.0008417376427706484,1.8586987138814421
2025-03-17 13:11:12.883,-0.0008897343639715306,1.943243093860736
2025-03-17 13:11:12.902,-0.0009423219035064555,2.0122961621898185
2025-03-17 13:11:12.922,-0.000998031285590746,2.0549767816231035
2025-03-17 13:11:12.941,-0.0010539826989677894,2.0640386204297845
2025-03-17 13:11:12.961,-0.001106509719590425,2.0382414837412703
2025-03-17 13:11:12.980,-0.0011523068876959084,1.9830414277269819
2025-03-17 13:11:13.000,-0.0011896513413633383,1.9093115838780241
2025-03-17 13:11:13.020,-0.0012191254003430596,1.8303298891894964
2025-03-17 13:11:13.039,-0.0012435272146356837,1.7577511361802263
2025-03-17 13:11:13.059,-0.0012671589812764945,1.697603823825931
2025-03-17 13:11:13.078,-0.0012950028247392467,1.6474549815951243
2025-03-17 13:11:13.098,-0.0013321304444829567,1.5957385651857892
2025-03-17 13:11:13.117,-0.0013832212478882286,1.5238224568118233
2025-03-17 13:11:13.137,-0.001451771488091846,1.4107048137727072
2025-03-17 13:11:13.156,-0.0015387726681857297,1.2393914309591496
2025-03-17 13:11:13.176,-0.0016411892187680923,1.0032560591974815
2025-03-17 13:11:13.195,-0.0017510307656417679,0.7103448026690858
2025-03-17 13:11:13.215,-0.0018557968643792202,0.38390344276480326
2025-03-17 13:11:13.234,-0.0019405335868094237,0.058407592592901666
2025-03-17 13:11:13.254,-0.001991016473388694,-0.22820891584083924
2025-03-17 13:11:13.273,-0.001997094290849639,-0.44409043224331496
2025-03-17 13:11:13.293,-0.001955214022997617,-0.5719697003216502
2025-03-17 13:11:13.313,-0.001869495491795541,-0.6140124590503327
2025-03-17 13:11:13.332,-0.0017511485849071786,-0.59139728436891
2025-03-17 13:11:13.352,-0.001616357019971998,-0.5386151284462334
2025-03-17 13:11:13.371,-0.0014830513649487004,-0.4940644214989757
2025-03-17 13:11:13.391,-0.001367320478137409,-0.48959321399241673
2025-03-17 13:11:13.410,-0.0012804005180175747,-0.5418764747698931
2025-03-17 13:11:13.430,-0.0012270020905887464,-0.647898284621057
2025-03-17 13:11:13.449,-0.0012052059578491626,-0.7856020542395993
2025-03-17 13:11:13.469,-0.0012075898269978363,-0.9193851715186636
2025-03-17 13:11:13.488,-0.0012229914504438102,-1.00893090942562
2025-03-17 13:11:13.508,-0.00123846329142442,-1.0191504015546693
2025-03-17 13:11:13.527,-0.0012412929429569902,-0.9288687917419365
2025-03-17 13:11:13.547,-0.001221069375036577,-0.7363167698048058
2025-03-17 13:11:13.566,-0.0011715196486878179,-0.4603415958355139
2025-03-17 13:11:13.586,-0.0010915114539082054,-0.1372876935881809
2025-03-17 13:11:13.605,-0.0009846602924995567,0.18556705786628136
2025-03-17 13:11:13.625,-0.0008575199522174787,0.4585192358786926
2025-03-17 13:11:13.645,-0.0007170253321019115,0.6381806365266008
2025-03-17 13:11:13.664,-0.0005681890862049643,0.6948769770361707
2025-03-17 13:11:13.684,-0.000412792462447444,0.6174975833033441
2025-03-17 13:11:13.703,-0.0002491882660064421,0.41507537656758314
2025-03-17 13:11:13.723,-7.285056568465034e-05,0.11489150203990846
2025-03-17 13:11:13.742,0.0001227083519041741,-0.24261688454335706
2025-03-17 13:11:13.762,0.0003447246677980977,-0.6114333159959344
2025-03-17 13:11:13.781,0.0005995759753236222,-0.9489151617670513
2025-03-17 13:11:13.801,0.0008909106164736563,-1.2246601521187257
2025-03-17 13:11:13.820,0.0012180234405315658,-1.427578452444203
2025-03-17 13:11:13.840,0.001575098499456089,-1.5694624477450503
2025-03-17 13:11:13.859,0.0019516718024258559,-1.6837194739067325
2025-03-17 13:11:13.879,0.0023342457893103744,-1.818716623189891
2025-03-17 13:11:13.898,0.0027086392240285996,-2.026286494718155
2025-03-17 13:11:13.918,0.003062479951840401,-2.3471434036342074
2025-03-17 13:11:13.938,0.0033872739153809096,-2.795982038806818
2025-03-17 13:11:13.957,0.00367965623449381,-3.3496084148843708
2025-03-17 13:11:13.977,0.003941611903777527,-3.9413972192739353
2025-03-17 13:11:13.996,0.004179582473319359,-4.46460074179339
2025-03-17 13:11:14.016,0.004402552553749527,-4.785587646238107
2025-03-17 13:11:14.035,0.0046195297063195764,-4.766115744942215
2025-03-17 13:11:14.055,0.004837152670150048,-4.291524260488379
2025-03-17 13:11:14.074,0.0050581977582334426,-3.299704638488139
2025-03-17 13:11:14.094,0.005281392790895843,-1.8044417174161582
2025-03-17 13:11:14.113,0.005502398497388439,0.09322302382593221
2025-03-17 13:11:14.133,0.005715421926064363,2.210222830324212
2025-03-17 13:11:14.152,0.005914875619191054,4.304609322774248
2025-03-17 13:11:14.172,0.006096665759196856,6.113709369634305
2025-03-17 13:11:14.191,0.006258825158822118,7.4003401324516975
2025-03-17 13:11:14.211,0.00640126842696769,7.997429173464319
2025-03-17 13:11:14.230,0.006524630842610037,7.8409720002521315
2025-03-17 13:11:14.250,0.006628537712447882,6.983448820725432
2025-03-17 13:11:14.270,0.006710027771683993,5.584169914031825
2025-03-17 13:11:14.289,0.00676289538937075,3.878406416349226
2025-03-17 13:11:14.309,0.00677827898587349,2.1321377963874433
2025-03-17 13:11:14.328,0.006746158372962631,0.5924753232160351
2025-03-17 13:11:14.348,0.00665703535287993,-0.5555159389469742
2025-03-17 13:11:14.367,0.006503233141930942,-1.2168545660409202
2025-03-17 13:11:14.387,0.006279718303938144,-1.39476093214479
2025-03-17 13:11:14.406,0.005984652263718371,-1.1788563993263481
2025-03-17 13:11:14.426,0.0056197995859663405,-0.7177638583052086
2025-03-17 13:11:14.445,0.005190628709390642,-0.18330662798677352
2025-03-17 13:11:14.465,0.004705781061461594,0.2655303635356091
2025-03-17 13:11:14.484,0.004175759045781423,0.5115952623223032
2025-03-17 13:11:14.504,0.0036110651394566863,0.4965147294875174
2025-03-17 13:11:14.523,0.003020289541188865,0.2235919111239166
2025-03-17 13:11:14.543,0.002408615429664426,-0.2522996074910722
2025-03-17 13:11:14.563,0.0017770046701846055,-0.8442914202250907
2025-03-17 13:11:14.582,0.0011221858167451862,-1.4574916434215328
2025-03-17 13:11:14.602,0.0004375874197347625,-2.011884348713979
2025-03-17 13:11:14.621,-0.00028465129386296984,-2.4594148371658933
2025-03-17 13:11:14.641,-0.0010507799527787796,-2.79211104243999
2025-03-17 13:11:14.660,-0.0018624086293314013,-3.040133648743252
2025-03-17 13:11:14.680,-0.002714495952265856,-3.2606937851638818
2025-03-17 13:11:14.699,-0.0035952777475674646,-3.5204806064274576
2025-03-17 13:11:14.719,-0.004488267514687168,-3.875390071428397
2025-03-17 13:11:14.738,-0.005375552563073064,-4.351828565165741
2025-03-17 13:11:14.758,-0.006241125856209145,-4.9336318893423785
2025-03-17 13:11:14.777,-0.007073171543108024,-5.5577033352605305
2025-03-17 13:11:14.797,-0.007864818661965237,-6.119922254475206
2025-03-17 13:11:14.816,-0.008613391700688953,-6.4908900698912975
2025-03-17 13:11:14.836,-0.009318400135481002,-6.5389608676029
2025-03-17 13:11:14.856,-0.009978688963595156,-6.156161874554252
2025-03-17 13:11:14.875,-0.010589555120580676,-5.281529352989724
2025-03-17 13:11:14.895,-0.011140937491272445,-3.916502433985636
2025-03-17 13:11:14.914,-0.011617542590746134,-2.128529486227386
2025-03-17 13:11:14.934,-0.012000970965706563,-0.04172963540781893
2025-03-17 13:11:14.953,-0.012273051607715154,2.183361311515735
2025-03-17 13:11:14.973,-0.01241916441451154,4.376188520172386
2025-03-17 13:11:14.992,-0.01243050747620884,6.382497201993761
2025-03-17 13:11:15.012,-0.012304889528706621,8.084623954016928
2025-03-17 13:11:15.031,-0.012046290631294277,9.411691447306834
2025-03-17 13:11:15.051,-0.01166371670034563,10.3385404361614
2025-03-17 13:11:15.070,-0.011169711303530321,10.875305109558052
2025-03-17 13:11:15.090,-0.010578636273190082,11.05190400993568
2025-03-17 13:11:15.109,-0.00990485236503022,10.902725480241934
2025-03-17 13:11:15.129,-0.009161177313758926,10.456183717595074
2025-03-17 13:11:15.148,-0.008358107833278118,9.731835768675815
2025-03-17 13:11:15.168,-0.007504030917527368,8.745027565653906
2025-03-17 13:11:15.188,-0.006606198433334776,7.516457624298871
2025-03-17 13:11:15.207,-0.005671997326883399,6.082440645590652
2025-03-17 13:11:15.227,-0.004710162824434092,4.501512278853149
2025-03-17 13:11:15.246,-0.0037317811138038006,2.8543216236903777
2025-03-17 13:11:15.266,-0.002750905505039928,1.2360064327392377
2025-03-17 13:11:15.285,-0.0017844283587768414,-0.25733952075146777
2025-03-17 13:11:15.305,-0.0008508321695239734,-1.544678244381056
2025-03-17 13:11:15.324,3.22216424857962e-05,-2.57436699715239
2025-03-17 13:11:15.344,0.0008509642124991847,-3.333169923389468
2025-03-17 13:11:15.363,0.0015983530925620883,-3.8477615584718183
2025-03-17 13:11:15.383,0.0022757653561135543,-4.178501426637387
2025-03-17 13:11:15.402,0.0028929712915423387,-4.407111957660225
2025-03-17 13:11:15.422,0.003466237495521562,-4.621136651196915
2025-03-17 13:11:15.441,0.00401478839810769,-4.898430375718294
2025-03-17 13:11:15.461,0.004556178170575792,-5.29447151927815
2025-03-17 13:11:15.481,0.005101431643132435,-5.834260143686773
2025-03-17 13:11:15.500,0.005651079074893798,-6.509367800975623
2025-03-17 13:11:15.520,0.0061932689036041004,-7.279692842310462
2025-03-17 13:11:15.539,0.006704770321107525,-8.078869893541826
2025-03-17 13:11:15.559,0.007154855342007102,-8.82213302248007
2025-03-17 13:11:15.578,0.007511110514671715,-9.41563800892022
2025-03-17 13:11:15.598,0.007745631004236292,-9.76659671512014
2025-03-17 13:11:15.617,0.00784002561074323,-9.793808158297516
2025-03-17 13:11:15.637,0.007788122494297242,-9.438089361273805
2025-03-17 13:11:15.656,0.007595975784658027,-8.671682706065253
2025-03-17 13:11:15.676,0.007279492321228088,-7.505134036914796
2025-03-17 13:11:15.695,0.00686052254498696,-5.989763909553832
2025-03-17 13:11:15.715,0.0063624901124861195,-4.21407743536741
2025-03-17 13:11:15.734,0.005806608703427704,-2.2934585303690818
2025-03-17 13:11:15.754,0.005209517048162598,-0.35410384403695927
2025-03-17 13:11:15.774,0.004582749976717709,1.4861209479974207
2025-03-17 13:11:15.793,0.0039338741440292264,3.1359885362026505
2025-03-17 13:11:15.813,0.0032685478956437815,4.544210376730102
2025-03-17 13:11:15.832,0.0025925372915722006,5.704436050690174
2025-03-17 13:11:15.852,0.0019129998873687283,6.6504653947093235
2025-03-17 13:11:15.871,0.0012389280833541032,7.442457003055596
2025-03-17 13:11:15.891,0.0005810856216723529,8.147077728924998
2025-03-17 13:11:15.910,-4.822618805219189e-05,8.816072272446108
2025-03-17 13:11:15.930,-0.0006355681811892613,9.468276813216093
2025-03-17 13:11:15.949,-0.0011671770215412516,10.079509331235377
2025-03-17 13:11:15.969,-0.001630333022371189,10.583139931094392
2025-03-17 13:11:15.988,-0.002015103737015291,10.881800473507283
2025-03-17 13:11:16.008,-0.0023160544417379528,10.8681199375234
2025-03-17 13:11:16.027,-0.0025334434161602497,10.450137780155114
2025-03-17 13:11:16.047,-0.002673439881640505,9.575703013527814
2025-03-17 13:11:16.066,-0.0027470517815347604,8.250111846643833
2025-03-17 13:11:16.086,-0.002767786812111619,6.542576771860797
2025-03-17 13:11:16.106,-0.0027485286876573795,4.579586154114394
2025-03-17 13:11:16.125,-0.0026985432389866515,2.5262069121621606
2025-03-17 13:11:16.145,-0.0026217249129664427,0.5591408318173111
2025-03-17 13:11:16.164,-0.002516893454358793,-1.162828867316628
2025-03-17 13:11:16.184,-0.002380088107935789,-2.524893817491438
2025-03-17 13:11:16.203,-0.0022077688595807565,-3.4736062495299804
2025-03-17 13:11:16.223,-0.001999286738494759,-4.022450624880825
2025-03-17 13:11:16.242,-0.001757360663467528,-4.245038193443235
2025-03-17 13:11:16.262,-0.0014864204044094263,-4.257872430884393
2025-03-17 13:11:16.281,-0.0011898407531840418,-4.196532089736827
2025-03-17 13:11:16.301,-0.0008675859317293985,-4.190052261491497
2025-03-17 13:11:16.320,-0.0005154134921200633,-4.338155981654125
2025-03-17 13:11:16.340,-0.00012592955320855472,-4.69497165570706
2025-03-17 13:11:16.359,0.0003090270356949084,-5.261335263755663
2025-03-17 13:11:16.379,0.0007956362701177919,-5.986144622666581
2025-03-17 13:11:16.399,0.0013359425381298845,-6.775835058219086
2025-03-17 13:11:16.418,0.0019269052530925548,-7.510043327576437
2025-03-17 13:11:16.438,0.0025608061213467717,-8.060928495762248
2025-03-17 13:11:16.457,0.0032267840509500553,-8.313342177103829
2025-03-17 13:11:16.477,0.003912979046475212,-8.182989163044537
2025-03-17 13:11:16.496,0.004608548429999618,-7.629863568164268
2025-03-17 13:11:16.516,0.005304839916883825,-6.664672899161385
2025-03-17 13:11:16.535,0.0059954226558154204,-5.3468305339008
2025-03-17 13:11:16.555,0.0066752848576672906,-3.773982724172031
2025-03-17 13:11:16.574,0.007339872379035319,-2.064783569683388
2025-03-17 13:11:16.594,0.007984554841567536,-0.33832528231311954
2025-03-17 13:11:16.613,0.008604725811258786,1.3052778975817372
2025-03-17 13:11:16.633,0.009196372977048369,2.798637172034626
2025-03-17 13:11:16.652,0.009756756793165846,4.111889668500952
2025-03-17 13:11:16.672,0.010284794822714152,5.247522173075742
2025-03-17 13:11:16.692,0.010780830247411494,6.22683633061489
2025-03-17 13:11:16.711,0.011245670036247225,7.071957122651501
2025-03-17 13:11:16.731,0.011679064986429046,7.788558547406916
2025-03-17 13:11:16.750,0.012078088893535057,8.354391668015527
2025-03-17 13:11:16.770,0.012436044272955605,8.71725629373034
2025-03-17 13:11:16.789,0.01274239019172656,8.80359325019552
2025-03-17 13:11:16.809,0.012983711373736035,8.535985102643867
2025-03-17 13:11:16.828,0.013145247296851247,7.855289114716914
2025-03-17 13:11:16.848,0.013212365396745768,6.741621561827619
2025-03-17 13:11:16.867,0.01317162373898704,5.228456615751508
2025-03-17 13:11:16.887,0.013011440674639378,3.405735829397679
2025-03-17 13:11:16.906,0.012722595810927223,1.4106490184582752
2025-03-17 13:11:16.926,0.012298722311934655,-0.592147993643504
2025-03-17 13:11:16.945,0.01173669130596947,-2.436517930886254
2025-03-17 13:11:16.965,0.011036582518293848,-3.981240036490665
2025-03-17 13:11:16.984,0.010201040150924516,-5.13109318162504
2025-03-17 13:11:17.004,0.009234179986471979,-5.848375551252386
2025-03-17 13:11:17.024,0.008140454242547114,-6.153073987503609
2025-03-17 13:11:17.043,0.006923746084888657,-6.112647740833098
2025-03-17 13:11:17.063,0.005586684362866865,-5.824681960516028
2025-03-17 13:11:17.082,0.004130107245540123,-5.396912585042877
2025-03-17 13:11:17.102,0.0025527858865206647,-4.929091892085323
2025-03-17 13:11:17.121,0.0008516714300055625,-4.500021483446887
2025-03-17 13:11:17.141,-0.0009771550025247928,-4.161296200088258
2025-03-17 13:11:17.160,-0.0029368996866087882,-3.937447322537033
2025-03-17 13:11:17.180,-0.005028096524043281,-3.830724123201188
2025-03-17 13:11:17.199,-0.007246541268309788,-3.827992498484668
2025-03-17 13:11:17.219,-0.009581371571891534,-3.9072336586921286
2025-03-17 13:11:17.238,-0.012013630121032313,-4.041794561448974
2025-03-17 13:11:17.258,-0.014515751173419966,-4.201643414493994
2025-03-17 13:11:17.277,-0.017052326104375914,-4.35211106887005
2025-03-17 13:11:17.297,-0.019582157515092062,-4.451627202764378
2025-03-17 13:11:17.317,-0.02206113878650053,-4.450492663357237
2025-03-17 13:11:17.336,-0.02444515143680664,-4.292560295657715
2025-03-17 13:11:17.356,-0.026692187054187202,-3.9208028133676605
2025-03-17 13:11:17.375,-0.028763309933203855,-3.2863607195915367
2025-03-17 13:11:17.395,-0.0306226434242721,-2.3592501175507867
2025-03-17 13:11:17.414,-0.032236946107893225,-1.1380097738747939
2025-03-17 13:11:17.434,-0.033575378724197275,0.3444398842320645
2025-03-17 13:11:17.453,-0.034609835826605165,2.020537639794164
2025-03-17 13:11:17.473,-0.035315909624358294,3.79374481712336
2025-03-17 13:11:17.492,-0.03567429021882127,5.548949839548673
2025-03-17 13:11:17.512,-0.03567221172183768,7.165431810442401
2025-03-17 13:11:17.531,-0.03530442249417048,8.529970226991935
2025-03-17 13:11:17.551,-0.03457315388907372,9.548163370458068
2025-03-17 13:11:17.570,-0.03348681507265648,10.15287355508591
2025-03-17 13:11:17.590,-0.03205768565182919,10.309538294143424
2025-03-17 13:11:17.609,-0.03029947958946078,10.018555825618659
2025-03-17 13:11:17.629,-0.02822588452404866,9.314985171608768
2025-03-17 13:11:17.649,-0.025850775148138275,8.265563917068247
2025-03-17 13:11:17.668,-0.02318996701289456,6.96285398202364
2025-03-17 13:11:17.688,-0.020263671660591162,5.51644043851936
2025-03-17 13:11:17.707,-0.01709863557932929,4.041594244018381
2025-03-17 13:11:17.727,-0.013729243254682949,2.6465112573897853
2025-03-17 13:11:17.746,-0.010197331650726544,1.4198806022101382
2025-03-17 13:11:17.766,-0.006550846900349612,0.42084602647476566
2025-03-17 13:11:17.785,-0.0028416825199199204,-0.32675794114092716
2025-03-17 13:11:17.805,0.0008768812889000275,-0.8346875969370465
2025-03-17 13:11:17.824,0.004552680838176962,-1.1448965952604033
2025-03-17 13:11:17.844,0.00813666453398626,-1.319395840989899
2025-03-17 13:11:17.863,0.011584070997071495,-1.4272760885463103
2025-03-17 13:11:17.883,0.01485478742852052,-1.5314124910616085
2025-03-17 13:11:17.902,0.017913205127579903,-1.6774360275796112
2025-03-17 13:11:17.922,0.020728004496931254,-1.8870382599217268
2025-03-17 13:11:17.942,0.023272189952734758,-2.156705039519199
2025-03-17 13:11:17.961,0.025523484445399938,-2.4618024355033756
2025-03-17 13:11:17.981,0.027464945072186366,-2.764841419840151
2025-03-17 13:11:18.000,0.029085425189130158,-3.025962398114729
2025-03-17 13:11:18.020,0.03037948228641133,-3.2133512623931084
2025-03-17 13:11:18.039,0.0313466530716953,-3.3114387690684506
2025-03-17 13:11:18.059,0.03199045894951827,-3.3252403952929854
2025-03-17 13:11:18.078,0.0323176489318291,-3.2799229537587036
2025-03-17 13:11:18.098,0.0323379061775143,-3.2155316393087907
2025-03-17 13:11:18.117,0.032063833202628914,-3.1777028134549865
2025-03-17 13:11:18.137,0.03151086536135519,-3.2060257909095298
2025-03-17 13:11:18.156,0.030696925763869492,-3.3223500041971925
2025-03-17 13:11:18.176,0.029641895480535984,-3.5215895657577563
2025-03-17 13:11:18.195,0.028367107408158326,-3.767331034857747
2025-03-17 13:11:18.215,0.02689513059381226,-3.993788882857617
2025-03-17 13:11:18.235,0.02525022351180877,-4.114494171733951
2025-03-17 13:11:18.254,0.02345983217522544,-4.036759560125051
2025-03-17 13:11:18.274,0.021557072997217017,-3.679688913498228
2025-03-17 13:11:18.293,0.0195833524815802,-2.9925360426757233
2025-03-17 13:11:18.313,0.017589676301756847,-1.9697813190755142
2025-03-17 13:11:18.332,0.015635234424255465,-0.6595489034059697
2025-03-17 13:11:18.352,0.013782522760092295,0.8370248140847181
2025-03-17 13:11:18.371,0.012089303434491683,2.3762740043588564
2025-03-17 13:11:18.391,0.010598772241350614,3.7912600937936314
2025-03-17 13:11:18.410,0.009330061701119281,4.916936654457358
2025-03-17 13:11:18.430,0.00827148181352693,5.6170055584225995
2025-03-17 13:11:18.449,0.007378715753912224,5.807585066172217
2025-03-17 13:11:18.469,0.006579539925542878,5.473009690387183
2025-03-17 13:11:18.488,0.00578531670121589,4.670239895367064
2025-03-17 13:11:18.508,0.0049074598420645035,3.520420598504001
2025-03-17 13:11:18.527,0.0038749667936765282,2.188768731656495
2025-03-17 13:11:18.547,0.0026482077020314196,0.8565841142525046
2025-03-17 13:11:18.567,0.0012252603109863586,-0.30897947269147286
2025-03-17 13:11:18.586,-0.00036033055692631243,-1.1812734776003988
2025-03-17 13:11:18.606,-0.002048819310476829,-1.6916044810939428
2025-03-17 13:11:18.625,-0.0037673827627105485,-1.8349885702686695
2025-03-17 13:11:18.645,-0.0054436405746372775,-1.6641292286743348
2025-03-17 13:11:18.664,-0.0070168032191092215,-1.2739244261313518
2025-03-17 13:11:18.684,-0.008444777129555927,-0.7803583240526888
2025-03-17 13:11:18.703,-0.009706619669524161,-0.2981801067973306
2025-03-17 13:11:18.723,-0.010800659693920658,0.07857483115323279
2025-03-17 13:11:18.742,-0.011739438891855853,0.2901671631621565
2025-03-17 13:11:18.762,-0.012543233889220896,0.3171641942143038
2025-03-17 13:11:18.781,-0.013233971231822872,0.17867980282275298
2025-03-17 13:11:18.801,-0.013830770149501423,-0.07604560213865642
2025-03-17 13:11:18.820,-0.014347488510566315,-0.3806651658226702
2025-03-17 13:11:18.840,-0.014791999037349141,-0.666772994938636
2025-03-17 13:11:18.860,-0.0151667058672627,-0.8783044310012944
2025-03-17 13:11:18.879,-0.015469833257992486,-0.9828604204641327
2025-03-17 13:11:18.899,-0.015696951235705078,-0.9780673497934705
2025-03-17 13:11:18.918,-0.015842003136798583,-0.8918751489302064
2025-03-17 13:11:18.938,-0.015897126929379998,-0.7766735701094245
2025-03-17 13:11:18.957,-0.01585120726239867,-0.6981505486558198
2025-03-17 13:11:18.977,-0.015688211939076716,-0.7207548856890112
2025-03-17 13:11:18.996,-0.015387177743562979,-0.8922819802863168
2025-03-17 13:11:19.016,-0.014925457150917441,-1.2303701263395974
2025-03-17 13:11:19.035,-0.01428546688359528,-1.7135597109924954
2025-03-17 13:11:19.055,-0.01346334185288886,-2.2790429026214247
2025-03-17 13:11:19.074,-0.012476488982869363,-2.828313474280529
2025-03-17 13:11:19.094,-0.011366791285069951,-3.2406344089256702
2025-03-17 13:11:19.113,-0.010197384654373786,-3.3927051932021293
2025-03-17 13:11:19.133,-0.009043089557788707,-3.1814133054012075
2025-03-17 13:11:19.153,-0.007976819845295049,-2.5454829039350724
2025-03-17 13:11:19.172,-0.007055714020164683,-1.4815690374781527
2025-03-17 13:11:19.192,-0.006310832189696243,-0.05111584338885009
2025-03-17 13:11:19.211,-0.005743053067981104,1.6239633178147708
2025-03-17 13:11:19.231,-0.0053257950474712625,3.3764295542850093
2025-03-17 13:11:19.250,-0.005013148373150196,5.017117221903893
2025-03-17 13:11:19.270,-0.004750667802578752,6.362479733853927
2025-03-17 13:11:19.289,-0.004485840647601962,7.261603516111799
2025-03-17 13:11:19.309,-0.004176030264840421,7.618336672432892
2025-03-17 13:11:19.328,-0.00379297101347675,7.405114775682346
2025-03-17 13:11:19.348,-0.003324002575212702,6.666345861208393
2025-03-17 13:11:19.367,-0.0027707898847875,5.51071858875538
2025-03-17 13:11:19.387,-0.00214632779073117,4.0934790654354485
2025-03-17 13:11:19.406,-0.0014709114514146306,2.5914524569702246
2025-03-17 13:11:19.426,-0.0007677341488663461,1.175052862099615
2025-03-17 13:11:19.445,-5.883812833580701e-05,-0.017693075803460107
2025-03-17 13:11:19.465,0.000637892557287676,-0.900326350525569
2025-03-17 13:11:19.485,0.001310262254339935,-1.4468934081811708
2025-03-17 13:11:19.504,0.001951823651331534,-1.6893519974166191
2025-03-17 13:11:19.524,0.002560947086420575,-1.7046040272027831
2025-03-17 13:11:19.543,0.003139616594152133,-1.594449789767917
2025-03-17 13:11:19.563,0.0036924464604364787,-1.463073808615311
2025-03-17 13:11:19.582,0.004225851079209564,-1.3968860476659517
2025-03-17 13:11:19.602,0.0047469176063910075,-1.4506557269920304
2025-03-17 13:11:19.621,0.005261734897966394,-1.6421661112341945
2025-03-17 13:11:19.641,0.005773536590518467,-1.9555497483258972
2025-03-17 13:11:19.660,0.006281414595809897,-2.3515388874075644
2025-03-17 13:11:19.680,0.0067801758945112605,-2.781499521411509
2025-03-17 13:11:19.699,0.007261366020434597,-3.201557192489901
2025-03-17 13:11:19.719,0.007715062516945884,-3.5834197355189055
2025-03-17 13:11:19.738,0.008131952797091972,-3.919519395121327
2025-03-17 13:11:19.758,0.008505252337342332,-4.221559457252053
2025-03-17 13:11:19.778,0.008832000442600968,-4.513124758657618
2025-03-17 13:11:19.797,0.009113280171559065,-4.818377465480633
2025-03-17 13:11:19.817,0.009353144973406217,-5.149744853191782
2025-03-17 13:11:19.836,0.009556533877954064,-5.497750415064539
2025-03-17 13:11:19.856,0.009726966200346,-5.825707219231217
2025-03-17 13:11:19.875,0.009864921494191757,-6.070971598399608
2025-03-17 13:11:19.895,0.009967383029936978,-6.153036644004381
2025-03-17 13:11:19.914,0.010028387562965169,-5.987197256618007
2025-03-17 13:11:19.934,0.010040086515616097,-5.501155206448106
2025-03-17 13:11:19.953,0.009993950083404368,-4.651061642452534
2025-03-17 13:11:19.973,0.009882032005550436,-3.433364096127645
2025-03-17 13:11:19.992,0.00969827233795634,-1.8895665946362215
2025-03-17 13:11:20.012,0.009439620239118676,-0.10255736584360278
2025-03-17 13:11:20.031,0.009106617657055815,1.8148308853406314
2025-03-17 13:11:20.051,0.008703232216817,3.736457719280228
2025-03-17 13:11:20.070,0.008236036593029973,5.54093285721826
2025-03-17 13:11:20.090,0.007713003604013033,7.127178657919717
2025-03-17 13:11:20.110,0.007142143941257659,8.424501505642462
2025-03-17 13:11:20.129,0.006530130760831754,9.395821932922269
2025-03-17 13:11:20.149,0.0058810647210049746,10.03455382156392
2025-03-17 13:11:20.168,0.0051956101081917635,10.357114188644196
2025-03-17 13:11:20.188,0.004470784693902602,10.393798304131947
2025-03-17 13:11:20.207,0.0037006025963695296,10.180645034174084
2025-03-17 13:11:20.227,0.002877507556952364,9.754083671103373
2025-03-17 13:11:20.246,0.0019942262304772683,9.148921284326615
2025-03-17 13:11:20.266,0.0010455386888513364,8.399009783461835
2025-03-17 13:11:20.285,2.960695507205971e-05,7.53911146441218
2025-03-17 13:11:20.305,-0.001051191682228031,6.606297314295287
2025-03-17 13:11:20.324,-0.0021897689611291645,5.639655595012574
2025-03-17 13:11:20.344,-0.0033740846545302363,4.6779205153116585
2025-03-17 13:11:20.363,-0.004587348899886775,3.7555080169168353
2025-03-17 13:11:20.383,-0.005809019293994304,2.8980687011021153
2025-03-17 13:11:20.403,-0.007016781613019704,2.118871897797048
2025-03-17 13:11:20.422,-0.008189281137164115,1.4171008650863521
2025-03-17 13:11:20.442,-0.00930895910071992,0.7785668139833202
2025-03-17 13:11:20.461,-0.010364180599829242,0.17862684978929025
2025-03-17 13:11:20.481,-0.011349959853430831,-0.4135425292366088
2025-03-17 13:11:20.500,-0.012266921968028028,-1.0304790150623504
2025-03-17 13:11:20.520,-0.013118625828291168,-1.7027925316428365
2025-03-17 13:11:20.539,-0.01390792579430308,-2.4567837450856493
2025-03-17 13:11:20.559,-0.014633492001654114,-3.312963415643461
2025-03-17 13:11:20.578,-0.015287730010886479,-4.284474910870763
2025-03-17 13:11:20.598,-0.015856992402056288,-5.374310592817271
2025-03-17 13:11:20.617,-0.01632415251817703,-6.570791853757466
2025-03-17 13:11:20.637,-0.016672583834235845,-7.8418869490345875
2025-03-17 13:11:20.656,-0.0168898870809482,-9.13012543487368
2025-03-17 13:11:20.676,-0.016969761332496926,-10.350610396846777
2025-03-17 13:11:20.696,-0.016911192432617708,-11.394552969504511
2025-03-17 13:11:20.715,-0.016715217335382233,-12.139747414437418
2025-03-17 13:11:20.735,-0.016380475182396763,-12.46763186680033
2025-03-17 13:11:20.754,-0.015899288914748722,-12.284445244962637
2025-03-17 13:11:20.774,-0.015255975168243528,-11.542105170349018
2025-03-17 13:11:20.793,-0.014428420553127123,-10.25349382333447
2025-03-17 13:11:20.813,-0.013392837798754139,-8.497389059266041
2025-03-17 13:11:20.832,-0.012130396364195549,-6.410414563444737
2025-03-17 13:11:20.852,-0.010633641884245237,-4.166619536071659
2025-03-17 13:11:20.871,-0.008910697850437374,-1.9486850648280134
2025-03-17 13:11:20.891,-0.006986145390133105,0.08278238086681455
2025-03-17 13:11:20.910,-0.004898691825895928,1.8146644416796198
2025-03-17 13:11:20.930,-0.0026966559431570334,3.195464161495666
2025-03-17 13:11:20.949,-0.0004326073051298694,4.235018997639992
2025-03-17 13:11:20.969,0.001841711728363552,4.990360665465126
2025-03-17 13:11:20.988,0.004079465410911042,5.541871140451388
2025-03-17 13:11:21.008,0.006241429035263634,5.966368584856185
2025-03-17 13:11:21.028,0.00829715282029703,6.314430159287613
2025-03-17 13:11:21.047,0.010224638557652174,6.59789332563632
2025-03-17 13:11:21.067,0.012008892060577554,6.79044377135273
2025-03-17 13:11:21.086,0.013639981427806095,6.840385341759327
2025-03-17 13:11:21.106,0.015111248646706923,6.691236108273797
2025-03-17 13:11:21.125,0.016418046274027254,6.303729745527921
2025-03-17 13:11:21.145,0.01755696733616414,5.672696105698333
2025-03-17 13:11:21.164,0.018525263740429256,4.834092837839952
2025-03-17 13:11:21.184,0.01932019595595148,3.8605180659243894
2025-03-17 13:11:21.203,0.0199383808281842,2.846863532838948
2025-03-17 13:11:21.223,0.02037550794769008,1.890372968963851
2025-03-17 13:11:21.242,0.020626784892342917,1.0705666121164057
2025-03-17 13:11:21.262,0.02068814424899409,0.43409081480011275
2025-03-17 13:11:21.281,0.020557850934300764,-0.012150158619979408
2025-03-17 13:11:21.301,0.02023795318818035,-0.298616374682191
2025-03-17 13:11:21.321,0.019735138766443054,-0.48293968995362996
2025-03-17 13:11:21.340,0.01906087035352556,-0.6351468145347091
2025-03-17 13:11:21.360,0.018230898417044054,-0.8223327907162254
2025-03-17 13:11:21.379,0.017264226617792203,-1.0964957432144393
2025-03-17 13:11:21.399,0.016181501499461456,-1.4879499711382835
2025-03-17 13:11:21.418,0.015002904416234624,-2.0048828469515176
2025-03-17 13:11:21.438,0.01374596530814625,-2.637766347513811
2025-03-17 13:11:21.457,0.012423988712640293,-3.3660151004623144
2025-03-17 13:11:21.477,0.01104566700555217,-4.163866518743907
2025-03-17 13:11:21.496,0.009615950370577575,-5.003042249916627
2025-03-17 13:11:21.516,0.008137688877145275,-5.851147188861818
2025-03-17 13:11:21.535,0.006613375484720532,-6.666561620515399
2025-03-17 13:11:21.555,0.005046583963635522,-7.39224752787897
2025-03-17 13:11:21.574,0.003443060881968905,-7.951870940333165
2025-03-17 13:11:21.594,0.0018115224380169776,-8.251507791278254
2025-03-17 13:11:21.614,0.0001640450328276328,-8.188814551462114
2025-03-17 13:11:21.633,-0.0014841631761945912,-7.669206692092648
2025-03-17 13:11:21.653,-0.003115645208307284,-6.626018895580371
2025-03-17 13:11:21.672,-0.004711909249669992,-5.039740362124502
2025-03-17 13:11:21.692,-0.006254443003640802,-2.9509923214074827
2025-03-17 13:11:21.711,-0.007725211052579716,-0.46322193928899197
2025-03-17 13:11:21.731,-0.009106849841600465,2.266246915742282
2025-03-17 13:11:21.750,-0.01038315654163615,5.045061038710284
2025-03-17 13:11:21.770,-0.01154028956430688,7.670386509622886
2025-03-17 13:11:21.789,-0.012568468546897102,9.953948014671958
2025-03-17 13:11:21.809,-0.013463437020999263,11.742939309489305
2025-03-17 13:11:21.828,-0.014226960755956494,12.933931407730256
2025-03-17 13:11:21.848,-0.014866069592302755,13.479013714343306
2025-03-17 13:11:21.867,-0.015391176369391826,13.385107667131324
2025-03-17 13:11:21.887,-0.01581338632557731,12.708243131308212
2025-03-17 13:11:21.906,-0.01614138380599637,11.544569053138346
2025-03-17 13:11:21.926,-0.016378455911724925,10.019325458221884
2025-03-17 13:11:21.946,-0.016520443156138105,8.274423875997519
2025-03-17 13:11:21.965,-0.016555448658201122,6.455054321457988
2025-03-17 13:11:21.985,-0.016465771905525988,4.695971707689026
2025-03-17 13:11:22.004,-0.016231786957006868,3.108631422536594
2025-03-17 13:11:22.024,-0.01583672121978183,1.7707892478023184
2025-03-17 13:11:22.043,-0.015270979234734852,0.7202233060865162
2025-03-17 13:11:22.063,-0.014534939554394565,-0.0462628345780554
2025-03-17 13:11:22.082,-0.013639748326977414,-0.5683154364374972
2025-03-17 13:11:22.102,-0.012606174604379048,-0.9127762145710602
2025-03-17 13:11:22.121,-0.011461938229162813,-1.1613103223594619
2025-03-17 13:11:22.141,-0.01023813788216626,-1.396942002177189
2025-03-17 13:11:22.160,-0.008965575256213174,-1.6915150497348992
2025-03-17 13:11:22.180,-0.007671829987801874,-2.0957688135217687
2025-03-17 13:11:22.199,-0.006379724304273063,-2.6332021720083385
2025-03-17 13:11:22.219,-0.005107294576912366,-3.298291916918529
2025-03-17 13:11:22.239,-0.0038688004539666784,-4.059027580243736
2025-03-17 13:11:22.258,-0.0026759916139399748,-4.863201517036741
2025-03-17 13:11:22.278,-0.0015389799488220288,-5.6474980683663
2025-03-17 13:11:22.297,-0.00046650519452428305,-6.348156910437989
2025-03-17 13:11:22.317,0.0005342002580146404,-6.911811254868097
2025-03-17 13:11:22.336,0.0014576475748911068,-7.304997695236243
2025-03-17 13:11:22.356,0.0023003462386423416,-7.520812656814761
2025-03-17 13:11:22.375,0.0030612093426400926,-7.5813016008006615
2025-03-17 13:11:22.395,0.003742200389411207,-7.534489135627332
2025-03-17 13:11:22.414,0.004349099767671164,-7.445573337958207
2025-03-17 13:11:22.434,0.004892134445877408,-7.382765393764908
2025-03-17 13:11:22.453,0.0053862102080822665,-7.399507651880025
2025-03-17 13:11:22.473,0.005850442568984005,-7.516137221251053
2025-03-17 13:11:22.492,0.0063065574203975145,-7.705105396846782
2025-03-17 13:11:22.512,0.0067757705249539505,-7.884180960730628
2025-03-17 13:11:22.531,0.007274196405292102,-7.921308523968523
2025-03-17 13:11:22.551,0.007807605003680753,-7.652834791742304
2025-03-17 13:11:22.571,0.008367079528803206,-6.913855232735164
2025-03-17 13:11:22.590,0.008927392948485057,-5.576038291098978
2025-03-17 13:11:22.610,0.009449389041437573,-3.5853252668097797
2025-03-17 13:11:22.629,0.009886351340765412,-0.990363448019204
2025-03-17 13:11:22.649,0.010192786337377645,2.0468026063975886
2025-03-17 13:11:22.668,0.01033303592303828,5.2631209181187195
2025-03-17 13:11:22.688,0.010287236290424022,8.330232254642786
2025-03-17 13:11:22.707,0.010053261215660601,10.907850591695603
2025-03-17 13:11:22.727,0.009644752277374484,12.704227612242356
2025-03-17 13:11:22.746,0.00908645507090274,13.530572912517023
2025-03-17 13:11:22.766,0.008408589968447008,13.337101089754256
2025-03-17 13:11:22.785,0.007641998115835363,12.222410686830383
2025-03-17 13:11:22.805,0.006815444182736542,10.414081728284087
2025-03-17 13:11:22.824,0.005955702835554914,8.225002337603136
2025-03-17 13:11:22.844,0.005089955916572785,5.995246553836441
2025-03-17 13:11:22.864,0.004248980636979923,4.03205645600194
2025-03-17 13:11:22.883,0.003469168507205414,2.5601506803306298
2025-03-17 13:11:22.903,0.0027917787470022226,1.691510895694828
2025-03-17 13:11:22.922,0.002258728267099292,1.4189294053248842
2025-03-17 13:11:22.942,0.001905308243190388,1.632214627097788
2025-03-17 13:11:22.961,0.0017513292876810166,2.1513440852549555
2025-03-17 13:11:22.981,0.0017931418798405616,2.768025449779358
2025-03-17 13:11:23.000,0.001999336120530297,3.286536006937985
2025-03-17 13:11:23.020,0.002312270413017616,3.5561976354152085
2025-03-17 13:11:23.039,0.0026559142049480873,3.4907318074957088
2025-03-17 13:11:23.059,0.002948407273074726,3.0731093840474326
2025-03-17 13:11:23.078,0.003116141049249983,2.347523121948005
2025-03-17 13:11:23.098,0.003105767071658133,1.40222333747392
2025-03-17 13:11:23.117,0.0028914657533006885,0.3479603804463335
2025-03-17 13:11:23.137,0.0024765548850445023,-0.7032922884477202
2025-03-17 13:11:23.157,0.0018902083823084017,-1.6556179113187681
2025-03-17 13:11:23.176,0.0011809668952523365,-2.440262689023019
2025-03-17 13:11:23.196,0.00040871515350767834,-3.0201027543969845
2025-03-17 13:11:23.215,-0.00036368846057763514,-3.388447136368077
2025-03-17 13:11:23.235,-0.0010783711194708335,-3.5639969473934743
2025-03-17 13:11:23.254,-0.0016893595374586326,-3.583928950236733
2025-03-17 13:11:23.274,-0.0021677362091611463,-3.4966598481442315
2025-03-17 13:11:23.293,-0.0025042912115567978,-3.355171573460525
2025-03-17 13:11:23.313,-0.0027091463082666643,-3.211154713705552
2025-03-17 13:11:23.332,-0.002808347353031071,-3.109862260010359
2025-03-17 13:11:23.352,-0.0028380725297405757,-3.085497823081852
2025-03-17 13:11:23.371,-0.002837636519080047,-3.157114469204093
