Timestamp,GSR_Filtered,PPG_Filtered
2025-03-06 15:55:26.565,-0.00743849047238,-199.76079935036455
2025-03-06 15:55:26.573,0.0012783943650652,-195.63498259122937
2025-03-06 15:55:26.581,0.0099729347439952,-191.330557061176
2025-03-06 15:55:26.589,0.0186222882504727,-186.8488222345839
2025-03-06 15:55:26.597,0.0272023779895627,-182.19636026178543
2025-03-06 15:55:26.604,0.0356872416111127,-177.38522968331873
2025-03-06 15:55:26.612,0.0440484404518376,-172.43294124718722
2025-03-06 15:55:26.620,0.0522545634994678,-167.36221980813127
2025-03-06 15:55:26.628,0.0602708689715103,-162.20056444717477
2025-03-06 15:55:26.636,0.0680591119767073,-156.9796264594514
2025-03-06 15:55:26.643,0.0755776054763116,-151.73443141554225
2025-03-06 15:55:26.651,0.082781551094424,-146.5024768511093
2025-03-06 15:55:26.659,0.089623657171548,-141.32274109238762
2025-03-06 15:55:26.667,0.096055037590287,-136.23464116945058
2025-03-06 15:55:26.675,0.1020263610045558,-131.27697867232033
2025-03-06 15:55:26.682,0.1074891997543962,-126.48691180398002
2025-03-06 15:55:26.690,0.1123975126645047,-121.89898986904092
2025-03-06 15:55:26.698,0.1167091864613471,-117.54428313226686
2025-03-06 15:55:26.706,0.1203875564963115,-113.4496365363172
2025-03-06 15:55:26.714,0.1234028286310616,-109.63707035488326
2025-03-06 15:55:26.722,0.1257333305608926,-106.1233446772738
2025-03-06 15:55:26.729,0.1273665323958733,-102.91969790864104
2025-03-06 15:55:26.737,0.1282997919387859,-100.03176249027996
2025-03-06 15:55:26.745,0.128540797684882,-97.45965407789336
2025-03-06 15:55:26.753,0.1281076997382785,-95.19822374924608
2025-03-06 15:55:26.761,0.1270289338417867,-93.23745672759613
2025-03-06 15:55:26.768,0.1253427557553718,-91.56299586640478
2025-03-06 15:55:26.776,0.1230965122414803,-90.15676397351108
2025-03-06 15:55:26.784,0.1203456812582371,-88.99765614194709
2025-03-06 15:55:26.792,0.1171527181005275,-88.0622717253512
2025-03-06 15:55:26.800,0.1135857466501668,-87.32565550700781
2025-03-06 15:55:26.807,0.109717135980977,-86.76201894436299
2025-03-06 15:55:26.815,0.1056220024973656,-86.34541502389612
2025-03-06 15:55:26.823,0.1013766765843287,-86.05034405487385
2025-03-06 15:55:26.831,0.0970571704299514,-85.85227242340551
2025-03-06 15:55:26.839,0.0927376804287009,-85.72805163907316
2025-03-06 15:55:26.847,0.0884891537608476,-85.65623063530707
2025-03-06 15:55:26.854,0.0843779448396818,-85.61725993093025
2025-03-06 15:55:26.862,0.0804645837309735,-85.59359163786544
2025-03-06 15:55:26.870,0.0768026756100519,-85.56968415264632
2025-03-06 15:55:26.878,0.0734379478843988,-85.53192448327663
2025-03-06 15:55:26.886,0.0704074597272684,-85.4684843724859
2025-03-06 15:55:26.893,0.0677389873446639,-85.36912856661299
2025-03-06 15:55:26.901,0.0654505971734062,-85.22499467977984
2025-03-06 15:55:26.909,0.0635504181478985,-85.0283641040353
2025-03-06 15:55:26.917,0.0620366228919985,-84.77244236332608
2025-03-06 15:55:26.925,0.0608976258568469,-84.45116530232421
2025-03-06 15:55:26.933,0.0601125036636972,-84.05904468528354
2025-03-06 15:55:26.940,0.059651638898436,-83.59106333294886
2025-03-06 15:55:26.948,0.0594775831804526,-83.04262604684352
2025-03-06 15:55:26.956,0.0595461285249844,-82.40956847345375
2025-03-06 15:55:26.964,0.0598075680183611,-82.03855911088196
2025-03-06 15:55:26.972,0.0602081179633911,-81.30488682681488
2025-03-06 15:55:26.979,0.0606914644682468,-80.2038862109286
2025-03-06 15:55:26.987,0.0612003887195858,-78.73345479993583
2025-03-06 15:55:26.995,0.0616784178432461,-76.89441812712677
2025-03-06 15:55:27.003,0.0620714432889943,-74.69091969319794
2025-03-06 15:55:27.011,0.0623292469043021,-72.13080485428381
2025-03-06 15:55:27.018,0.0624068767880553,-69.225965045555
2025-03-06 15:55:27.026,0.0622658207283806,-65.99260871522216
2025-03-06 15:55:27.034,0.061874934244462,-62.45142782223249
2025-03-06 15:55:27.042,0.0612110923689128,-58.62763352772393
2025-03-06 15:55:27.050,0.0602595483612872,-54.55084139508067
2025-03-06 15:55:27.058,0.0590139972119305,-50.25479450249541
2025-03-06 15:55:27.065,0.0574763556726157,-45.77692179976398
2025-03-06 15:55:27.073,0.0556562825438707,-41.1577382264592
2025-03-06 15:55:27.081,0.0535704724609856,-36.440101992723335
2025-03-06 15:55:27.089,0.0512417632656216,-31.668352497419
2025-03-06 15:55:27.097,0.0486981013039931,-26.887359182636384
2025-03-06 15:55:27.104,0.0459714108908908,-22.141516851144164
2025-03-06 15:55:27.112,0.043096414037377,-17.47372636636653
2025-03-06 15:55:27.120,0.0401094446862634,-12.92440109167243
2025-03-06 15:55:27.128,0.0370472984241629,-8.530538895998143
2025-03-06 15:55:27.136,0.0339461541738247,-4.324897140822433
2025-03-06 15:55:27.143,0.0308405989065081,-0.335303934723543
2025-03-06 15:55:27.151,0.0277627801647447,3.415866672475985
2025-03-06 15:55:27.159,0.0247417044461464,6.912034699943899
2025-03-06 15:55:27.167,0.0218026926316753,10.14255628819626
2025-03-06 15:55:27.175,0.0189669969980256,13.1026628528487
2025-03-06 15:55:27.183,0.0162515782143813,15.793200791639494
2025-03-06 15:55:27.190,0.0136690352963407,18.22018341685074
2025-03-06 15:55:27.198,0.0112276769083016,20.394174513334235
2025-03-06 15:55:27.206,0.0089317187220761,22.329529861468373
2025-03-06 15:55:27.214,0.0067815887490774,24.04352893839088
2025-03-06 15:55:27.222,0.0047743206476795,25.555433569602677
2025-03-06 15:55:27.229,0.0029040139483673,26.88551333680839
2025-03-06 15:55:27.237,0.0011623399020499,28.05407890594823
2025-03-06 15:55:27.245,-0.000460927833157,29.08056404476692
2025-03-06 15:55:27.253,-0.001977377300813,29.98269495342496
2025-03-06 15:55:27.261,-0.0033994350965332,30.77578171154079
2025-03-06 15:55:27.268,-0.0047398717717309,31.472161300345583
2025-03-06 15:55:27.276,-0.0060113491291959,32.08081501085369
2025-03-06 15:55:27.284,-0.0072260200507267,32.60717538332263
2025-03-06 15:55:27.292,-0.0083951886669649,33.05312946794176
2025-03-06 15:55:27.300,-0.0095290357996658,33.41721649933561
2025-03-06 15:55:27.308,-0.0106364117917537,33.6950093928605
2025-03-06 15:55:27.315,-0.0117246962455846,33.87966115870883
2025-03-06 15:55:27.323,-0.0127997219522956,33.962589752804426
2025-03-06 15:55:27.331,-0.0138657584732743,33.93426839456253
2025-03-06 15:55:27.339,-0.014925549417585,33.78508330442835
2025-03-06 15:55:27.347,-0.0159803964209059,33.50621741748027
2025-03-06 15:55:27.354,-0.0170302821495102,33.09051710404865
2025-03-06 15:55:27.362,-0.0180740242890736,32.5332993729358
2025-03-06 15:55:27.370,-0.0191094523743954,31.833059450122697
2025-03-06 15:55:27.378,-0.0201335994106686,30.992042923836134
2025-03-06 15:55:27.386,-0.0211429004956741,30.016652642394728
2025-03-06 15:55:27.393,-0.0221333910938369,28.917667978148728
2025-03-06 15:55:27.401,-0.0231008982811686,27.710262593109864
2025-03-06 15:55:27.409,-0.0240412191721934,26.413816068593352
2025-03-06 15:55:27.417,-0.024950281781543,25.051524261989744
2025-03-06 15:55:27.425,-0.0258242846772262,23.649822578519448
2025-03-06 15:55:27.433,-0.0266598129057075,22.237645048062955
2025-03-06 15:55:27.440,-0.0274539287800165,20.84554975724364
2025-03-06 15:55:27.448,-0.0282042371600683,19.504747434074407
2025-03-06 15:55:27.456,-0.0289089257554597,18.246074516936982
2025-03-06 15:55:27.464,-0.0295667817276241,17.098954650591107
2025-03-06 15:55:27.472,-0.0301771864903717,16.090393123936554
2025-03-06 15:55:27.479,-0.0307400911420403,15.24404727435455
2025-03-06 15:55:27.487,-0.0312559754007315,14.57941239782036
2025-03-06 15:55:27.495,-0.0317257932018313,14.111157380864952
2025-03-06 15:55:27.503,-0.0321509082243584,13.84863736321217
2025-03-06 15:55:27.511,-0.0325330225774257,13.795602588701536
2025-03-06 15:55:27.518,-0.0328741017434426,13.950113612855432
2025-03-06 15:55:27.526,-0.0331762986336108,14.304663655414956
2025-03-06 15:55:27.534,-0.03344187926015,14.846499580911466
2025-03-06 15:55:27.542,-0.0336731521284715,15.558124218792823
2025-03-06 15:55:27.550,-0.03387240307842,16.41795492312933
2025-03-06 15:55:27.558,-0.0340418369734331,17.401106793430998
2025-03-06 15:55:27.565,-0.0341835273089439,18.480264138152723
2025-03-06 15:55:27.573,-0.0342993744545205,19.626600787319266
2025-03-06 15:55:27.581,-0.0343910728804422,20.810708882988784
2025-03-06 15:55:27.589,-0.0344600874020266,22.00349681944797
2025-03-06 15:55:27.597,-0.0345076382329904,23.177019975053472
2025-03-06 15:55:27.604,-0.0345346944614954,24.305212569141062
2025-03-06 15:55:27.612,-0.034541975426809,25.36449509252821
2025-03-06 15:55:27.620,-0.0345299593674027,26.334238931943403
2025-03-06 15:55:27.628,-0.0344988986262216,27.197077625205083
2025-03-06 15:55:27.636,-0.0344488406299859,27.939062213085432
2025-03-06 15:55:27.643,-0.0343796538005177,28.549665970006814
2025-03-06 15:55:27.651,-0.0342910575011454,29.021651005037
2025-03-06 15:55:27.659,-0.0341826550646988,29.35081548354737
2025-03-06 15:55:27.667,-0.0340539688869607,29.535645246805625
2025-03-06 15:55:27.675,-0.0339044764991512,29.576897190313243
2025-03-06 15:55:27.683,-0.0337336464649161,29.47714376938133
2025-03-06 15:55:27.690,-0.0335409729136551,29.240308384834684
2025-03-06 15:55:27.698,-0.0333260075683156,28.87122020014501
2025-03-06 15:55:27.706,-0.0330883882730802,28.375214269663505
2025-03-06 15:55:27.714,-0.0328278632478097,27.75779890010393
2025-03-06 15:55:27.722,-0.0325443105405493,27.02440716235318
2025-03-06 15:55:27.729,-0.0322377523791071,26.1802436959132
2025-03-06 15:55:27.737,-0.031908364322764,25.230231708664952
2025-03-06 15:55:27.745,-0.0315564792824457,24.179058690586785
2025-03-06 15:55:27.753,-0.031182586612662,23.03131315478997
2025-03-06 15:55:27.761,-0.0307873265833869,21.79169900493048
2025-03-06 15:55:27.768,-0.0303714806184375,20.46530919297578
2025-03-06 15:55:27.776,-0.0299359577435236,19.05793642932173
2025-03-06 15:55:27.784,-0.0294817777274188,17.576396048313317
2025-03-06 15:55:27.792,-0.0290100514310727,16.02883487194292
2025-03-06 15:55:27.800,-0.0285219589173859,14.425000143613843
2025-03-06 15:55:27.808,-0.0280187259448124,12.77644433854272
2025-03-06 15:55:27.815,-0.0275015995851625,11.09664483144734
2025-03-06 15:55:27.823,-0.0269718238376444,9.401021864372474
2025-03-06 15:55:27.831,-0.0264306161876625,7.706843777390121
2025-03-06 15:55:27.839,-0.0258791460328668,6.033014746130815
2025-03-06 15:55:27.847,-0.0253185157764307,4.39974696707355
2025-03-06 15:55:27.854,-0.024749745196799,2.82812596826443
2025-03-06 15:55:27.862,-0.0241737594725591,1.3395841161457611
2025-03-06 15:55:27.870,-0.0235913810208329,-0.0446969270403385
2025-03-06 15:55:27.878,-0.023003325162999,-1.3044293903559017
2025-03-06 15:55:27.886,-0.0224101995789,-2.420879468308435
2025-03-06 15:55:27.893,-0.0218125074906896,-3.377513662549258
2025-03-06 15:55:27.901,-0.0212106544611598,-4.160600513896769
2025-03-06 15:55:27.909,-0.0206049585879958,-4.759738225369891
2025-03-06 15:55:27.917,-0.0199956637582825,-5.16828163667468
2025-03-06 15:55:27.925,-0.0193829555193582,-5.383646410393863
2025-03-06 15:55:27.933,-0.0187669790128093,-5.407473902082004
2025-03-06 15:55:27.940,-0.0181478582887099,-5.245646706940888
2025-03-06 15:55:27.948,-0.0175257161719242,-4.908151944521113
2025-03-06 15:55:27.956,-0.0169006937283038,-4.408796569743316
2025-03-06 15:55:27.964,-0.0162729683241253,-3.7647859942318926
2025-03-06 15:55:27.972,-0.0156427693122114,-2.996183706056402
2025-03-06 15:55:27.979,-0.0150103904927877,-2.1252750737335777
2025-03-06 15:55:27.987,-0.0143761986461101,-1.1758628498432444
2025-03-06 15:55:27.995,-0.0137406376024846,-0.172524847258681
2025-03-06 15:55:28.003,-0.013104227503155,0.8601342895853612
2025-03-06 15:55:28.011,-0.0124675590859767,1.8982054132898647
2025-03-06 15:55:28.018,-0.0118312829734898,2.9191411537977463
2025-03-06 15:55:28.026,-0.0111960940705489,3.902339086037896
2025-03-06 15:55:28.034,-0.0105627113513307,4.829619044029943
2025-03-06 15:55:28.042,-0.0099318535573973,5.685577162074049
2025-03-06 15:55:28.050,-0.0093042116121406,6.457805267258975
2025-03-06 15:55:28.058,-0.0086804188299885,7.136970718967696
2025-03-06 15:55:28.065,-0.0080610202199451,7.716758390697088
2025-03-06 15:55:28.073,-0.0074464423431511,8.193682924782559
2025-03-06 15:55:28.081,-0.0068369652982018,8.566785385487162
2025-03-06 15:55:28.089,-0.0062326984819941,8.837233735444071
2025-03-06 15:55:28.097,-0.005633561780355,9.007850934882171
2025-03-06 15:55:28.104,-0.0050392737346646,9.08259771544592
2025-03-06 15:55:28.112,-0.0044493479876105,9.066039055789023
2025-03-06 15:55:28.120,-0.0038630989709007,8.96282398035092
2025-03-06 15:55:28.128,-0.0032796574356473,8.77720747251661
2025-03-06 15:55:28.136,-0.0026979960972973,8.512641065817002
2025-03-06 15:55:28.143,-0.0021169653685795,8.17145515077764
2025-03-06 15:55:28.151,-0.0015353388483827,7.754651370798055
2025-03-06 15:55:28.159,-0.0009518678967988,7.261817886196431
2025-03-06 15:55:28.167,-0.0003653442489158,6.691174008549947
2025-03-06 15:55:28.175,0.0002253308072796,6.039744027584148
2025-03-06 15:55:28.183,0.0008210726348006,5.303653271505333
2025-03-06 15:55:28.190,0.0014225372478808,4.478532867325905
2025-03-06 15:55:28.198,0.0020300459206677,3.560013604114013
2025-03-06 15:55:28.206,0.0026435134980221,2.5442840384973784
2025-03-06 15:55:28.214,0.003262383666706,1.4286837822156846
2025-03-06 15:55:28.222,0.0038855745189858,0.2123000038885283
2025-03-06 15:55:28.229,0.0045114377378774,-1.1034662560894863
2025-03-06 15:55:28.237,0.0051377346352604,-2.514397190432493
2025-03-06 15:55:28.245,0.0057616320336415,-4.013050154070629
2025-03-06 15:55:28.253,0.0063797205357308,-5.588472353771718
2025-03-06 15:55:28.261,0.0069880570254531,-7.226061230861618
2025-03-06 15:55:28.268,0.0075822323059347,-8.907587116515751
2025-03-06 15:55:28.276,0.0081574636835284,-10.61138730242808
2025-03-06 15:55:28.284,0.00870871113494,-12.312732490765915
2025-03-06 15:55:28.292,0.0092308145004866,-13.984358070444776
2025-03-06 15:55:28.300,0.009718647972985,-15.597144256856588
2025-03-06 15:55:28.308,0.0101672870442644,-17.12092128746665
2025-03-06 15:55:28.315,0.0105721820757913,-18.525369027090864
2025-03-06 15:55:28.323,0.0109293318282383,-19.78097489563629
2025-03-06 15:55:28.331,0.0112354496813405,-20.86001030302501
2025-03-06 15:55:28.339,0.0114881149811359,-21.73748398437549
2025-03-06 15:55:28.347,0.0116859020563824,-22.39203089481596
2025-03-06 15:55:28.354,0.0118284800001947,-22.806697657421868
2025-03-06 15:55:28.362,0.0119166772865524,-22.96958985141798
2025-03-06 15:55:28.370,0.0119525066075909,-22.874352457759773
2025-03-06 15:55:28.378,0.0119391469167309,-22.520462221863944
2025-03-06 15:55:28.386,0.0118808815074461,-21.91331914691744
2025-03-06 15:55:28.393,0.011782992988744,-21.06413334329591
2025-03-06 15:55:28.401,0.0116516181263599,-19.98961255644191
2025-03-06 15:55:28.409,0.0114935675643167,-18.711464411470413
2025-03-06 15:55:28.417,0.0113161173041507,-17.255735316201058
2025-03-06 15:55:28.425,0.0111267804103577,-15.652014679326587
2025-03-06 15:55:28.433,0.0109330686339289,-13.93253832469789
2025-03-06 15:55:28.440,0.010742254354928,-12.13122850136993
2025-03-06 15:55:28.448,0.0105611432811946,-10.28270958212808
2025-03-06 15:55:28.456,0.0103958676452701,-8.421338386625926
2025-03-06 15:55:28.464,0.0102517083236604,-6.580286127828636
2025-03-06 15:55:28.472,0.0101329525639717,-4.790705417000009
2025-03-06 15:55:28.479,0.0100427920271804,-3.081010802053997
2025-03-06 15:55:28.487,0.0099832637734046,-1.4762952438765682
2025-03-06 15:55:28.495,0.0099552347775117,0.0021019188598727
2025-03-06 15:55:28.503,0.009958428676812,1.3368672597616025
2025-03-06 15:55:28.511,0.0099914917785307,2.5148249420473348
2025-03-06 15:55:28.518,0.0100520938783675,3.526894065151514
2025-03-06 15:55:28.526,0.0101370581677576,4.367904555551188
2025-03-06 15:55:28.534,0.0102425135202712,5.03629022375933
2025-03-06 15:55:28.542,0.0103640618726121,5.53368226523021
2025-03-06 15:55:28.550,0.0104969533095115,5.864429862289581
2025-03-06 15:55:28.558,0.0106362617571798,6.03507653103454
2025-03-06 15:55:28.565,0.0107770547575207,6.053821405278099
2025-03-06 15:55:28.573,0.0109145515368575,5.929993778693532
2025-03-06 15:55:28.581,0.0110442644646236,5.673567017026787
2025-03-06 15:55:28.589,0.0111621200199938,5.294734540823474
2025-03-06 15:55:28.597,0.0112645565304229,4.8035661493343085
2025-03-06 15:55:28.604,0.0113485971524394,4.209757730268882
2025-03-06 15:55:28.612,0.011411897739298,3.522481630532368
2025-03-06 15:55:28.620,0.0114527702872741,2.750338926312387
2025-03-06 15:55:28.628,0.0114701834940835,1.9014088186952276
2025-03-06 15:55:28.636,0.0114637425653208,0.9833846898729008
2025-03-06 15:55:28.643,0.0114336508001875,0.0037812732159707
2025-03-06 15:55:28.651,0.0113806557511441,-1.029806815460934
2025-03-06 15:55:28.659,0.0113059829421913,-2.109418037882574
2025-03-06 15:55:28.667,0.0112112602509248,-3.226433052290473
2025-03-06 15:55:28.675,0.0110984360825349,-4.3713050782768015
2025-03-06 15:55:28.683,0.0109696943829261,-5.533335580628031
2025-03-06 15:55:28.690,0.0108273693740279,-6.700516938641072
2025-03-06 15:55:28.698,0.0106738626554936,-7.859460081846451
2025-03-06 15:55:28.706,0.010511564988813,-8.995420294305898
2025-03-06 15:55:28.714,0.010342784671059,-10.09242876831444
2025-03-06 15:55:28.722,0.010169683980127,-11.133531325991406
2025-03-06 15:55:28.729,0.0099942248078325,-12.101129357241778
2025-03-06 15:55:28.737,0.0098181243126267,-12.977411792108349
2025-03-06 15:55:28.745,0.0096428211832896,-13.74486117877746
2025-03-06 15:55:28.753,0.009469452868242,-14.386811997481743
2025-03-06 15:55:28.761,0.0092988438804304,-14.88803548560778
2025-03-06 15:55:28.768,0.0091315050369188,-15.235322704063906
2025-03-06 15:55:28.776,0.0089676432216748,-15.41803649686518
2025-03-06 15:55:28.784,0.0088071809478301,-15.428603469229843
2025-03-06 15:55:28.792,0.0086497846523983,-15.262919137949016
2025-03-06 15:55:28.800,0.0084949003312699,-14.92064290819562
2025-03-06 15:55:28.808,0.0083417948643444,-14.40536433251238
2025-03-06 15:55:28.815,0.0081896012193825,-13.72462796154253
2025-03-06 15:55:28.823,0.0080373656822884,-12.88981069461592
2025-03-06 15:55:28.831,0.0078840953566851,-11.915852539074852
2025-03-06 15:55:28.839,0.0077288043863209,-10.820848733462917
2025-03-06 15:55:28.847,0.0075705576128437,-9.62551792642119
2025-03-06 15:55:28.854,0.0074085106085031,-8.352567191602281
2025-03-06 15:55:28.862,0.0072419451768008,-7.0259797915944855
2025-03-06 15:55:28.870,0.0070702995105701,-5.670255518224963
2025-03-06 15:55:28.878,0.0068931922810647,-4.309635927237086
2025-03-06 15:55:28.886,0.00671044003682,-2.9673477162037587
2025-03-06 15:55:28.893,0.0065220674299045,-1.6648968110511948
2025-03-06 15:55:28.901,0.0063283099621574,-0.4214434623186743
2025-03-06 15:55:28.909,0.0061296091535868,0.7467150734315573
2025-03-06 15:55:28.917,0.0059266002687053,1.826532684744144
2025-03-06 15:55:28.925,0.0057200929714712,2.80845781339165
2025-03-06 15:55:28.933,0.0055110455008908,3.686523266422097
2025-03-06 15:55:28.940,0.0053005331866544,4.458280689974319
2025-03-06 15:55:28.948,0.0050897123888897,5.124585121078806
2025-03-06 15:55:28.956,0.0048797812332789,5.68924190306142
2025-03-06 15:55:28.964,0.0046719387548741,6.15853451713176
2025-03-06 15:55:28.972,0.0044673441985402,6.540657270314657
2025-03-06 15:55:28.979,0.0042670782269186,6.845081054872868
2025-03-06 15:55:28.987,0.0040721076552613,7.081883373626781
2025-03-06 15:55:28.995,0.003883255078431,7.26107538462203
2025-03-06 15:55:29.003,0.0037011744199024,7.391958798054617
2025-03-06 15:55:29.011,0.0035263330813048,7.482544062940814
2025-03-06 15:55:29.018,0.0033590010736654,7.539058472660036
2025-03-06 15:55:29.026,0.0031992473168095,7.565568710583007
2025-03-06 15:55:29.034,0.0030469431900601,7.563737112663262
2025-03-06 15:55:29.042,0.0029017733218338,7.532724753754414
2025-03-06 15:55:29.050,0.0027632534208686,7.469247619515236
2025-03-06 15:55:29.058,0.0026307546410709,7.367784888039999
2025-03-06 15:55:29.065,0.0025035335642826,7.220931019621024
2025-03-06 15:55:29.073,0.0023807664304182,7.0198762591433645
2025-03-06 15:55:29.081,0.0022615857983911,6.754993618132398
2025-03-06 15:55:29.089,0.002145117463855,6.416504738685903
2025-03-06 15:55:29.097,0.0020305152805292,5.995192542523557
2025-03-06 15:55:29.104,0.0019169915826712,5.483125489622439
2025-03-06 15:55:29.112,0.0018038411833183,4.874356812780495
2025-03-06 15:55:29.120,0.0016904573961044,4.165562388747088
2025-03-06 15:55:29.128,0.0015763391715587,3.3565830028911967
2025-03-06 15:55:29.136,0.0014610892188726,2.4508406187630345
2025-03-06 15:55:29.143,0.0013444038315029,1.4556037329260738
2025-03-06 15:55:29.151,0.0012260559422146,0.3820837390864643
2025-03-06 15:55:29.159,0.0011058735847601,-0.7546478816877993
2025-03-06 15:55:29.167,0.0009837163386129,-1.9359231797351708
2025-03-06 15:55:29.175,0.0008594524135766,-3.139915035069474
2025-03-06 15:55:29.183,0.0007329387735259,-4.342232481050491
2025-03-06 15:55:29.190,0.0006040061610611,-5.516650560593169
2025-03-06 15:55:29.198,0.0004724502037751,-6.635944480541663
2025-03-06 15:55:29.206,0.0003380291123082,-7.672792541965432
2025-03-06 15:55:29.214,0.0002004679150785,-8.600708771294316
2025-03-06 15:55:29.222,5.9468728550671046e-05,-9.394964547490154
2025-03-06 15:55:29.229,-8.527378951909655e-05,-10.033458897808826
2025-03-06 15:55:29.237,-0.0002340529297016,-10.497499497145396
2025-03-06 15:55:29.245,-0.0003871276820433,-10.772460627685811
2025-03-06 15:55:29.253,-0.0005446991715434,-10.848290211142318
2025-03-06 15:55:29.261,-0.000706887218576,-10.719845200433827
2025-03-06 15:55:29.268,-0.0008737084205516,-10.387042726458285
2025-03-06 15:55:29.276,-0.0010450570750962,-9.85482300955207
2025-03-06 15:55:29.284,-0.0012206901538577,-9.132928718975688
2025-03-06 15:55:29.292,-0.0014002173494092,-8.235513761207933
2025-03-06 15:55:29.300,-0.0015830969321945,-7.180601993292925
2025-03-06 15:55:29.308,-0.0017686377956065,-5.9894227341472375
2025-03-06 15:55:29.315,-0.0019560076828762,-4.685654894631485
2025-03-06 15:55:29.323,-0.002144247217036,-3.294614858559344
2025-03-06 15:55:29.331,-0.0023322890144881,-1.842424804575525
2025-03-06 15:55:29.339,-0.0025189808696566,-0.3551979371041208
2025-03-06 15:55:29.347,-0.0027031117892268,1.141724846860434
2025-03-06 15:55:29.354,-0.0028834395786693,2.624455852810044
2025-03-06 15:55:29.362,-0.0030587187605276,4.071132947586559
2025-03-06 15:55:29.370,-0.0032277278028886,5.462363310145565
2025-03-06 15:55:29.378,-0.0033892948931209,6.78152534964488
2025-03-06 15:55:29.386,-0.0035423217299322,8.014922902245457
2025-03-06 15:55:29.394,-0.0036858049616676,9.151793291049792
2025-03-06 15:55:29.401,-0.0038188549450214,10.184178090374267
2025-03-06 15:55:29.409,-0.0039407114615229,11.10667213811281
2025-03-06 15:55:29.417,-0.004050755971878,11.916072178573495
2025-03-06 15:55:29.425,-0.0041485199749822,12.610951220639407
2025-03-06 15:55:29.433,-0.0042336891020658,13.191188036183084
2025-03-06 15:55:29.440,-0.0043061027119842,13.657483030818414
2025-03-06 15:55:29.448,-0.0043657489426442,14.010891890111012
2025-03-06 15:55:29.456,-0.0044127554073022,14.25240691498446
2025-03-06 15:55:29.464,-0.0044473759928769,14.382612872781722
2025-03-06 15:55:29.472,-0.0044699744879347,14.401439656088384
2025-03-06 15:55:29.479,-0.0044810060029051,14.308028292270627
2025-03-06 15:55:29.487,-0.0044809973335733,14.10072018092144
2025-03-06 15:55:29.495,-0.0044705275642843,13.777172196456014
2025-03-06 15:55:29.503,-0.0044502102860289,13.3345928434395
2025-03-06 15:55:29.511,-0.0044206787653641,12.77008736283582
2025-03-06 15:55:29.519,-0.0043825752049077,12.081092923283991
2025-03-06 15:55:29.526,-0.0043365448875939,11.265879142472476
2025-03-06 15:55:29.534,-0.0042832355351254,10.32408448820439
2025-03-06 15:55:29.542,-0.0042233017008892,9.257255875249667
2025-03-06 15:55:29.550,-0.0041574135380075,8.069357206202643
2025-03-06 15:55:29.558,-0.0040862689082206,6.767212832205709
2025-03-06 15:55:29.565,-0.0040106075576331,5.3608539797023935
2025-03-06 15:55:29.573,-0.0039312259477773,3.863740054980573
2025-03-06 15:55:29.581,-0.003848991243228,2.2928322494124047
2025-03-06 15:55:29.589,-0.0037648529153675,0.6685037757949783
2025-03-06 15:55:29.597,-0.003679850465039,-0.9857209650263776
2025-03-06 15:55:29.604,-0.0035951159242788,-2.6435973584067045
2025-03-06 15:55:29.612,-0.0035118700649202,-4.276751913116192
2025-03-06 15:55:29.620,-0.0034314115915662,-5.855415573135647
2025-03-06 15:55:29.628,-0.0033550989933692,-7.349272695910475
2025-03-06 15:55:29.636,-0.003284325157136,-8.72839258602091
2025-03-06 15:55:29.644,-0.0032204853096718,-9.964205166860957
2025-03-06 15:55:29.651,-0.0031649393521771,-11.03047887614276
2025-03-06 15:55:29.659,-0.0031189701260741,-11.90425741053953
2025-03-06 15:55:29.667,-0.0030837395313435,-12.566712642379615
2025-03-06 15:55:29.675,-0.0030602446289178,-13.003873889698363
2025-03-06 15:55:29.683,-0.0030492758586462,-13.20719861924072
2025-03-06 15:55:29.690,-0.0030513793176217,-13.17395636375302
2025-03-06 15:55:29.698,-0.0030668247432199,-12.907405805397143
2025-03-06 15:55:29.706,-0.0030955805083201,-12.416754203751848
2025-03-06 15:55:29.714,-0.003137296605889,-11.716898160436596
2025-03-06 15:55:29.722,-0.0031912962855411,-10.827954612302785
2025-03-06 15:55:29.729,-0.0032565767120296,-9.774600429090505
2025-03-06 15:55:29.737,-0.0033318187612827,-8.585247584972644
2025-03-06 15:55:29.745,-0.0034154058589244,-7.291088155743805
2025-03-06 15:55:29.753,-0.0035054515774072,-5.92504902006386
2025-03-06 15:55:29.761,-0.0035998355095467,-4.520699863910795
2025-03-06 15:55:29.769,-0.003696246711773,-3.111159756983444
2025-03-06 15:55:29.776,-0.0037922337557771,-1.7280471510356166
2025-03-06 15:55:29.784,-0.0038852601417394,-0.4005157099206836
2025-03-06 15:55:29.792,-0.0039727635227698,0.8455859212636107
2025-03-06 15:55:29.800,-0.0040522169011437,1.9883982312238588
2025-03-06 15:55:29.808,-0.004121189725608,3.010553933137688
2025-03-06 15:55:29.815,-0.0041774066978695,3.899483392911792
2025-03-06 15:55:29.823,-0.0042188021400964,4.6475146596508905
2025-03-06 15:55:29.831,-0.0042435680014155,5.25176950202781
2025-03-06 15:55:29.839,-0.004250193937019,5.713865824289047
2025-03-06 15:55:29.847,-0.0042374982862507,6.039445243178994
2025-03-06 15:55:29.854,-0.0042046491425092,6.237552092965837
2025-03-06 15:55:29.862,-0.0041511750416145,6.319896380819538
2025-03-06 15:55:29.870,-0.0040769651241142,6.30003798708583
2025-03-06 15:55:29.878,-0.0039822589834024,6.192532502474845
2025-03-06 15:55:29.886,-0.0038676268147913,6.01208038755798
2025-03-06 15:55:29.894,-0.0037339409274965,5.772720567967633
2025-03-06 15:55:29.901,-0.0035823401422159,5.487107152680864
2025-03-06 15:55:29.909,-0.003414189009767,5.165903767624108
2025-03-06 15:55:29.917,-0.0032310340670935,4.817324190792483
2025-03-06 15:55:29.925,-0.0030345594348391,4.446840790100371
2025-03-06 15:55:29.933,-0.0028265439586024,4.057074002873002
2025-03-06 15:55:29.940,-0.0026088218559296,3.6478671155398334
2025-03-06 15:55:29.948,-0.0023832484982717,3.2165413048818645
2025-03-06 15:55:29.956,-0.0021516725437188,2.758316716732356
2025-03-06 15:55:29.964,-0.0019159151536611,2.26687672703927
2025-03-06 15:55:29.972,-0.001677756512445,1.735044893515294
2025-03-06 15:55:29.979,-0.0014389293622712,1.155537876997297
2025-03-06 15:55:29.987,-0.0012011187848466,0.5217531489048127
2025-03-06 15:55:29.995,-0.0009659670360071,-0.1714521174872343
2025-03-06 15:55:30.003,-0.0007350819217412,-0.9270347740968872
2025-03-06 15:55:30.011,-0.0005100470179762,-1.7451337701311471
2025-03-06 15:55:30.019,-0.0002924319517268,-2.622570014901653
2025-03-06 15:55:30.026,-8.38009428798143e-05,-3.5525091847742427
2025-03-06 15:55:30.034,0.0001142821432623,-4.524310632585027
2025-03-06 15:55:30.042,0.0003002538449655,-5.523576263343004
2025-03-06 15:55:30.050,0.0004725576320168,-6.5324031218196295
2025-03-06 15:55:30.058,0.0006296579387491,-7.529833019940884
2025-03-06 15:55:30.065,0.0007700622414824,-8.492482360720155
2025-03-06 15:55:30.073,0.0008923511221639,-9.395325926470766
2025-03-06 15:55:30.081,0.0009952156174135,-10.212600283775314
2025-03-06 15:55:30.089,0.0010775005205244,-10.918786035664578
2025-03-06 15:55:30.097,0.0011382517143675,-11.489623750923716
2025-03-06 15:55:30.104,0.0011767651019058,-11.903116244480785
2025-03-06 15:55:30.112,0.0011926343165111,-12.140470078580414
2025-03-06 15:55:30.120,0.0011857941756761,-12.186931687683536
2025-03-06 15:55:30.128,0.0011565568158791,-12.032478267217344
2025-03-06 15:55:30.136,0.0011056376347508,-11.67233026317597
2025-03-06 15:55:30.144,0.001034168572949,-11.107260614557504
2025-03-06 15:55:30.151,0.000943696864471,-10.34368541247287
2025-03-06 15:55:30.159,0.000836168116776,-9.393530869614052
2025-03-06 15:55:30.167,0.0007138933922646,-8.27388193082493
2025-03-06 15:55:30.175,0.000579500815778,-7.00642798458856
2025-03-06 15:55:30.183,0.0004358731173128,-5.616730463232135
2025-03-06 15:55:30.190,0.0002860733910517,-4.133345199161112
2025-03-06 15:55:30.198,0.0001332621028828,-2.5868388555828177
2025-03-06 15:55:30.206,-1.9391098192130053e-05,-1.0087432798501317
2025-03-06 15:55:30.214,-0.0001687969446645,0.5695059589782435
2025-03-06 15:55:30.222,-0.000312033644501,2.117600383471764
2025-03-06 15:55:30.229,-0.0004464278607901,3.607314308003513
2025-03-06 15:55:30.237,-0.0005696263610583,5.0133450595167535
2025-03-06 15:55:30.245,-0.0006796557248954,6.314003339117182
2025-03-06 15:55:30.253,-0.0007749681808085,7.491726917342336
2025-03-06 15:55:30.261,-0.0008544722916638,8.533399633733634
2025-03-06 15:55:30.269,-0.0009175477596067,9.430467217171325
2025-03-06 15:55:30.276,-0.0009640440973354,10.178851287955371
2025-03-06 15:55:30.284,-0.0009942633847324,10.77867256681662
2025-03-06 15:55:30.292,-0.0010089278499901,11.233803333474036
2025-03-06 15:55:30.300,-0.0010091335841514,11.55127711582516
2025-03-06 15:55:30.308,-0.0009962922875316,11.740590071782307
2025-03-06 15:55:30.315,-0.0009720635111922,11.812933241580588
2025-03-06 15:55:30.323,-0.0009382803300321,11.780397579352831
2025-03-06 15:55:30.331,-0.0008968716880671,11.655194299827253
2025-03-06 15:55:30.339,-0.0008497847477698,11.448931584444315
2025-03-06 15:55:30.347,-0.0007989104679147,11.171985166717215
2025-03-06 15:55:30.354,-0.0007460153645698,10.832994939755222
2025-03-06 15:55:30.362,-0.0006926820056657,10.438512768443832
2025-03-06 15:55:30.370,-0.0006402602826084,9.992818491895774
2025-03-06 15:55:30.378,-0.0005898309383477,9.49791207734234
2025-03-06 15:55:30.386,-0.0005421822521983,8.953680482428526
2025-03-06 15:55:30.394,-0.0004978002068426,8.358228458422
2025-03-06 15:55:30.401,-0.0004568718886525,7.708353728441262
2025-03-06 15:55:30.409,-0.0004193012923441,7.000139118499086
2025-03-06 15:55:30.417,-0.0003847361326941,6.229627680135761
2025-03-06 15:55:30.425,-0.0003526037577735,5.3935419455625375
2025-03-06 15:55:30.433,-0.0003221538692961,4.490005459141827
2025-03-06 15:55:30.440,-0.0002925055306841,3.5192238150266344
2025-03-06 15:55:30.448,-0.0002626958990633,2.4840836926547
2025-03-06 15:55:30.456,-0.0002317282520599,1.390631809676011
2025-03-06 15:55:30.464,-0.000198617177591,0.2484011822323289
2025-03-06 15:55:30.472,-0.0001624292031896,-0.9294406437339502
2025-03-06 15:55:30.479,-0.0001223175806951,-2.1261379924010906
2025-03-06 15:55:30.487,-7.755036375607448e-05,-3.3215949233140933
2025-03-06 15:55:30.495,-2.753133491306097e-05,-4.492821079319494
2025-03-06 15:55:30.503,2.8186219122867716e-05,-5.614561690784418
2025-03-06 15:55:30.511,8.98924530481222e-05,-6.66008807332599
2025-03-06 15:55:30.519,0.0001577198506565,-7.602116150423328
2025-03-06 15:55:30.526,0.0002316470694477,-8.413813239943115
2025-03-06 15:55:30.534,0.0003115066992807,-9.069847973639552
2025-03-06 15:55:30.542,0.000396995946132,-9.547435074379871
2025-03-06 15:55:30.550,0.0004876893602467,-9.8273259750896
2025-03-06 15:55:30.558,0.0005830528527926,-9.89469797088134
2025-03-06 15:55:30.565,0.0006824583846358,-9.73989866385997
2025-03-06 15:55:30.573,0.000785198864944,-9.359008678488047
2025-03-06 15:55:30.581,0.0008905029400503,-8.75419367868992
2025-03-06 15:55:30.589,0.0009975494612799,-7.933826204157246
2025-03-06 15:55:30.597,0.0011054815074288,-6.9123682923983765
2025-03-06 15:55:30.604,0.0012134199294274,-5.710016747764989
2025-03-06 15:55:30.612,0.0013204764740205,-4.352123721690967
2025-03-06 15:55:30.620,0.0014257665893235,-2.8684154527600736
2025-03-06 15:55:30.628,0.0015284219926605,-1.29204109465074
2025-03-06 15:55:30.636,0.0016276030122344,0.3415088847822833
2025-03-06 15:55:30.644,0.0017225106448053,1.9955695511629847
2025-03-06 15:55:30.651,0.0018123982271521,3.6335048062747335
2025-03-06 15:55:30.659,0.0018965825909037,5.219896964055775
2025-03-06 15:55:30.667,0.0019744545399613,6.721673278588864
2025-03-06 15:55:30.675,0.0020454884592206,8.109123149975185
2025-03-06 15:55:30.683,0.0021092508484621,9.356764814657158
2025-03-06 15:55:30.690,0.0021654075725386,10.444027203665216
2025-03-06 15:55:30.698,0.0022137296071144,11.35572101367322
2025-03-06 15:55:30.706,0.0022540970439716,12.082282508789593
2025-03-06 15:55:30.714,0.002286501141871,12.619783739322848
2025-03-06 15:55:30.722,0.0023110442849402,12.969713286719257
2025-03-06 15:55:30.729,0.0023279377987091,13.138541872164607
2025-03-06 15:55:30.737,0.0023374976206985,13.137096752716396
2025-03-06 15:55:30.745,0.0023401378233003,12.979777339580547
2025-03-06 15:55:30.753,0.0023363619826207,12.683651506066532
2025-03-06 15:55:30.761,0.0023267524159021,12.267477261060233
2025-03-06 15:55:30.769,0.0023119573775618,11.75069758052854
2025-03-06 15:55:30.776,0.0022926763922753,11.152457047086765
2025-03-06 15:55:30.784,0.0022696439924688,10.490687490649051
2025-03-06 15:55:30.792,0.002243612207465,9.781306113355235
2025-03-06 15:55:30.800,0.0022153322238048,9.037563795560102
2025-03-06 15:55:30.808,0.0021855357019761,8.269573697775343
2025-03-06 15:55:30.815,0.0021549162927428,7.48404126476922
2025-03-06 15:55:30.823,0.0021241119463672,6.68420673492421
2025-03-06 15:55:30.831,0.0020936886397821,5.870000731096264
2025-03-06 15:55:30.839,0.002064126136519,5.03840294675397
2025-03-06 15:55:30.847,0.0020358063287854,4.183983831942693
2025-03-06 15:55:30.854,0.0020090046046789,3.299599998956163
2025-03-06 15:55:30.862,0.0019838845593482,2.377206240342081
2025-03-06 15:55:30.870,0.0019604962306952,1.4087409569462377
2025-03-06 15:55:30.878,0.0019387778788423,0.3870377333157156
2025-03-06 15:55:30.886,0.0019185611566497,-0.6932860098212353
2025-03-06 15:55:30.894,0.0018995793749906,-1.835011786749324
2025-03-06 15:55:30.901,0.0018814784761443,-3.0376197760504797
2025-03-06 15:55:30.909,0.0018638302787825,-4.2967457756035605
2025-03-06 15:55:30.917,0.0018461475248892,-5.603828302636771
2025-03-06 15:55:30.925,0.0018279002333044,-6.945969665277069
2025-03-06 15:55:30.933,0.0018085328456319,-8.30602443109185
2025-03-06 15:55:30.940,0.0017874816457255,-9.662917517229198
2025-03-06 15:55:30.948,0.0017641919664327,-10.992182675987468
2025-03-06 15:55:30.956,0.0017381347788048,-12.266701016172412
2025-03-06 15:55:30.964,0.001708822363122,-13.457608946768511
2025-03-06 15:55:30.972,0.0016758228416868,-14.535336086551904
2025-03-06 15:55:30.979,0.0016387733870162,-15.470726719269711
2025-03-06 15:55:30.987,0.0015973919190475,-16.236193662447345
2025-03-06 15:55:30.995,0.0015514870961285,-16.806851216772134
2025-03-06 15:55:31.003,0.001500966393133,-17.16157430356018
2025-03-06 15:55:31.011,0.0014458420381786,-17.283933976464
2025-03-06 15:55:31.019,0.0013862345530885,-17.162965066373456
2025-03-06 15:55:31.026,0.0013223736330416,-16.79372950412868
2025-03-06 15:55:31.034,0.0012545961219922,-16.17764846053366
2025-03-06 15:55:31.042,0.0011833408974296,-15.322587345482688
2025-03-06 15:55:31.050,0.0011091405745523,-14.242689347817318
2025-03-06 15:55:31.058,0.0010326100682399,-12.95796496964021
2025-03-06 15:55:31.065,0.0009544321875023,-11.49365630824559
2025-03-06 15:55:31.073,0.0008753405585237,-9.879405097024788
2025-03-06 15:55:31.081,0.0007961002708721,-8.14826223392841
2025-03-06 15:55:31.089,0.0007174867252925,-6.335583295505444
2025-03-06 15:55:31.097,0.0006402632536081,-4.477859058665152
2025-03-06 15:55:31.104,0.000565158203249,-2.6115321546538435
2025-03-06 15:55:31.112,0.0004928423259479,-0.7718506115840164
2025-03-06 15:55:31.120,0.0004239074443886,1.0081937196434747
2025-03-06 15:55:31.128,0.0003588474406694,2.698798823003316
2025-03-06 15:55:31.136,0.0002980425793692,4.274122093231937
2025-03-06 15:55:31.144,0.0002417480425814,5.712858059763168
2025-03-06 15:55:31.151,0.0001900873387872,6.998605971108284
2025-03-06 15:55:31.159,0.0001430509784782,8.120019045717532
2025-03-06 15:55:31.167,0.0001005005036586,9.070737414756058
2025-03-06 15:55:31.175,6.217763511060953e-05,9.849116658363542
2025-03-06 15:55:31.183,2.7717999998050904e-05,10.457772937642924
2025-03-06 15:55:31.190,-3.331325273838154e-06,10.902973668830528
2025-03-06 15:55:31.198,-3.149134958608469e-05,11.193909152349056
2025-03-06 15:55:31.206,-5.7328721490664336e-05,11.34188529998502
2025-03-06 15:55:31.214,-8.143226377883078e-05,11.359480408975074
2025-03-06 15:55:31.222,-0.0001043894593844,11.259709700299672
2025-03-06 15:55:31.229,-0.0001267638536246,11.055240046397776
2025-03-06 15:55:31.237,-0.0001490742929356,10.757694033673666
2025-03-06 15:55:31.245,-0.0001717768284565,10.377077405778186
2025-03-06 15:55:31.253,-0.0001952499763628,9.921357266554876
2025-03-06 15:55:31.261,-0.000219783848855,9.396210503481496
2025-03-06 15:55:31.269,-0.0002455734638389,8.804953085468481
2025-03-06 15:55:31.276,-0.0002727163362703,8.148651584471123
2025-03-06 15:55:31.284,-0.0003012142747618,7.426408878521411
2025-03-06 15:55:31.292,-0.0003309791557493,6.635806935826661
2025-03-06 15:55:31.300,-0.000361842304265,5.773481280001236
2025-03-06 15:55:31.308,-0.0003935669532288,4.835794606592206
2025-03-06 15:55:31.315,-0.0004258630853349,3.819571433069145
2025-03-06 15:55:31.323,-0.0004584038179353,2.7228519241354445
2025-03-06 15:55:31.331,-0.0004908424192283,1.5456213604238622
2025-03-06 15:55:31.339,-0.0005228290757598,0.2904722309541194
2025-03-06 15:55:31.347,-0.0005540266630292,-1.0368413589619605
2025-03-06 15:55:31.354,-0.0005841249633941,-2.426992460412474
2025-03-06 15:55:31.362,-0.0006128529742794,-3.866842026111122
2025-03-06 15:55:31.370,-0.0006399891124263,-5.339392139082621
2025-03-06 15:55:31.378,-0.0006653692287245,-6.823942785172624
2025-03-06 15:55:31.386,-0.0006888923991015,-8.296453085785837
2025-03-06 15:55:31.394,-0.0007105244502469,-9.730097584365062
2025-03-06 15:55:31.401,-0.000730299135223,-11.095998200692677
2025-03-06 15:55:31.409,-0.000748316843127,-12.364103334142406
2025-03-06 15:55:31.417,-0.0007647407567473,-13.504177768572326
2025-03-06 15:55:31.425,-0.0007797904723127,-14.486860897467835
2025-03-06 15:55:31.433,-0.0007937332419874,-15.284746653284964
2025-03-06 15:55:31.440,-0.0008068731635141,-15.873436601665611
2025-03-06 15:55:31.448,-0.0008195387970908,-16.2325180634435
2025-03-06 15:55:31.456,-0.0008320698069828,-16.346421864257742
2025-03-06 15:55:31.464,-0.0008448032769793,-16.205119277400733
2025-03-06 15:55:31.472,-0.000858060331821,-15.804624695414336
2025-03-06 15:55:31.479,-0.0008721336332219,-15.147279205034216
2025-03-06 15:55:31.487,-0.0008872762323568,-14.241800123989442
2025-03-06 15:55:31.495,-0.0009036921612488,-13.103092198768932
2025-03-06 15:55:31.503,-0.0009215290357765,-11.751827034972326
2025-03-06 15:55:31.511,-0.0009408728237265,-10.213807900569826
2025-03-06 15:55:31.519,-0.000961744804807,-8.519146784557966
2025-03-06 15:55:31.526,-0.0009841006279365,-6.701289024240649
2025-03-06 15:55:31.534,-0.0010078312857498,-4.795927514492174
2025-03-06 15:55:31.542,-0.0010327658118307,-2.8398531560304656
2025-03-06 15:55:31.550,-0.001058675558912,-0.869790576484706
2025-03-06 15:55:31.558,-0.0010852799843283,1.0787318152884495
2025-03-06 15:55:31.565,-0.0011122539001074,2.9724306608643305
2025-03-06 15:55:31.573,-0.001139236124388,4.781193015645847
2025-03-06 15:55:31.581,-0.0011658394085653,6.478842203878395
2025-03-06 15:55:31.589,-0.0011916614277166,8.043715983914426
2025-03-06 15:55:31.597,-0.0012162965353072,9.45903783821298
2025-03-06 15:55:31.604,-0.0012393479205658,10.713071889703786
2025-03-06 15:55:31.612,-0.0012604397703048,11.799061868540102
2025-03-06 15:55:31.620,-0.0012792290132849,12.71496426548338
2025-03-06 15:55:31.628,-0.0012954162144865,13.462994889555333
2025-03-06 15:55:31.636,-0.0013087552035378,14.049016116912265
2025-03-06 15:55:31.644,-0.0013190610737341,14.481798848374233
2025-03-06 15:55:31.651,-0.0013262162725874,14.772198321688148
2025-03-06 15:55:31.659,-0.0013301746097528,14.93228625523252
2025-03-06 15:55:31.667,-0.0013309630999968,14.974483205796131
2025-03-06 15:55:31.675,-0.0013286816000355,14.910734452377818
2025-03-06 15:55:31.683,-0.0013235001986974,14.75177019778716
2025-03-06 15:55:31.690,-0.0013156543389279,14.50648651610606
2025-03-06 15:55:31.698,-0.0013054377231189,14.181477448343005
2025-03-06 15:55:31.706,-0.0012931931451227,13.780741213605216
2025-03-06 15:55:31.714,-0.0012793014460551,13.305574974907822
2025-03-06 15:55:31.722,-0.0012641688060868,12.754663344267565
2025-03-06 15:55:31.729,-0.0012482126184529,12.124356234855505
2025-03-06 15:55:31.737,-0.0012318462883021,11.409122196617895
2025-03-06 15:55:31.745,-0.001215463441371,10.602154443612417
2025-03-06 15:55:31.753,-0.0011994221661471,9.696098825181364
2025-03-06 15:55:31.761,-0.001184030009446,8.683866406459801
2025-03-06 15:55:31.769,-0.0011695304825651,7.559488448671273
2025-03-06 15:55:31.776,-0.0011560918081674,6.318968680942481
2025-03-06 15:55:31.784,-0.001143798545046,4.9610870050533
2025-03-06 15:55:31.792,-0.0011326465707831,3.488110243886329
2025-03-06 15:55:31.800,-0.0011225416946573,1.906369198199435
2025-03-06 15:55:31.808,-0.0011133019513354,0.2266669684641053
2025-03-06 15:55:31.815,-0.0011046634396397,-1.535509026462494
2025-03-06 15:55:31.823,-0.0010962894455275,-3.3599899947774468
2025-03-06 15:55:31.831,-0.0010877825021156,-5.222152426981004
2025-03-06 15:55:31.839,-0.0010786989475181,-7.093366758602124
2025-03-06 15:55:31.847,-0.0010685654222724,-8.941655859055631
2025-03-06 15:55:31.855,-0.0010568966249374,-10.73254115531692
2025-03-06 15:55:31.862,-0.0010432135634158,-12.43004512758415
2025-03-06 15:55:31.870,-0.0010270615250035,-13.997811197445646
2025-03-06 15:55:31.878,-0.0010080270187614,-15.400296017875764
2025-03-06 15:55:31.886,-0.0009857529842717,-16.60398514706611
2025-03-06 15:55:31.894,-0.0009599516105248,-17.578581243710033
2025-03-06 15:55:31.901,-0.0009304142015192,-18.298114367063768
2025-03-06 15:55:31.909,-0.0008970176827233,-18.741926702711527
2025-03-06 15:55:31.917,-0.0008597275487503,-18.895488954611764
2025-03-06 15:55:31.925,-0.0008185972784995,-18.75101252739631
2025-03-06 15:55:31.933,-0.0007737644650911,-18.307830153262906
2025-03-06 15:55:31.940,-0.0007254440869471,-17.572527396323498
2025-03-06 15:55:31.948,-0.0006739194444614,-16.558818037166468
2025-03-06 15:55:31.956,-0.0006195313118432,-15.287167214931484
2025-03-06 15:55:31.964,-0.0005626658570304,-13.784176891506222
2025-03-06 15:55:31.972,-0.0005037418895811,-12.081758224530011
2025-03-06 15:55:31.980,-0.0004431979832245,-10.21612434456056
2025-03-06 15:55:31.987,-0.000381479967455,-8.226644425250454
2025-03-06 15:55:31.995,-0.0003190292074202,-6.1546054791712494
2025-03-06 15:55:32.003,-0.0002562720082987,-4.041931763339934
2025-03-06 15:55:32.011,-0.000193610379656,-1.929912904975139
2025-03-06 15:55:32.019,-0.000131414270601,0.1420091603187477
2025-03-06 15:55:32.026,-7.001526461739692e-05,2.137347525842683
2025-03-06 15:55:32.034,-9.70165103111372e-06,4.023530183614002
2025-03-06 15:55:32.042,4.928520792510323e-05,5.772677591726035
2025-03-06 15:55:32.050,0.0001067532444027,7.362171434607446
2025-03-06 15:55:32.058,0.0001625607661064,8.77499745233076
2025-03-06 15:55:32.065,0.0002166162180054,9.999855231921604
2025-03-06 15:55:32.073,0.000268876628799,11.031038065338985
2025-03-06 15:55:32.081,0.0003193448257492,11.86809593634582
2025-03-06 15:55:32.089,0.0003680655898638,12.515303965771675
2025-03-06 15:55:32.097,0.000415120974492,12.980966820570746
2025-03-06 15:55:32.105,0.000460625002083,13.27659632784538
2025-03-06 15:55:32.112,0.0005047179118031,13.416004543845148
2025-03-06 15:55:32.120,0.0005475601028095,13.414357591950088
2025-03-06 15:55:32.128,0.0005893259286619,13.28723656404516
2025-03-06 15:55:32.136,0.0006301975279668,13.049750629086027
2025-03-06 15:55:32.144,0.0006703588815344,12.715744263116536
2025-03-06 15:55:32.151,0.0007099902455178,12.297135359395634
2025-03-06 15:55:32.159,0.0007492630470958,11.803414144364952
2025-03-06 15:55:32.167,0.0007883352833674,11.24132464700696
2025-03-06 15:55:32.175,0.0008273474474564,10.614741339908369
2025-03-06 15:55:32.183,0.0008664190064238,9.924743920894466
2025-03-06 15:55:32.190,0.000905645465502,9.16988347875895
2025-03-06 15:55:32.198,0.0009450960703725,8.34662392520077
2025-03-06 15:55:32.206,0.000984812213092,7.449933998810608
2025-03-06 15:55:32.214,0.0010248066039196,6.473997745307574
2025-03-06 15:55:32.222,0.0010650632503372,5.413005494664992
2025-03-06 15:55:32.230,0.0011055382591649,4.261983272207207
2025-03-06 15:55:32.237,0.0011461614578816,3.0176165015872534
2025-03-06 15:55:32.245,0.0011868388170152,1.6790238930616688
2025-03-06 15:55:32.253,0.0012274556448584,0.2484395625681165
2025-03-06 15:55:32.261,0.0012678805102269,-1.2682344160696146
2025-03-06 15:55:32.269,0.0013079698055304,-2.861036879281325
2025-03-06 15:55:32.276,0.0013475727790362,-4.515742286834478
2025-03-06 15:55:32.284,0.0013865367689246,-6.213857154361134
2025-03-06 15:55:32.292,0.0014247123097881,-7.932824811677901
2025-03-06 15:55:32.300,0.001461957779591,-9.646435534162308
2025-03-06 15:55:32.308,0.0014981433005041,-11.325429678756777
2025-03-06 15:55:32.315,0.0015331536761833,-12.938272603661137
2025-03-06 15:55:32.323,0.0015668902289775,-14.452072243783824
2025-03-06 15:55:32.331,0.0015992714907363,-15.833603580441547
2025-03-06 15:55:32.339,0.0016302327959979,-17.050399148318952
2025-03-06 15:55:32.347,0.0016597249219088,-18.071861363508745
2025-03-06 15:55:32.355,0.0016877120042877,-18.870350964243706
2025-03-06 15:55:32.362,0.0017141690085595,-19.42220629300133
2025-03-06 15:55:32.370,0.0017390790336695,-19.70865050684206
2025-03-06 15:55:32.378,0.0017624306999487,-19.716548002092065
2025-03-06 15:55:32.386,0.0017842158539092,-19.43897722838311
2025-03-06 15:55:32.394,0.0018044278150806,-18.875594422820924
2025-03-06 15:55:32.401,0.0018230603585461,-18.03277132343148
2025-03-06 15:55:32.409,0.0018401075502163,-16.9234992624182
2025-03-06 15:55:32.417,0.0018555644459386,-15.567061784735916
2025-03-06 15:55:32.425,0.0018694285569364,-13.988487647609288
2025-03-06 15:55:32.433,0.0018817018849045,-12.217805285784507
2025-03-06 15:55:32.440,0.0018923932455886,-10.28912814477298
2025-03-06 15:55:32.448,0.0019015205345794,-8.23960730139133
2025-03-06 15:55:32.456,0.0019091125458126,-6.108293186554656
2025-03-06 15:55:32.464,0.0019152099433881,-3.934951763436502
2025-03-06 15:55:32.472,0.0019198650341588,-1.758882049890062
2025-03-06 15:55:32.480,0.0019231401036107,0.382218645271805
2025-03-06 15:55:32.487,0.0019251042437812,2.453297937563361
2025-03-06 15:55:32.495,0.0019258287889069,4.422860620665167
2025-03-06 15:55:32.503,0.0019253816540956,6.263716641054327
2025-03-06 15:55:32.511,0.0019238210052743,7.953538958151884
2025-03-06 15:55:32.519,0.0019211887259073,9.47521397789945
2025-03-06 15:55:32.526,0.0019175040825502,10.81697642222854
2025-03-06 15:55:32.534,0.0019127578974318,11.972329911101134
2025-03-06 15:55:32.542,0.0019069074944381,12.9397637745296
2025-03-06 15:55:32.550,0.0018998727053682,13.72228528307309
2025-03-06 15:55:32.558,0.0018915332486737,14.326794222116316
2025-03-06 15:55:32.565,0.0018817277749686,14.763333214933962
2025-03-06 15:55:32.573,0.0018702548129694,15.044252149778904
2025-03-06 15:55:32.581,0.0018568757580859,15.183328277134448
2025-03-06 15:55:32.589,0.0018413199139309,15.194884881390816
2025-03-06 15:55:32.597,0.0018232914262515,15.0929508463708
2025-03-06 15:55:32.605,0.0018024777897198,14.890500956597595
2025-03-06 15:55:32.612,0.0017785595223321,14.598812512742166
2025-03-06 15:55:32.620,0.0017512205920837,14.22696797303968
2025-03-06 15:55:32.628,0.0017201591888778,13.781526116752396
2025-03-06 15:55:32.636,0.0016850984167898,13.266375973602024
2025-03-06 15:55:32.644,0.0016457964501351,12.682778831483692
2025-03-06 15:55:32.651,0.0016020556873529,12.02959441475864
2025-03-06 15:55:32.659,0.0015537304608319,11.303678231084383
2025-03-06 15:55:32.667,0.0015007329077647,10.500428537423035
2025-03-06 15:55:32.675,0.0014430366787459,9.614453784985482
2025-03-06 15:55:32.683,0.0013806782778205,8.640325144386113
2025-03-06 15:55:32.690,0.0013137559994372,7.573374105905822
2025-03-06 15:55:32.698,0.0012424266258702,6.41049243841141
2025-03-06 15:55:32.706,0.0011669002144214,5.1508911250296014
2025-03-06 15:55:32.714,0.0010874333876532,3.796776323955103
2025-03-06 15:55:32.722,0.0010043215410443,2.3539038754686623
2025-03-06 15:55:32.730,0.0009178903465991,0.831979238511284
2025-03-06 15:55:32.737,0.0008284869049112,-0.7551232538513503
2025-03-06 15:55:32.745,0.0007364708856492,-2.3893396108228315
2025-03-06 15:55:32.753,0.0006422059642954,-4.048602427430933
2025-03-06 15:55:32.761,0.0005460517913787,-5.707233002719345
2025-03-06 15:55:32.769,0.0004483566445168,-7.33652845949153
2025-03-06 15:55:32.776,0.0003494508596521,-8.905523709697553
2025-03-06 15:55:32.784,0.0002496411377989,-10.381899685843436
2025-03-06 15:55:32.792,0.0001492058544682,-11.73300207143424
2025-03-06 15:55:32.800,4.8391513360438446e-05,-12.926929132889596
2025-03-06 15:55:32.808,-5.258954364289267e-05,-13.933643434054256
2025-03-06 15:55:32.815,-0.0001535601204962,-14.72606037947305
2025-03-06 15:55:32.823,-0.0002543778685133,-15.28106678317432
2025-03-06 15:55:32.831,-0.0003549338038367,-15.5804250138693
2025-03-06 15:55:32.839,-0.000455149805411,-15.611522654187404
2025-03-06 15:55:32.847,-0.0005549752938326,-15.367933862924795
2025-03-06 15:55:32.855,-0.000654383286522,-14.849766481562952
2025-03-06 15:55:32.862,-0.0007533659962083,-14.063778031311095
2025-03-06 15:55:32.870,-0.0008519301156199,-13.023253689081724
2025-03-06 15:55:32.878,-0.0009500919262481,-11.747649647379122
2025-03-06 15:55:32.886,-0.0010478723856211,-10.262015467162366
2025-03-06 15:55:32.894,-0.0011452923791895,-8.596218637886818
2025-03-06 15:55:32.901,-0.0012423683397632,-6.784003103472935
2025-03-06 15:55:32.909,-0.0013391083970395,-4.861920583604139
2025-03-06 15:55:32.917,-0.0014355091160317,-2.8681787748979533
2025-03-06 15:55:32.925,-0.0015315527694229,-0.8414537090063406
2025-03-06 15:55:32.933,-0.0016272050381824,1.180285458964463
2025-03-06 15:55:32.940,-0.0017224130756269,3.160892169381253
2025-03-06 15:55:32.948,-0.0018171039606906,5.067054935383803
2025-03-06 15:55:32.956,-0.0019111836384208,6.869168041006421
2025-03-06 15:55:32.964,-0.0020045364680738,8.542028748619547
2025-03-06 15:55:32.972,-0.0020970254843944,10.06533740049669
2025-03-06 15:55:32.980,-0.0021884934431889,11.423985777769008
2025-03-06 15:55:32.987,-0.0022787646702197,12.60812852665408
2025-03-06 15:55:32.995,-0.0023676476688472,13.613041955721052
2025-03-06 15:55:33.003,-0.0024549383863983,14.438783638547788
2025-03-06 15:55:33.011,-0.002540423998486,15.089674636527938
2025-03-06 15:55:33.019,-0.0026238870278418,15.573633436359843
2025-03-06 15:55:33.026,-0.0027051095631662,15.90139657898782
2025-03-06 15:55:33.034,-0.0027838773042,16.08566521580465
2025-03-06 15:55:33.042,-0.0028599831500615,16.140219319622997
2025-03-06 15:55:33.050,-0.0029332300620659,16.079041939145778
2025-03-06 15:55:33.058,-0.0030034329542403,15.915494725828951
2025-03-06 15:55:33.065,-0.0030704194002372,15.66158305243188
2025-03-06 15:55:33.073,-0.0031340290209611,15.327344509246595
2025-03-06 15:55:33.081,-0.0031941115485059,14.920388587188071
2025-03-06 15:55:33.089,-0.0032505237268052,14.445608173773136
2025-03-06 15:55:33.097,-0.0033031253551264,13.905075391195483
2025-03-06 15:55:33.105,-0.0033517748635477,13.29812563281039
2025-03-06 15:55:33.112,-0.0033963248325833,12.62162477148863
2025-03-06 15:55:33.120,-0.0034366178729416,11.870405800013229
2025-03-06 15:55:33.128,-0.0034724832944792,11.037853000842183
2025-03-06 15:55:33.136,-0.003503734999803,10.11660449917251
2025-03-06 15:55:33.144,-0.0035301710007789,9.09933806939784
2025-03-06 15:55:33.151,-0.0035515748612505,7.9796006330916605
2025-03-06 15:55:33.159,-0.0035677192387639,6.752639235234709
2025-03-06 15:55:33.167,-0.0035783715653726,5.416190567957097
2025-03-06 15:55:33.175,-0.0035833017850392,3.971187395566008
2025-03-06 15:55:33.183,-0.0035822919421109,2.4223434931596075
2025-03-06 15:55:33.190,-0.0035751472814337,0.7785838128620752
2025-03-06 15:55:33.198,-0.003561708379237,-0.946706694848404
2025-03-06 15:55:33.206,-0.0035418636871346,-2.735634169840297
2025-03-06 15:55:33.214,-0.0035155617535051,-4.565956484727007
2025-03-06 15:55:33.222,-0.0034828223009794,-6.4114536648837
2025-03-06 15:55:33.230,-0.0034437452988531,-8.242498820708052
2025-03-06 15:55:33.237,-0.0033985171867955,-10.02681119016478
2025-03-06 15:55:33.245,-0.0033474134913154,-11.730364502936723
2025-03-06 15:55:33.253,-0.0032907972352897,-13.318416596436164
2025-03-06 15:55:33.261,-0.0032291127689463,-14.75662034253653
2025-03-06 15:55:33.269,-0.0031628749263144,-16.012171729627365
2025-03-06 15:55:33.276,-0.0030926537025268,-17.054948574761628
2025-03-06 15:55:33.284,-0.0030190549315983,-17.858592936728698
2025-03-06 15:55:33.292,-0.0029426977177859,-18.40149191180028
2025-03-06 15:55:33.300,-0.0028641896373326,-18.667615090913426
2025-03-06 15:55:33.308,-0.0027841009557285,-18.647172429394157
2025-03-06 15:55:33.315,-0.0027029392424011,-18.33706342909436
2025-03-06 15:55:33.323,-0.0026211257659561,-17.741097066083622
2025-03-06 15:55:33.331,-0.002538974925929,-16.86997143510563
2025-03-06 15:55:33.339,-0.0024566777747643,-15.741012178767516
2025-03-06 15:55:33.347,-0.0023742904696552,-14.3776789449464
2025-03-06 15:55:33.355,-0.0022917282932916,-12.80885888937686
2025-03-06 15:55:33.362,-0.0022087656609655,-11.067975157974836
2025-03-06 15:55:33.370,-0.002125042241674,-9.19194594131856
2025-03-06 15:55:33.378,-0.0020400749765543,-7.220035755748899
2025-03-06 15:55:33.386,-0.0019532754601014,-5.192644814610519
2025-03-06 15:55:33.394,-0.0018639719382969,-3.150084537552049
2025-03-06 15:55:33.401,-0.0017714350926046,-1.1313873235823584
2025-03-06 15:55:33.409,-0.0016749067798437,0.8268033049109724
2025-03-06 15:55:33.417,-0.0015736309216652,2.691220091031172
2025-03-06 15:55:33.425,-0.0014668857219132,4.432800677108324
2025-03-06 15:55:33.433,-0.0013540162958364,6.027328521232715
2025-03-06 15:55:33.440,-0.00123446664012,7.455865631789917
2025-03-06 15:55:33.448,-0.0011078097389026,8.704965930162901
2025-03-06 15:55:33.456,-0.0009737745705412,9.766667681694084
2025-03-06 15:55:33.464,-0.0008322688720286,10.638272986269088
2025-03-06 15:55:33.472,-0.0006833966959844,11.321931370585704
2025-03-06 15:55:33.480,-0.0005274700101556,11.82405268655516
2025-03-06 15:55:33.487,-0.0003650138096237,12.15458145463246
2025-03-06 15:55:33.495,-0.0001967644303023,12.326170211990975
2025-03-06 15:55:33.503,-2.3660971700914228e-05,12.353293110917436
2025-03-06 15:55:33.511,0.0001531700480993,12.251342816497829
2025-03-06 15:55:33.519,0.0003324364807051,12.03575361676886
2025-03-06 15:55:33.526,0.0005127082622677,11.721191616061594
2025-03-06 15:55:33.534,0.0006924503411592,11.320849049680314
2025-03-06 15:55:33.542,0.0008700599024567,10.845874321516648
2025-03-06 15:55:33.550,0.0010439067968407,10.304962566613444
2025-03-06 15:55:33.558,0.0012123759675918,9.704123662828884
2025-03-06 15:55:33.565,0.0013739106182029,9.046635984029813
2025-03-06 15:55:33.573,0.0015270548404779,8.333185163868947
2025-03-06 15:55:33.581,0.0016704944070133,7.562178117295176
2025-03-06 15:55:33.589,0.0018030944384231,6.730213955871465
2025-03-06 15:55:33.597,0.0019239327113328,5.832685638920732
2025-03-06 15:55:33.605,0.0020323274901711,4.864479608168344
2025-03-06 15:55:33.612,0.00212785894758,3.820735597092463
2025-03-06 15:55:33.620,0.0022103834775346,2.6976255589476765
2025-03-06 15:55:33.628,0.0022800404710252,1.4931094025229503
2025-03-06 15:55:33.636,0.0023372513804623,0.2076260413838181
2025-03-06 15:55:33.644,0.0023827111368784,-1.1553188812322752
2025-03-06 15:55:33.651,0.0024173722101839,-2.5887024749186027
2025-03-06 15:55:33.659,0.002442421806297,-4.081698762174536
2025-03-06 15:55:33.667,0.0024592528572773,-5.61957723556944
2025-03-06 15:55:33.675,0.0024694295865566,-7.183796821118181
2025-03-06 15:55:33.683,0.0024746485391727,-8.75229700244578
2025-03-06 15:55:33.690,0.0024766960593898,-10.299978497115257
2025-03-06 15:55:33.698,0.0024774032640107,-11.799356841536076
2025-03-06 15:55:33.706,0.0024785995837234,-13.221363950803024
2025-03-06 15:55:33.714,0.0024820659064624,-14.536265548932413
2025-03-06 15:55:33.722,0.0024894882472447,-15.714656629202508
2025-03-06 15:55:33.730,0.002502412724134,-16.728493053232956
2025-03-06 15:55:33.737,0.0025222025108924,-17.552115209130775
2025-03-06 15:55:33.745,0.0025499974084105,-18.163219424728585
2025-03-06 15:55:33.753,0.002586676712177,-18.543734592186617
2025-03-06 15:55:33.761,0.0026328261079673,-18.68056514313469
2025-03-06 15:55:33.769,0.0026887093807941,-18.56616697466021
2025-03-06 15:55:33.776,0.0027542457710655,-18.198929941311167
2025-03-06 15:55:33.784,0.002828993842578,-17.583348796880603
2025-03-06 15:55:33.792,0.0029121427136217,-16.729973622585888
2025-03-06 15:55:33.800,0.0030025114414992,-15.655140388494129
2025-03-06 15:55:33.808,0.0030985572661182,-14.38049190108536
2025-03-06 15:55:33.815,0.0031983933202535,-12.93230852515955
2025-03-06 15:55:33.823,0.0032998162714214,-11.34067629217541
2025-03-06 15:55:33.831,0.0034003441313906,-9.638526932145812
2025-03-06 15:55:33.839,0.0034972641527619,-7.860589677564044
2025-03-06 15:55:33.847,0.0035876903736434,-6.042298152051695
2025-03-06 15:55:33.855,0.0036686300207029,-4.218697125745339
2025-03-06 15:55:33.862,0.0037370576470582,-2.423393339475214
2025-03-06 15:55:33.870,0.0037899955401865,-0.6875920191229753
2025-03-06 15:55:33.878,0.0038245985766562,0.9607437265619602
2025-03-06 15:55:33.886,0.0038382413552283,2.497579460996115
2025-03-06 15:55:33.894,0.0038286051491477,3.903318077314773
2025-03-06 15:55:33.901,0.0037937620025148,5.163114938374473
2025-03-06 15:55:33.909,0.0037322531560564,6.266992631635104
2025-03-06 15:55:33.917,0.0036431589250705,7.209757343819016
2025-03-06 15:55:33.925,0.0035261571793248,7.990727461426879
2025-03-06 15:55:33.933,0.0033815677148415,8.613292968708153
2025-03-06 15:55:33.940,0.0032103800827609,9.084331218891972
2025-03-06 15:55:33.948,0.0030142628664445,9.41351041872094
2025-03-06 15:55:33.956,0.002795552977767,9.612516466204513
2025-03-06 15:55:33.964,0.0025572242424628,9.694241455461588
2025-03-06 15:55:33.972,0.0023028352871841,9.671973120656489
2025-03-06 15:55:33.980,0.0020364574609337,9.55862372034963
2025-03-06 15:55:33.987,0.0017625842099053,9.366034425636524
2025-03-06 15:55:33.995,0.0014860240088762,9.104387296552376
2025-03-06 15:55:34.003,0.0012117796520202,8.781751590884635
2025-03-06 15:55:34.011,0.0009449173997105,8.403784672171158
2025-03-06 15:55:34.019,0.0006904301354507,7.973600432427374
2025-03-06 15:55:34.026,0.0004530992866335,7.491810215145631
2025-03-06 15:55:34.034,0.0002373607358661,6.956733035912946
2025-03-06 15:55:34.042,4.718013448368014e-05,6.364763792019453
2025-03-06 15:55:34.050,-0.0001140572519363,5.710880480063704
2025-03-06 15:55:34.058,-0.0002436378267214,4.9892645494446
2025-03-06 15:55:34.065,-0.0003395888735494,4.194002736639906
2025-03-06 15:55:34.073,-0.000400723715993,3.3198343407883044
2025-03-06 15:55:34.081,-0.0004266619357825,2.3629051541857056
2025-03-06 15:55:34.089,-0.0004178246647084,1.3214883213111477
2025-03-06 15:55:34.097,-0.0003754057556689,0.1966333468155947
2025-03-06 15:55:34.105,-0.0003013204277282,-1.007292717972487
2025-03-06 15:55:34.112,-0.0001981338366976,-2.282203337873551
2025-03-06 15:55:34.120,-6.897292335864583e-05,-3.616055175328886
2025-03-06 15:55:34.128,8.257428093314499e-05,-4.992793470812209
2025-03-06 15:55:34.136,0.0002525671217524,-6.392490018603383
2025-03-06 15:55:34.144,0.000436823584511,-7.791674924771694
2025-03-06 15:55:34.151,0.0006310296092792,-9.163854482651368
2025-03-06 15:55:34.159,0.0008308423390145,-10.480198888690472
2025-03-06 15:55:34.167,0.0010319840658194,-11.71037551625131
2025-03-06 15:55:34.175,0.0012303246441793,-12.823496414710432
2025-03-06 15:55:34.183,0.0014219511652684,-13.789142925628807
2025-03-06 15:55:34.190,0.0016032246459268,-14.578426084701531
2025-03-06 15:55:34.198,0.0017708242971422,-15.165039026327673
2025-03-06 15:55:34.206,0.0019217805528291,-15.526257069825544
2025-03-06 15:55:34.214,0.0020534984583285,-15.64384259950616
2025-03-06 15:55:34.222,0.0021637732476841,-15.504815223215612
2025-03-06 15:55:34.230,0.0022507999727683,-15.10205288522234
2025-03-06 15:55:34.237,0.0023131788803522,-14.434696411084188
2025-03-06 15:55:34.245,0.0023499178917693,-13.508338082158446
2025-03-06 15:55:34.253,0.0023604330892829,-12.334983911484969
2025-03-06 15:55:34.261,0.0023445476371207,-10.932788902464146
2025-03-06 15:55:34.269,0.0023024891356499,-9.325574264931948
2025-03-06 15:55:34.276,0.0022348850628357,-7.542144877831336
2025-03-06 15:55:34.284,0.0021427557011198,-5.615433779202101
2025-03-06 15:55:34.292,0.0020275037671804,-3.581507732210998
2025-03-06 15:55:34.300,0.0018908998539332,-1.478473624481245
2025-03-06 15:55:34.308,0.0017350627837635,0.6546706488145984
2025-03-06 15:55:34.316,0.0015624341046744,2.779195252212099
2025-03-06 15:55:34.323,0.0013757462724915,4.85776198503664
2025-03-06 15:55:34.331,0.0011779845441647,6.855469046112019
2025-03-06 15:55:34.339,0.0009723431713537,8.740777669828894
2025-03-06 15:55:34.347,0.0007621769565631,10.486286988572
2025-03-06 15:55:34.355,0.0005509494421337,12.069330548731752
2025-03-06 15:55:34.362,0.0003421789006947,13.472376037314874
2025-03-06 15:55:34.370,0.000139382997996,14.683218570490515
2025-03-06 15:55:34.378,-5.397733439375103e-05,15.694966935115009
2025-03-06 15:55:34.386,-0.0002345545566649,16.505831040091604
2025-03-06 15:55:34.394,-0.0003991716496539,17.11872712924652
2025-03-06 15:55:34.401,-0.0005448797639177,17.540724678383732
2025-03-06 15:55:34.409,-0.0006690164105673,17.782365056795474
2025-03-06 15:55:34.417,-0.00076926401259,17.85688675896065
2025-03-06 15:55:34.425,-0.0008437082572155,17.779395153100808
2025-03-06 15:55:34.433,-0.0008908951900531,17.566016157798874
2025-03-06 15:55:34.441,-0.000909885455741,17.233073014076627
2025-03-06 15:55:34.448,-0.0009003035958139,16.796323398963747
2025-03-06 15:55:34.456,-0.0008623799153585,16.270290621422518
2025-03-06 15:55:34.464,-0.0007969821594651,15.66771770480563
2025-03-06 15:55:34.472,-0.000705634108152,14.9991669969295
2025-03-06 15:55:34.480,-0.0005905181941031,14.27278081324876
2025-03-06 15:55:34.487,-0.0004544593801567,13.494210808198126
2025-03-06 15:55:34.495,-0.0003008878448221,12.66671561566762
2025-03-06 15:55:34.503,-0.0001337785475985,11.791418152563566
2025-03-06 15:55:34.511,4.2433518283593606e-05,10.867706197935991
2025-03-06 15:55:34.519,0.0002229626377451,9.89375280091935
2025-03-06 15:55:34.526,0.0004028053497614,8.867127076383763
2025-03-06 15:55:34.534,0.0005768948076224,7.785461326589955
2025-03-06 15:55:34.542,0.0007402726408533,6.647137430883145
2025-03-06 15:55:34.550,0.0008882726583361,5.451954245141304
2025-03-06 15:55:34.558,0.0010167089285428,4.201738428698833
2025-03-06 15:55:34.566,0.0011220592145906,2.9008636519955
2025-03-06 15:55:34.573,0.0012016337364715,1.556647417165155
2025-03-06 15:55:34.581,0.0012537189903693,0.1796005351556171
2025-03-06 15:55:34.589,0.0012776869409037,-1.216488645439411
2025-03-06 15:55:34.597,0.0012740612700581,-2.614645223122188
2025-03-06 15:55:34.605,0.0012445343818138,-3.994975468604118
2025-03-06 15:55:34.612,0.0011919313180403,-5.335104283051027
2025-03-06 15:55:34.620,0.0011201194196272,-6.610767150426534
2025-03-06 15:55:34.628,0.00103386529947,-7.796533790097799
2025-03-06 15:55:34.636,0.0009386433655667,-8.866634174683648
2025-03-06 15:55:34.644,0.0008404026354356,-9.795852337298031
2025-03-06 15:55:34.651,0.0007453007896925,-10.56044968229655
2025-03-06 15:55:34.659,0.000659416171751,-11.139077505930878
2025-03-06 15:55:34.667,0.0005884495963427,-11.513638236424988
2025-03-06 15:55:34.675,0.0005374282829944,-11.670056553740553
2025-03-06 15:55:34.683,0.0005104240031347,-11.598925004351852
2025-03-06 15:55:34.691,0.0005102967601388,-11.295993857929304
2025-03-06 15:55:34.698,0.0005384742098699,-10.762481547870642
2025-03-06 15:55:34.706,0.0005947757713037,-10.005189800519403
2025-03-06 15:55:34.714,0.0006772891086486,-9.036416121626418
2025-03-06 15:55:34.722,0.0007823054260451,-7.873665256528085
2025-03-06 15:55:34.730,0.0009043187455179,-6.5391701343809965
2025-03-06 15:55:34.737,0.00103609292141,-5.059241213235425
2025-03-06 15:55:34.745,0.0011687984579654,-3.463470655593608
2025-03-06 15:55:34.753,0.0012922191731227,-1.7838240252239022
2025-03-06 15:55:34.761,0.001395026418009,-0.0536569157180493
2025-03-06 15:55:34.769,0.0014651160303229,1.6933031053245424
2025-03-06 15:55:34.776,0.0014900006028718,3.4239677380556346
2025-03-06 15:55:34.784,0.0014572470767756,5.106851644803932
2025-03-06 15:55:34.792,0.0013549471883478,6.712950442823178
2025-03-06 15:55:34.800,0.0011722060136777,8.21649908724346
2025-03-06 15:55:34.808,0.0008996319135547,9.595582431032923
2025-03-06 15:55:34.816,0.0005298097205253,10.832576614199557
2025-03-06 15:55:34.823,5.773812283089459e-05,11.914407647572936
2025-03-06 15:55:34.831,-0.0005187880526876,12.832621764258407
2025-03-06 15:55:34.839,-0.0011988695225867,13.58327044499175
2025-03-06 15:55:34.847,-0.0019782858654633,14.166621113654918
2025-03-06 15:55:34.855,-0.0028493861053108,14.586711998110818
2025-03-06 15:55:34.862,-0.0038010992210397,14.85077624791011
2025-03-06 15:55:34.870,-0.0048190733454813,14.968565827537477
2025-03-06 15:55:34.878,-0.0058859476238809,14.95160974234395
2025-03-06 15:55:34.886,-0.0069817550545077,14.812443636022376
2025-03-06 15:55:34.894,-0.0080844481986856,14.563848612290297
2025-03-06 15:55:34.901,-0.0091705326295057,14.21813623113857
2025-03-06 15:55:34.909,-0.0102157858780049,13.786514032693695
2025-03-06 15:55:34.917,-0.0111960332419091,13.278561745922923
2025-03-06 15:55:34.925,-0.0120879470794452,12.701842717911743
2025-03-06 15:55:34.933,-0.0128698338323882,12.06166829430316
2025-03-06 15:55:34.941,-0.0135223732494429,11.36102519218829
2025-03-06 15:55:34.948,-0.0140292768867647,10.600667678550144
2025-03-06 15:55:34.956,-0.0143778374350863,9.779367980539377
2025-03-06 15:55:34.964,-0.0145593461731711,8.8943102115121
2025-03-06 15:55:34.972,-0.0145693623799676,7.9416056088100415
2025-03-06 15:55:34.980,-0.0144078255372874,6.916900440505473
2025-03-06 15:55:34.987,-0.0140790084191738,5.81604290161923
2025-03-06 15:55:34.995,-0.0135913164562076,4.6357719704131455
2025-03-06 15:55:35.003,-0.0129569457273571,3.374389729492711
2025-03-06 15:55:35.011,-0.0121914181108401,2.0323791723291147
2025-03-06 15:55:35.019,-0.0113130170456566,0.6129320038307192
2025-03-06 15:55:35.026,-0.0103421506799916,-0.8776447166680212
2025-03-06 15:55:35.034,-0.0093006708254853,-2.429668277073038
2025-03-06 15:55:35.042,-0.008211176220234,-4.029984275569814
2025-03-06 15:55:35.050,-0.0070963273429319,-5.662044574487068
2025-03-06 15:55:35.058,-0.0059781976759879,-7.3061603032453055
2025-03-06 15:55:35.066,-0.0048776831848715,-8.93992226490525
2025-03-06 15:55:35.073,-0.0038139881436853,-10.538772809460974
2025-03-06 15:55:35.081,-0.0028042014807801,-12.076705773331224
2025-03-06 15:55:35.089,-0.0018629736197746,-13.527064814280571
2025-03-06 15:55:35.097,-0.0010022993733134,-14.863405693298567
2025-03-06 15:55:35.105,-0.000231407883408,-16.060384986314098
2025-03-06 15:55:35.112,0.000443243926168,-17.094636471536305
2025-03-06 15:55:35.120,0.0010178821725669,-17.945597057985406
2025-03-06 15:55:35.128,0.0014912426365635,-18.596246530074435
2025-03-06 15:55:35.136,0.0018643277232012,-19.033729430527572
2025-03-06 15:55:35.144,0.0021401104453523,-19.249832864325512
2025-03-06 15:55:35.151,0.0023232033481335,-19.241300593199448
2025-03-06 15:55:35.159,0.0024195106139932,-19.00997116983231
2025-03-06 15:55:35.167,0.0024358810128907,-18.56273566845159
2025-03-06 15:55:35.175,0.0023797779392514,-17.911318426005547
2025-03-06 15:55:35.183,0.0022589806259639,-17.07189174669627
2025-03-06 15:55:35.191,0.0020813279101056,-16.064542404557066
2025-03-06 15:55:35.198,0.0018545128088989,-14.912613713261248
2025-03-06 15:55:35.206,0.0015859328030651,-13.64195168316152
2025-03-06 15:55:35.214,0.0012825972933878,-12.28008717448657
2025-03-06 15:55:35.222,0.0009510903894858,-10.85538786762779
2025-03-06 15:55:35.230,0.000597584175147,-9.396214260903132
2025-03-06 15:55:35.237,0.0002278949805678,-7.930112798477125
2025-03-06 15:55:35.245,-0.0001524269468398,-6.483076716877049
2025-03-06 15:55:35.253,-0.0005379855644362,-5.078901424561313
2025-03-06 15:55:35.261,-0.000923417088382,-3.738656389544447
2025-03-06 15:55:35.269,-0.0013032703908404,-2.480289837915289
2025-03-06 15:55:35.276,-0.0016719017622706,-1.318376322155813
2025-03-06 15:55:35.284,-0.002023395070466,-0.2640106810814952
2025-03-06 15:55:35.292,-0.0023515168385172,0.6751546310567725
2025-03-06 15:55:35.300,-0.0026497138053716,1.494738137452701
2025-03-06 15:55:35.308,-0.0029111581671696,2.1933388691997697
2025-03-06 15:55:35.316,-0.003128842969603,2.772146785722428
2025-03-06 15:55:35.323,-0.0032957271186227,3.234477978998793
2025-03-06 15:55:35.331,-0.0034049263244514,3.585261338299078
2025-03-06 15:55:35.339,-0.0034499431281387,3.8305048657797487
2025-03-06 15:55:35.347,-0.0034249261370815,3.9767700254804033
2025-03-06 15:55:35.355,-0.0033249459204991,4.030681388114054
2025-03-06 15:55:35.362,-0.0031462729160538,3.998496468163929
2025-03-06 15:55:35.370,-0.002886641355385,3.885757155066133
2025-03-06 15:55:35.378,-0.0025454827282734,3.697039676955796
2025-03-06 15:55:35.386,-0.0021241127248087,3.435814801780605
2025-03-06 15:55:35.394,-0.0016258569641155,3.104424204711581
2025-03-06 15:55:35.401,-0.0010561031422813,2.7041728588970138
2025-03-06 15:55:35.409,-0.0004222704402648,2.235531191603893
2025-03-06 15:55:35.417,0.0002663089884393,1.6984348436876564
2025-03-06 15:55:35.425,0.0009985969670033,1.092664431523426
2025-03-06 15:55:35.433,0.0017621399342428,0.4182829907962426
2025-03-06 15:55:35.441,0.0025434328843741,-0.3238949718220263
2025-03-06 15:55:35.448,0.0033283406887435,-1.1318314517061283
2025-03-06 15:55:35.456,0.0041025562066911,-2.0018197487034866
2025-03-06 15:55:35.464,0.0048520715577674,-2.9280955540489044
2025-03-06 15:55:35.472,0.0055636380407878,-3.902531846193936
2025-03-06 15:55:35.480,0.0062251914863129,-4.914441638266675
2025-03-06 15:55:35.487,0.0068262229394055,-5.950507711501756
2025-03-06 15:55:35.495,0.0073580788961612,-6.994852348400039
2025-03-06 15:55:35.503,0.0078141802473266,-8.029253039978075
2025-03-06 15:55:35.511,0.0081901541049674,-9.033502539426031
2025-03-06 15:55:35.519,0.0084838774514112,-9.985903868795011
2025-03-06 15:55:35.526,0.0086954358396945,-10.86388337514004
2025-03-06 15:55:35.534,0.0088270040565525,-11.644698094057947
2025-03-06 15:55:35.542,0.0088826586385253,-12.306207904163813
2025-03-06 15:55:35.550,0.0088681343457398,-12.827678594894524
2025-03-06 15:55:35.558,0.0087905381160253,-13.190579304290658
2025-03-06 15:55:35.566,0.0086580346596085,-13.379336999235663
2025-03-06 15:55:35.573,0.0084795177730422,-13.382011835035314
2025-03-06 15:55:35.581,0.0082642807370312,-13.190860287638287
2025-03-06 15:55:35.589,0.0080216979241327,-12.802757733594724
2025-03-06 15:55:35.597,0.0077609281173892,-12.219458403544268
2025-03-06 15:55:35.605,0.0074906481822413,-11.447678026972326
2025-03-06 15:55:35.612,0.0072188237748537,-10.498992636471453
2025-03-06 15:55:35.620,0.006952521813615,-9.389555488055754
2025-03-06 15:55:35.628,0.0066977675673494,-8.13964244389282
2025-03-06 15:55:35.636,0.0064594474793132,-6.773044030675139
2025-03-06 15:55:35.644,0.0062412572709532,-5.316329343630559
2025-03-06 15:55:35.651,0.0060456934483219,-3.798012681405055
2025-03-06 15:55:35.659,0.0058740850717913,-2.247658006894482
2025-03-06 15:55:35.667,0.0057266615790751,-0.6949588459021
2025-03-06 15:55:35.675,0.0056026516044658,0.8311680460568153
2025-03-06 15:55:35.683,0.005500407114091,2.3034380181739613
2025-03-06 15:55:35.691,0.0054175467532376,3.6969684807965217
2025-03-06 15:55:35.698,0.0053511120574869,4.989933556116143
2025-03-06 15:55:35.706,0.0052977301321717,6.164079313260215
2025-03-06 15:55:35.714,0.00525377660492,7.20508235809219
2025-03-06 15:55:35.722,0.0052155331206165,8.102742133575417
2025-03-06 15:55:35.730,0.0051793343160201,8.85100518956111
2025-03-06 15:55:35.737,0.0051416999983113,9.44782750248511
2025-03-06 15:55:35.745,0.0050994491203676,9.894888276675644
2025-03-06 15:55:35.753,0.0050497930845525,10.197175182168609
2025-03-06 15:55:35.761,0.0049904068699458,10.362466371706676
2025-03-06 15:55:35.769,0.0049194773881159,10.400738628983229
2025-03-06 15:55:35.776,0.0048357292841738,10.323533463806516
2025-03-06 15:55:35.784,0.0047384291178477,10.14331380456019
2025-03-06 15:55:35.792,0.0046273694940868,9.872843148608538
2025-03-06 15:55:35.800,0.0045028352529292,9.52461670485615
2025-03-06 15:55:35.808,0.0043655542601359,9.110370359768105
2025-03-06 15:55:35.816,0.0042166356646161,8.640688438780186
2025-03-06 15:55:35.823,0.0040574987166224,8.124725485548927
2025-03-06 15:55:35.831,0.0038897953766358,7.570050939700917
2025-03-06 15:55:35.839,0.003715329973489,6.982618972984248
2025-03-06 15:55:35.847,0.0035359790648347,6.366859157939551
2025-03-06 15:55:35.855,0.0033536144118494,5.72587739435254
2025-03-06 15:55:35.862,0.0031700316475323,5.0617508884957445
2025-03-06 15:55:35.870,0.0029868868520392,4.375896224891468
2025-03-06 15:55:35.878,0.0028056428712893,3.669485912847143
2025-03-06 15:55:35.886,0.0026275268105451,2.943886404638414
2025-03-06 15:55:35.894,0.0024534996885474,2.201089580700289
2025-03-06 15:55:35.901,0.0022842387580387,1.4441101241090226
2025-03-06 15:55:35.909,0.0021201325007586,0.6773230415910706
2025-03-06 15:55:35.917,0.0019612878059163,-0.0932812523559556
2025-03-06 15:55:35.925,0.0018075483679889,-0.8599425337811675
2025-03-06 15:55:35.933,0.0016585229297705,-1.6130899830227363
2025-03-06 15:55:35.941,0.0015136216832604,-2.341421913375854
2025-03-06 15:55:35.948,0.0013720989332365,-3.032106454208432
2025-03-06 15:55:35.956,0.0012331000012176,-3.671097065670736
2025-03-06 15:55:35.964,0.001095710269217,-4.243550436152082
2025-03-06 15:55:35.972,0.000959004236937,-4.734328558196754
2025-03-06 15:55:35.980,0.0008220925303461,-5.128561903438041
2025-03-06 15:55:35.987,0.0006841649767179,-5.412246891475015
2025-03-06 15:55:35.995,0.0005445281274877,-5.572848486917979
2025-03-06 15:55:36.003,0.0004026359190986,-5.599877909648212
2025-03-06 15:55:36.011,0.000258112487823,-5.485416167684545
2025-03-06 15:55:36.019,0.000110766506617,-5.224556388760525
2025-03-06 15:55:36.026,-3.9403190523113936e-05,-4.815741614865833
2025-03-06 15:55:36.034,-0.0001922104932712,-4.260979634684375
2025-03-06 15:55:36.042,-0.0003472927652967,-3.565922299524633
2025-03-06 15:55:36.050,-0.0005041284344774,-2.739803287729926
2025-03-06 15:55:36.058,-0.0006620601306303,-1.7952351071125134
2025-03-06 15:55:36.066,-0.0008203219506264,-0.7478728982458152
2025-03-06 15:55:36.073,-0.0009780694135242,0.384041023531812
2025-03-06 15:55:36.081,-0.0011344107091057,1.580232288944458
2025-03-06 15:55:36.089,-0.0012884379096482,2.8190249835330463
2025-03-06 15:55:36.097,-0.0014392569092671,4.078019792877097
2025-03-06 15:55:36.105,-0.001586014991883,5.334789914802923
2025-03-06 15:55:36.112,-0.0017279251088116,6.567564207093849
2025-03-06 15:55:36.120,-0.0018642861611314,7.7558678632508995
2025-03-06 15:55:36.128,-0.0019944988213211,8.881093176036615
2025-03-06 15:55:36.136,-0.0021180766745507,9.926976541511603
2025-03-06 15:55:36.144,-0.0022346526815882,10.879962586952445
2025-03-06 15:55:36.151,-0.0023439811431325,11.72944192556766
2025-03-06 15:55:36.159,-0.0024459354884677,12.467855256469177
2025-03-06 15:55:36.167,-0.0025405023384369,13.090663024425142
2025-03-06 15:55:36.175,-0.0026277724023798,13.59618631236013
2025-03-06 15:55:36.183,-0.0027079288373123,13.985330754325634
2025-03-06 15:55:36.191,-0.0027812337048271,14.261210745296507
2025-03-06 15:55:36.198,-0.0028480131114571,14.428695838533578
2025-03-06 15:55:36.206,-0.0029086415472471,14.493904756414327
2025-03-06 15:55:36.214,-0.0029635258957436,14.46367474044334
2025-03-06 15:55:36.222,-0.0030130896028874,14.345034927610191
2025-03-06 15:55:36.230,-0.0030577575404939,14.144712018642544
2025-03-06 15:55:36.237,-0.0030979421356055,13.868694717825443
2025-03-06 15:55:36.245,-0.0031340313264024,13.521880357775728
2025-03-06 15:55:36.253,-0.0031663788373125,13.107822918558291
2025-03-06 15:55:36.261,-0.0031952971422938,12.628596497161668
2025-03-06 15:55:36.269,-0.0032210533192123,12.084782401479831
2025-03-06 15:55:36.276,-0.0032438678172474,11.47558167942753
2025-03-06 15:55:36.284,-0.0032639159926635,10.799048320755931
2025-03-06 15:55:36.292,-0.003281332129967,10.052431881915512
2025-03-06 15:55:36.300,-0.0032962155583654,9.232612192345664
2025-03-06 15:55:36.308,-0.0033086384008784,8.336603411781947
2025-03-06 15:55:36.316,-0.0033186544558804,7.362100312908119
2025-03-06 15:55:36.323,-0.0033263087059207,6.308036520502744
2025-03-06 15:55:36.331,-0.0033316469745678,5.1751227587365625
2025-03-06 15:55:36.339,-0.0033347252962829,3.966333088916576
2025-03-06 15:55:36.347,-0.0033356186009722,2.687308724558207
2025-03-06 15:55:36.355,-0.0033344283299086,1.3466522598998494
2025-03-06 15:55:36.362,-0.0033312886143751,-0.0439100814764564
2025-03-06 15:55:36.370,-0.0033263707036301,-1.4695144904811863
2025-03-06 15:55:36.378,-0.0033198854349108,-2.9123031179322907
2025-03-06 15:55:36.386,-0.0033120836466715,-4.351726552608109
2025-03-06 15:55:36.394,-0.0033032544855472,-5.764998600835389
2025-03-06 15:55:36.401,-0.0032937215453293,-7.127688806646953
2025-03-06 15:55:36.409,-0.0032838367594697,-8.414430778363846
2025-03-06 15:55:36.417,-0.0032739719929475,-9.599717978800422
2025-03-06 15:55:36.425,-0.0032645083414455,-10.6587535541807
2025-03-06 15:55:36.433,-0.0032558232310106,-11.568317311319396
2025-03-06 15:55:36.441,-0.0032482755282113,-12.307611304074443
2025-03-06 15:55:36.448,-0.0032421890246122,-12.859045760095205
2025-03-06 15:55:36.456,-0.0032378348195341,-13.20892926659207
2025-03-06 15:55:36.464,-0.0032354132488539,-13.34803113720533
2025-03-06 15:55:36.472,-0.0032350360874142,-13.271989504782525
2025-03-06 15:55:36.480,-0.0032367098161557,-12.981545646637615
2025-03-06 15:55:36.487,-0.0032403208071675,-12.482592996240635
2025-03-06 15:55:36.495,-0.0032456233125287,-11.786037817017329
2025-03-06 15:55:36.503,-0.003252231105825,-10.907477165024462
2025-03-06 15:55:36.511,-0.0032596135147916,-9.866708099312484
2025-03-06 15:55:36.519,-0.0032670964310241,-8.687089688956943
2025-03-06 15:55:36.526,-0.0032738687031452,-7.394785839706569
2025-03-06 15:55:36.534,-0.0032789940920396,-6.017922012201035
2025-03-06 15:55:36.542,-0.0032814286913138,-4.585692297064344
2025-03-06 15:55:36.550,-0.0032800434577797,-3.1274549067557804
2025-03-06 15:55:36.558,-0.0032736513187733,-1.6718538920402517
2025-03-06 15:55:36.566,-0.0032610382070093,-0.2460028438725743
2025-03-06 15:55:36.573,-0.0032409972525775,1.1252373543792806
2025-03-06 15:55:36.581,-0.0032123652093783,2.41985977834942
2025-03-06 15:55:36.589,-0.0031740600399368,3.619171028233288
2025-03-06 15:55:36.597,-0.0031251184583497,4.70809548614518
2025-03-06 15:55:36.605,-0.003064732134368,5.675318168076616
2025-03-06 15:55:36.612,-0.0029922811895715,6.513267694084276
2025-03-06 15:55:36.620,-0.0029073635916523,7.217948260511744
2025-03-06 15:55:36.628,-0.0028098190890435,7.788636262592012
2025-03-06 15:55:36.636,-0.0026997464012874,8.227463085334248
2025-03-06 15:55:36.644,-0.0025775124760877,8.538910302109294
2025-03-06 15:55:36.651,-0.0024437527975083,8.72924689424067
2025-03-06 15:55:36.659,-0.0022993620687623,8.805939992809169
2025-03-06 15:55:36.667,-0.0021454751187579,8.777070977775965
2025-03-06 15:55:36.675,-0.0019834385185687,8.650787557574214
2025-03-06 15:55:36.683,-0.0018147740229327,8.434819777194509
2025-03-06 15:55:36.691,-0.0016411354722341,8.136083913468475
2025-03-06 15:55:36.698,-0.0014642611564444,7.760393116569159
2025-03-06 15:55:36.706,-0.0012859238596971,7.312287693979097
2025-03-06 15:55:36.714,-0.0011078808848153,6.794991388645929
2025-03-06 15:55:36.722,-0.0009318262902495,6.210493184500008
2025-03-06 15:55:36.730,-0.0007593473512875,5.559747404839145
2025-03-06 15:55:36.737,-0.0005918869159357,4.842978478726798
2025-03-06 15:55:36.745,-0.0004307129197375,4.060071044466944
2025-03-06 15:55:36.753,-0.000276895896347,3.211021306831914
2025-03-06 15:55:36.761,-0.0001312948929318,2.2964219901814658
2025-03-06 15:55:36.769,5.448218988897443e-06,1.317951011743764
2025-03-06 15:55:36.777,0.0001329064479577,0.2788332686084107
2025-03-06 15:55:36.784,0.0002508581825775,-0.815754240981951
2025-03-06 15:55:36.792,0.0003592715780725,-1.9583613598269585
2025-03-06 15:55:36.800,0.0004582841389606,-3.1390513236932445
2025-03-06 15:55:36.808,0.000548178913956,-4.3453133135079725
2025-03-06 15:55:36.816,0.0006293587205071,-5.562113178231137
2025-03-06 15:55:36.823,0.000702319745225,-6.772087515262508
2025-03-06 15:55:36.831,0.000767625764158,-7.955878894473843
2025-03-06 15:55:36.839,0.0008258841088901,-9.09260256872231
2025-03-06 15:55:36.847,0.0008777243370111,-10.1604279136923
2025-03-06 15:55:36.855,0.0009237802962604,-11.13725145952774
2025-03-06 15:55:36.862,0.000964675903212,-12.00143306059686
2025-03-06 15:55:36.870,0.0010010145751068,-12.732562789102776
2025-03-06 15:55:36.878,0.0010333719571098,-13.312223754015138
2025-03-06 15:55:36.886,0.0010622914109445,-13.724715379345524
2025-03-06 15:55:36.894,0.0010882816497983,-13.957702779672298
2025-03-06 15:55:36.902,0.001111815893089,-14.00276071161376
2025-03-06 15:55:36.909,0.0011333319641572,-13.855785033025052
2025-03-06 15:55:36.917,0.0011532328510722,-13.517250454399113
2025-03-06 15:55:36.925,0.0011718873705597,-12.992300326992275
2025-03-06 15:55:36.933,0.0011896306915964,-12.290661924639796
2025-03-06 15:55:36.941,0.0012067645737573,-11.42638874789466
2025-03-06 15:55:36.948,0.001223557253113,-10.41743940467413
2025-03-06 15:55:36.956,0.0012402429646915,-9.285110204782567
2025-03-06 15:55:36.964,0.0012570211316336,-8.05334537512312
2025-03-06 15:55:36.972,0.0012740552985247,-6.747954427231615
2025-03-06 15:55:36.980,0.0012914719509805,-5.395770415763175
2025-03-06 15:55:36.987,0.0013093594196824,-4.023785414508006
2025-03-06 15:55:36.995,0.0013277670776291,-2.6583003846899307
2025-03-06 15:55:37.003,0.0013467050029677,-1.324125682934681
2025-03-06 15:55:37.011,0.0013661442307327,-0.0438658043535927
2025-03-06 15:55:37.019,0.0013860176783674,1.1626822842822429
2025-03-06 15:55:37.027,0.0014062217905814,2.2789934806576118
2025-03-06 15:55:37.034,0.0014266188957465,3.2921245187598744
2025-03-06 15:55:37.042,0.0014470402120373,4.192860011723663
2025-03-06 15:55:37.050,0.0014672894003408,4.975692869002286
2025-03-06 15:55:37.058,0.0014871465196184,5.63864528125369
2025-03-06 15:55:37.066,0.0015063721877589,6.182944002246376
2025-03-06 15:55:37.073,0.0015247117122682,6.612570479181709
2025-03-06 15:55:37.081,0.0015418989748962,6.933712162800792
2025-03-06 15:55:37.089,0.0015576599522022,7.154145785260329
2025-03-06 15:55:37.097,0.0015717159031209,7.282586309671452
2025-03-06 15:55:37.105,0.0015837863935362,7.328036491947529
2025-03-06 15:55:37.112,0.001593592396022,7.299171502356209
2025-03-06 15:55:37.120,0.0016008596750906,7.203790867775426
2025-03-06 15:55:37.128,0.001605322567105,7.048366233153542
2025-03-06 15:55:37.136,0.0016067281395441,6.837708288006349
2025-03-06 15:55:37.144,0.0016048406063271,6.574769905530427
2025-03-06 15:55:37.152,0.001599445801029,6.2605953932224665
2025-03-06 15:55:37.159,0.0015903554819851,5.89441809065266
2025-03-06 15:55:37.167,0.0015774112781347,5.473900734431031
2025-03-06 15:55:37.175,0.0015604881726896,4.995505414548708
2025-03-06 15:55:37.183,0.0015394975245354,4.454972937239286
2025-03-06 15:55:37.191,0.0015143897104204,3.847885334231044
2025-03-06 15:55:37.198,0.0014851565222045,3.170280426480577
2025-03-06 15:55:37.206,0.0014518334618207,2.4192840184547024
2025-03-06 15:55:37.214,0.0014145020215708,1.5937236573961484
2025-03-06 15:55:37.222,0.001373291912197,0.6946880561931045
2025-03-06 15:55:37.230,0.0013283830376596,-0.2740017214531219
2025-03-06 15:55:37.237,0.0012800068778882,-1.305439443125674
2025-03-06 15:55:37.245,0.0012284468921638,-2.3894240022554856
2025-03-06 15:55:37.253,0.0011740376217907,-3.512410816065014
2025-03-06 15:55:37.261,0.0011171623187288,-4.657634504983285
2025-03-06 15:55:37.269,0.0010582490770799,-5.805404530046629
2025-03-06 15:55:37.277,0.000997765523219,-6.933566692937668
2025-03-06 15:55:37.284,0.0009362121171411,-8.018114809636492
2025-03-06 15:55:37.292,0.0008741140796251,-9.03392890367268
2025-03-06 15:55:37.300,0.0008120119452533,-9.95560935336314
2025-03-06 15:55:37.308,0.0007504507939314,-10.75837094715083
2025-03-06 15:55:37.316,0.000689968354493,-11.418957066313835
2025-03-06 15:55:37.323,0.0006310823780752,-11.916532456055824
2025-03-06 15:55:37.331,0.0005742778692071,-12.23351339249848
2025-03-06 15:55:37.339,0.0005199948617692,-12.356296513600084
2025-03-06 15:55:37.347,0.0004686174177005,-12.27585203893444
2025-03-06 15:55:37.355,0.0004204644417263,-11.98815331601451
2025-03-06 15:55:37.362,0.0003757827759456,-11.4944222537929
2025-03-06 15:55:37.370,0.0003347428758978,-10.801178815743391
2025-03-06 15:55:37.378,0.0002974371891181,-9.920091881744844
2025-03-06 15:55:37.386,0.0002638811825894,-8.867637973647168
2025-03-06 15:55:37.394,0.0002340168207935,-7.664583109010801
2025-03-06 15:55:37.402,0.0002077181924475,-6.335310967644
2025-03-06 15:55:37.409,0.0001847989196858,-4.907027245559687
2025-03-06 15:55:37.417,0.0001650209552104,-3.4088752252602763
2025-03-06 15:55:37.425,0.0001481043780172,-1.8710009951937328
2025-03-06 15:55:37.433,0.0001337378297174,-0.3236082843550903
2025-03-06 15:55:37.441,0.000121589283525,1.2039574915255806
2025-03-06 15:55:37.448,0.0001113168921773,2.684058596220035
2025-03-06 15:55:37.456,0.0001025796904976,4.091514312245609
2025-03-06 15:55:37.464,9.504791528344332e-05,5.404222249739059
2025-03-06 15:55:37.472,8.841267148108824e-05,6.603630267227833
2025-03-06 15:55:37.480,8.239466171927971e-05,7.67504515592691
2025-03-06 15:55:37.487,7.675172720895065e-05,8.607772231275206
2025-03-06 15:55:37.495,7.128500734716398e-05,9.395088053172453
2025-03-06 15:55:37.503,6.584358656340707e-05,10.034056263171644
2025-03-06 15:55:37.511,6.032754677297633e-05,10.525203604628595
2025-03-06 15:55:37.519,5.46893795079547e-05,10.872079242878224
2025-03-06 15:55:37.527,4.893373143165138e-05,11.080725251979173
2025-03-06 15:55:37.534,4.31154691216462e-05,11.159089386465528
2025-03-06 15:55:37.542,3.733607575885117e-05,11.116412900007017
2025-03-06 15:55:37.550,3.1738445441798105e-05,10.962626178861989
2025-03-06 15:55:37.558,2.6500204959012504e-05,10.70778337155726
2025-03-06 15:55:37.566,2.1825744065945703e-05,10.36156412936282
2025-03-06 15:55:37.573,1.7937171199472318e-05,9.932866197487392
2025-03-06 15:55:37.581,1.506445123333845e-05,9.429507140706791
2025-03-06 15:55:37.589,1.343503590959052e-05,8.85804722099708
2025-03-06 15:55:37.597,1.326335129453156e-05,8.223738674026547
2025-03-06 15:55:37.605,1.4740543360647593e-05,7.530599678071358
2025-03-06 15:55:37.612,1.802491061297444e-05,6.781604495337358
2025-03-06 15:55:37.620,2.323348115514662e-05,5.978974906117003
2025-03-06 15:55:37.628,3.043519412271748e-05,5.124552453666505
2025-03-06 15:55:37.636,3.9646083018240536e-05,4.220226454050734
2025-03-06 15:55:37.644,5.082673015302434e-05,3.268389442374936
2025-03-06 15:55:37.652,6.388209608186288e-05,2.272389908237752
2025-03-06 15:55:37.659,7.86636477177271e-05,1.2369519330857082
2025-03-06 15:55:37.667,9.497353638318825e-05,0.1685327190994719
2025-03-06 15:55:37.675,0.0001125704527058,-0.924408049180898
2025-03-06 15:55:37.683,0.0001311767346229,-2.0312486685952087
2025-03-06 15:55:37.691,0.0001504863118556,-3.139171717838765
2025-03-06 15:55:37.698,0.0001701731090709,-4.233265584254925
2025-03-06 15:55:37.706,0.0001898995884135,-5.296763339195767
2025-03-06 15:55:37.714,0.0002093251744499,-6.311413547733449
2025-03-06 15:55:37.722,0.0002281143521712,-7.257970197403178
2025-03-06 15:55:37.730,0.0002459442585538,-8.11678207317616
2025-03-06 15:55:37.737,0.0002625116033102,-8.868455979197025
2025-03-06 15:55:37.745,0.0002775387507621,-9.494563554869805
2025-03-06 15:55:37.753,0.0002907787839227,-9.978358330323063
2025-03-06 15:55:37.761,0.0003020193987234,-10.305468305220185
2025-03-06 15:55:37.769,0.0003110855748243,-10.464529805740217
2025-03-06 15:55:37.777,0.0003178411043906,-10.447730658506408
2025-03-06 15:55:37.784,0.0003221891480208,-10.25123469075043
2025-03-06 15:55:37.792,0.0003240719819249,-9.87546500236914
2025-03-06 15:55:37.800,0.0003234700384841,-9.325230063866575
2025-03-06 15:55:37.808,0.0003204002943412,-8.60968412800086
2025-03-06 15:55:37.816,0.0003149140607323,-7.742121320051233
2025-03-06 15:55:37.823,0.000307094260521,-6.739610690111209
2025-03-06 15:55:37.831,0.0002970522936553,-5.622487067252629
2025-03-06 15:55:37.839,0.0002849245758345,-4.413719363943946
2025-03-06 15:55:37.847,0.0002708688074855,-3.1381836919092376
2025-03-06 15:55:37.855,0.0002550600382321,-1.8218729796545687
2025-03-06 15:55:37.862,0.000237686648367,-0.491077517489832
2025-03-06 15:55:37.870,0.0002189464285156,0.8284281223440157
2025-03-06 15:55:37.878,0.0001990429435047,2.1121570619457755
2025-03-06 15:55:37.886,0.0001781823056579,3.3376086578784907
2025-03-06 15:55:37.894,0.0001565703934585,4.484865198791014
2025-03-06 15:55:37.902,0.0001344104620224,5.537063593114011
2025-03-06 15:55:37.909,0.000111901002592,6.480725154316592
2025-03-06 15:55:37.917,8.923363424934219e-05,7.305933579967388
2025-03-06 15:55:37.925,6.659079251996893e-05,8.00635857405565
2025-03-06 15:55:37.933,4.414303825296389e-05,8.579129921225782
2025-03-06 15:55:37.941,2.204593061517997e-05,9.02457383436025
2025-03-06 15:55:37.948,4.365624494280618e-07,9.345829731549456
2025-03-06 15:55:37.956,-2.0569983030278956e-05,9.548370959918564
2025-03-06 15:55:37.964,-4.088386929667465e-05,9.639457128802407
2025-03-06 15:55:37.972,-6.044301100666061e-05,9.627548462133424
2025-03-06 15:55:37.980,-7.92144785737081e-05,9.521713815862732
2025-03-06 15:55:37.987,-9.719455002255284e-05,9.331063687183535
2025-03-06 15:55:37.995,-0.000114407266244,9.064237694908677
2025-03-06 15:55:38.003,-0.0001309014369335,8.728972728081018
2025-03-06 15:55:38.011,-0.0001467461505525,8.331773398558175
2025-03-06 15:55:38.019,-0.0001620249800557,7.877700807576556
2025-03-06 15:55:38.027,-0.0001768292207281,7.370289214494425
2025-03-06 15:55:38.034,-0.0001912506012291,6.811593287529298
2025-03-06 15:55:38.042,-0.0002053739486378,6.2023615531325325
2025-03-06 15:55:38.050,-0.0002192702822644,5.542324778942596
2025-03-06 15:55:38.058,-0.0002329907962854,4.830581653298796
2025-03-06 15:55:38.066,-0.0002465621691547,4.066058572956723
2025-03-06 15:55:38.073,-0.0002599835737075,3.248015903245756
2025-03-06 15:55:38.081,-0.0002732256373534,2.376569975237627
2025-03-06 15:55:38.089,-0.0002862314344968,1.4531985241717695
2025-03-06 15:55:38.097,-0.000298919410732,0.4811973801620762
2025-03-06 15:55:38.105,-0.0003111879586607,-0.533941949966737
2025-03-06 15:55:38.112,-0.0003229212082083,-1.5842606510451884
2025-03-06 15:55:38.120,-0.0003339954970573,-2.6591886691673845
2025-03-06 15:55:38.128,-0.000344285987486,-3.74554379396928
2025-03-06 15:55:38.136,-0.0003536729852576,-4.827681594867735
2025-03-06 15:55:38.144,-0.000362047625026,-5.887795951677083
2025-03-06 15:55:38.152,-0.0003693166534737,-6.90636164030475
2025-03-06 15:55:38.159,-0.0003754060764479,-7.8627024476815
2025-03-06 15:55:38.167,-0.0003802634873553,-8.73566105962316
2025-03-06 15:55:38.175,-0.0003838589708908,-9.504340917005251
2025-03-06 15:55:38.183,-0.0003861845536997,-10.148885730680355
2025-03-06 15:55:38.191,-0.0003872522527841,-10.651259654558878
2025-03-06 15:55:38.198,-0.0003870908868593,-10.995990399138115
2025-03-06 15:55:38.206,-0.0003857419730952,-11.170838863108717
2025-03-06 15:55:38.214,-0.0003832551823647,-11.167362087253776
2025-03-06 15:55:38.222,-0.0003796838997645,-10.981341303702072
2025-03-06 15:55:38.230,-0.0003750814002135,-10.61305328490807
2025-03-06 15:55:38.237,-0.0003694980255004,-10.067370738096638
2025-03-06 15:55:38.245,-0.0003629795908747,-9.353685737151524
2025-03-06 15:55:38.253,-0.0003555670959039,-8.485658698048267
2025-03-06 15:55:38.261,-0.0003472976840705,-7.480803738597229
2025-03-06 15:55:38.269,-0.0003382066943043,-6.359928985099129
2025-03-06 15:55:38.277,-0.0003283305702154,-5.146457104508869
2025-03-06 15:55:38.284,-0.0003177103218599,-3.8656567201692127
2025-03-06 15:55:38.292,-0.0003063951610236,-2.543819157884849
2025-03-06 15:55:38.300,-0.0002944458792604,-1.207416999413124
2025-03-06 15:55:38.308,-0.0002819375472119,0.1177188793571367
2025-03-06 15:55:38.316,-0.0002689611850317,1.407168709029969
2025-03-06 15:55:38.323,-0.0002556241499642,2.638607866768608
2025-03-06 15:55:38.331,-0.0002420490850124,3.7923785058118114
2025-03-06 15:55:38.339,-0.0002283713830276,4.851927680877624
2025-03-06 15:55:38.347,-0.0002147352603635,5.804097726652355
2025-03-06 15:55:38.355,-0.0002012886979452,6.639262041055432
2025-03-06 15:55:38.362,-0.0001881776593538,7.351306989547363
2025-03-06 15:55:38.370,-0.0001755400849991,7.937468007748291
2025-03-06 15:55:38.378,-0.0001635001632435,8.39803478717897
2025-03-06 15:55:38.386,-0.0001521633149817,8.73594637313869
2025-03-06 15:55:38.394,-0.0001416122360893,8.956301822624658
2025-03-06 15:55:38.402,-0.0001319042354401,9.06581555402332
2025-03-06 15:55:38.409,-0.0001230699771373,9.07224851693263
2025-03-06 15:55:38.417,-0.0001151135901316,8.983846733753433
2025-03-06 15:55:38.425,-0.0001080139741014,8.808817602762243
2025-03-06 15:55:38.433,-0.0001017270344533,8.554871670407636
2025-03-06 15:55:38.441,-9.618853423564014e-05,8.228853516835839
2025-03-06 15:55:38.448,-9.131725927745292e-05,7.836480157471493
2025-03-06 15:55:38.456,-8.701825243901185e-05,7.382199205758363
2025-03-06 15:55:38.464,-8.318596935418252e-05,6.869172271672791
2025-03-06 15:55:38.472,-7.970730656339812e-05,6.299382017701547
2025-03-06 15:55:38.480,-7.646451377365974e-05,5.673854301632282
2025-03-06 15:55:38.487,-7.333802119400393e-05,4.992980249091885
2025-03-06 15:55:38.495,-7.020922566305928e-05,4.25691725432551
2025-03-06 15:55:38.503,-6.696330649544255e-05,3.4660431157404674
2025-03-06 15:55:38.511,-6.349216011602311e-05,2.62143404127332
2025-03-06 15:55:38.519,-5.969751715323752e-05,1.7253353193865564
2025-03-06 15:55:38.527,-5.549423004472838e-05,0.7815931873565454
2025-03-06 15:55:38.534,-5.081361801699213e-05,-0.2039820990792291
2025-03-06 15:55:38.542,-4.560666668210399e-05,-1.223348811770896
2025-03-06 15:55:38.550,-3.984683015392445e-05,-2.2660839705955094
2025-03-06 15:55:38.558,-3.353218717537762e-05,-3.319367183447931
2025-03-06 15:55:38.566,-2.6686760248870285e-05,-4.368106896875457
2025-03-06 15:55:38.573,-1.936090580148001e-05,-5.395210041030777
2025-03-06 15:55:38.581,-1.163078896321601e-05,-6.381988024609495
2025-03-06 15:55:38.589,-3.5970203540663582e-06,-7.308684235741663
2025-03-06 15:55:38.597,4.617469468894792e-06,-8.155101072302436
2025-03-06 15:55:38.605,1.2870285338256477e-05,-8.901298466735375
2025-03-06 15:55:38.612,2.100315590884809e-05,-9.528331242142656
2025-03-06 15:55:38.620,2.8846253729622383e-05,-10.018989723924571
2025-03-06 15:55:38.628,3.622319747404238e-05,-10.358507028076149
2025-03-06 15:55:38.636,4.295661770807196e-05,-10.535197432381018
2025-03-06 15:55:38.644,4.887410365859085e-05,-10.540993164895308
2025-03-06 15:55:38.652,5.381430147604576e-05,-10.371851652682391
2025-03-06 15:55:38.659,5.763290600818028e-05,-10.028011498496117
2025-03-06 15:55:38.667,6.020828082617317e-05,-9.514082845904133
2025-03-06 15:55:38.675,6.144645569942964e-05,-8.838965943730557
2025-03-06 15:55:38.683,6.12852852231055e-05,-8.0156001822125
2025-03-06 15:55:38.691,5.9697606273034896e-05,-7.060554191381285
2025-03-06 15:55:38.698,5.669329450119697e-05,-5.993475329978724
2025-03-06 15:55:38.706,5.23201671243443e-05,-4.836423653083559
2025-03-06 15:55:38.714,4.666369721587544e-05,-3.613120889084001
2025-03-06 15:55:38.722,3.984550722753844e-05,-2.348148817548423
2025-03-06 15:55:38.730,3.202062056718343e-05,-1.0661335430436265
2025-03-06 15:55:38.737,2.337348039779645e-05,0.209047576039813
2025-03-06 15:55:38.745,1.4112794473234707e-05,1.4550011490396166
2025-03-06 15:55:38.753,4.465332974334018e-06,2.651463222652523
2025-03-06 15:55:38.761,-5.331118517188553e-06,3.7808279314021154
2025-03-06 15:55:38.769,-1.5035391555381748e-05,4.828538378119685
2025-03-06 15:55:38.777,-2.441086907675113e-05,5.783325868845699
2025-03-06 15:55:38.784,-3.323343370275427e-05,6.637291298137679
2025-03-06 15:55:38.792,-4.129913680428301e-05,7.385830366552744
2025-03-06 15:55:38.800,-4.843127867598317e-05,8.027412024397584
2025-03-06 15:55:38.808,-5.44865663427492e-05,8.56322669422449
2025-03-06 15:55:38.816,-5.935999628434748e-05,8.996727074230407
2025-03-06 15:55:38.823,-6.298812809076173e-05,9.333089359471964
2025-03-06 15:55:38.831,-6.535050883568045e-05,9.57862629843116
2025-03-06 15:55:38.839,-6.646916566521774e-05,9.74018546618857
2025-03-06 15:55:38.847,-6.640624354041284e-05,9.824566399936115
2025-03-06 15:55:38.855,-6.525997870447091e-05,9.83798880867052
2025-03-06 15:55:38.862,-6.315927579802272e-05,9.785641021085375
2025-03-06 15:55:38.870,-6.025722959982142e-05,9.671333335551145
2025-03-06 15:55:38.878,-5.67240005628986e-05,9.49727520959212
2025-03-06 15:55:38.886,-5.273948186019112e-05,9.263988549860526
2025-03-06 15:55:38.894,-4.848616399904029e-05,8.970362053030977
2025-03-06 15:55:38.902,-4.414253493956642e-05,8.61384394779261
2025-03-06 15:55:38.909,-3.98772868637098e-05,8.190762958317213
2025-03-06 15:55:38.917,-3.584453855716156e-05,7.69676021128212
2025-03-06 15:55:38.925,-3.218019504797096e-05,7.127308490147973
2025-03-06 15:55:38.933,-2.899944581894157e-05,6.478290025083087
2025-03-06 15:55:38.941,-2.6395298070473503e-05,5.746600178044145
2025-03-06 15:55:38.948,-2.443801289906643e-05,4.9307421665614735
2025-03-06 15:55:38.956,-2.3175360617962257e-05,4.031377520441251
2025-03-06 15:55:38.964,-2.2633675902234215e-05,3.0517983528258816
2025-03-06 15:55:38.972,-2.2819715682746532e-05,1.9982907302218456
2025-03-06 15:55:38.980,-2.372328345753888e-05,0.88036332874064
2025-03-06 15:55:38.987,-2.532049208146108e-05,-0.2891780482229266
2025-03-06 15:55:38.995,-2.757742713399791e-05,-1.4943219469905875
2025-03-06 15:55:39.003,-3.045389570405669e-05,-2.71611222003038
2025-03-06 15:55:39.011,-3.3906928000612936e-05,-3.9330732014666174
2025-03-06 15:55:39.019,-3.789372752716886e-05,-5.121785179853629
2025-03-06 15:55:39.027,-4.237381745911549e-05,-6.25758813202334
2025-03-06 15:55:39.034,-4.731019642015406e-05,-7.315384560520258
2025-03-06 15:55:39.042,-5.266939066856405e-05,-8.270506552028786
2025-03-06 15:55:39.050,-5.842036944871199e-05,-9.099608178964935
2025-03-06 15:55:39.058,-6.453237510301664e-05,-9.781542340684124
2025-03-06 15:55:39.066,-7.097180524004616e-05,-10.298181212482971
2025-03-06 15:55:39.073,-7.769836817212117e-05,-10.635141647582998
2025-03-06 15:55:39.081,-8.466081397039959e-05,-10.782381046596813
2025-03-06 15:55:39.089,-9.179261759259808e-05,-10.734635143760697
2025-03-06 15:55:39.097,-9.90080535020124e-05,-10.49167653579215
2025-03-06 15:55:39.105,-0.000106199142652,-10.058381202369237
2025-03-06 15:55:39.113,-0.0001132339483071,-9.44459929690477
2025-03-06 15:55:39.120,-0.000119956632287,-8.664835660876387
2025-03-06 15:55:39.128,-0.0001261895730746,-7.737754371295198
2025-03-06 15:55:39.136,-0.0001317377086799,-6.685529724655689
2025-03-06 15:55:39.144,-0.0001363950921454,-5.533072990304911
2025-03-06 15:55:39.152,-0.0001399534311396,-4.307169698033441
2025-03-06 15:55:39.159,-0.000142212157847,-3.0355659125430337
2025-03-06 15:55:39.167,-0.0001429893940783,-1.746043740167209
2025-03-06 15:55:39.175,-0.0001421330695171,-0.465526155024789
2025-03-06 15:55:39.183,-0.0001395314120448,0.780750839396695
2025-03-06 15:55:39.191,-0.0001351220400315,1.9699645529584928
2025-03-06 15:55:39.198,-0.0001288989489815,3.0823017241141217
2025-03-06 15:55:39.206,-0.0001209168202618,4.1014023929290815
2025-03-06 15:55:39.214,-0.0001112922969336,5.014637179243955
2025-03-06 15:55:39.222,-0.0001002021414241,5.813211833936967
2025-03-06 15:55:39.230,-8.787844960134197e-05,6.492101300331055
2025-03-06 15:55:39.238,-7.460128383502032e-05,7.049823630009239
2025-03-06 15:55:39.245,-6.068917710760244e-05,7.488071554819869
2025-03-06 15:55:39.253,-4.648797190503036e-05,7.811225978283485
2025-03-06 15:55:39.261,-3.23584392364347e-05,8.025780822992909
2025-03-06 15:55:39.269,-1.866311176944609e-05,8.139712327544686
2025-03-06 15:55:39.277,-5.7527725985335165e-06,8.161827871338325
2025-03-06 15:55:39.284,6.046931610810063e-06,8.101129644154318
2025-03-06 15:55:39.292,1.6448246123104955e-05,7.966226981277435
2025-03-06 15:55:39.300,2.5212900392239823e-05,7.764828046589468
2025-03-06 15:55:39.308,3.216200988797317e-05,7.503336928378072
2025-03-06 15:55:39.316,3.718378265068016e-05,7.186576336935871
2025-03-06 15:55:39.323,4.0238555275522384e-05,6.8176492294627655
2025-03-06 15:55:39.331,4.136074526107761e-05,6.397945148947147
2025-03-06 15:55:39.339,4.0657444097367584e-05,5.927289199858278
2025-03-06 15:55:39.347,3.8303597075266015e-05,5.404223773163648
2025-03-06 15:55:39.355,3.453397210300506e-05,4.826405765399669
2025-03-06 15:55:39.363,2.9632337211847035e-05,4.191095488635031
2025-03-06 15:55:39.370,2.391841493459576e-05,3.4957080859217364
2025-03-06 15:55:39.378,1.773329061955842e-05,2.738394347470168
2025-03-06 15:55:39.386,1.1424044831379395e-05,1.9186155992993
2025-03-06 15:55:39.394,5.328429111493515e-06,1.0376769631521818
2025-03-06 15:55:39.402,-2.396257382226342e-07,0.0991848283996389
2025-03-06 15:55:39.409,-5.002974748243766e-06,-0.8906022028330633
2025-03-06 15:55:39.417,-8.73212428797044e-06,-1.922554479792283
2025-03-06 15:55:39.425,-1.1253560629006264e-05,-2.98460351209108
2025-03-06 15:55:39.433,-1.2455262195880994e-05,-4.061836355487037
2025-03-06 15:55:39.441,-1.2289289380752896e-05,-5.136754749428495
2025-03-06 15:55:39.448,-1.0771509039012984e-05,-6.189692724115246
2025-03-06 15:55:39.456,-7.97863935639546e-06,-7.199377715796336
2025-03-06 15:55:39.464,-4.042890970264274e-06,-8.143612205063917
2025-03-06 15:55:39.472,8.554474615846524e-07,-9.000045970687554
2025-03-06 15:55:39.480,6.497062090429763e-06,-9.74700362147635
2025-03-06 15:55:39.488,1.2633835580390638e-05,-10.364328442352376
2025-03-06 15:55:39.495,1.899974532467333e-05,-10.834201981613878
2025-03-06 15:55:39.503,2.532193869676461e-05,-11.14189931543623
2025-03-06 15:55:39.511,3.133148050649015e-05,-11.276442537476488
2025-03-06 15:55:39.519,3.677327835038884e-05,-11.231119607034266
2025-03-06 15:55:39.527,4.141474006362996e-05,-11.003842012222412
2025-03-06 15:55:39.534,4.505281049696966e-05,-10.597322430421654
2025-03-06 15:55:39.542,4.751916943556827e-05,-10.019062281450148
2025-03-06 15:55:39.550,4.868353635205672e-05,-9.281148299987784
2025-03-06 15:55:39.558,4.845519144402633e-05,-8.3998665107952
2025-03-06 15:55:39.566,4.678295684929444e-05,-7.395150788084335
2025-03-06 15:55:39.573,4.36539737379581e-05,-6.289891067242817
2025-03-06 15:55:39.581,3.909164849593636e-05,-5.109132856760334
2025-03-06 15:55:39.589,3.315311158866279e-05,-3.87920464773263
2025-03-06 15:55:39.597,2.592644833791632e-05,-2.626812902348465
2025-03-06 15:55:39.605,1.7527862172936658e-05,-1.3781453846540557
2025-03-06 15:55:39.613,8.098845738274216e-06,-0.1580226454220744
2025-03-06 15:55:39.620,-2.196643450026595e-06,1.0108654371407328
2025-03-06 15:55:39.628,-1.317508731812956e-05,2.1086058533606256
2025-03-06 15:55:39.636,-2.463654113142936e-05,3.118565403329112
2025-03-06 15:55:39.644,-3.636816951502864e-05,4.027731794990281
2025-03-06 15:55:39.652,-4.814832820028984e-05,4.826882510760674
2025-03-06 15:55:39.659,-5.975125485493526e-05,5.510579627448029
2025-03-06 15:55:39.667,-7.095231324618688e-05,6.076997285148014
2025-03-06 15:55:39.675,-8.153361553431724e-05,6.527596527006295
2025-03-06 15:55:39.683,-9.128977781993816e-05,6.866669385889302
2025-03-06 15:55:39.691,-0.0001000335682053,7.1007800428317305
2025-03-06 15:55:39.698,-0.000107601262095,7.238135359144463
2025-03-06 15:55:39.706,-0.0001138575711565,7.287919897012108
2025-03-06 15:55:39.714,-0.0001187000137457,7.259631580432707
2025-03-06 15:55:39.722,-0.0001220625469177,7.162453384489827
2025-03-06 15:55:39.730,-0.0001239182306764,7.004693940033011
2025-03-06 15:55:39.738,-0.0001242806914838,6.7933258479351295
2025-03-06 15:55:39.745,-0.0001232041979719,6.533645024986343
2025-03-06 15:55:39.753,-0.0001207822234552,6.229067821144627
2025-03-06 15:55:39.761,-0.0001171444259285,5.881075271719203
2025-03-06 15:55:39.769,-0.0001124520479895,5.489306030591098
2025-03-06 15:55:39.777,-0.0001068918601467,5.05179164449506
2025-03-06 15:55:39.784,-0.0001006689370807,4.565320250213457
2025-03-06 15:55:39.792,-9.399871750953873e-05,4.025907871264032
2025-03-06 15:55:39.800,-8.709889445293914e-05,3.4293505956618406
2025-03-06 15:55:39.808,-8.018167886034074e-05,2.771826323954935
2025-03-06 15:55:39.816,-7.344687678427926e-05,2.0505117193601943
2025-03-06 15:55:39.823,-6.707605551885157e-05,1.2641786331592613
2025-03-06 15:55:39.831,-6.12279091545344e-05,0.4137347093493726
2025-03-06 15:55:39.839,-5.603482051046959e-05,-0.4973248944330386
2025-03-06 15:55:39.847,-5.160055989095669e-05,-1.462583769736006
2025-03-06 15:55:39.855,-4.7999028880071415e-05,-2.472512071615947
2025-03-06 15:55:39.863,-4.5273927049080566e-05,-3.514432596715905
2025-03-06 15:55:39.870,-4.343920261946608e-05,-4.572653981304841
2025-03-06 15:55:39.878,-4.248015748846112e-05,-5.62877140385063
2025-03-06 15:55:39.886,-4.235509661908973e-05,-6.662126516988231
2025-03-06 15:55:39.894,-4.2997418791164245e-05,-7.650409932658553
2025-03-06 15:55:39.902,-4.4318040587983215e-05,-8.570381884194672
2025-03-06 15:55:39.909,-4.620804880530532e-05,-9.39868010718282
2025-03-06 15:55:39.917,-4.854150852483592e-05,-10.112678887581016
2025-03-06 15:55:39.925,-5.1178413037696287e-05,-10.691359921442231
2025-03-06 15:55:39.933,-5.396781393436179e-05,-11.116154321616808
2025-03-06 15:55:39.941,-5.675117679241281e-05,-11.371715885312534
2025-03-06 15:55:39.948,-5.936596943218135e-05,-11.446588574079758
2025-03-06 15:55:39.956,-6.164944116206965e-05,-11.333735910232942
2025-03-06 15:55:39.964,-6.344251743990797e-05,-11.030906410677588
2025-03-06 15:55:39.972,-6.459370501879082e-05,-10.540816918280688
2025-03-06 15:55:39.980,-6.49628663809922e-05,-9.871144337433776
2025-03-06 15:55:39.988,-6.442469565463792e-05,-9.034325373031304
2025-03-06 15:55:39.995,-6.287173415275655e-05,-8.04717293255005
2025-03-06 15:55:40.003,-6.021680124339978e-05,-6.930326412714447
2025-03-06 15:55:40.011,-5.639476396993923e-05,-5.707560725135222
2025-03-06 15:55:40.019,-5.136360336314925e-05,-4.404985245789985
2025-03-06 15:55:40.027,-4.5104745443012894e-05,-3.050168602375478
2025-03-06 15:55:40.034,-3.7622611688939104e-05,-1.671228132703677
2025-03-06 15:55:40.042,-2.89433127261587e-05,-0.2959238464966516
2025-03-06 15:55:40.050,-1.911238101664042e-05,1.0492042105096375
2025-03-06 15:55:40.058,-8.191461916367613e-06,2.3396190791127776
2025-03-06 15:55:40.066,3.746005724094509e-06,3.553458862594658
2025-03-06 15:55:40.073,1.661991511512849e-05,4.672071844130734
2025-03-06 15:55:40.081,3.034905620711986e-05,5.68039608179369
2025-03-06 15:55:40.089,4.48566504439746e-05,6.56717262594121
2025-03-06 15:55:40.097,6.0075346272781394e-05,7.324989681343822
2025-03-06 15:55:40.105,7.595116859132427e-05,7.950163185771779
2025-03-06 15:55:40.113,9.244595976814862e-05,8.442467009556431
2025-03-06 15:55:40.120,0.0001095379552772,8.804732929633557
2025-03-06 15:55:40.128,0.0001272203104946,9.042346366136012
2025-03-06 15:55:40.136,0.000145497607354,9.16266831390549
2025-03-06 15:55:40.144,0.0001643805683674,9.174416749554624
2025-03-06 15:55:40.152,0.0001838793590516,9.08704192093366
2025-03-06 15:55:40.159,0.0002039959735691,8.910129291626742
2025-03-06 15:55:40.167,0.0002247162808966,8.652861573505739
2025-03-06 15:55:40.175,0.000246002343549,8.323567380434799
2025-03-06 15:55:40.183,0.000267785594432,7.929378794806953
2025-03-06 15:55:40.191,0.000289961392678,7.476013828803122
2025-03-06 15:55:40.198,0.0003123854117466,6.967692698413953
2025-03-06 15:55:40.206,0.0003348722438127,6.407189357841045
2025-03-06 15:55:40.214,0.0003571965003875,5.796012233379701
2025-03-06 15:55:40.222,0.0003790965313509,5.13470091971428
2025-03-06 15:55:40.230,0.0004002807002508,4.423219110843885
2025-03-06 15:55:40.238,0.0004204359922361,3.661418554142757
2025-03-06 15:55:40.245,0.0004392386183084,2.849544617552713
2025-03-06 15:55:40.253,0.0004563661977784,1.9887513685471572
2025-03-06 15:55:40.261,0.0004715110084526,1.0815930325579504
2025-03-06 15:55:40.269,0.0004843936717526,0.1324594041537486
2025-03-06 15:55:40.277,0.000494776515581,-0.8520747790767532
2025-03-06 15:55:40.284,0.0005024757826847,-1.863012411499601
2025-03-06 15:55:40.292,0.0005073718636301,-2.888828907126919
2025-03-06 15:55:40.300,0.0005094168429255,-3.915512999022
2025-03-06 15:55:40.308,0.0005086388431662,-4.92675939172272
2025-03-06 15:55:40.316,0.0005051428985288,-5.904311043413945
2025-03-06 15:55:40.323,0.0004991083324773,-6.828440614311611
2025-03-06 15:55:40.331,0.0004907828170595,-7.678552753617827
2025-03-06 15:55:40.339,0.0004804734487162,-8.433881851735611
2025-03-06 15:55:40.347,0.000468535306873,-9.074254060041037
2025-03-06 15:55:40.355,0.000455358086197,-9.580878115359653
2025-03-06 15:55:40.363,0.0004413515093869,-9.937127054078124
2025-03-06 15:55:40.370,0.0004269303016702,-10.129272418475209
2025-03-06 15:55:40.378,0.0004124995038149,-10.147134097201995
2025-03-06 15:55:40.386,0.0003984408185489,-9.98461244220396
2025-03-06 15:55:40.394,0.0003851005633536,-9.640074589642976
2025-03-06 15:55:40.402,0.0003727796692943,-9.116573699703451
2025-03-06 15:55:40.409,0.0003617260232541,-8.421887751259959
2025-03-06 15:55:40.417,0.0003521293131836,-7.568373155682261
2025-03-06 15:55:40.425,0.0003441184416447,-6.572637331395997
2025-03-06 15:55:40.433,0.0003377615344003,-5.455043042396535
2025-03-06 15:55:40.441,0.0003330685410971,-4.239065303212141
2025-03-06 15:55:40.448,0.0003299963452925,-2.9505285868380917
2025-03-06 15:55:40.456,0.0003284561613089,-1.6167576040569789
2025-03-06 15:55:40.464,0.0003283228320374,-0.2656787970811722
2025-03-06 15:55:40.472,0.0003294454906882,1.0750882594595024
2025-03-06 15:55:40.480,0.000331658925043,2.3791102091678944
2025-03-06 15:55:40.488,0.0003347948987856,3.62195241683911
2025-03-06 15:55:40.495,0.0003386926649684,4.781890553302917
2025-03-06 15:55:40.503,0.000343207963869,5.840492318681177
2025-03-06 15:55:40.511,0.0003482199151271,6.783046817308421
2025-03-06 15:55:40.519,0.000353635365902,7.598826549995413
2025-03-06 15:55:40.527,0.0003593904352148,8.28117505890241
2025-03-06 15:55:40.534,0.0003654492043312,8.827421548960164
2025-03-06 15:55:40.542,0.0003717997265688,9.238631921259298
2025-03-06 15:55:40.550,0.000378447723392,9.51921320865453
2025-03-06 15:55:40.558,0.0003854084689884,9.676395051282077
2025-03-06 15:55:40.566,0.0003926974590187,9.719617281159902
2025-03-06 15:55:40.573,0.0004003205415893,9.659856650575588
2025-03-06 15:55:40.581,0.0004082642563738,9.508928063618
2025-03-06 15:55:40.589,0.0004164871438992,9.278796263559396
2025-03-06 15:55:40.597,0.000424912728627,8.980932784813001
2025-03-06 15:55:40.605,0.0004334247687074,8.625750169906162
2025-03-06 15:55:40.613,0.0004418652389521,8.222141126045019
2025-03-06 15:55:40.620,0.0004500353746502,7.777144666031754
2025-03-06 15:55:40.628,0.0004576999214652,7.29575461256562
2025-03-06 15:55:40.636,0.0004645944945993,6.780878449614277
2025-03-06 15:55:40.644,0.0004704356788089,6.233446711944449
2025-03-06 15:55:40.652,0.0004749332539942,5.652665265944853
2025-03-06 15:55:40.659,0.0004778037496893,5.036395314895942
2025-03-06 15:55:40.667,0.0004787844334113,4.381639119563496
2025-03-06 15:55:40.675,0.0004776468260537,3.6851035979408255
2025-03-06 15:55:40.683,0.0004742089034735,2.9438094556874
2025-03-06 15:55:40.691,0.0004683452629033,2.1557105510489323
2025-03-06 15:55:40.698,0.0004599946785831,1.3202870028561893
2025-03-06 15:55:40.706,0.0004491646299975,0.4390762194345985
2025-03-06 15:55:40.714,0.0004359325550002,-0.4838914191006666
2025-03-06 15:55:40.722,0.0004204437539177,-1.4417811317271654
2025-03-06 15:55:40.730,0.0004029060460839,-2.424789479088175
2025-03-06 15:55:40.738,0.0003835814554067,-3.4201428529982163
2025-03-06 15:55:40.745,0.0003627753713633,-4.412265943186823
2025-03-06 15:55:40.753,0.0003408237910578,-5.383118486527543
2025-03-06 15:55:40.761,0.000318079383281,-6.312689569457099
2025-03-06 15:55:40.769,0.0002948971911519,-7.179630105243311
2025-03-06 15:55:40.777,0.0002716207685847,-7.961996334175899
2025-03-06 15:55:40.784,0.0002485694307269,-8.638070748808648
2025-03-06 15:55:40.792,0.0002260271381006,-9.1872221095394
2025-03-06 15:55:40.800,0.0002042333796492,-9.59076347160438
2025-03-06 15:55:40.808,0.0001833762874742,-9.832766559915054
2025-03-06 15:55:40.816,0.0001635880978603,-9.9007924425649
2025-03-06 15:55:40.823,0.0001449429717622,-9.78650217756332
2025-03-06 15:55:40.831,0.0001274571162525,-9.486116730641582
2025-03-06 15:55:40.839,0.0001110910970042,-9.000702672218917
2025-03-06 15:55:40.847,9.575416432492376e-05,-8.336268564283994
2025-03-06 15:55:40.855,8.131031047313923e-05,-7.503666089897173
2025-03-06 15:55:40.863,6.758565836690885e-05,-6.518299373103266
2025-03-06 15:55:40.870,5.437669919271638e-05,-5.399655092705424
2025-03-06 15:55:40.878,4.145888100834387e-05,-4.170674437948595
2025-03-06 15:55:40.886,2.8595102807368223e-05,-2.856995265090256
2025-03-06 15:55:40.894,1.55437642647042e-05,-1.486098642224852
2025-03-06 15:55:40.902,2.0661315414943504e-06,-0.0863980554262859
2025-03-06 15:55:40.909,-1.2067112050140255e-05,1.3136882744087797
2025-03-06 15:55:40.917,-2.7070169140237613e-05,2.686641320881035
2025-03-06 15:55:40.925,-4.3137273211879495e-05,4.006682553072675
2025-03-06 15:55:40.933,-6.043866774690158e-05,5.250517351675458
2025-03-06 15:55:40.941,-7.91174379131918e-05,6.397950548598399
2025-03-06 15:55:40.948,-9.928720334645208e-05,7.432350727170969
2025-03-06 15:55:40.956,-0.0001210306215182,8.340947565700299
2025-03-06 15:55:40.964,-0.0001443985992377,9.114954780948414
2025-03-06 15:55:40.972,-0.0001694101226735,9.749519721709682
2025-03-06 15:55:40.980,-0.0001960526709159,10.24350896473124
2025-03-06 15:55:40.988,-0.0002242832010826,10.599146976266333
2025-03-06 15:55:40.995,-0.0002540296608502,10.821531653242802
2025-03-06 15:55:41.003,-0.0002851929440695,10.91805602883834
2025-03-06 15:55:41.011,-0.000317649200905,10.897769365043278
2025-03-06 15:55:41.019,-0.0003512524397037,10.770713085774243
2025-03-06 15:55:41.027,-0.0003858373820418,10.547267443258752
2025-03-06 15:55:41.034,-0.0004212225319214,10.237543463901597
2025-03-06 15:55:41.042,-0.0004572133922959,9.85085167853361
2025-03-06 15:55:41.050,-0.0004936057300225,9.395274570646482
2025-03-06 15:55:41.058,-0.0005301887870894,8.877363804440183
2025-03-06 15:55:41.066,-0.000566748374213,8.301976408234607
2025-03-06 15:55:41.073,-0.0006030698462151,7.672256519067098
2025-03-06 15:55:41.081,-0.0006389410135119,6.989761402323437
2025-03-06 15:55:41.089,-0.0006741550559588,6.2547226226604025
2025-03-06 15:55:41.097,-0.0007085134609966,5.466425838029385
2025-03-06 15:55:41.105,-0.0007418289324472,4.623686083668676
2025-03-06 15:55:41.113,-0.0007739281568833,3.725389943291787
2025-03-06 15:55:41.120,-0.0008046542987786,2.7710719558807138
2025-03-06 15:55:41.128,-0.0008338691122251,1.7614901978652546
2025-03-06 15:55:41.136,-0.0008614545836947,0.6991653553048333
2025-03-06 15:55:41.144,-0.0008873140493325,-0.4111511802378634
2025-03-06 15:55:41.152,-0.0009113727604133,-1.5621116210717043
2025-03-06 15:55:41.159,-0.0009335779007836,-2.743535185476849
2025-03-06 15:55:41.167,-0.0009538980926116,-3.9423210364175594
2025-03-06 15:55:41.175,-0.0009723224622076,-5.14252374142377
2025-03-06 15:55:41.183,-0.0009888593733327,-6.3255959240433
2025-03-06 15:55:41.191,-0.001003534963683,-7.470794026309972
2025-03-06 15:55:41.198,-0.0010163916191246,-8.555734367128725
2025-03-06 15:55:41.206,-0.0010274864688783,-9.557078427482764
2025-03-06 15:55:41.214,-0.0010368898983629,-10.451318968624076
2025-03-06 15:55:41.222,-0.0010446840054368,-11.2156326006381
2025-03-06 15:55:41.230,-0.0010509609186326,-11.8287601059776
2025-03-06 15:55:41.238,-0.0010558209626637,-12.27187343693534
2025-03-06 15:55:41.245,-0.0010593707552102,-12.529387993582668
2025-03-06 15:55:41.253,-0.0010617213790257,-12.58968058349997
2025-03-06 15:55:41.261,-0.0010629867497593,-12.44567729014318
2025-03-06 15:55:41.269,-0.0010632822157989,-12.095281150602206
2025-03-06 15:55:41.277,-0.0010627233528675,-11.541616785186427
2025-03-06 15:55:41.284,-0.0010614249023457,-10.793077564736189
2025-03-06 15:55:41.292,-0.0010594998366295,-9.863170114460068
2025-03-06 15:55:41.300,-0.0010570585726398,-8.770160460583003
2025-03-06 15:55:41.308,-0.0010542083640197,-7.536535438467024
2025-03-06 15:55:41.316,-0.0010510528819775,-6.188301622622214
2025-03-06 15:55:41.323,-0.0010476919663859,-4.754151575407122
2025-03-06 15:55:41.331,-0.0010442215166611,-3.26453327028677
2025-03-06 15:55:41.339,-0.0010407334966598,-1.7506628363272272
2025-03-06 15:55:41.347,-0.0010373160279667,-0.2435230982930541
2025-03-06 15:55:41.355,-0.0010340535283665,1.2271093373637492
2025-03-06 15:55:41.363,-0.0010310268304712,2.6335674565024227
2025-03-06 15:55:41.370,-0.0010283132111169,3.9510903442518512
2025-03-06 15:55:41.378,-0.001025986275067,5.15848086672583
2025-03-06 15:55:41.386,-0.001024115644714,6.238599358660792
2025-03-06 15:55:41.394,-0.0010227663970705,7.178676020196389
2025-03-06 15:55:41.402,-0.0010219981732982,7.970433300658872
2025-03-06 15:55:41.409,-0.0010218638871862,8.610018417382847
2025-03-06 15:55:41.417,-0.0010224079864951,9.0977549065834
2025-03-06 15:55:41.425,-0.001023664273225,9.437730323729522
2025-03-06 15:55:41.433,-0.0010256533629204,9.637244525325317
2025-03-06 15:55:41.441,-0.001028379945683,9.706149045572657
2025-03-06 15:55:41.448,-0.0010318300741283,9.6561126699502
2025-03-06 15:55:41.456,-0.0010359687215542,9.499851216906626
2025-03-06 15:55:41.464,-0.0010407378252678,9.25036065626062
2025-03-06 15:55:41.472,-0.0010460549763776,8.920191981084658
2025-03-06 15:55:41.480,-0.0010518128635739,8.520803748367722
2025-03-06 15:55:41.488,-0.001057879534966,8.062024027805846
2025-03-06 15:55:41.495,-0.0010640995092138,7.551647833227273
2025-03-06 15:55:41.503,-0.0010702957464923,6.995189205751981
2025-03-06 15:55:41.511,-0.0010762724807333,6.395799272949376
2025-03-06 15:55:41.519,-0.0010818189145684,5.754353166930647
2025-03-06 15:55:41.527,-0.0010867137863128,5.069700021271355
2025-03-06 15:55:41.534,-0.0010907308231063,4.339061778065418
