Timestamp,GSR_Filtered,PPG_Filtered
2025-03-06 15:55:26.565,-0.007438490472380092,-199.76079935036458
2025-03-06 15:55:26.573,0.0012783943650652176,-195.63498259122937
2025-03-06 15:55:26.581,0.009972934743995283,-191.33055706117602
2025-03-06 15:55:26.589,0.018622288250472713,-186.8488222345839
2025-03-06 15:55:26.597,0.027202377989562737,-182.19636026178543
2025-03-06 15:55:26.604,0.03568724161111273,-177.38522968331873
2025-03-06 15:55:26.612,0.04404844045183767,-172.43294124718722
2025-03-06 15:55:26.620,0.05225456349946781,-167.36221980813127
2025-03-06 15:55:26.628,0.06027086897151036,-162.20056444717477
2025-03-06 15:55:26.636,0.06805911197670735,-156.9796264594514
2025-03-06 15:55:26.643,0.07557760547631166,-151.73443141554225
2025-03-06 15:55:26.651,0.08278155109442402,-146.5024768511093
2025-03-06 15:55:26.659,0.08962365717154804,-141.32274109238762
2025-03-06 15:55:26.667,0.09605503759028701,-136.23464116945058
2025-03-06 15:55:26.675,0.10202636100455581,-131.27697867232033
2025-03-06 15:55:26.682,0.10748919975439623,-126.48691180398002
2025-03-06 15:55:26.690,0.11239751266450476,-121.89898986904092
2025-03-06 15:55:26.698,0.11670918646134718,-117.54428313226686
2025-03-06 15:55:26.706,0.12038755649631153,-113.44963653631721
2025-03-06 15:55:26.714,0.12340282863106167,-109.63707035488326
2025-03-06 15:55:26.722,0.1257333305608926,-106.12334467727379
2025-03-06 15:55:26.729,0.12736653239587337,-102.91969790864104
2025-03-06 15:55:26.737,0.12829979193878596,-100.03176249027996
2025-03-06 15:55:26.745,0.12854079768488205,-97.45965407789335
2025-03-06 15:55:26.753,0.12810769973827857,-95.19822374924608
2025-03-06 15:55:26.761,0.12702893384178676,-93.23745672759611
2025-03-06 15:55:26.768,0.12534275575537188,-91.56299586640478
2025-03-06 15:55:26.776,0.12309651224148031,-90.15676397351108
2025-03-06 15:55:26.784,0.12034568125823719,-88.99765614194709
2025-03-06 15:55:26.792,0.11715271810052752,-88.0622717253512
2025-03-06 15:55:26.800,0.11358574665016687,-87.32565550700781
2025-03-06 15:55:26.807,0.10971713598097706,-86.76201894436299
2025-03-06 15:55:26.815,0.10562200249736564,-86.34541502389612
2025-03-06 15:55:26.823,0.10137667658432872,-86.05034405487385
2025-03-06 15:55:26.831,0.09705717042995149,-85.85227242340551
2025-03-06 15:55:26.839,0.09273768042870092,-85.72805163907316
2025-03-06 15:55:26.847,0.08848915376084761,-85.65623063530707
2025-03-06 15:55:26.854,0.08437794483968188,-85.61725993093025
2025-03-06 15:55:26.862,0.08046458373097351,-85.59359163786544
2025-03-06 15:55:26.870,0.07680267561005195,-85.56968415264632
2025-03-06 15:55:26.878,0.07343794788439884,-85.53192448327663
2025-03-06 15:55:26.886,0.07040745972726845,-85.4684843724859
2025-03-06 15:55:26.893,0.06773898734466398,-85.36912856661299
2025-03-06 15:55:26.901,0.06545059717340629,-85.22499467977984
2025-03-06 15:55:26.909,0.06355041814789851,-85.0283641040353
2025-03-06 15:55:26.917,0.06203662289199851,-84.77244236332608
2025-03-06 15:55:26.925,0.06089762585684693,-84.45116530232421
2025-03-06 15:55:26.933,0.06011250366369721,-84.05904468528354
2025-03-06 15:55:26.940,0.05965163889843608,-83.59106333294886
2025-03-06 15:55:26.948,0.05947758318045261,-83.04262604684352
2025-03-06 15:55:26.956,0.05954612852498447,-82.40956847345375
2025-03-06 15:55:26.964,0.059807568018361165,-82.03855911088196
2025-03-06 15:55:26.972,0.06020811796339119,-81.30488682681488
2025-03-06 15:55:26.979,0.06069146446824682,-80.2038862109286
2025-03-06 15:55:26.987,0.06120038871958583,-78.73345479993583
2025-03-06 15:55:26.995,0.061678417843246194,-76.89441812712677
2025-03-06 15:55:27.003,0.062071443288994305,-74.69091969319794
2025-03-06 15:55:27.011,0.06232924690430211,-72.13080485428381
2025-03-06 15:55:27.018,0.06240687678805532,-69.225965045555
2025-03-06 15:55:27.026,0.062265820728380626,-65.99260871522216
2025-03-06 15:55:27.034,0.061874934244462006,-62.45142782223249
2025-03-06 15:55:27.042,0.06121109236891286,-58.62763352772393
2025-03-06 15:55:27.050,0.0602595483612872,-54.55084139508067
2025-03-06 15:55:27.058,0.059013997211930555,-50.25479450249541
2025-03-06 15:55:27.065,0.05747635567261573,-45.77692179976398
2025-03-06 15:55:27.073,0.05565628254387079,-41.157738226459195
2025-03-06 15:55:27.081,0.05357047246098562,-36.440101992723335
2025-03-06 15:55:27.089,0.051241763265621604,-31.668352497419
2025-03-06 15:55:27.097,0.0486981013039931,-26.887359182636384
2025-03-06 15:55:27.104,0.04597141089089084,-22.141516851144164
2025-03-06 15:55:27.112,0.043096414037377066,-17.47372636636653
2025-03-06 15:55:27.120,0.04010944468626348,-12.92440109167243
2025-03-06 15:55:27.128,0.03704729842416298,-8.530538895998143
2025-03-06 15:55:27.136,0.0339461541738247,-4.324897140822433
2025-03-06 15:55:27.143,0.030840598906508185,-0.33530393472354303
2025-03-06 15:55:27.151,0.027762780164744788,3.415866672475985
2025-03-06 15:55:27.159,0.024741704446146446,6.912034699943899
2025-03-06 15:55:27.167,0.021802692631675398,10.142556288196259
2025-03-06 15:55:27.175,0.01896699699802567,13.102662852848699
2025-03-06 15:55:27.183,0.016251578214381376,15.793200791639494
2025-03-06 15:55:27.190,0.01366903529634079,18.22018341685074
2025-03-06 15:55:27.198,0.011227676908301617,20.394174513334235
2025-03-06 15:55:27.206,0.00893171872207613,22.329529861468373
2025-03-06 15:55:27.214,0.006781588749077428,24.04352893839088
2025-03-06 15:55:27.222,0.004774320647679508,25.555433569602673
2025-03-06 15:55:27.229,0.0029040139483673785,26.88551333680839
2025-03-06 15:55:27.237,0.0011623399020499379,28.05407890594823
2025-03-06 15:55:27.245,-0.0004609278331570017,29.08056404476692
2025-03-06 15:55:27.253,-0.0019773773008130743,29.98269495342496
2025-03-06 15:55:27.261,-0.0033994350965332065,30.77578171154079
2025-03-06 15:55:27.268,-0.004739871771730977,31.472161300345586
2025-03-06 15:55:27.276,-0.006011349129195974,32.08081501085369
2025-03-06 15:55:27.284,-0.007226020050726708,32.60717538332263
2025-03-06 15:55:27.292,-0.008395188666964962,33.05312946794176
2025-03-06 15:55:27.300,-0.00952903579966585,33.41721649933561
2025-03-06 15:55:27.308,-0.01063641179175372,33.6950093928605
2025-03-06 15:55:27.315,-0.011724696245584695,33.87966115870883
2025-03-06 15:55:27.323,-0.012799721952295683,33.962589752804426
2025-03-06 15:55:27.331,-0.013865758473274392,33.93426839456253
2025-03-06 15:55:27.339,-0.014925549417585,33.78508330442835
2025-03-06 15:55:27.347,-0.015980396420905974,33.50621741748027
2025-03-06 15:55:27.354,-0.01703028214951025,33.09051710404865
2025-03-06 15:55:27.362,-0.018074024289073697,32.5332993729358
2025-03-06 15:55:27.370,-0.019109452374395455,31.833059450122697
2025-03-06 15:55:27.378,-0.02013359941066866,30.992042923836138
2025-03-06 15:55:27.386,-0.0211429004956741,30.016652642394728
2025-03-06 15:55:27.393,-0.02213339109383696,28.917667978148728
2025-03-06 15:55:27.401,-0.023100898281168614,27.710262593109864
2025-03-06 15:55:27.409,-0.024041219172193456,26.413816068593352
2025-03-06 15:55:27.417,-0.024950281781543075,25.051524261989744
2025-03-06 15:55:27.425,-0.02582428467722624,23.649822578519448
2025-03-06 15:55:27.433,-0.026659812905707528,22.237645048062955
2025-03-06 15:55:27.440,-0.027453928780016568,20.84554975724364
2025-03-06 15:55:27.448,-0.028204237160068354,19.504747434074407
2025-03-06 15:55:27.456,-0.028908925755459756,18.246074516936982
2025-03-06 15:55:27.464,-0.02956678172762411,17.098954650591107
2025-03-06 15:55:27.472,-0.03017718649037176,16.090393123936554
2025-03-06 15:55:27.479,-0.030740091142040318,15.24404727435455
2025-03-06 15:55:27.487,-0.03125597540073158,14.579412397820361
2025-03-06 15:55:27.495,-0.031725793201831345,14.111157380864952
2025-03-06 15:55:27.503,-0.032150908224358433,13.84863736321217
2025-03-06 15:55:27.511,-0.03253302257742576,13.795602588701536
2025-03-06 15:55:27.518,-0.0328741017434426,13.950113612855432
2025-03-06 15:55:27.526,-0.0331762986336108,14.304663655414956
2025-03-06 15:55:27.534,-0.03344187926015004,14.846499580911466
2025-03-06 15:55:27.542,-0.033673152128471544,15.558124218792823
2025-03-06 15:55:27.550,-0.033872403078420064,16.41795492312933
2025-03-06 15:55:27.558,-0.034041836973433194,17.401106793430998
2025-03-06 15:55:27.565,-0.034183527308943945,18.480264138152723
2025-03-06 15:55:27.573,-0.03429937445452051,19.626600787319262
2025-03-06 15:55:27.581,-0.034391072880442256,20.810708882988784
2025-03-06 15:55:27.589,-0.03446008740202662,22.003496819447975
2025-03-06 15:55:27.597,-0.03450763823299049,23.177019975053472
2025-03-06 15:55:27.604,-0.034534694461495444,24.305212569141062
2025-03-06 15:55:27.612,-0.03454197542680906,25.364495092528212
2025-03-06 15:55:27.620,-0.034529959367402746,26.334238931943403
2025-03-06 15:55:27.628,-0.03449889862622164,27.197077625205083
2025-03-06 15:55:27.636,-0.03444884062998591,27.939062213085432
2025-03-06 15:55:27.643,-0.03437965380051775,28.549665970006814
2025-03-06 15:55:27.651,-0.03429105750114545,29.021651005036997
2025-03-06 15:55:27.659,-0.03418265506469884,29.35081548354737
2025-03-06 15:55:27.667,-0.03405396888696073,29.535645246805622
2025-03-06 15:55:27.675,-0.03390447649915129,29.576897190313243
2025-03-06 15:55:27.683,-0.033733646464916195,29.477143769381332
2025-03-06 15:55:27.690,-0.033540972913655126,29.240308384834684
2025-03-06 15:55:27.698,-0.03332600756831566,28.87122020014501
2025-03-06 15:55:27.706,-0.03308838827308021,28.375214269663502
2025-03-06 15:55:27.714,-0.03282786324780974,27.757798900103932
2025-03-06 15:55:27.722,-0.032544310540549334,27.02440716235318
2025-03-06 15:55:27.729,-0.03223775237910711,26.1802436959132
2025-03-06 15:55:27.737,-0.031908364322764005,25.230231708664952
2025-03-06 15:55:27.745,-0.031556479282445746,24.179058690586785
2025-03-06 15:55:27.753,-0.03118258661266208,23.03131315478997
2025-03-06 15:55:27.761,-0.030787326583386933,21.791699004930482
2025-03-06 15:55:27.768,-0.030371480618437544,20.46530919297578
2025-03-06 15:55:27.776,-0.029935957743523634,19.05793642932173
2025-03-06 15:55:27.784,-0.029481777727418876,17.576396048313317
2025-03-06 15:55:27.792,-0.029010051431072707,16.02883487194292
2025-03-06 15:55:27.800,-0.028521958917385997,14.425000143613843
2025-03-06 15:55:27.808,-0.028018725944812452,12.776444338542719
2025-03-06 15:55:27.815,-0.02750159958516253,11.096644831447339
2025-03-06 15:55:27.823,-0.026971823837644442,9.401021864372474
2025-03-06 15:55:27.831,-0.026430616187662508,7.706843777390121
2025-03-06 15:55:27.839,-0.025879146032866854,6.033014746130815
2025-03-06 15:55:27.847,-0.025318515776430763,4.39974696707355
2025-03-06 15:55:27.854,-0.02474974519679904,2.82812596826443
2025-03-06 15:55:27.862,-0.02417375947255912,1.3395841161457611
2025-03-06 15:55:27.870,-0.023591381020832983,-0.044696927040338556
2025-03-06 15:55:27.878,-0.023003325162999088,-1.3044293903559017
2025-03-06 15:55:27.886,-0.022410199578900055,-2.420879468308435
2025-03-06 15:55:27.893,-0.021812507490689664,-3.377513662549258
2025-03-06 15:55:27.901,-0.021210654461159863,-4.160600513896769
2025-03-06 15:55:27.909,-0.020604958587995898,-4.759738225369891
2025-03-06 15:55:27.917,-0.019995663758282548,-5.16828163667468
2025-03-06 15:55:27.925,-0.019382955519358293,-5.383646410393863
2025-03-06 15:55:27.933,-0.01876697901280937,-5.407473902082004
2025-03-06 15:55:27.940,-0.01814785828870998,-5.245646706940888
2025-03-06 15:55:27.948,-0.017525716171924235,-4.908151944521113
2025-03-06 15:55:27.956,-0.01690069372830385,-4.408796569743316
2025-03-06 15:55:27.964,-0.016272968324125316,-3.7647859942318926
2025-03-06 15:55:27.972,-0.015642769312211403,-2.996183706056402
2025-03-06 15:55:27.979,-0.015010390492787774,-2.1252750737335777
2025-03-06 15:55:27.987,-0.014376198646110163,-1.1758628498432444
2025-03-06 15:55:27.995,-0.013740637602484673,-0.172524847258681
2025-03-06 15:55:28.003,-0.01310422750315504,0.8601342895853612
2025-03-06 15:55:28.011,-0.012467559085976767,1.8982054132898651
2025-03-06 15:55:28.018,-0.011831282973489827,2.9191411537977463
2025-03-06 15:55:28.026,-0.011196094070548928,3.902339086037896
2025-03-06 15:55:28.034,-0.01056271135133071,4.829619044029943
2025-03-06 15:55:28.042,-0.009931853557397364,5.685577162074049
2025-03-06 15:55:28.050,-0.009304211612140642,6.457805267258975
2025-03-06 15:55:28.058,-0.008680418829988526,7.136970718967696
2025-03-06 15:55:28.065,-0.008061020219945161,7.716758390697088
2025-03-06 15:55:28.073,-0.007446442343151153,8.193682924782559
2025-03-06 15:55:28.081,-0.006836965298201805,8.566785385487162
2025-03-06 15:55:28.089,-0.006232698481994178,8.837233735444071
2025-03-06 15:55:28.097,-0.005633561780355062,9.007850934882171
2025-03-06 15:55:28.104,-0.005039273734664613,9.082597715445921
2025-03-06 15:55:28.112,-0.004449347987610542,9.066039055789023
2025-03-06 15:55:28.120,-0.0038630989709007744,8.96282398035092
2025-03-06 15:55:28.128,-0.00327965743564734,8.77720747251661
2025-03-06 15:55:28.136,-0.002697996097297301,8.512641065817002
2025-03-06 15:55:28.143,-0.002116965368579533,8.17145515077764
2025-03-06 15:55:28.151,-0.0015353388483827347,7.754651370798055
2025-03-06 15:55:28.159,-0.000951867896798802,7.2618178861964315
2025-03-06 15:55:28.167,-0.00036534424891583356,6.691174008549947
2025-03-06 15:55:28.175,0.00022533080727968566,6.039744027584148
2025-03-06 15:55:28.183,0.0008210726348006446,5.303653271505333
2025-03-06 15:55:28.190,0.0014225372478808287,4.478532867325905
2025-03-06 15:55:28.198,0.002030045920667747,3.560013604114013
2025-03-06 15:55:28.206,0.002643513498022191,2.5442840384973784
2025-03-06 15:55:28.214,0.003262383666706036,1.4286837822156846
2025-03-06 15:55:28.222,0.003885574518985804,0.2123000038885283
2025-03-06 15:55:28.229,0.004511437737877449,-1.1034662560894863
2025-03-06 15:55:28.237,0.005137734635260481,-2.514397190432493
2025-03-06 15:55:28.245,0.005761632033641568,-4.013050154070629
2025-03-06 15:55:28.253,0.006379720535730856,-5.588472353771718
2025-03-06 15:55:28.261,0.006988057025453175,-7.226061230861618
2025-03-06 15:55:28.268,0.0075822323059347935,-8.907587116515751
2025-03-06 15:55:28.276,0.008157463683528468,-10.611387302428081
2025-03-06 15:55:28.284,0.008708711134940043,-12.312732490765915
2025-03-06 15:55:28.292,0.009230814500486606,-13.984358070444777
2025-03-06 15:55:28.300,0.009718647972985038,-15.597144256856588
2025-03-06 15:55:28.308,0.010167287044264423,-17.12092128746665
2025-03-06 15:55:28.315,0.01057218207579134,-18.525369027090864
2025-03-06 15:55:28.323,0.010929331828238305,-19.78097489563629
2025-03-06 15:55:28.331,0.011235449681340501,-20.860010303025014
2025-03-06 15:55:28.339,0.011488114981135953,-21.73748398437549
2025-03-06 15:55:28.347,0.011685902056382447,-22.39203089481596
2025-03-06 15:55:28.354,0.011828480000194744,-22.806697657421868
2025-03-06 15:55:28.362,0.01191667728655241,-22.96958985141798
2025-03-06 15:55:28.370,0.011952506607590986,-22.874352457759773
2025-03-06 15:55:28.378,0.011939146916730956,-22.520462221863944
2025-03-06 15:55:28.386,0.011880881507446131,-21.913319146917438
2025-03-06 15:55:28.393,0.011782992988744093,-21.06413334329591
2025-03-06 15:55:28.401,0.01165161812635991,-19.98961255644191
2025-03-06 15:55:28.409,0.011493567564316718,-18.711464411470413
2025-03-06 15:55:28.417,0.011316117304150724,-17.255735316201058
2025-03-06 15:55:28.425,0.01112678041035775,-15.652014679326589
2025-03-06 15:55:28.433,0.010933068633928903,-13.93253832469789
2025-03-06 15:55:28.440,0.010742254354928071,-12.13122850136993
2025-03-06 15:55:28.448,0.010561143281194655,-10.28270958212808
2025-03-06 15:55:28.456,0.01039586764527013,-8.421338386625926
2025-03-06 15:55:28.464,0.010251708323660458,-6.580286127828636
2025-03-06 15:55:28.472,0.010132952563971736,-4.790705417000009
2025-03-06 15:55:28.479,0.01004279202718045,-3.0810108020539975
2025-03-06 15:55:28.487,0.009983263773404643,-1.4762952438765682
2025-03-06 15:55:28.495,0.009955234777511791,0.002101918859872711
2025-03-06 15:55:28.503,0.009958428676812077,1.3368672597616023
2025-03-06 15:55:28.511,0.009991491778530705,2.5148249420473348
2025-03-06 15:55:28.518,0.010052093878367516,3.526894065151514
2025-03-06 15:55:28.526,0.010137058167757625,4.367904555551188
2025-03-06 15:55:28.534,0.010242513520271291,5.03629022375933
2025-03-06 15:55:28.542,0.010364061872612186,5.53368226523021
2025-03-06 15:55:28.550,0.010496953309511552,5.864429862289581
2025-03-06 15:55:28.558,0.010636261757179863,6.03507653103454
2025-03-06 15:55:28.565,0.010777054757520759,6.053821405278099
2025-03-06 15:55:28.573,0.010914551536857577,5.929993778693532
2025-03-06 15:55:28.581,0.011044264464623622,5.673567017026787
2025-03-06 15:55:28.589,0.01116212001999381,5.294734540823474
2025-03-06 15:55:28.597,0.01126455653042293,4.8035661493343085
2025-03-06 15:55:28.604,0.011348597152439457,4.209757730268882
2025-03-06 15:55:28.612,0.01141189773929806,3.522481630532368
2025-03-06 15:55:28.620,0.01145277028727414,2.750338926312387
2025-03-06 15:55:28.628,0.011470183494083583,1.9014088186952274
2025-03-06 15:55:28.636,0.011463742565320867,0.9833846898729008
2025-03-06 15:55:28.643,0.011433650800187503,0.0037812732159707707
2025-03-06 15:55:28.651,0.011380655751144114,-1.029806815460934
2025-03-06 15:55:28.659,0.01130598294219139,-2.1094180378825746
2025-03-06 15:55:28.667,0.011211260250924854,-3.226433052290473
2025-03-06 15:55:28.675,0.011098436082534954,-4.3713050782768015
2025-03-06 15:55:28.683,0.010969694382926179,-5.533335580628031
2025-03-06 15:55:28.690,0.010827369374027947,-6.700516938641072
2025-03-06 15:55:28.698,0.010673862655493692,-7.859460081846451
2025-03-06 15:55:28.706,0.010511564988813012,-8.995420294305898
2025-03-06 15:55:28.714,0.010342784671059094,-10.092428768314441
2025-03-06 15:55:28.722,0.010169683980127055,-11.133531325991406
2025-03-06 15:55:28.729,0.00999422480783253,-12.101129357241778
2025-03-06 15:55:28.737,0.009818124312626708,-12.977411792108349
2025-03-06 15:55:28.745,0.009642821183289683,-13.74486117877746
2025-03-06 15:55:28.753,0.009469452868242072,-14.386811997481743
2025-03-06 15:55:28.761,0.00929884388043048,-14.88803548560778
2025-03-06 15:55:28.768,0.009131505036918888,-15.235322704063906
2025-03-06 15:55:28.776,0.008967643221674855,-15.418036496865179
2025-03-06 15:55:28.784,0.008807180947830145,-15.428603469229845
2025-03-06 15:55:28.792,0.008649784652398339,-15.262919137949016
2025-03-06 15:55:28.800,0.00849490033126998,-14.920642908195621
2025-03-06 15:55:28.808,0.008341794864344405,-14.405364332512379
2025-03-06 15:55:28.815,0.008189601219382558,-13.72462796154253
2025-03-06 15:55:28.823,0.008037365682288456,-12.889810694615921
2025-03-06 15:55:28.831,0.007884095356685144,-11.915852539074853
2025-03-06 15:55:28.839,0.007728804386320958,-10.820848733462915
2025-03-06 15:55:28.847,0.007570557612843787,-9.62551792642119
2025-03-06 15:55:28.854,0.007408510608503126,-8.352567191602281
2025-03-06 15:55:28.862,0.00724194517680086,-7.0259797915944855
2025-03-06 15:55:28.870,0.0070702995105701915,-5.670255518224963
2025-03-06 15:55:28.878,0.006893192281064765,-4.309635927237086
2025-03-06 15:55:28.886,0.006710440036820052,-2.9673477162037587
2025-03-06 15:55:28.893,0.0065220674299045515,-1.6648968110511948
2025-03-06 15:55:28.901,0.00632830996215746,-0.4214434623186743
2025-03-06 15:55:28.909,0.006129609153586886,0.7467150734315573
2025-03-06 15:55:28.917,0.005926600268705386,1.8265326847441437
2025-03-06 15:55:28.925,0.005720092971471265,2.80845781339165
2025-03-06 15:55:28.933,0.005511045500890821,3.686523266422097
2025-03-06 15:55:28.940,0.005300533186654406,4.458280689974319
2025-03-06 15:55:28.948,0.00508971238888972,5.124585121078806
2025-03-06 15:55:28.956,0.0048797812332789245,5.68924190306142
2025-03-06 15:55:28.964,0.004671938754874138,6.15853451713176
2025-03-06 15:55:28.972,0.004467344198540286,6.540657270314657
2025-03-06 15:55:28.979,0.004267078226918622,6.8450810548728676
2025-03-06 15:55:28.987,0.004072107655261398,7.081883373626781
2025-03-06 15:55:28.995,0.003883255078431082,7.26107538462203
2025-03-06 15:55:29.003,0.0037011744199024056,7.391958798054617
2025-03-06 15:55:29.011,0.00352633308130484,7.482544062940814
2025-03-06 15:55:29.018,0.0033590010736654218,7.539058472660036
2025-03-06 15:55:29.026,0.0031992473168095197,7.565568710583007
2025-03-06 15:55:29.034,0.0030469431900601767,7.563737112663262
2025-03-06 15:55:29.042,0.00290177332183387,7.532724753754414
2025-03-06 15:55:29.050,0.0027632534208686392,7.469247619515236
2025-03-06 15:55:29.058,0.0026307546410709944,7.367784888039999
2025-03-06 15:55:29.065,0.0025035335642826,7.220931019621024
2025-03-06 15:55:29.073,0.0023807664304182348,7.0198762591433645
2025-03-06 15:55:29.081,0.002261585798391156,6.754993618132398
2025-03-06 15:55:29.089,0.0021451174638550076,6.416504738685903
2025-03-06 15:55:29.097,0.002030515280529227,5.995192542523557
2025-03-06 15:55:29.104,0.0019169915826712765,5.483125489622439
2025-03-06 15:55:29.112,0.001803841183318353,4.874356812780495
2025-03-06 15:55:29.120,0.001690457396104466,4.165562388747088
2025-03-06 15:55:29.128,0.0015763391715587884,3.3565830028911967
2025-03-06 15:55:29.136,0.0014610892188726713,2.4508406187630345
2025-03-06 15:55:29.143,0.0013444038315029924,1.4556037329260738
2025-03-06 15:55:29.151,0.0012260559422146797,0.38208373908646437
2025-03-06 15:55:29.159,0.0011058735847601898,-0.7546478816877993
2025-03-06 15:55:29.167,0.0009837163386129974,-1.9359231797351708
2025-03-06 15:55:29.175,0.0008594524135766122,-3.139915035069474
2025-03-06 15:55:29.183,0.0007329387735259888,-4.342232481050491
2025-03-06 15:55:29.190,0.0006040061610611619,-5.516650560593169
2025-03-06 15:55:29.198,0.00047245020377519286,-6.635944480541663
2025-03-06 15:55:29.206,0.00033802911230822825,-7.672792541965432
2025-03-06 15:55:29.214,0.00020046791507858787,-8.600708771294316
2025-03-06 15:55:29.222,5.9468728550671046e-05,-9.394964547490154
2025-03-06 15:55:29.229,-8.527378951909655e-05,-10.033458897808826
2025-03-06 15:55:29.237,-0.0002340529297016056,-10.497499497145395
2025-03-06 15:55:29.245,-0.0003871276820433087,-10.772460627685813
2025-03-06 15:55:29.253,-0.0005446991715434774,-10.848290211142318
2025-03-06 15:55:29.261,-0.0007068872185760768,-10.719845200433827
2025-03-06 15:55:29.268,-0.0008737084205516327,-10.387042726458285
2025-03-06 15:55:29.276,-0.0010450570750962186,-9.85482300955207
2025-03-06 15:55:29.284,-0.0012206901538577648,-9.132928718975688
2025-03-06 15:55:29.292,-0.0014002173494092362,-8.235513761207933
2025-03-06 15:55:29.300,-0.0015830969321945065,-7.180601993292925
2025-03-06 15:55:29.308,-0.0017686377956065522,-5.9894227341472375
2025-03-06 15:55:29.315,-0.001956007682876266,-4.685654894631485
2025-03-06 15:55:29.323,-0.0021442472170360902,-3.2946148585593438
2025-03-06 15:55:29.331,-0.002332289014488187,-1.842424804575525
2025-03-06 15:55:29.339,-0.0025189808696566346,-0.3551979371041208
2025-03-06 15:55:29.347,-0.002703111789226811,1.141724846860434
2025-03-06 15:55:29.354,-0.002883439578669301,2.6244558528100437
2025-03-06 15:55:29.362,-0.003058718760527657,4.071132947586559
2025-03-06 15:55:29.370,-0.0032277278028886576,5.462363310145565
2025-03-06 15:55:29.378,-0.0033892948931209996,6.78152534964488
2025-03-06 15:55:29.386,-0.003542321729932201,8.014922902245457
2025-03-06 15:55:29.394,-0.0036858049616676487,9.151793291049792
2025-03-06 15:55:29.401,-0.0038188549450214786,10.184178090374267
2025-03-06 15:55:29.409,-0.003940711461522915,11.10667213811281
2025-03-06 15:55:29.417,-0.004050755971878021,11.916072178573497
2025-03-06 15:55:29.425,-0.004148519974982283,12.610951220639409
2025-03-06 15:55:29.433,-0.004233689102065864,13.191188036183085
2025-03-06 15:55:29.440,-0.0043061027119842095,13.657483030818414
2025-03-06 15:55:29.448,-0.004365748942644202,14.010891890111012
2025-03-06 15:55:29.456,-0.004412755407302252,14.25240691498446
2025-03-06 15:55:29.464,-0.00444737599287699,14.382612872781722
2025-03-06 15:55:29.472,-0.004469974487934743,14.401439656088385
2025-03-06 15:55:29.479,-0.004481006002905177,14.308028292270627
2025-03-06 15:55:29.487,-0.004480997333573311,14.100720180921439
2025-03-06 15:55:29.495,-0.004470527564284328,13.777172196456014
2025-03-06 15:55:29.503,-0.004450210286028915,13.3345928434395
2025-03-06 15:55:29.511,-0.004420678765364125,12.77008736283582
2025-03-06 15:55:29.519,-0.004382575204907722,12.081092923283991
2025-03-06 15:55:29.526,-0.0043365448875939345,11.265879142472476
2025-03-06 15:55:29.534,-0.004283235535125442,10.32408448820439
2025-03-06 15:55:29.542,-0.0042233017008892985,9.257255875249667
2025-03-06 15:55:29.550,-0.004157413538007549,8.069357206202643
2025-03-06 15:55:29.558,-0.004086268908220687,6.767212832205709
2025-03-06 15:55:29.565,-0.004010607557633197,5.3608539797023935
2025-03-06 15:55:29.573,-0.003931225947777357,3.863740054980573
2025-03-06 15:55:29.581,-0.0038489912432280978,2.2928322494124047
2025-03-06 15:55:29.589,-0.0037648529153675495,0.6685037757949783
2025-03-06 15:55:29.597,-0.003679850465039087,-0.9857209650263777
2025-03-06 15:55:29.604,-0.0035951159242788113,-2.6435973584067045
2025-03-06 15:55:29.612,-0.0035118700649202335,-4.276751913116192
2025-03-06 15:55:29.620,-0.0034314115915662466,-5.855415573135647
2025-03-06 15:55:29.628,-0.003355098993369242,-7.349272695910475
2025-03-06 15:55:29.636,-0.003284325157136075,-8.72839258602091
2025-03-06 15:55:29.644,-0.0032204853096718515,-9.964205166860955
2025-03-06 15:55:29.651,-0.003164939352177132,-11.03047887614276
2025-03-06 15:55:29.659,-0.003118970126074117,-11.90425741053953
2025-03-06 15:55:29.667,-0.0030837395313435727,-12.566712642379617
2025-03-06 15:55:29.675,-0.003060244628917823,-13.003873889698365
2025-03-06 15:55:29.683,-0.00304927585864627,-13.207198619240721
2025-03-06 15:55:29.690,-0.0030513793176217977,-13.173956363753021
2025-03-06 15:55:29.698,-0.0030668247432199497,-12.907405805397145
2025-03-06 15:55:29.706,-0.003095580508320175,-12.416754203751848
2025-03-06 15:55:29.714,-0.003137296605889071,-11.716898160436596
2025-03-06 15:55:29.722,-0.0031912962855411495,-10.827954612302785
2025-03-06 15:55:29.729,-0.00325657671202963,-9.774600429090503
2025-03-06 15:55:29.737,-0.0033318187612827754,-8.585247584972644
2025-03-06 15:55:29.745,-0.003415405858924484,-7.291088155743805
2025-03-06 15:55:29.753,-0.0035054515774072936,-5.9250490200638595
2025-03-06 15:55:29.761,-0.003599835509546753,-4.520699863910795
2025-03-06 15:55:29.769,-0.003696246711773023,-3.1111597569834437
2025-03-06 15:55:29.776,-0.003792233755777168,-1.7280471510356166
2025-03-06 15:55:29.784,-0.003885260141739424,-0.4005157099206836
2025-03-06 15:55:29.792,-0.003972763522769862,0.8455859212636107
2025-03-06 15:55:29.800,-0.004052216901143771,1.9883982312238588
2025-03-06 15:55:29.808,-0.0041211897256080016,3.010553933137688
2025-03-06 15:55:29.815,-0.0041774066978695155,3.899483392911792
2025-03-06 15:55:29.823,-0.004218802140096473,4.6475146596508905
2025-03-06 15:55:29.831,-0.00424356800141558,5.25176950202781
2025-03-06 15:55:29.839,-0.0042501939370190814,5.713865824289047
2025-03-06 15:55:29.847,-0.0042374982862507056,6.039445243178994
2025-03-06 15:55:29.854,-0.0042046491425092305,6.237552092965837
2025-03-06 15:55:29.862,-0.004151175041614544,6.319896380819538
2025-03-06 15:55:29.870,-0.0040769651241142815,6.30003798708583
2025-03-06 15:55:29.878,-0.003982258983402442,6.192532502474845
2025-03-06 15:55:29.886,-0.003867626814791343,6.01208038755798
2025-03-06 15:55:29.894,-0.0037339409274965104,5.772720567967633
2025-03-06 15:55:29.901,-0.0035823401422159142,5.4871071526808635
2025-03-06 15:55:29.909,-0.0034141890097670576,5.1659037676241075
2025-03-06 15:55:29.917,-0.003231034067093526,4.817324190792483
2025-03-06 15:55:29.925,-0.0030345594348391482,4.446840790100371
2025-03-06 15:55:29.933,-0.002826543958602429,4.057074002873002
2025-03-06 15:55:29.940,-0.002608821855929615,3.6478671155398343
2025-03-06 15:55:29.948,-0.0023832484982717816,3.2165413048818645
2025-03-06 15:55:29.956,-0.002151672543718816,2.758316716732356
2025-03-06 15:55:29.964,-0.0019159151536611476,2.26687672703927
2025-03-06 15:55:29.972,-0.0016777565124450804,1.735044893515294
2025-03-06 15:55:29.979,-0.0014389293622712412,1.155537876997297
2025-03-06 15:55:29.987,-0.0012011187848466776,0.5217531489048127
2025-03-06 15:55:29.995,-0.0009659670360071614,-0.17145211748723432
2025-03-06 15:55:30.003,-0.0007350819217412551,-0.9270347740968872
2025-03-06 15:55:30.011,-0.0005100470179762034,-1.7451337701311473
2025-03-06 15:55:30.019,-0.0002924319517268147,-2.622570014901653
2025-03-06 15:55:30.026,-8.38009428798143e-05,-3.5525091847742427
2025-03-06 15:55:30.034,0.0001142821432623679,-4.524310632585027
2025-03-06 15:55:30.042,0.00030025384496552366,-5.523576263343004
2025-03-06 15:55:30.050,0.00047255763201681727,-6.5324031218196295
2025-03-06 15:55:30.058,0.0006296579387491009,-7.529833019940884
2025-03-06 15:55:30.065,0.000770062241482417,-8.492482360720155
2025-03-06 15:55:30.073,0.0008923511221639363,-9.395325926470766
2025-03-06 15:55:30.081,0.0009952156174135873,-10.212600283775314
2025-03-06 15:55:30.089,0.0010775005205244828,-10.918786035664578
2025-03-06 15:55:30.097,0.0011382517143675654,-11.489623750923716
2025-03-06 15:55:30.104,0.0011767651019058767,-11.903116244480785
2025-03-06 15:55:30.112,0.001192634316511108,-12.140470078580414
2025-03-06 15:55:30.120,0.001185794175676157,-12.186931687683535
2025-03-06 15:55:30.128,0.0011565568158791876,-12.032478267217343
2025-03-06 15:55:30.136,0.0011056376347508916,-11.67233026317597
2025-03-06 15:55:30.144,0.0010341685729490541,-11.107260614557505
2025-03-06 15:55:30.151,0.0009436968644710989,-10.34368541247287
2025-03-06 15:55:30.159,0.0008361681167760424,-9.393530869614052
2025-03-06 15:55:30.167,0.0007138933922646574,-8.27388193082493
2025-03-06 15:55:30.175,0.0005795008157780968,-7.00642798458856
2025-03-06 15:55:30.183,0.00043587311731287814,-5.616730463232135
2025-03-06 15:55:30.190,0.00028607339105178424,-4.133345199161112
2025-03-06 15:55:30.198,0.00013326210288280916,-2.5868388555828177
2025-03-06 15:55:30.206,-1.9391098192130053e-05,-1.0087432798501317
2025-03-06 15:55:30.214,-0.0001687969446645422,0.5695059589782435
2025-03-06 15:55:30.222,-0.0003120336445010945,2.117600383471764
2025-03-06 15:55:30.229,-0.0004464278607901362,3.607314308003513
2025-03-06 15:55:30.237,-0.0005696263610583545,5.0133450595167535
2025-03-06 15:55:30.245,-0.0006796557248954379,6.314003339117182
2025-03-06 15:55:30.253,-0.0007749681808085685,7.491726917342336
2025-03-06 15:55:30.261,-0.0008544722916638734,8.533399633733634
2025-03-06 15:55:30.269,-0.0009175477596067008,9.430467217171325
2025-03-06 15:55:30.276,-0.0009640440973354841,10.178851287955373
2025-03-06 15:55:30.284,-0.000994263384732416,10.778672566816619
2025-03-06 15:55:30.292,-0.0010089278499901817,11.233803333474036
2025-03-06 15:55:30.300,-0.0010091335841514583,11.55127711582516
2025-03-06 15:55:30.308,-0.000996292287531674,11.740590071782307
2025-03-06 15:55:30.315,-0.0009720635111922518,11.812933241580588
2025-03-06 15:55:30.323,-0.0009382803300321233,11.780397579352831
2025-03-06 15:55:30.331,-0.0008968716880671913,11.655194299827253
2025-03-06 15:55:30.339,-0.0008497847477698295,11.448931584444315
2025-03-06 15:55:30.347,-0.0007989104679147396,11.171985166717215
2025-03-06 15:55:30.354,-0.0007460153645698973,10.832994939755222
2025-03-06 15:55:30.362,-0.0006926820056657671,10.438512768443832
2025-03-06 15:55:30.370,-0.0006402602826084289,9.992818491895774
2025-03-06 15:55:30.378,-0.000589830938347709,9.49791207734234
2025-03-06 15:55:30.386,-0.0005421822521983527,8.953680482428526
2025-03-06 15:55:30.394,-0.0004978002068426384,8.358228458422
2025-03-06 15:55:30.401,-0.00045687188865259245,7.708353728441262
2025-03-06 15:55:30.409,-0.00041930129234417135,7.000139118499086
2025-03-06 15:55:30.417,-0.00038473613269410505,6.229627680135761
2025-03-06 15:55:30.425,-0.00035260375777350253,5.3935419455625375
2025-03-06 15:55:30.433,-0.0003221538692961632,4.490005459141827
2025-03-06 15:55:30.440,-0.0002925055306841238,3.5192238150266344
2025-03-06 15:55:30.448,-0.00026269589906336246,2.4840836926547
2025-03-06 15:55:30.456,-0.0002317282520599541,1.390631809676011
2025-03-06 15:55:30.464,-0.00019861717759102313,0.24840118223232893
2025-03-06 15:55:30.472,-0.00016242920318964413,-0.9294406437339502
2025-03-06 15:55:30.479,-0.00012231758069510058,-2.1261379924010906
2025-03-06 15:55:30.487,-7.755036375607448e-05,-3.3215949233140933
2025-03-06 15:55:30.495,-2.7531334913060966e-05,-4.492821079319494
2025-03-06 15:55:30.503,2.8186219122867713e-05,-5.614561690784418
2025-03-06 15:55:30.511,8.98924530481222e-05,-6.66008807332599
2025-03-06 15:55:30.519,0.00015771985065650784,-7.6021161504233286
2025-03-06 15:55:30.526,0.00023164706944771751,-8.413813239943115
2025-03-06 15:55:30.534,0.0003115066992807851,-9.069847973639552
2025-03-06 15:55:30.542,0.00039699594613208005,-9.547435074379873
2025-03-06 15:55:30.550,0.0004876893602467711,-9.8273259750896
2025-03-06 15:55:30.558,0.0005830528527926819,-9.89469797088134
2025-03-06 15:55:30.565,0.0006824583846358813,-9.73989866385997
2025-03-06 15:55:30.573,0.0007851988649440958,-9.359008678488049
2025-03-06 15:55:30.581,0.0008905029400503264,-8.75419367868992
2025-03-06 15:55:30.589,0.0009975494612799731,-7.933826204157246
2025-03-06 15:55:30.597,0.0011054815074288311,-6.9123682923983765
2025-03-06 15:55:30.604,0.0012134199294274945,-5.710016747764989
2025-03-06 15:55:30.612,0.0013204764740205016,-4.352123721690967
2025-03-06 15:55:30.620,0.0014257665893235862,-2.8684154527600736
2025-03-06 15:55:30.628,0.0015284219926605092,-1.29204109465074
2025-03-06 15:55:30.636,0.001627603012234432,0.34150888478228336
2025-03-06 15:55:30.644,0.0017225106448053743,1.9955695511629852
2025-03-06 15:55:30.651,0.0018123982271521213,3.6335048062747335
2025-03-06 15:55:30.659,0.0018965825909037291,5.219896964055775
2025-03-06 15:55:30.667,0.001974454539961377,6.721673278588864
2025-03-06 15:55:30.675,0.002045488459220622,8.109123149975185
2025-03-06 15:55:30.683,0.0021092508484621283,9.356764814657158
2025-03-06 15:55:30.690,0.0021654075725386778,10.444027203665216
2025-03-06 15:55:30.698,0.0022137296071144223,11.35572101367322
2025-03-06 15:55:30.706,0.002254097043971688,12.082282508789593
2025-03-06 15:55:30.714,0.002286501141871014,12.619783739322848
2025-03-06 15:55:30.722,0.0023110442849402454,12.969713286719257
2025-03-06 15:55:30.729,0.0023279377987091223,13.138541872164607
2025-03-06 15:55:30.737,0.0023374976206985286,13.137096752716397
2025-03-06 15:55:30.745,0.0023401378233003506,12.979777339580549
2025-03-06 15:55:30.753,0.002336361982620769,12.683651506066532
2025-03-06 15:55:30.761,0.002326752415902146,12.267477261060233
2025-03-06 15:55:30.769,0.0023119573775618775,11.75069758052854
2025-03-06 15:55:30.776,0.0022926763922753324,11.152457047086763
2025-03-06 15:55:30.784,0.0022696439924688298,10.490687490649051
2025-03-06 15:55:30.792,0.0022436122074650524,9.781306113355235
2025-03-06 15:55:30.800,0.0022153322238048596,9.037563795560102
2025-03-06 15:55:30.808,0.002185535701976138,8.269573697775343
2025-03-06 15:55:30.815,0.0021549162927428324,7.48404126476922
2025-03-06 15:55:30.823,0.0021241119463672998,6.68420673492421
2025-03-06 15:55:30.831,0.002093688639782111,5.870000731096264
2025-03-06 15:55:30.839,0.0020641261365190915,5.03840294675397
2025-03-06 15:55:30.847,0.0020358063287854115,4.183983831942693
2025-03-06 15:55:30.854,0.0020090046046789246,3.299599998956163
2025-03-06 15:55:30.862,0.0019838845593482196,2.3772062403420815
2025-03-06 15:55:30.870,0.0019604962306952077,1.4087409569462375
2025-03-06 15:55:30.878,0.0019387778788423431,0.38703773331571567
2025-03-06 15:55:30.886,0.0019185611566497399,-0.6932860098212353
2025-03-06 15:55:30.894,0.0018995793749906932,-1.8350117867493236
2025-03-06 15:55:30.901,0.001881478476144342,-3.0376197760504793
2025-03-06 15:55:30.909,0.0018638302787825861,-4.2967457756035605
2025-03-06 15:55:30.917,0.0018461475248892295,-5.603828302636771
2025-03-06 15:55:30.925,0.0018279002333044503,-6.945969665277069
2025-03-06 15:55:30.933,0.001808532845631906,-8.30602443109185
2025-03-06 15:55:30.940,0.0017874816457255258,-9.662917517229198
2025-03-06 15:55:30.948,0.0017641919664327672,-10.992182675987467
2025-03-06 15:55:30.956,0.0017381347788048465,-12.266701016172412
2025-03-06 15:55:30.964,0.0017088223631220804,-13.457608946768511
2025-03-06 15:55:30.972,0.001675822841686827,-14.535336086551904
2025-03-06 15:55:30.979,0.001638773387016234,-15.470726719269713
2025-03-06 15:55:30.987,0.001597391919047599,-16.236193662447345
2025-03-06 15:55:30.995,0.0015514870961285516,-16.806851216772134
2025-03-06 15:55:31.003,0.0015009663931330286,-17.16157430356018
2025-03-06 15:55:31.011,0.0014458420381786962,-17.283933976464
2025-03-06 15:55:31.019,0.0013862345530885893,-17.162965066373456
2025-03-06 15:55:31.026,0.0013223736330416,-16.79372950412868
2025-03-06 15:55:31.034,0.001254596121992217,-16.17764846053366
2025-03-06 15:55:31.042,0.0011833408974296204,-15.322587345482688
2025-03-06 15:55:31.050,0.0011091405745523026,-14.242689347817318
2025-03-06 15:55:31.058,0.001032610068239973,-12.95796496964021
2025-03-06 15:55:31.065,0.0009544321875023062,-11.49365630824559
2025-03-06 15:55:31.073,0.0008753405585237296,-9.879405097024787
2025-03-06 15:55:31.081,0.0007961002708721185,-8.14826223392841
2025-03-06 15:55:31.089,0.0007174867252925401,-6.335583295505444
2025-03-06 15:55:31.097,0.0006402632536081879,-4.477859058665152
2025-03-06 15:55:31.104,0.0005651582032490693,-2.6115321546538435
2025-03-06 15:55:31.112,0.0004928423259479366,-0.7718506115840164
2025-03-06 15:55:31.120,0.000423907444388667,1.0081937196434747
2025-03-06 15:55:31.128,0.0003588474406694051,2.6987988230033157
2025-03-06 15:55:31.136,0.00029804257936924577,4.274122093231937
2025-03-06 15:55:31.144,0.00024174804258148133,5.712858059763168
2025-03-06 15:55:31.151,0.00019008733878729393,6.998605971108284
2025-03-06 15:55:31.159,0.0001430509784782561,8.120019045717532
2025-03-06 15:55:31.167,0.00010050050365866549,9.070737414756058
2025-03-06 15:55:31.175,6.217763511060953e-05,9.849116658363542
2025-03-06 15:55:31.183,2.7717999998050904e-05,10.457772937642925
2025-03-06 15:55:31.190,-3.331325273838154e-06,10.902973668830528
2025-03-06 15:55:31.198,-3.149134958608469e-05,11.193909152349056
2025-03-06 15:55:31.206,-5.7328721490664336e-05,11.34188529998502
2025-03-06 15:55:31.214,-8.143226377883078e-05,11.359480408975074
2025-03-06 15:55:31.222,-0.0001043894593844376,11.259709700299673
2025-03-06 15:55:31.229,-0.00012676385362467068,11.055240046397776
2025-03-06 15:55:31.237,-0.0001490742929356272,10.757694033673666
2025-03-06 15:55:31.245,-0.00017177682845657702,10.377077405778186
2025-03-06 15:55:31.253,-0.00019524997636288398,9.921357266554875
2025-03-06 15:55:31.261,-0.00021978384885504296,9.396210503481496
2025-03-06 15:55:31.269,-0.00024557346383894936,8.804953085468481
2025-03-06 15:55:31.276,-0.00027271633627031264,8.148651584471123
2025-03-06 15:55:31.284,-0.00030121427476181124,7.426408878521411
2025-03-06 15:55:31.292,-0.00033097915574933375,6.635806935826661
2025-03-06 15:55:31.300,-0.00036184230426502265,5.773481280001236
2025-03-06 15:55:31.308,-0.0003935669532288122,4.835794606592206
2025-03-06 15:55:31.315,-0.00042586308533494285,3.8195714330691453
2025-03-06 15:55:31.323,-0.00045840381793538204,2.7228519241354445
2025-03-06 15:55:31.331,-0.000490842419228396,1.5456213604238622
2025-03-06 15:55:31.339,-0.0005228290757598309,0.2904722309541194
2025-03-06 15:55:31.347,-0.0005540266630292371,-1.0368413589619605
2025-03-06 15:55:31.354,-0.0005841249633941776,-2.4269924604124746
2025-03-06 15:55:31.362,-0.0006128529742794563,-3.866842026111122
2025-03-06 15:55:31.370,-0.000639989112426377,-5.339392139082621
2025-03-06 15:55:31.378,-0.0006653692287245091,-6.823942785172624
2025-03-06 15:55:31.386,-0.0006888923991015191,-8.296453085785837
2025-03-06 15:55:31.394,-0.0007105244502469939,-9.730097584365062
2025-03-06 15:55:31.401,-0.0007302991352230827,-11.095998200692677
2025-03-06 15:55:31.409,-0.0007483168431270203,-12.364103334142406
2025-03-06 15:55:31.417,-0.0007647407567473418,-13.504177768572326
2025-03-06 15:55:31.425,-0.0007797904723127973,-14.486860897467837
2025-03-06 15:55:31.433,-0.0007937332419874585,-15.284746653284964
2025-03-06 15:55:31.440,-0.0008068731635141878,-15.873436601665611
2025-03-06 15:55:31.448,-0.0008195387970908726,-16.2325180634435
2025-03-06 15:55:31.456,-0.0008320698069828089,-16.346421864257742
2025-03-06 15:55:31.464,-0.0008448032769793389,-16.205119277400733
2025-03-06 15:55:31.472,-0.0008580603318210485,-15.804624695414336
2025-03-06 15:55:31.479,-0.0008721336332219781,-15.147279205034216
2025-03-06 15:55:31.487,-0.0008872762323568131,-14.241800123989442
2025-03-06 15:55:31.495,-0.0009036921612488175,-13.103092198768932
2025-03-06 15:55:31.503,-0.0009215290357765178,-11.751827034972326
2025-03-06 15:55:31.511,-0.0009408728237265684,-10.213807900569826
2025-03-06 15:55:31.519,-0.0009617448048070566,-8.519146784557966
2025-03-06 15:55:31.526,-0.0009841006279365876,-6.701289024240649
2025-03-06 15:55:31.534,-0.0010078312857498132,-4.795927514492174
2025-03-06 15:55:31.542,-0.001032765811830704,-2.8398531560304656
2025-03-06 15:55:31.550,-0.0010586755589120436,-0.869790576484706
2025-03-06 15:55:31.558,-0.0010852799843283469,1.0787318152884495
2025-03-06 15:55:31.565,-0.0011122539001074102,2.9724306608643305
2025-03-06 15:55:31.573,-0.001139236124388049,4.781193015645847
2025-03-06 15:55:31.581,-0.0011658394085653984,6.478842203878395
2025-03-06 15:55:31.589,-0.0011916614277166515,8.043715983914426
2025-03-06 15:55:31.597,-0.0012162965353072063,9.45903783821298
2025-03-06 15:55:31.604,-0.001239347920565844,10.713071889703786
2025-03-06 15:55:31.612,-0.0012604397703048032,11.799061868540102
2025-03-06 15:55:31.620,-0.0012792290132849177,12.714964265483381
2025-03-06 15:55:31.628,-0.0012954162144865524,13.462994889555333
2025-03-06 15:55:31.636,-0.0013087552035378662,14.049016116912263
2025-03-06 15:55:31.644,-0.0013190610737341566,14.481798848374233
2025-03-06 15:55:31.651,-0.0013262162725874679,14.772198321688148
2025-03-06 15:55:31.659,-0.0013301746097528291,14.932286255232519
2025-03-06 15:55:31.667,-0.001330963099996891,14.974483205796131
2025-03-06 15:55:31.675,-0.0013286816000355895,14.910734452377818
2025-03-06 15:55:31.683,-0.001323500198697429,14.75177019778716
2025-03-06 15:55:31.690,-0.001315654338927964,14.50648651610606
2025-03-06 15:55:31.698,-0.001305437723118992,14.181477448343003
2025-03-06 15:55:31.706,-0.0012931931451227777,13.780741213605216
2025-03-06 15:55:31.714,-0.0012793014460551126,13.305574974907822
2025-03-06 15:55:31.722,-0.0012641688060868463,12.754663344267565
2025-03-06 15:55:31.729,-0.0012482126184529393,12.124356234855503
2025-03-06 15:55:31.737,-0.00123184628830215,11.409122196617897
2025-03-06 15:55:31.745,-0.0012154634413710944,10.602154443612417
2025-03-06 15:55:31.753,-0.0011994221661471914,9.696098825181364
2025-03-06 15:55:31.761,-0.0011840300094460331,8.683866406459801
2025-03-06 15:55:31.769,-0.0011695304825651768,7.559488448671273
2025-03-06 15:55:31.776,-0.0011560918081674918,6.318968680942481
2025-03-06 15:55:31.784,-0.0011437985450460052,4.9610870050533
2025-03-06 15:55:31.792,-0.001132646570783131,3.488110243886329
2025-03-06 15:55:31.800,-0.001122541694657334,1.906369198199435
2025-03-06 15:55:31.808,-0.0011133019513354216,0.2266669684641053
2025-03-06 15:55:31.815,-0.0011046634396397464,-1.535509026462494
2025-03-06 15:55:31.823,-0.0010962894455275912,-3.3599899947774468
2025-03-06 15:55:31.831,-0.001087782502115634,-5.222152426981004
2025-03-06 15:55:31.839,-0.0010786989475181001,-7.093366758602124
2025-03-06 15:55:31.847,-0.0010685654222724183,-8.941655859055631
2025-03-06 15:55:31.855,-0.00105689662493746,-10.73254115531692
2025-03-06 15:55:31.862,-0.001043213563415851,-12.43004512758415
2025-03-06 15:55:31.870,-0.001027061525003539,-13.997811197445646
2025-03-06 15:55:31.878,-0.0010080270187614944,-15.400296017875764
2025-03-06 15:55:31.886,-0.0009857529842717443,-16.60398514706611
2025-03-06 15:55:31.894,-0.000959951610524818,-17.578581243710033
2025-03-06 15:55:31.901,-0.0009304142015192214,-18.298114367063768
2025-03-06 15:55:31.909,-0.0008970176827233121,-18.741926702711527
2025-03-06 15:55:31.917,-0.0008597275487503428,-18.895488954611764
2025-03-06 15:55:31.925,-0.0008185972784995313,-18.75101252739631
2025-03-06 15:55:31.933,-0.0007737644650911499,-18.307830153262906
2025-03-06 15:55:31.940,-0.0007254440869471232,-17.572527396323498
2025-03-06 15:55:31.948,-0.0006739194444614299,-16.558818037166468
2025-03-06 15:55:31.956,-0.0006195313118432277,-15.287167214931484
2025-03-06 15:55:31.964,-0.0005626658570304561,-13.784176891506222
2025-03-06 15:55:31.972,-0.0005037418895811966,-12.081758224530013
2025-03-06 15:55:31.980,-0.0004431979832245764,-10.21612434456056
2025-03-06 15:55:31.987,-0.0003814799674550056,-8.226644425250454
2025-03-06 15:55:31.995,-0.0003190292074202146,-6.1546054791712494
2025-03-06 15:55:32.003,-0.0002562720082987286,-4.041931763339934
2025-03-06 15:55:32.011,-0.0001936103796560428,-1.9299129049751387
2025-03-06 15:55:32.019,-0.0001314142706010486,0.1420091603187477
2025-03-06 15:55:32.026,-7.001526461739692e-05,2.137347525842683
2025-03-06 15:55:32.034,-9.701651031113719e-06,4.023530183614002
2025-03-06 15:55:32.042,4.928520792510323e-05,5.772677591726035
2025-03-06 15:55:32.050,0.00010675324440275547,7.362171434607446
2025-03-06 15:55:32.058,0.00016256076610642148,8.77499745233076
2025-03-06 15:55:32.065,0.00021661621800546003,9.999855231921604
2025-03-06 15:55:32.073,0.0002688766287990937,11.031038065338983
2025-03-06 15:55:32.081,0.0003193448257492393,11.868095936345819
2025-03-06 15:55:32.089,0.00036806558986388755,12.515303965771677
2025-03-06 15:55:32.097,0.0004151209744920255,12.980966820570746
2025-03-06 15:55:32.105,0.0004606250020830725,13.276596327845379
2025-03-06 15:55:32.112,0.0005047179118031112,13.416004543845148
2025-03-06 15:55:32.120,0.0005475601028095274,13.414357591950088
2025-03-06 15:55:32.128,0.0005893259286619525,13.287236564045159
2025-03-06 15:55:32.136,0.000630197527966894,13.049750629086029
2025-03-06 15:55:32.144,0.0006703588815344424,12.715744263116536
2025-03-06 15:55:32.151,0.0007099902455178586,12.297135359395634
2025-03-06 15:55:32.159,0.0007492630470958686,11.803414144364952
2025-03-06 15:55:32.167,0.0007883352833674791,11.24132464700696
2025-03-06 15:55:32.175,0.0008273474474564579,10.614741339908367
2025-03-06 15:55:32.183,0.0008664190064238403,9.924743920894466
2025-03-06 15:55:32.190,0.00090564546550205,9.16988347875895
2025-03-06 15:55:32.198,0.000945096070372584,8.34662392520077
2025-03-06 15:55:32.206,0.0009848122130920037,7.449933998810608
2025-03-06 15:55:32.214,0.001024806603919664,6.473997745307574
2025-03-06 15:55:32.222,0.0010650632503372624,5.413005494664992
2025-03-06 15:55:32.230,0.0011055382591649236,4.261983272207207
2025-03-06 15:55:32.237,0.0011461614578816847,3.0176165015872534
2025-03-06 15:55:32.245,0.001186838817015286,1.6790238930616688
2025-03-06 15:55:32.253,0.001227455644858405,0.2484395625681165
2025-03-06 15:55:32.261,0.0012678805102269363,-1.2682344160696146
2025-03-06 15:55:32.269,0.0013079698055304425,-2.8610368792813254
2025-03-06 15:55:32.276,0.0013475727790362717,-4.515742286834478
2025-03-06 15:55:32.284,0.001386536768924645,-6.213857154361134
2025-03-06 15:55:32.292,0.0014247123097881845,-7.932824811677901
2025-03-06 15:55:32.300,0.0014619577795910957,-9.646435534162308
2025-03-06 15:55:32.308,0.0014981433005041434,-11.325429678756777
2025-03-06 15:55:32.315,0.001533153676183313,-12.938272603661135
2025-03-06 15:55:32.323,0.0015668902289775095,-14.452072243783824
2025-03-06 15:55:32.331,0.001599271490736313,-15.833603580441547
2025-03-06 15:55:32.339,0.0016302327959979474,-17.050399148318952
2025-03-06 15:55:32.347,0.001659724921908854,-18.071861363508745
2025-03-06 15:55:32.355,0.0016877120042877213,-18.870350964243706
2025-03-06 15:55:32.362,0.0017141690085595664,-19.422206293001334
2025-03-06 15:55:32.370,0.0017390790336695493,-19.70865050684206
2025-03-06 15:55:32.378,0.0017624306999487944,-19.716548002092065
2025-03-06 15:55:32.386,0.0017842158539092962,-19.43897722838311
2025-03-06 15:55:32.394,0.001804427815080687,-18.875594422820924
2025-03-06 15:55:32.401,0.0018230603585461765,-18.032771323431476
2025-03-06 15:55:32.409,0.0018401075502163843,-16.9234992624182
2025-03-06 15:55:32.417,0.001855564445938654,-15.567061784735916
2025-03-06 15:55:32.425,0.001869428556936431,-13.988487647609288
2025-03-06 15:55:32.433,0.0018817018849045547,-12.217805285784507
2025-03-06 15:55:32.440,0.0018923932455886877,-10.289128144772981
2025-03-06 15:55:32.448,0.001901520534579464,-8.23960730139133
2025-03-06 15:55:32.456,0.0019091125458126385,-6.108293186554656
2025-03-06 15:55:32.464,0.0019152099433881187,-3.934951763436502
2025-03-06 15:55:32.472,0.0019198650341588474,-1.758882049890062
2025-03-06 15:55:32.480,0.0019231401036107882,0.382218645271805
2025-03-06 15:55:32.487,0.001925104243781244,2.4532979375633612
2025-03-06 15:55:32.495,0.0019258287889069394,4.422860620665167
2025-03-06 15:55:32.503,0.001925381654095661,6.263716641054327
2025-03-06 15:55:32.511,0.0019238210052743222,7.953538958151884
2025-03-06 15:55:32.519,0.0019211887259073352,9.47521397789945
2025-03-06 15:55:32.526,0.001917504082550292,10.81697642222854
2025-03-06 15:55:32.534,0.0019127578974318955,11.972329911101134
2025-03-06 15:55:32.542,0.0019069074944381675,12.939763774529599
2025-03-06 15:55:32.550,0.0018998727053682611,13.72228528307309
2025-03-06 15:55:32.558,0.001891533248673788,14.326794222116316
2025-03-06 15:55:32.565,0.0018817277749686512,14.763333214933962
2025-03-06 15:55:32.573,0.001870254812969408,15.044252149778904
2025-03-06 15:55:32.581,0.0018568757580859512,15.183328277134448
2025-03-06 15:55:32.589,0.0018413199139309965,15.194884881390815
2025-03-06 15:55:32.597,0.001823291426251581,15.0929508463708
2025-03-06 15:55:32.605,0.0018024777897198572,14.890500956597595
2025-03-06 15:55:32.612,0.0017785595223321173,14.598812512742166
2025-03-06 15:55:32.620,0.0017512205920837255,14.22696797303968
2025-03-06 15:55:32.628,0.0017201591888778044,13.781526116752397
2025-03-06 15:55:32.636,0.001685098416789849,13.266375973602024
2025-03-06 15:55:32.644,0.0016457964501351986,12.682778831483693
2025-03-06 15:55:32.651,0.0016020556873529775,12.029594414758641
2025-03-06 15:55:32.659,0.001553730460831934,11.303678231084383
2025-03-06 15:55:32.667,0.0015007329077647107,10.500428537423035
2025-03-06 15:55:32.675,0.0014430366787459774,9.614453784985482
2025-03-06 15:55:32.683,0.0013806782778205788,8.640325144386113
2025-03-06 15:55:32.690,0.0013137559994372825,7.573374105905822
2025-03-06 15:55:32.698,0.001242426625870299,6.41049243841141
2025-03-06 15:55:32.706,0.0011669002144214023,5.1508911250296014
2025-03-06 15:55:32.714,0.0010874333876532418,3.7967763239551027
2025-03-06 15:55:32.722,0.0010043215410443392,2.3539038754686623
2025-03-06 15:55:32.730,0.0009178903465991028,0.831979238511284
2025-03-06 15:55:32.737,0.0008284869049112052,-0.7551232538513503
2025-03-06 15:55:32.745,0.0007364708856492807,-2.3893396108228315
2025-03-06 15:55:32.753,0.0006422059642954963,-4.048602427430933
2025-03-06 15:55:32.761,0.0005460517913787644,-5.707233002719345
2025-03-06 15:55:32.769,0.0004483566445168875,-7.3365284594915305
2025-03-06 15:55:32.776,0.0003494508596521581,-8.905523709697553
2025-03-06 15:55:32.784,0.00024964113779890867,-10.381899685843436
2025-03-06 15:55:32.792,0.00014920585446822016,-11.73300207143424
2025-03-06 15:55:32.800,4.8391513360438446e-05,-12.926929132889597
2025-03-06 15:55:32.808,-5.258954364289267e-05,-13.933643434054256
2025-03-06 15:55:32.815,-0.00015356012049626362,-14.72606037947305
2025-03-06 15:55:32.823,-0.00025437786851335793,-15.281066783174321
2025-03-06 15:55:32.831,-0.0003549338038367415,-15.5804250138693
2025-03-06 15:55:32.839,-0.0004551498054110543,-15.611522654187405
2025-03-06 15:55:32.847,-0.0005549752938326145,-15.367933862924797
2025-03-06 15:55:32.855,-0.0006543832865220292,-14.849766481562952
2025-03-06 15:55:32.862,-0.000753365996208381,-14.063778031311097
2025-03-06 15:55:32.870,-0.0008519301156199358,-13.023253689081724
2025-03-06 15:55:32.878,-0.0009500919262481193,-11.747649647379122
2025-03-06 15:55:32.886,-0.0010478723856211997,-10.262015467162366
2025-03-06 15:55:32.894,-0.0011452923791895825,-8.596218637886818
2025-03-06 15:55:32.901,-0.001242368339763249,-6.784003103472935
2025-03-06 15:55:32.909,-0.001339108397039513,-4.861920583604139
2025-03-06 15:55:32.917,-0.0014355091160317207,-2.8681787748979533
2025-03-06 15:55:32.925,-0.0015315527694229041,-0.8414537090063406
2025-03-06 15:55:32.933,-0.0016272050381824857,1.180285458964463
2025-03-06 15:55:32.940,-0.0017224130756269458,3.1608921693812535
2025-03-06 15:55:32.948,-0.0018171039606906466,5.067054935383803
2025-03-06 15:55:32.956,-0.0019111836384208046,6.869168041006421
2025-03-06 15:55:32.964,-0.0020045364680738253,8.542028748619547
2025-03-06 15:55:32.972,-0.0020970254843944644,10.06533740049669
2025-03-06 15:55:32.980,-0.002188493443188937,11.423985777769008
2025-03-06 15:55:32.987,-0.002278764670219769,12.608128526654081
2025-03-06 15:55:32.995,-0.0023676476688472324,13.613041955721052
2025-03-06 15:55:33.003,-0.0024549383863983103,14.438783638547788
2025-03-06 15:55:33.011,-0.002540423998486047,15.089674636527938
2025-03-06 15:55:33.019,-0.0026238870278418236,15.573633436359843
2025-03-06 15:55:33.026,-0.0027051095631662244,15.901396578987821
2025-03-06 15:55:33.034,-0.0027838773042000954,16.08566521580465
2025-03-06 15:55:33.042,-0.002859983150061543,16.140219319622997
2025-03-06 15:55:33.050,-0.002933230062065973,16.079041939145778
2025-03-06 15:55:33.058,-0.0030034329542403472,15.915494725828953
2025-03-06 15:55:33.065,-0.003070419400237258,15.66158305243188
2025-03-06 15:55:33.073,-0.0031340290209611868,15.327344509246595
2025-03-06 15:55:33.081,-0.00319411154850591,14.920388587188071
2025-03-06 15:55:33.089,-0.003250523726805235,14.445608173773136
2025-03-06 15:55:33.097,-0.00330312535512643,13.905075391195485
2025-03-06 15:55:33.105,-0.0033517748635477945,13.29812563281039
2025-03-06 15:55:33.112,-0.0033963248325833326,12.62162477148863
2025-03-06 15:55:33.120,-0.003436617872941649,11.870405800013229
2025-03-06 15:55:33.128,-0.0034724832944792424,11.037853000842185
2025-03-06 15:55:33.136,-0.0035037349998030642,10.11660449917251
2025-03-06 15:55:33.144,-0.0035301710007789202,9.09933806939784
2025-03-06 15:55:33.151,-0.0035515748612505163,7.9796006330916605
2025-03-06 15:55:33.159,-0.0035677192387639414,6.752639235234709
2025-03-06 15:55:33.167,-0.0035783715653726687,5.416190567957097
2025-03-06 15:55:33.175,-0.0035833017850392863,3.9711873955660075
2025-03-06 15:55:33.183,-0.003582291942110989,2.4223434931596075
2025-03-06 15:55:33.190,-0.0035751472814337004,0.7785838128620752
2025-03-06 15:55:33.198,-0.0035617083792370387,-0.946706694848404
2025-03-06 15:55:33.206,-0.0035418636871346956,-2.735634169840297
2025-03-06 15:55:33.214,-0.0035155617535051935,-4.565956484727007
2025-03-06 15:55:33.222,-0.0034828223009794493,-6.4114536648837
2025-03-06 15:55:33.230,-0.003443745298853158,-8.242498820708052
2025-03-06 15:55:33.237,-0.003398517186795517,-10.02681119016478
2025-03-06 15:55:33.245,-0.0033474134913154562,-11.730364502936723
2025-03-06 15:55:33.253,-0.003290797235289705,-13.318416596436164
2025-03-06 15:55:33.261,-0.0032291127689463663,-14.75662034253653
2025-03-06 15:55:33.269,-0.00316287492631447,-16.012171729627365
2025-03-06 15:55:33.276,-0.0030926537025268083,-17.054948574761628
2025-03-06 15:55:33.284,-0.003019054931598386,-17.858592936728698
2025-03-06 15:55:33.292,-0.0029426977177859797,-18.401491911800278
2025-03-06 15:55:33.300,-0.002864189637332643,-18.667615090913422
2025-03-06 15:55:33.308,-0.0027841009557285747,-18.647172429394153
2025-03-06 15:55:33.315,-0.0027029392424011544,-18.337063429094357
2025-03-06 15:55:33.323,-0.002621125765956112,-17.741097066083622
2025-03-06 15:55:33.331,-0.002538974925929091,-16.86997143510563
2025-03-06 15:55:33.339,-0.0024566777747643815,-15.741012178767516
2025-03-06 15:55:33.347,-0.002374290469655286,-14.3776789449464
2025-03-06 15:55:33.355,-0.00229172829329164,-12.808858889376861
2025-03-06 15:55:33.362,-0.002208765660965552,-11.067975157974836
2025-03-06 15:55:33.370,-0.0021250422416740308,-9.191945941318561
2025-03-06 15:55:33.378,-0.002040074976554302,-7.220035755748899
2025-03-06 15:55:33.386,-0.0019532754601014335,-5.192644814610519
2025-03-06 15:55:33.394,-0.0018639719382969474,-3.150084537552049
2025-03-06 15:55:33.401,-0.001771435092604686,-1.1313873235823584
2025-03-06 15:55:33.409,-0.0016749067798437051,0.8268033049109724
2025-03-06 15:55:33.417,-0.001573630921665203,2.691220091031172
2025-03-06 15:55:33.425,-0.0014668857219132267,4.4328006771083235
2025-03-06 15:55:33.433,-0.001354016295836412,6.027328521232715
2025-03-06 15:55:33.440,-0.0012344666401200744,7.455865631789917
2025-03-06 15:55:33.448,-0.001107809738902687,8.704965930162901
2025-03-06 15:55:33.456,-0.0009737745705412444,9.766667681694083
2025-03-06 15:55:33.464,-0.0008322688720286168,10.638272986269087
2025-03-06 15:55:33.472,-0.0006833966959844185,11.321931370585704
2025-03-06 15:55:33.480,-0.0005274700101556573,11.82405268655516
2025-03-06 15:55:33.487,-0.00036501380962379875,12.15458145463246
2025-03-06 15:55:33.495,-0.00019676443030239483,12.326170211990975
2025-03-06 15:55:33.503,-2.3660971700914228e-05,12.353293110917436
2025-03-06 15:55:33.511,0.00015317004809932945,12.251342816497827
2025-03-06 15:55:33.519,0.00033243648070517036,12.035753616768861
2025-03-06 15:55:33.526,0.0005127082622677446,11.721191616061594
2025-03-06 15:55:33.534,0.0006924503411592988,11.320849049680314
2025-03-06 15:55:33.542,0.0008700599024567865,10.845874321516648
2025-03-06 15:55:33.550,0.0010439067968407198,10.304962566613444
2025-03-06 15:55:33.558,0.0012123759675918707,9.704123662828884
2025-03-06 15:55:33.565,0.0013739106182029423,9.046635984029813
2025-03-06 15:55:33.573,0.0015270548404779719,8.333185163868947
2025-03-06 15:55:33.581,0.0016704944070133104,7.5621781172951765
2025-03-06 15:55:33.589,0.0018030944384231967,6.730213955871465
2025-03-06 15:55:33.597,0.001923932711332883,5.832685638920732
2025-03-06 15:55:33.605,0.002032327490171149,4.8644796081683435
2025-03-06 15:55:33.612,0.0021278589475800937,3.820735597092463
2025-03-06 15:55:33.620,0.0022103834775346874,2.6976255589476765
2025-03-06 15:55:33.628,0.0022800404710252406,1.4931094025229503
2025-03-06 15:55:33.636,0.0023372513804623533,0.2076260413838181
2025-03-06 15:55:33.644,0.002382711136878458,-1.1553188812322752
2025-03-06 15:55:33.651,0.0024173722101839224,-2.5887024749186027
2025-03-06 15:55:33.659,0.002442421806297081,-4.081698762174536
2025-03-06 15:55:33.667,0.002459252857277331,-5.61957723556944
2025-03-06 15:55:33.675,0.0024694295865566526,-7.183796821118181
2025-03-06 15:55:33.683,0.0024746485391727033,-8.75229700244578
2025-03-06 15:55:33.690,0.00247669605938981,-10.299978497115257
2025-03-06 15:55:33.698,0.0024774032640107898,-11.799356841536076
2025-03-06 15:55:33.706,0.0024785995837234994,-13.221363950803024
2025-03-06 15:55:33.714,0.0024820659064624137,-14.536265548932413
2025-03-06 15:55:33.722,0.0024894882472447535,-15.714656629202508
2025-03-06 15:55:33.730,0.002502412724134065,-16.728493053232956
2025-03-06 15:55:33.737,0.002522202510892475,-17.552115209130775
2025-03-06 15:55:33.745,0.0025499974084105727,-18.163219424728585
2025-03-06 15:55:33.753,0.002586676712177053,-18.543734592186617
2025-03-06 15:55:33.761,0.002632826107967331,-18.680565143134686
2025-03-06 15:55:33.769,0.002688709380794181,-18.56616697466021
2025-03-06 15:55:33.776,0.0027542457710655597,-18.198929941311167
2025-03-06 15:55:33.784,0.0028289938425780014,-17.583348796880603
2025-03-06 15:55:33.792,0.0029121427136217268,-16.729973622585888
2025-03-06 15:55:33.800,0.003002511441499227,-15.655140388494129
2025-03-06 15:55:33.808,0.0030985572661182655,-14.38049190108536
2025-03-06 15:55:33.815,0.0031983933202535952,-12.93230852515955
2025-03-06 15:55:33.823,0.003299816271421465,-11.34067629217541
2025-03-06 15:55:33.831,0.003400344131390657,-9.638526932145812
2025-03-06 15:55:33.839,0.0034972641527619137,-7.860589677564044
2025-03-06 15:55:33.847,0.0035876903736434965,-6.042298152051695
2025-03-06 15:55:33.855,0.003668630020702979,-4.218697125745339
2025-03-06 15:55:33.862,0.003737057647058259,-2.423393339475214
2025-03-06 15:55:33.870,0.003789995540186521,-0.6875920191229753
2025-03-06 15:55:33.878,0.003824598576656271,0.9607437265619602
2025-03-06 15:55:33.886,0.0038382413552283017,2.497579460996115
2025-03-06 15:55:33.894,0.0038286051491477017,3.9033180773147733
2025-03-06 15:55:33.901,0.003793762002514875,5.163114938374473
2025-03-06 15:55:33.909,0.0037322531560564087,6.266992631635104
2025-03-06 15:55:33.917,0.0036431589250705363,7.209757343819016
2025-03-06 15:55:33.925,0.0035261571793248994,7.9907274614268795
2025-03-06 15:55:33.933,0.0033815677148415764,8.613292968708153
2025-03-06 15:55:33.940,0.0032103800827609245,9.084331218891972
2025-03-06 15:55:33.948,0.0030142628664445587,9.41351041872094
2025-03-06 15:55:33.956,0.002795552977767036,9.612516466204513
2025-03-06 15:55:33.964,0.0025572242424628704,9.694241455461588
2025-03-06 15:55:33.972,0.002302835287184159,9.671973120656489
2025-03-06 15:55:33.980,0.0020364574609337887,9.55862372034963
2025-03-06 15:55:33.987,0.001762584209905369,9.366034425636524
2025-03-06 15:55:33.995,0.0014860240088762989,9.104387296552375
2025-03-06 15:55:34.003,0.0012117796520202545,8.781751590884635
2025-03-06 15:55:34.011,0.0009449173997105922,8.403784672171158
2025-03-06 15:55:34.019,0.0006904301354507744,7.973600432427374
2025-03-06 15:55:34.026,0.0004530992866335694,7.491810215145631
2025-03-06 15:55:34.034,0.00023736073586610456,6.956733035912946
2025-03-06 15:55:34.042,4.718013448368014e-05,6.364763792019453
2025-03-06 15:55:34.050,-0.00011405725193636487,5.710880480063704
2025-03-06 15:55:34.058,-0.00024363782672143713,4.9892645494445995
2025-03-06 15:55:34.065,-0.0003395888735494509,4.194002736639906
2025-03-06 15:55:34.073,-0.00040072371599306786,3.3198343407883044
2025-03-06 15:55:34.081,-0.0004266619357825251,2.3629051541857056
2025-03-06 15:55:34.089,-0.000417824664708468,1.3214883213111477
2025-03-06 15:55:34.097,-0.00037540575566891404,0.1966333468155947
2025-03-06 15:55:34.105,-0.0003013204277282897,-1.0072927179724873
2025-03-06 15:55:34.112,-0.00019813383669767178,-2.282203337873551
2025-03-06 15:55:34.120,-6.897292335864583e-05,-3.616055175328886
2025-03-06 15:55:34.128,8.257428093314499e-05,-4.992793470812209
2025-03-06 15:55:34.136,0.00025256712175240876,-6.392490018603383
2025-03-06 15:55:34.144,0.0004368235845110801,-7.791674924771694
2025-03-06 15:55:34.151,0.0006310296092792375,-9.163854482651367
2025-03-06 15:55:34.159,0.0008308423390145286,-10.480198888690472
2025-03-06 15:55:34.167,0.0010319840658194863,-11.71037551625131
2025-03-06 15:55:34.175,0.001230324644179304,-12.823496414710432
2025-03-06 15:55:34.183,0.0014219511652684784,-13.789142925628807
2025-03-06 15:55:34.190,0.0016032246459268323,-14.578426084701531
2025-03-06 15:55:34.198,0.0017708242971422655,-15.165039026327673
2025-03-06 15:55:34.206,0.001921780552829126,-15.526257069825544
2025-03-06 15:55:34.214,0.0020534984583285665,-15.643842599506161
2025-03-06 15:55:34.222,0.002163773247684113,-15.504815223215612
2025-03-06 15:55:34.230,0.002250799972768376,-15.102052885222339
2025-03-06 15:55:34.237,0.0023131788803522424,-14.434696411084188
2025-03-06 15:55:34.245,0.0023499178917693207,-13.508338082158446
2025-03-06 15:55:34.253,0.002360433089282913,-12.334983911484969
2025-03-06 15:55:34.261,0.002344547637120794,-10.932788902464146
2025-03-06 15:55:34.269,0.002302489135649949,-9.325574264931948
2025-03-06 15:55:34.276,0.00223488506283577,-7.542144877831336
2025-03-06 15:55:34.284,0.0021427557011198593,-5.615433779202101
2025-03-06 15:55:34.292,0.002027503767180423,-3.581507732210998
2025-03-06 15:55:34.300,0.0018908998539332801,-1.478473624481245
2025-03-06 15:55:34.308,0.001735062783763535,0.6546706488145984
2025-03-06 15:55:34.316,0.0015624341046744585,2.779195252212099
2025-03-06 15:55:34.323,0.0013757462724915226,4.85776198503664
2025-03-06 15:55:34.331,0.0011779845441647503,6.855469046112019
2025-03-06 15:55:34.339,0.0009723431713537105,8.740777669828894
2025-03-06 15:55:34.347,0.0007621769565631982,10.486286988572001
2025-03-06 15:55:34.355,0.0005509494421337783,12.069330548731752
2025-03-06 15:55:34.362,0.0003421789006947401,13.472376037314874
2025-03-06 15:55:34.370,0.00013938299799602755,14.683218570490515
2025-03-06 15:55:34.378,-5.3977334393751026e-05,15.694966935115009
2025-03-06 15:55:34.386,-0.0002345545566649297,16.505831040091604
2025-03-06 15:55:34.394,-0.000399171649653904,17.11872712924652
2025-03-06 15:55:34.401,-0.0005448797639177555,17.540724678383732
2025-03-06 15:55:34.409,-0.000669016410567393,17.782365056795474
2025-03-06 15:55:34.417,-0.0007692640125900684,17.85688675896065
2025-03-06 15:55:34.425,-0.0008437082572155471,17.779395153100808
2025-03-06 15:55:34.433,-0.0008908951900531725,17.566016157798874
2025-03-06 15:55:34.441,-0.0009098854557410213,17.233073014076627
2025-03-06 15:55:34.448,-0.0009003035958139691,16.796323398963747
2025-03-06 15:55:34.456,-0.0008623799153585455,16.270290621422518
2025-03-06 15:55:34.464,-0.0007969821594651488,15.66771770480563
2025-03-06 15:55:34.472,-0.0007056341081520562,14.9991669969295
2025-03-06 15:55:34.480,-0.0005905181941031695,14.27278081324876
2025-03-06 15:55:34.487,-0.0004544593801567507,13.494210808198126
2025-03-06 15:55:34.495,-0.00030088784482216904,12.66671561566762
2025-03-06 15:55:34.503,-0.00013377854759854795,11.791418152563566
2025-03-06 15:55:34.511,4.2433518283593606e-05,10.867706197935991
2025-03-06 15:55:34.519,0.00022296263774515313,9.89375280091935
2025-03-06 15:55:34.526,0.000402805349761477,8.867127076383763
2025-03-06 15:55:34.534,0.0005768948076224516,7.785461326589955
2025-03-06 15:55:34.542,0.0007402726408533952,6.647137430883145
2025-03-06 15:55:34.550,0.0008882726583361101,5.451954245141304
2025-03-06 15:55:34.558,0.0010167089285428323,4.201738428698833
2025-03-06 15:55:34.566,0.0011220592145906522,2.9008636519954996
2025-03-06 15:55:34.573,0.0012016337364715534,1.556647417165155
2025-03-06 15:55:34.581,0.0012537189903693428,0.1796005351556171
2025-03-06 15:55:34.589,0.0012776869409037246,-1.216488645439411
2025-03-06 15:55:34.597,0.0012740612700581021,-2.614645223122188
2025-03-06 15:55:34.605,0.0012445343818138087,-3.994975468604118
2025-03-06 15:55:34.612,0.001191931318040348,-5.335104283051027
2025-03-06 15:55:34.620,0.0011201194196272884,-6.610767150426534
2025-03-06 15:55:34.628,0.001033865299470099,-7.796533790097799
2025-03-06 15:55:34.636,0.000938643365566749,-8.866634174683648
2025-03-06 15:55:34.644,0.0008404026354356598,-9.795852337298031
2025-03-06 15:55:34.651,0.0007453007896925443,-10.56044968229655
2025-03-06 15:55:34.659,0.0006594161717510035,-11.139077505930878
2025-03-06 15:55:34.667,0.0005884495963427215,-11.513638236424988
2025-03-06 15:55:34.675,0.0005374282829944549,-11.670056553740553
2025-03-06 15:55:34.683,0.0005104240031347442,-11.598925004351853
2025-03-06 15:55:34.691,0.0005102967601388356,-11.295993857929304
2025-03-06 15:55:34.698,0.000538474209869993,-10.762481547870642
2025-03-06 15:55:34.706,0.0005947757713037027,-10.005189800519403
2025-03-06 15:55:34.714,0.0006772891086486746,-9.036416121626418
2025-03-06 15:55:34.722,0.0007823054260451815,-7.873665256528085
2025-03-06 15:55:34.730,0.0009043187455179864,-6.5391701343809965
2025-03-06 15:55:34.737,0.001036092921410015,-5.059241213235425
2025-03-06 15:55:34.745,0.0011687984579654197,-3.463470655593608
2025-03-06 15:55:34.753,0.0012922191731227239,-1.7838240252239022
2025-03-06 15:55:34.761,0.0013950264180090713,-0.05365691571804931
2025-03-06 15:55:34.769,0.0014651160303229725,1.6933031053245424
2025-03-06 15:55:34.776,0.0014900006028718863,3.4239677380556346
2025-03-06 15:55:34.784,0.00145724707677561,5.106851644803932
2025-03-06 15:55:34.792,0.0013549471883478605,6.712950442823178
2025-03-06 15:55:34.800,0.0011722060136777892,8.21649908724346
2025-03-06 15:55:34.808,0.0008996319135547659,9.595582431032923
2025-03-06 15:55:34.816,0.0005298097205253813,10.832576614199555
2025-03-06 15:55:34.823,5.773812283089459e-05,11.914407647572936
2025-03-06 15:55:34.831,-0.0005187880526876058,12.832621764258409
2025-03-06 15:55:34.839,-0.0011988695225867501,13.58327044499175
2025-03-06 15:55:34.847,-0.001978285865463399,14.166621113654918
2025-03-06 15:55:34.855,-0.0028493861053108115,14.586711998110818
2025-03-06 15:55:34.862,-0.0038010992210397963,14.85077624791011
2025-03-06 15:55:34.870,-0.004819073345481336,14.968565827537475
2025-03-06 15:55:34.878,-0.005885947623880913,14.95160974234395
2025-03-06 15:55:34.886,-0.0069817550545077725,14.812443636022376
2025-03-06 15:55:34.894,-0.008084448198685618,14.563848612290297
2025-03-06 15:55:34.901,-0.009170532629505772,14.21813623113857
2025-03-06 15:55:34.909,-0.010215785878004938,13.786514032693695
2025-03-06 15:55:34.917,-0.01119603324190915,13.278561745922923
2025-03-06 15:55:34.925,-0.01208794707944524,12.701842717911743
2025-03-06 15:55:34.933,-0.0128698338323882,12.061668294303159
2025-03-06 15:55:34.941,-0.013522373249442955,11.36102519218829
2025-03-06 15:55:34.948,-0.014029276886764717,10.600667678550144
2025-03-06 15:55:34.956,-0.014377837435086343,9.779367980539377
2025-03-06 15:55:34.964,-0.01455934617317113,8.8943102115121
2025-03-06 15:55:34.972,-0.01456936237996766,7.9416056088100415
2025-03-06 15:55:34.980,-0.014407825537287465,6.916900440505473
2025-03-06 15:55:34.987,-0.014079008419173828,5.81604290161923
2025-03-06 15:55:34.995,-0.013591316456207644,4.6357719704131455
2025-03-06 15:55:35.003,-0.012956945727357104,3.374389729492711
2025-03-06 15:55:35.011,-0.012191418110840114,2.0323791723291147
2025-03-06 15:55:35.019,-0.011313017045656668,0.6129320038307192
2025-03-06 15:55:35.026,-0.01034215067999168,-0.8776447166680212
2025-03-06 15:55:35.034,-0.00930067082548535,-2.429668277073038
2025-03-06 15:55:35.042,-0.008211176220234059,-4.029984275569814
2025-03-06 15:55:35.050,-0.007096327342931973,-5.6620445744870675
2025-03-06 15:55:35.058,-0.00597819767598796,-7.3061603032453055
2025-03-06 15:55:35.066,-0.004877683184871529,-8.93992226490525
2025-03-06 15:55:35.073,-0.003813988143685349,-10.538772809460974
2025-03-06 15:55:35.081,-0.0028042014807801493,-12.076705773331225
2025-03-06 15:55:35.089,-0.00186297361977461,-13.527064814280571
2025-03-06 15:55:35.097,-0.0010022993733134623,-14.863405693298567
2025-03-06 15:55:35.105,-0.00023140788340804817,-16.060384986314098
2025-03-06 15:55:35.112,0.0004432439261680931,-17.094636471536305
2025-03-06 15:55:35.120,0.0010178821725669114,-17.945597057985406
2025-03-06 15:55:35.128,0.0014912426365635012,-18.596246530074435
2025-03-06 15:55:35.136,0.0018643277232012817,-19.033729430527575
2025-03-06 15:55:35.144,0.002140110445352306,-19.249832864325512
2025-03-06 15:55:35.151,0.00232320334813355,-19.241300593199448
2025-03-06 15:55:35.159,0.0024195106139932856,-19.00997116983231
2025-03-06 15:55:35.167,0.0024358810128907397,-18.56273566845159
2025-03-06 15:55:35.175,0.0023797779392514245,-17.911318426005547
2025-03-06 15:55:35.183,0.0022589806259639793,-17.07189174669627
2025-03-06 15:55:35.191,0.002081327910105614,-16.064542404557066
2025-03-06 15:55:35.198,0.0018545128088989049,-14.912613713261248
2025-03-06 15:55:35.206,0.0015859328030651922,-13.64195168316152
2025-03-06 15:55:35.214,0.0012825972933878794,-12.28008717448657
2025-03-06 15:55:35.222,0.0009510903894858801,-10.85538786762779
2025-03-06 15:55:35.230,0.0005975841751470519,-9.396214260903132
2025-03-06 15:55:35.237,0.0002278949805678115,-7.930112798477125
2025-03-06 15:55:35.245,-0.0001524269468398871,-6.483076716877049
2025-03-06 15:55:35.253,-0.0005379855644362276,-5.078901424561313
2025-03-06 15:55:35.261,-0.000923417088382086,-3.7386563895444467
2025-03-06 15:55:35.269,-0.001303270390840479,-2.480289837915289
2025-03-06 15:55:35.276,-0.001671901762270659,-1.318376322155813
2025-03-06 15:55:35.284,-0.0020233950704660096,-0.2640106810814952
2025-03-06 15:55:35.292,-0.0023515168385172805,0.6751546310567725
2025-03-06 15:55:35.300,-0.002649713805371668,1.4947381374527007
2025-03-06 15:55:35.308,-0.002911158167169689,2.1933388691997697
2025-03-06 15:55:35.316,-0.003128842969603075,2.7721467857224282
2025-03-06 15:55:35.323,-0.003295727118622741,3.234477978998793
2025-03-06 15:55:35.331,-0.003404926324451427,3.585261338299078
2025-03-06 15:55:35.339,-0.0034499431281387184,3.8305048657797487
2025-03-06 15:55:35.347,-0.0034249261370815874,3.9767700254804033
2025-03-06 15:55:35.355,-0.0033249459204991363,4.030681388114054
2025-03-06 15:55:35.362,-0.0031462729160538195,3.998496468163929
2025-03-06 15:55:35.370,-0.00288664135538508,3.885757155066133
2025-03-06 15:55:35.378,-0.0025454827282734064,3.697039676955796
2025-03-06 15:55:35.386,-0.0021241127248087183,3.435814801780605
2025-03-06 15:55:35.394,-0.0016258569641155285,3.104424204711581
2025-03-06 15:55:35.401,-0.0010561031422813923,2.7041728588970138
2025-03-06 15:55:35.409,-0.00042227044026481113,2.235531191603893
2025-03-06 15:55:35.417,0.0002663089884393095,1.6984348436876564
2025-03-06 15:55:35.425,0.0009985969670033312,1.092664431523426
2025-03-06 15:55:35.433,0.001762139934242886,0.41828299079624265
2025-03-06 15:55:35.441,0.002543432884374111,-0.3238949718220263
2025-03-06 15:55:35.448,0.00332834068874358,-1.1318314517061285
2025-03-06 15:55:35.456,0.004102556206691104,-2.0018197487034866
2025-03-06 15:55:35.464,0.004852071557767447,-2.9280955540489044
2025-03-06 15:55:35.472,0.005563638040787823,-3.9025318461939364
2025-03-06 15:55:35.480,0.006225191486312964,-4.914441638266675
2025-03-06 15:55:35.487,0.006826222939405555,-5.950507711501756
2025-03-06 15:55:35.495,0.007358078896161246,-6.994852348400039
2025-03-06 15:55:35.503,0.007814180247326642,-8.029253039978075
2025-03-06 15:55:35.511,0.008190154104967493,-9.033502539426033
2025-03-06 15:55:35.519,0.008483877451411258,-9.985903868795013
2025-03-06 15:55:35.526,0.008695435839694536,-10.86388337514004
2025-03-06 15:55:35.534,0.008827004056552594,-11.644698094057949
2025-03-06 15:55:35.542,0.008882658638525349,-12.306207904163811
2025-03-06 15:55:35.550,0.008868134345739862,-12.827678594894525
2025-03-06 15:55:35.558,0.008790538116025377,-13.190579304290658
2025-03-06 15:55:35.566,0.008658034659608552,-13.379336999235665
2025-03-06 15:55:35.573,0.008479517773042202,-13.382011835035314
2025-03-06 15:55:35.581,0.008264280737031225,-13.190860287638289
2025-03-06 15:55:35.589,0.008021697924132704,-12.802757733594724
2025-03-06 15:55:35.597,0.00776092811738921,-12.219458403544268
2025-03-06 15:55:35.605,0.007490648182241332,-11.447678026972326
2025-03-06 15:55:35.612,0.0072188237748537065,-10.498992636471453
2025-03-06 15:55:35.620,0.006952521813615045,-9.389555488055754
2025-03-06 15:55:35.628,0.006697767567349464,-8.13964244389282
2025-03-06 15:55:35.636,0.006459447479313231,-6.773044030675139
2025-03-06 15:55:35.644,0.006241257270953218,-5.316329343630559
2025-03-06 15:55:35.651,0.006045693448321937,-3.7980126814050545
2025-03-06 15:55:35.659,0.005874085071791351,-2.247658006894482
2025-03-06 15:55:35.667,0.005726661579075143,-0.6949588459021
2025-03-06 15:55:35.675,0.005602651604465812,0.8311680460568153
2025-03-06 15:55:35.683,0.005500407114091034,2.3034380181739613
2025-03-06 15:55:35.691,0.005417546753237643,3.6969684807965217
2025-03-06 15:55:35.698,0.005351112057486963,4.989933556116143
2025-03-06 15:55:35.706,0.005297730132171726,6.164079313260215
2025-03-06 15:55:35.714,0.005253776604920019,7.20508235809219
2025-03-06 15:55:35.722,0.005215533120616526,8.102742133575417
2025-03-06 15:55:35.730,0.0051793343160201925,8.85100518956111
2025-03-06 15:55:35.737,0.0051416999983113195,9.44782750248511
2025-03-06 15:55:35.745,0.005099449120367603,9.894888276675644
2025-03-06 15:55:35.753,0.005049793084552527,10.197175182168607
2025-03-06 15:55:35.761,0.00499040686994582,10.362466371706677
2025-03-06 15:55:35.769,0.004919477388115905,10.400738628983227
2025-03-06 15:55:35.776,0.004835729284173863,10.323533463806516
2025-03-06 15:55:35.784,0.004738429117847714,10.14331380456019
2025-03-06 15:55:35.792,0.0046273694940868575,9.872843148608538
2025-03-06 15:55:35.800,0.004502835252929239,9.52461670485615
2025-03-06 15:55:35.808,0.004365554260135949,9.110370359768103
2025-03-06 15:55:35.816,0.00421663566461614,8.640688438780186
2025-03-06 15:55:35.823,0.004057498716622497,8.124725485548927
2025-03-06 15:55:35.831,0.003889795376635881,7.570050939700917
2025-03-06 15:55:35.839,0.003715329973489085,6.982618972984248
2025-03-06 15:55:35.847,0.0035359790648347715,6.366859157939551
2025-03-06 15:55:35.855,0.003353614411849493,5.72587739435254
2025-03-06 15:55:35.862,0.0031700316475323353,5.0617508884957445
2025-03-06 15:55:35.870,0.00298688685203925,4.375896224891468
2025-03-06 15:55:35.878,0.002805642871289392,3.6694859128471427
2025-03-06 15:55:35.886,0.0026275268105451152,2.943886404638414
2025-03-06 15:55:35.894,0.002453499688547462,2.201089580700289
2025-03-06 15:55:35.901,0.0022842387580387672,1.4441101241090226
2025-03-06 15:55:35.909,0.002120132500758636,0.6773230415910706
2025-03-06 15:55:35.917,0.001961287805916392,-0.09328125235595565
2025-03-06 15:55:35.925,0.001807548367988939,-0.8599425337811675
2025-03-06 15:55:35.933,0.0016585229297705957,-1.6130899830227365
2025-03-06 15:55:35.941,0.0015136216832604516,-2.341421913375854
2025-03-06 15:55:35.948,0.0013720989332365653,-3.032106454208432
2025-03-06 15:55:35.956,0.0012331000012176941,-3.671097065670736
2025-03-06 15:55:35.964,0.0010957102692170984,-4.243550436152082
2025-03-06 15:55:35.972,0.0009590042369370668,-4.734328558196754
2025-03-06 15:55:35.980,0.000822092530346104,-5.128561903438041
2025-03-06 15:55:35.987,0.0006841649767179391,-5.412246891475015
2025-03-06 15:55:35.995,0.0005445281274877013,-5.572848486917979
2025-03-06 15:55:36.003,0.00040263591909868977,-5.599877909648212
2025-03-06 15:55:36.011,0.00025811248782303534,-5.485416167684545
2025-03-06 15:55:36.019,0.00011076650661709644,-5.224556388760525
2025-03-06 15:55:36.026,-3.9403190523113936e-05,-4.815741614865833
2025-03-06 15:55:36.034,-0.0001922104932712697,-4.260979634684375
2025-03-06 15:55:36.042,-0.00034729276529679525,-3.565922299524633
2025-03-06 15:55:36.050,-0.0005041284344774822,-2.739803287729926
2025-03-06 15:55:36.058,-0.0006620601306303453,-1.7952351071125134
2025-03-06 15:55:36.066,-0.0008203219506264553,-0.7478728982458152
2025-03-06 15:55:36.073,-0.000978069413524286,0.384041023531812
2025-03-06 15:55:36.081,-0.0011344107091057817,1.580232288944458
2025-03-06 15:55:36.089,-0.001288437909648276,2.8190249835330463
2025-03-06 15:55:36.097,-0.0014392569092671426,4.078019792877097
2025-03-06 15:55:36.105,-0.0015860149918830386,5.334789914802923
2025-03-06 15:55:36.112,-0.001727925108811603,6.567564207093849
2025-03-06 15:55:36.120,-0.0018642861611314998,7.7558678632508995
2025-03-06 15:55:36.128,-0.0019944988213211,8.881093176036615
2025-03-06 15:55:36.136,-0.002118076674550778,9.926976541511605
2025-03-06 15:55:36.144,-0.0022346526815882747,10.879962586952443
2025-03-06 15:55:36.151,-0.002343981143132536,11.72944192556766
2025-03-06 15:55:36.159,-0.002445935488467705,12.467855256469177
2025-03-06 15:55:36.167,-0.0025405023384369664,13.090663024425142
2025-03-06 15:55:36.175,-0.002627772402379865,13.59618631236013
2025-03-06 15:55:36.183,-0.0027079288373123497,13.985330754325634
2025-03-06 15:55:36.191,-0.0027812337048271165,14.261210745296507
2025-03-06 15:55:36.198,-0.0028480131114571477,14.428695838533578
2025-03-06 15:55:36.206,-0.0029086415472471656,14.493904756414329
2025-03-06 15:55:36.214,-0.0029635258957436154,14.463674740443341
2025-03-06 15:55:36.222,-0.003013089602887432,14.345034927610191
2025-03-06 15:55:36.230,-0.0030577575404939247,14.144712018642544
2025-03-06 15:55:36.237,-0.0030979421356055054,13.868694717825445
2025-03-06 15:55:36.245,-0.0031340313264024565,13.521880357775727
2025-03-06 15:55:36.253,-0.0031663788373125267,13.107822918558291
2025-03-06 15:55:36.261,-0.0031952971422938912,12.628596497161668
2025-03-06 15:55:36.269,-0.00322105331921236,12.084782401479833
2025-03-06 15:55:36.276,-0.003243867817247477,11.47558167942753
2025-03-06 15:55:36.284,-0.0032639159926635564,10.799048320755933
2025-03-06 15:55:36.292,-0.0032813321299670303,10.052431881915513
2025-03-06 15:55:36.300,-0.003296215558365491,9.232612192345663
2025-03-06 15:55:36.308,-0.0033086384008784372,8.336603411781947
2025-03-06 15:55:36.316,-0.0033186544558804734,7.362100312908119
2025-03-06 15:55:36.323,-0.0033263087059207078,6.308036520502744
2025-03-06 15:55:36.331,-0.003331646974567806,5.1751227587365625
2025-03-06 15:55:36.339,-0.0033347252962829927,3.966333088916576
2025-03-06 15:55:36.347,-0.0033356186009722765,2.687308724558207
2025-03-06 15:55:36.355,-0.0033344283299086013,1.3466522598998494
2025-03-06 15:55:36.362,-0.003331288614375111,-0.043910081476456427
2025-03-06 15:55:36.370,-0.003326370703630125,-1.4695144904811863
2025-03-06 15:55:36.378,-0.0033198854349108606,-2.9123031179322907
2025-03-06 15:55:36.386,-0.003312083646671526,-4.351726552608109
2025-03-06 15:55:36.394,-0.003303254485547288,-5.764998600835389
2025-03-06 15:55:36.401,-0.003293721545329315,-7.127688806646953
2025-03-06 15:55:36.409,-0.0032838367594697727,-8.414430778363846
2025-03-06 15:55:36.417,-0.0032739719929475624,-9.599717978800422
2025-03-06 15:55:36.425,-0.003264508341445526,-10.658753554180699
2025-03-06 15:55:36.433,-0.003255823231010655,-11.568317311319396
2025-03-06 15:55:36.441,-0.003248275528211314,-12.307611304074443
2025-03-06 15:55:36.448,-0.003242189024612267,-12.859045760095203
2025-03-06 15:55:36.456,-0.003237834819534154,-13.20892926659207
2025-03-06 15:55:36.464,-0.003235413248853919,-13.34803113720533
2025-03-06 15:55:36.472,-0.0032350360874142167,-13.271989504782525
2025-03-06 15:55:36.480,-0.0032367098161557354,-12.981545646637617
2025-03-06 15:55:36.487,-0.0032403208071675577,-12.482592996240635
2025-03-06 15:55:36.495,-0.0032456233125287724,-11.786037817017329
2025-03-06 15:55:36.503,-0.003252231105825024,-10.907477165024462
2025-03-06 15:55:36.511,-0.003259613514791638,-9.866708099312483
2025-03-06 15:55:36.519,-0.0032670964310241393,-8.687089688956943
2025-03-06 15:55:36.526,-0.003273868703145246,-7.394785839706569
2025-03-06 15:55:36.534,-0.003278994092039608,-6.017922012201035
2025-03-06 15:55:36.542,-0.003281428691313851,-4.585692297064344
2025-03-06 15:55:36.550,-0.0032800434577797363,-3.1274549067557804
2025-03-06 15:55:36.558,-0.0032736513187733222,-1.6718538920402517
2025-03-06 15:55:36.566,-0.0032610382070093202,-0.24600284387257432
2025-03-06 15:55:36.573,-0.003240997252577535,1.1252373543792806
2025-03-06 15:55:36.581,-0.0032123652093783667,2.41985977834942
2025-03-06 15:55:36.589,-0.0031740600399368015,3.6191710282332883
2025-03-06 15:55:36.597,-0.0031251184583497,4.70809548614518
2025-03-06 15:55:36.605,-0.0030647321343680416,5.675318168076616
2025-03-06 15:55:36.612,-0.002992281189571501,6.513267694084276
2025-03-06 15:55:36.620,-0.002907363591652338,7.217948260511744
2025-03-06 15:55:36.628,-0.0028098190890435263,7.788636262592012
2025-03-06 15:55:36.636,-0.0026997464012874115,8.227463085334248
2025-03-06 15:55:36.644,-0.0025775124760877392,8.538910302109294
2025-03-06 15:55:36.651,-0.002443752797508365,8.72924689424067
2025-03-06 15:55:36.659,-0.0022993620687623588,8.805939992809169
2025-03-06 15:55:36.667,-0.002145475118757934,8.777070977775965
2025-03-06 15:55:36.675,-0.001983438518568751,8.650787557574214
2025-03-06 15:55:36.683,-0.0018147740229327958,8.434819777194509
2025-03-06 15:55:36.691,-0.001641135472234183,8.136083913468475
2025-03-06 15:55:36.698,-0.0014642611564444164,7.760393116569159
2025-03-06 15:55:36.706,-0.0012859238596971416,7.312287693979097
2025-03-06 15:55:36.714,-0.001107880884815346,6.794991388645929
2025-03-06 15:55:36.722,-0.0009318262902495928,6.210493184500008
2025-03-06 15:55:36.730,-0.0007593473512875811,5.559747404839145
2025-03-06 15:55:36.737,-0.0005918869159357397,4.842978478726798
2025-03-06 15:55:36.745,-0.0004307129197375706,4.060071044466944
2025-03-06 15:55:36.753,-0.0002768958963470816,3.211021306831914
2025-03-06 15:55:36.761,-0.0001312948929318811,2.2964219901814658
2025-03-06 15:55:36.769,5.448218988897443e-06,1.317951011743764
2025-03-06 15:55:36.777,0.0001329064479577584,0.27883326860841073
2025-03-06 15:55:36.784,0.00025085818257752126,-0.815754240981951
2025-03-06 15:55:36.792,0.00035927157807254766,-1.9583613598269585
2025-03-06 15:55:36.800,0.00045828413896066263,-3.1390513236932445
2025-03-06 15:55:36.808,0.0005481789139560462,-4.3453133135079725
2025-03-06 15:55:36.816,0.0006293587205071831,-5.562113178231137
2025-03-06 15:55:36.823,0.0007023197452250288,-6.772087515262508
2025-03-06 15:55:36.831,0.0007676257641580924,-7.9558788944738446
2025-03-06 15:55:36.839,0.0008258841088901177,-9.09260256872231
2025-03-06 15:55:36.847,0.000877724337011174,-10.1604279136923
2025-03-06 15:55:36.855,0.0009237802962604977,-11.13725145952774
2025-03-06 15:55:36.862,0.000964675903212071,-12.00143306059686
2025-03-06 15:55:36.870,0.0010010145751068117,-12.732562789102776
2025-03-06 15:55:36.878,0.0010333719571098364,-13.312223754015138
2025-03-06 15:55:36.886,0.0010622914109445225,-13.724715379345524
2025-03-06 15:55:36.894,0.0010882816497983848,-13.957702779672298
2025-03-06 15:55:36.902,0.0011118158930890432,-14.00276071161376
2025-03-06 15:55:36.909,0.001133331964157261,-13.855785033025052
2025-03-06 15:55:36.917,0.0011532328510722174,-13.517250454399111
2025-03-06 15:55:36.925,0.0011718873705597226,-12.992300326992277
2025-03-06 15:55:36.933,0.0011896306915964799,-12.290661924639796
2025-03-06 15:55:36.941,0.0012067645737573165,-11.426388747894661
2025-03-06 15:55:36.948,0.0012235572531130632,-10.41743940467413
2025-03-06 15:55:36.956,0.0012402429646915685,-9.285110204782569
2025-03-06 15:55:36.964,0.0012570211316336672,-8.05334537512312
2025-03-06 15:55:36.972,0.0012740552985247811,-6.747954427231615
2025-03-06 15:55:36.980,0.0012914719509805014,-5.395770415763175
2025-03-06 15:55:36.987,0.0013093594196824747,-4.023785414508006
2025-03-06 15:55:36.995,0.0013277670776291367,-2.6583003846899307
2025-03-06 15:55:37.003,0.0013467050029677486,-1.324125682934681
2025-03-06 15:55:37.011,0.0013661442307327598,-0.043865804353592705
2025-03-06 15:55:37.019,0.0013860176783674206,1.1626822842822429
2025-03-06 15:55:37.027,0.0014062217905814638,2.2789934806576113
2025-03-06 15:55:37.034,0.0014266188957465233,3.2921245187598744
2025-03-06 15:55:37.042,0.0014470402120373435,4.192860011723663
2025-03-06 15:55:37.050,0.0014672894003408545,4.975692869002286
2025-03-06 15:55:37.058,0.0014871465196184656,5.63864528125369
2025-03-06 15:55:37.066,0.0015063721877589238,6.182944002246376
2025-03-06 15:55:37.073,0.00152471171226824,6.612570479181709
2025-03-06 15:55:37.081,0.0015418989748962806,6.933712162800792
2025-03-06 15:55:37.089,0.0015576599522022065,7.154145785260329
2025-03-06 15:55:37.097,0.0015717159031209873,7.282586309671452
2025-03-06 15:55:37.105,0.001583786393536275,7.328036491947529
2025-03-06 15:55:37.112,0.0015935923960220912,7.299171502356209
2025-03-06 15:55:37.120,0.0016008596750906544,7.203790867775426
2025-03-06 15:55:37.128,0.001605322567105094,7.048366233153542
2025-03-06 15:55:37.136,0.0016067281395441444,6.837708288006349
2025-03-06 15:55:37.144,0.0016048406063271193,6.574769905530427
2025-03-06 15:55:37.152,0.0015994458010290848,6.2605953932224665
2025-03-06 15:55:37.159,0.001590355481985125,5.89441809065266
2025-03-06 15:55:37.167,0.001577411278134768,5.473900734431031
2025-03-06 15:55:37.175,0.0015604881726896727,4.995505414548708
2025-03-06 15:55:37.183,0.0015394975245354018,4.454972937239286
2025-03-06 15:55:37.191,0.0015143897104204819,3.8478853342310435
2025-03-06 15:55:37.198,0.0014851565222045522,3.170280426480577
2025-03-06 15:55:37.206,0.0014518334618207694,2.4192840184547024
2025-03-06 15:55:37.214,0.0014145020215708735,1.5937236573961484
2025-03-06 15:55:37.222,0.0013732919121970737,0.6946880561931045
2025-03-06 15:55:37.230,0.001328383037659626,-0.27400172145312196
2025-03-06 15:55:37.237,0.001280006877888237,-1.305439443125674
2025-03-06 15:55:37.245,0.0012284468921638758,-2.3894240022554856
2025-03-06 15:55:37.253,0.0011740376217907016,-3.512410816065014
2025-03-06 15:55:37.261,0.0011171623187288331,-4.657634504983285
2025-03-06 15:55:37.269,0.0010582490770799358,-5.805404530046629
2025-03-06 15:55:37.277,0.0009977655232190949,-6.933566692937668
2025-03-06 15:55:37.284,0.0009362121171411546,-8.018114809636492
2025-03-06 15:55:37.292,0.000874114079625194,-9.033928903672681
2025-03-06 15:55:37.300,0.0008120119452533491,-9.955609353363139
2025-03-06 15:55:37.308,0.0007504507939314803,-10.75837094715083
2025-03-06 15:55:37.316,0.0006899683544930986,-11.418957066313837
2025-03-06 15:55:37.323,0.000631082378075213,-11.916532456055824
2025-03-06 15:55:37.331,0.0005742778692071099,-12.23351339249848
2025-03-06 15:55:37.339,0.0005199948617692967,-12.356296513600084
2025-03-06 15:55:37.347,0.00046861741770055443,-12.27585203893444
2025-03-06 15:55:37.355,0.00042046444172636887,-11.98815331601451
2025-03-06 15:55:37.362,0.0003757827759456858,-11.4944222537929
2025-03-06 15:55:37.370,0.0003347428758978597,-10.801178815743391
2025-03-06 15:55:37.378,0.000297437189118149,-9.920091881744845
2025-03-06 15:55:37.386,0.0002638811825894781,-8.867637973647168
2025-03-06 15:55:37.394,0.00023401682079359878,-7.664583109010801
2025-03-06 15:55:37.402,0.0002077181924475301,-6.335310967644
2025-03-06 15:55:37.409,0.00018479891968582732,-4.907027245559687
2025-03-06 15:55:37.417,0.0001650209552104194,-3.4088752252602763
2025-03-06 15:55:37.425,0.00014810437801728938,-1.8710009951937332
2025-03-06 15:55:37.433,0.00013373782971745572,-0.32360828435509037
2025-03-06 15:55:37.441,0.00012158928352503634,1.2039574915255806
2025-03-06 15:55:37.448,0.0001113168921773961,2.684058596220035
2025-03-06 15:55:37.456,0.00010257969049766524,4.091514312245609
2025-03-06 15:55:37.464,9.504791528344333e-05,5.404222249739059
2025-03-06 15:55:37.472,8.841267148108824e-05,6.603630267227833
2025-03-06 15:55:37.480,8.239466171927971e-05,7.67504515592691
2025-03-06 15:55:37.487,7.675172720895065e-05,8.607772231275206
2025-03-06 15:55:37.495,7.128500734716398e-05,9.395088053172453
2025-03-06 15:55:37.503,6.584358656340707e-05,10.034056263171644
2025-03-06 15:55:37.511,6.032754677297633e-05,10.525203604628595
2025-03-06 15:55:37.519,5.46893795079547e-05,10.872079242878224
2025-03-06 15:55:37.527,4.893373143165138e-05,11.080725251979173
2025-03-06 15:55:37.534,4.3115469121646196e-05,11.159089386465528
2025-03-06 15:55:37.542,3.733607575885117e-05,11.116412900007015
2025-03-06 15:55:37.550,3.1738445441798105e-05,10.962626178861989
2025-03-06 15:55:37.558,2.6500204959012504e-05,10.707783371557259
2025-03-06 15:55:37.566,2.1825744065945703e-05,10.36156412936282
2025-03-06 15:55:37.573,1.7937171199472318e-05,9.932866197487392
2025-03-06 15:55:37.581,1.506445123333845e-05,9.429507140706791
2025-03-06 15:55:37.589,1.343503590959052e-05,8.85804722099708
2025-03-06 15:55:37.597,1.3263351294531559e-05,8.223738674026547
2025-03-06 15:55:37.605,1.4740543360647593e-05,7.530599678071358
2025-03-06 15:55:37.612,1.802491061297444e-05,6.781604495337358
2025-03-06 15:55:37.620,2.323348115514662e-05,5.978974906117003
2025-03-06 15:55:37.628,3.043519412271748e-05,5.124552453666505
2025-03-06 15:55:37.636,3.9646083018240536e-05,4.220226454050734
2025-03-06 15:55:37.644,5.082673015302434e-05,3.268389442374936
2025-03-06 15:55:37.652,6.388209608186288e-05,2.272389908237752
2025-03-06 15:55:37.659,7.86636477177271e-05,1.2369519330857082
2025-03-06 15:55:37.667,9.497353638318823e-05,0.1685327190994719
2025-03-06 15:55:37.675,0.0001125704527058418,-0.9244080491808979
2025-03-06 15:55:37.683,0.00013117673462291187,-2.0312486685952087
2025-03-06 15:55:37.691,0.00015048631185562083,-3.139171717838765
2025-03-06 15:55:37.698,0.0001701731090709824,-4.233265584254925
2025-03-06 15:55:37.706,0.00018989958841357,-5.296763339195767
2025-03-06 15:55:37.714,0.00020932517444996376,-6.311413547733449
2025-03-06 15:55:37.722,0.00022811435217121728,-7.2579701974031785
2025-03-06 15:55:37.730,0.00024594425855386197,-8.11678207317616
2025-03-06 15:55:37.737,0.0002625116033102553,-8.868455979197025
2025-03-06 15:55:37.745,0.0002775387507621396,-9.494563554869803
2025-03-06 15:55:37.753,0.00029077878392279967,-9.978358330323063
2025-03-06 15:55:37.761,0.00030201939872343203,-10.305468305220183
2025-03-06 15:55:37.769,0.000311085574824363,-10.464529805740215
2025-03-06 15:55:37.777,0.0003178411043906547,-10.447730658506408
2025-03-06 15:55:37.784,0.00032218914802083904,-10.25123469075043
2025-03-06 15:55:37.792,0.00032407198192491876,-9.875465002369141
2025-03-06 15:55:37.800,0.0003234700384841556,-9.325230063866577
2025-03-06 15:55:37.808,0.0003204002943412034,-8.60968412800086
2025-03-06 15:55:37.816,0.0003149140607323564,-7.742121320051233
2025-03-06 15:55:37.823,0.0003070942605210925,-6.739610690111209
2025-03-06 15:55:37.831,0.0002970522936553481,-5.622487067252629
2025-03-06 15:55:37.839,0.00028492457583459126,-4.413719363943946
2025-03-06 15:55:37.847,0.00027086880748559874,-3.1381836919092376
2025-03-06 15:55:37.855,0.00025506003823215045,-1.8218729796545687
2025-03-06 15:55:37.862,0.00023768664836701237,-0.491077517489832
2025-03-06 15:55:37.870,0.000218946428515655,0.8284281223440157
2025-03-06 15:55:37.878,0.0001990429435047261,2.1121570619457755
2025-03-06 15:55:37.886,0.0001781823056579175,3.3376086578784907
2025-03-06 15:55:37.894,0.00015657039345855477,4.484865198791014
2025-03-06 15:55:37.902,0.00013441046202247248,5.537063593114011
2025-03-06 15:55:37.909,0.00011190100259205373,6.480725154316592
2025-03-06 15:55:37.917,8.923363424934219e-05,7.305933579967388
2025-03-06 15:55:37.925,6.659079251996893e-05,8.00635857405565
2025-03-06 15:55:37.933,4.414303825296389e-05,8.579129921225782
2025-03-06 15:55:37.941,2.2045930615179972e-05,9.02457383436025
2025-03-06 15:55:37.948,4.3656244942806184e-07,9.345829731549456
2025-03-06 15:55:37.956,-2.0569983030278953e-05,9.548370959918564
2025-03-06 15:55:37.964,-4.088386929667465e-05,9.639457128802407
2025-03-06 15:55:37.972,-6.044301100666061e-05,9.627548462133424
2025-03-06 15:55:37.980,-7.92144785737081e-05,9.521713815862732
2025-03-06 15:55:37.987,-9.719455002255283e-05,9.331063687183535
2025-03-06 15:55:37.995,-0.00011440726624403988,9.064237694908677
2025-03-06 15:55:38.003,-0.00013090143693352514,8.728972728081018
2025-03-06 15:55:38.011,-0.00014674615055253423,8.331773398558175
2025-03-06 15:55:38.019,-0.00016202498005576685,7.877700807576556
2025-03-06 15:55:38.027,-0.0001768292207281654,7.370289214494425
2025-03-06 15:55:38.034,-0.00019125060122910916,6.811593287529298
2025-03-06 15:55:38.042,-0.00020537394863781377,6.2023615531325325
2025-03-06 15:55:38.050,-0.00021927028226449182,5.542324778942596
2025-03-06 15:55:38.058,-0.0002329907962854555,4.830581653298796
2025-03-06 15:55:38.066,-0.00024656216915471766,4.066058572956723
2025-03-06 15:55:38.073,-0.0002599835737075174,3.248015903245756
2025-03-06 15:55:38.081,-0.0002732256373534009,2.376569975237627
2025-03-06 15:55:38.089,-0.0002862314344968854,1.4531985241717695
2025-03-06 15:55:38.097,-0.00029891941073200226,0.4811973801620762
2025-03-06 15:55:38.105,-0.00031118795866072376,-0.533941949966737
2025-03-06 15:55:38.112,-0.00032292120820830617,-1.5842606510451884
2025-03-06 15:55:38.120,-0.0003339954970573443,-2.6591886691673845
2025-03-06 15:55:38.128,-0.00034428598748604964,-3.7455437939692797
2025-03-06 15:55:38.136,-0.00035367298525769734,-4.827681594867735
2025-03-06 15:55:38.144,-0.0003620476250260452,-5.887795951677083
2025-03-06 15:55:38.152,-0.00036931665347370317,-6.90636164030475
2025-03-06 15:55:38.159,-0.00037540607644794384,-7.8627024476815
2025-03-06 15:55:38.167,-0.00038026348735532167,-8.73566105962316
2025-03-06 15:55:38.175,-0.00038385897089089936,-9.504340917005253
2025-03-06 15:55:38.183,-0.00038618455369971957,-10.148885730680355
2025-03-06 15:55:38.191,-0.0003872522527841739,-10.651259654558878
2025-03-06 15:55:38.198,-0.00038709088685939943,-10.995990399138115
2025-03-06 15:55:38.206,-0.0003857419730952652,-11.170838863108715
2025-03-06 15:55:38.214,-0.0003832551823647273,-11.167362087253775
2025-03-06 15:55:38.222,-0.0003796838997645247,-10.981341303702072
2025-03-06 15:55:38.230,-0.000375081400213567,-10.61305328490807
2025-03-06 15:55:38.237,-0.00036949802550040306,-10.067370738096638
2025-03-06 15:55:38.245,-0.0003629795908747897,-9.353685737151524
2025-03-06 15:55:38.253,-0.0003555670959039483,-8.485658698048267
2025-03-06 15:55:38.261,-0.00034729768407054835,-7.4808037385972295
2025-03-06 15:55:38.269,-0.000338206694304374,-6.359928985099129
2025-03-06 15:55:38.277,-0.00032833057021548686,-5.146457104508869
2025-03-06 15:55:38.284,-0.00031771032185997283,-3.8656567201692127
2025-03-06 15:55:38.292,-0.0003063951610236911,-2.543819157884849
2025-03-06 15:55:38.300,-0.0002944458792604288,-1.2074169994131239
2025-03-06 15:55:38.308,-0.0002819375472119284,0.11771887935713679
2025-03-06 15:55:38.316,-0.0002689611850317225,1.407168709029969
2025-03-06 15:55:38.323,-0.00025562414996429806,2.638607866768608
2025-03-06 15:55:38.331,-0.00024204908501244965,3.7923785058118114
2025-03-06 15:55:38.339,-0.00022837138302767994,4.8519276808776235
2025-03-06 15:55:38.347,-0.00021473526036355238,5.804097726652355
2025-03-06 15:55:38.355,-0.0002012886979452929,6.639262041055432
2025-03-06 15:55:38.362,-0.00018817765935387113,7.351306989547363
2025-03-06 15:55:38.370,-0.000175540084999192,7.937468007748291
2025-03-06 15:55:38.378,-0.00016350016324352839,8.39803478717897
2025-03-06 15:55:38.386,-0.00015216331498171448,8.73594637313869
2025-03-06 15:55:38.394,-0.00014161223608934333,8.956301822624658
2025-03-06 15:55:38.402,-0.00013190423544018567,9.065815554023319
2025-03-06 15:55:38.409,-0.0001230699771373321,9.07224851693263
2025-03-06 15:55:38.417,-0.00011511359013165133,8.983846733753433
2025-03-06 15:55:38.425,-0.00010801397410141997,8.808817602762243
2025-03-06 15:55:38.433,-0.00010172703445332756,8.554871670407636
2025-03-06 15:55:38.441,-9.618853423564014e-05,8.228853516835839
2025-03-06 15:55:38.448,-9.131725927745291e-05,7.8364801574714935
2025-03-06 15:55:38.456,-8.701825243901185e-05,7.382199205758363
2025-03-06 15:55:38.464,-8.318596935418252e-05,6.869172271672791
2025-03-06 15:55:38.472,-7.970730656339812e-05,6.299382017701547
2025-03-06 15:55:38.480,-7.646451377365974e-05,5.673854301632282
2025-03-06 15:55:38.487,-7.333802119400393e-05,4.992980249091885
2025-03-06 15:55:38.495,-7.020922566305928e-05,4.25691725432551
2025-03-06 15:55:38.503,-6.696330649544255e-05,3.4660431157404674
2025-03-06 15:55:38.511,-6.349216011602311e-05,2.62143404127332
2025-03-06 15:55:38.519,-5.969751715323752e-05,1.7253353193865564
2025-03-06 15:55:38.527,-5.549423004472838e-05,0.7815931873565454
2025-03-06 15:55:38.534,-5.081361801699213e-05,-0.20398209907922912
2025-03-06 15:55:38.542,-4.560666668210399e-05,-1.223348811770896
2025-03-06 15:55:38.550,-3.984683015392445e-05,-2.2660839705955094
2025-03-06 15:55:38.558,-3.353218717537762e-05,-3.319367183447931
2025-03-06 15:55:38.566,-2.6686760248870285e-05,-4.368106896875457
2025-03-06 15:55:38.573,-1.936090580148001e-05,-5.395210041030777
2025-03-06 15:55:38.581,-1.163078896321601e-05,-6.381988024609495
2025-03-06 15:55:38.589,-3.5970203540663582e-06,-7.308684235741663
2025-03-06 15:55:38.597,4.617469468894792e-06,-8.155101072302436
2025-03-06 15:55:38.605,1.2870285338256477e-05,-8.901298466735375
2025-03-06 15:55:38.612,2.1003155908848086e-05,-9.528331242142656
2025-03-06 15:55:38.620,2.8846253729622383e-05,-10.018989723924571
2025-03-06 15:55:38.628,3.622319747404238e-05,-10.358507028076147
2025-03-06 15:55:38.636,4.2956617708071955e-05,-10.535197432381018
2025-03-06 15:55:38.644,4.887410365859085e-05,-10.540993164895308
2025-03-06 15:55:38.652,5.381430147604576e-05,-10.371851652682391
2025-03-06 15:55:38.659,5.763290600818028e-05,-10.028011498496115
2025-03-06 15:55:38.667,6.0208280826173165e-05,-9.514082845904131
2025-03-06 15:55:38.675,6.144645569942964e-05,-8.838965943730557
2025-03-06 15:55:38.683,6.12852852231055e-05,-8.0156001822125
2025-03-06 15:55:38.691,5.9697606273034896e-05,-7.060554191381285
2025-03-06 15:55:38.698,5.669329450119697e-05,-5.993475329978724
2025-03-06 15:55:38.706,5.23201671243443e-05,-4.836423653083559
2025-03-06 15:55:38.714,4.6663697215875444e-05,-3.613120889084001
2025-03-06 15:55:38.722,3.984550722753844e-05,-2.348148817548423
2025-03-06 15:55:38.730,3.202062056718343e-05,-1.0661335430436265
2025-03-06 15:55:38.737,2.3373480397796455e-05,0.20904757603981303
2025-03-06 15:55:38.745,1.4112794473234707e-05,1.4550011490396166
2025-03-06 15:55:38.753,4.465332974334018e-06,2.651463222652523
2025-03-06 15:55:38.761,-5.331118517188553e-06,3.7808279314021154
2025-03-06 15:55:38.769,-1.5035391555381748e-05,4.828538378119685
2025-03-06 15:55:38.777,-2.441086907675113e-05,5.783325868845699
2025-03-06 15:55:38.784,-3.323343370275427e-05,6.637291298137679
2025-03-06 15:55:38.792,-4.129913680428301e-05,7.385830366552744
2025-03-06 15:55:38.800,-4.843127867598317e-05,8.027412024397584
2025-03-06 15:55:38.808,-5.44865663427492e-05,8.56322669422449
2025-03-06 15:55:38.816,-5.935999628434748e-05,8.996727074230407
2025-03-06 15:55:38.823,-6.298812809076173e-05,9.333089359471964
2025-03-06 15:55:38.831,-6.535050883568045e-05,9.578626298431159
2025-03-06 15:55:38.839,-6.646916566521774e-05,9.74018546618857
2025-03-06 15:55:38.847,-6.640624354041284e-05,9.824566399936115
2025-03-06 15:55:38.855,-6.525997870447091e-05,9.83798880867052
2025-03-06 15:55:38.862,-6.315927579802272e-05,9.785641021085375
2025-03-06 15:55:38.870,-6.025722959982142e-05,9.671333335551143
2025-03-06 15:55:38.878,-5.67240005628986e-05,9.49727520959212
2025-03-06 15:55:38.886,-5.2739481860191116e-05,9.263988549860526
2025-03-06 15:55:38.894,-4.848616399904029e-05,8.970362053030977
2025-03-06 15:55:38.902,-4.414253493956642e-05,8.61384394779261
2025-03-06 15:55:38.909,-3.98772868637098e-05,8.190762958317213
2025-03-06 15:55:38.917,-3.584453855716156e-05,7.69676021128212
2025-03-06 15:55:38.925,-3.218019504797096e-05,7.127308490147973
2025-03-06 15:55:38.933,-2.8999445818941566e-05,6.478290025083087
2025-03-06 15:55:38.941,-2.6395298070473506e-05,5.746600178044145
2025-03-06 15:55:38.948,-2.443801289906643e-05,4.9307421665614735
2025-03-06 15:55:38.956,-2.3175360617962257e-05,4.031377520441251
2025-03-06 15:55:38.964,-2.2633675902234218e-05,3.0517983528258816
2025-03-06 15:55:38.972,-2.2819715682746535e-05,1.9982907302218458
2025-03-06 15:55:38.980,-2.3723283457538877e-05,0.88036332874064
2025-03-06 15:55:38.987,-2.5320492081461077e-05,-0.28917804822292664
2025-03-06 15:55:38.995,-2.757742713399791e-05,-1.4943219469905877
2025-03-06 15:55:39.003,-3.0453895704056686e-05,-2.71611222003038
2025-03-06 15:55:39.011,-3.3906928000612936e-05,-3.9330732014666183
2025-03-06 15:55:39.019,-3.789372752716886e-05,-5.121785179853629
2025-03-06 15:55:39.027,-4.237381745911549e-05,-6.25758813202334
2025-03-06 15:55:39.034,-4.731019642015406e-05,-7.3153845605202585
2025-03-06 15:55:39.042,-5.2669390668564054e-05,-8.270506552028786
2025-03-06 15:55:39.050,-5.842036944871199e-05,-9.099608178964935
2025-03-06 15:55:39.058,-6.453237510301664e-05,-9.781542340684123
2025-03-06 15:55:39.066,-7.097180524004616e-05,-10.298181212482973
2025-03-06 15:55:39.073,-7.769836817212117e-05,-10.635141647582998
2025-03-06 15:55:39.081,-8.466081397039959e-05,-10.782381046596813
2025-03-06 15:55:39.089,-9.179261759259809e-05,-10.734635143760695
2025-03-06 15:55:39.097,-9.900805350201239e-05,-10.49167653579215
2025-03-06 15:55:39.105,-0.00010619914265205956,-10.058381202369237
2025-03-06 15:55:39.113,-0.00011323394830711886,-9.44459929690477
2025-03-06 15:55:39.120,-0.00011995663228706753,-8.664835660876387
2025-03-06 15:55:39.128,-0.0001261895730746011,-7.737754371295198
2025-03-06 15:55:39.136,-0.00013173770867990463,-6.685529724655689
2025-03-06 15:55:39.144,-0.0001363950921454211,-5.533072990304911
2025-03-06 15:55:39.152,-0.0001399534311396473,-4.307169698033441
2025-03-06 15:55:39.159,-0.0001422121578470559,-3.0355659125430337
2025-03-06 15:55:39.167,-0.00014298939407831837,-1.7460437401672093
2025-03-06 15:55:39.175,-0.00014213306951710184,-0.465526155024789
2025-03-06 15:55:39.183,-0.00013953141204486833,0.780750839396695
2025-03-06 15:55:39.191,-0.00013512204003156937,1.9699645529584928
2025-03-06 15:55:39.198,-0.00012889894898159162,3.0823017241141217
2025-03-06 15:55:39.206,-0.00012091682026189796,4.1014023929290815
2025-03-06 15:55:39.214,-0.00011129229693367923,5.014637179243955
2025-03-06 15:55:39.222,-0.00010020214142417534,5.813211833936967
2025-03-06 15:55:39.230,-8.787844960134197e-05,6.492101300331055
2025-03-06 15:55:39.238,-7.460128383502032e-05,7.049823630009239
2025-03-06 15:55:39.245,-6.0689177107602436e-05,7.488071554819869
2025-03-06 15:55:39.253,-4.648797190503036e-05,7.811225978283485
2025-03-06 15:55:39.261,-3.23584392364347e-05,8.025780822992909
2025-03-06 15:55:39.269,-1.866311176944609e-05,8.139712327544686
2025-03-06 15:55:39.277,-5.7527725985335165e-06,8.161827871338325
2025-03-06 15:55:39.284,6.046931610810063e-06,8.101129644154318
2025-03-06 15:55:39.292,1.6448246123104955e-05,7.966226981277435
2025-03-06 15:55:39.300,2.5212900392239823e-05,7.764828046589468
2025-03-06 15:55:39.308,3.216200988797317e-05,7.503336928378072
2025-03-06 15:55:39.316,3.718378265068016e-05,7.186576336935871
2025-03-06 15:55:39.323,4.0238555275522384e-05,6.8176492294627655
2025-03-06 15:55:39.331,4.136074526107761e-05,6.397945148947147
2025-03-06 15:55:39.339,4.0657444097367584e-05,5.927289199858278
2025-03-06 15:55:39.347,3.8303597075266015e-05,5.404223773163648
2025-03-06 15:55:39.355,3.453397210300506e-05,4.826405765399669
2025-03-06 15:55:39.363,2.9632337211847035e-05,4.191095488635031
2025-03-06 15:55:39.370,2.391841493459576e-05,3.4957080859217364
2025-03-06 15:55:39.378,1.773329061955842e-05,2.7383943474701677
2025-03-06 15:55:39.386,1.1424044831379397e-05,1.9186155992992997
2025-03-06 15:55:39.394,5.328429111493515e-06,1.0376769631521818
2025-03-06 15:55:39.402,-2.396257382226342e-07,0.09918482839963894
2025-03-06 15:55:39.409,-5.002974748243766e-06,-0.8906022028330633
2025-03-06 15:55:39.417,-8.73212428797044e-06,-1.922554479792283
2025-03-06 15:55:39.425,-1.1253560629006264e-05,-2.9846035120910797
2025-03-06 15:55:39.433,-1.2455262195880994e-05,-4.061836355487037
2025-03-06 15:55:39.441,-1.2289289380752895e-05,-5.136754749428495
2025-03-06 15:55:39.448,-1.0771509039012985e-05,-6.189692724115246
2025-03-06 15:55:39.456,-7.97863935639546e-06,-7.199377715796336
2025-03-06 15:55:39.464,-4.042890970264274e-06,-8.143612205063917
2025-03-06 15:55:39.472,8.554474615846524e-07,-9.000045970687554
2025-03-06 15:55:39.480,6.497062090429763e-06,-9.74700362147635
2025-03-06 15:55:39.488,1.2633835580390638e-05,-10.364328442352377
2025-03-06 15:55:39.495,1.899974532467333e-05,-10.834201981613878
2025-03-06 15:55:39.503,2.5321938696764606e-05,-11.14189931543623
2025-03-06 15:55:39.511,3.133148050649015e-05,-11.276442537476488
2025-03-06 15:55:39.519,3.6773278350388835e-05,-11.231119607034266
2025-03-06 15:55:39.527,4.141474006362996e-05,-11.003842012222412
2025-03-06 15:55:39.534,4.505281049696966e-05,-10.597322430421654
2025-03-06 15:55:39.542,4.751916943556827e-05,-10.019062281450148
2025-03-06 15:55:39.550,4.8683536352056716e-05,-9.281148299987784
2025-03-06 15:55:39.558,4.845519144402633e-05,-8.3998665107952
2025-03-06 15:55:39.566,4.678295684929444e-05,-7.395150788084335
2025-03-06 15:55:39.573,4.36539737379581e-05,-6.289891067242817
2025-03-06 15:55:39.581,3.9091648495936356e-05,-5.109132856760334
2025-03-06 15:55:39.589,3.315311158866279e-05,-3.87920464773263
2025-03-06 15:55:39.597,2.592644833791632e-05,-2.6268129023484654
2025-03-06 15:55:39.605,1.7527862172936658e-05,-1.3781453846540557
2025-03-06 15:55:39.613,8.098845738274216e-06,-0.15802264542207445
2025-03-06 15:55:39.620,-2.196643450026595e-06,1.0108654371407328
2025-03-06 15:55:39.628,-1.317508731812956e-05,2.1086058533606256
2025-03-06 15:55:39.636,-2.463654113142936e-05,3.118565403329112
2025-03-06 15:55:39.644,-3.6368169515028636e-05,4.027731794990281
2025-03-06 15:55:39.652,-4.8148328200289835e-05,4.826882510760674
2025-03-06 15:55:39.659,-5.975125485493526e-05,5.510579627448029
2025-03-06 15:55:39.667,-7.095231324618688e-05,6.076997285148014
2025-03-06 15:55:39.675,-8.153361553431724e-05,6.527596527006295
2025-03-06 15:55:39.683,-9.128977781993815e-05,6.866669385889302
2025-03-06 15:55:39.691,-0.0001000335682053035,7.1007800428317305
2025-03-06 15:55:39.698,-0.00010760126209508671,7.238135359144463
2025-03-06 15:55:39.706,-0.00011385757115651391,7.287919897012108
2025-03-06 15:55:39.714,-0.00011870001374571081,7.259631580432707
2025-03-06 15:55:39.722,-0.00012206254691779523,7.162453384489827
2025-03-06 15:55:39.730,-0.00012391823067646598,7.004693940033011
2025-03-06 15:55:39.738,-0.0001242806914838565,6.7933258479351295
2025-03-06 15:55:39.745,-0.0001232041979719983,6.533645024986343
2025-03-06 15:55:39.753,-0.00012078222345520942,6.229067821144627
2025-03-06 15:55:39.761,-0.00011714442592857694,5.881075271719203
2025-03-06 15:55:39.769,-0.0001124520479895039,5.489306030591098
2025-03-06 15:55:39.777,-0.00010689186014674878,5.05179164449506
2025-03-06 15:55:39.784,-0.00010066893708073493,4.565320250213457
2025-03-06 15:55:39.792,-9.399871750953873e-05,4.025907871264032
2025-03-06 15:55:39.800,-8.709889445293914e-05,3.4293505956618406
2025-03-06 15:55:39.808,-8.018167886034074e-05,2.771826323954935
2025-03-06 15:55:39.816,-7.344687678427926e-05,2.0505117193601943
2025-03-06 15:55:39.823,-6.707605551885157e-05,1.2641786331592613
2025-03-06 15:55:39.831,-6.12279091545344e-05,0.4137347093493726
2025-03-06 15:55:39.839,-5.6034820510469585e-05,-0.4973248944330386
2025-03-06 15:55:39.847,-5.160055989095669e-05,-1.462583769736006
2025-03-06 15:55:39.855,-4.7999028880071415e-05,-2.472512071615947
2025-03-06 15:55:39.863,-4.5273927049080566e-05,-3.514432596715905
2025-03-06 15:55:39.870,-4.343920261946608e-05,-4.572653981304841
2025-03-06 15:55:39.878,-4.248015748846112e-05,-5.62877140385063
2025-03-06 15:55:39.886,-4.235509661908973e-05,-6.662126516988231
2025-03-06 15:55:39.894,-4.2997418791164245e-05,-7.650409932658553
2025-03-06 15:55:39.902,-4.4318040587983215e-05,-8.570381884194672
2025-03-06 15:55:39.909,-4.620804880530532e-05,-9.39868010718282
2025-03-06 15:55:39.917,-4.8541508524835923e-05,-10.112678887581017
2025-03-06 15:55:39.925,-5.1178413037696287e-05,-10.691359921442233
2025-03-06 15:55:39.933,-5.396781393436179e-05,-11.116154321616808
2025-03-06 15:55:39.941,-5.675117679241281e-05,-11.371715885312534
2025-03-06 15:55:39.948,-5.9365969432181345e-05,-11.446588574079758
2025-03-06 15:55:39.956,-6.164944116206965e-05,-11.333735910232942
2025-03-06 15:55:39.964,-6.344251743990797e-05,-11.030906410677588
2025-03-06 15:55:39.972,-6.459370501879082e-05,-10.540816918280687
2025-03-06 15:55:39.980,-6.49628663809922e-05,-9.871144337433776
2025-03-06 15:55:39.988,-6.442469565463792e-05,-9.034325373031304
2025-03-06 15:55:39.995,-6.287173415275655e-05,-8.04717293255005
2025-03-06 15:55:40.003,-6.021680124339978e-05,-6.930326412714447
2025-03-06 15:55:40.011,-5.639476396993923e-05,-5.707560725135222
2025-03-06 15:55:40.019,-5.136360336314925e-05,-4.404985245789985
2025-03-06 15:55:40.027,-4.5104745443012894e-05,-3.050168602375478
2025-03-06 15:55:40.034,-3.7622611688939104e-05,-1.671228132703677
2025-03-06 15:55:40.042,-2.89433127261587e-05,-0.29592384649665165
2025-03-06 15:55:40.050,-1.911238101664042e-05,1.0492042105096377
2025-03-06 15:55:40.058,-8.191461916367613e-06,2.3396190791127776
2025-03-06 15:55:40.066,3.746005724094509e-06,3.553458862594658
2025-03-06 15:55:40.073,1.661991511512849e-05,4.672071844130734
2025-03-06 15:55:40.081,3.034905620711986e-05,5.68039608179369
2025-03-06 15:55:40.089,4.48566504439746e-05,6.56717262594121
2025-03-06 15:55:40.097,6.0075346272781394e-05,7.324989681343822
2025-03-06 15:55:40.105,7.595116859132427e-05,7.950163185771779
2025-03-06 15:55:40.113,9.244595976814862e-05,8.442467009556431
2025-03-06 15:55:40.120,0.00010953795527724585,8.804732929633557
2025-03-06 15:55:40.128,0.00012722031049469752,9.042346366136012
2025-03-06 15:55:40.136,0.00014549760735407927,9.16266831390549
2025-03-06 15:55:40.144,0.00016438056836740218,9.174416749554625
2025-03-06 15:55:40.152,0.0001838793590516999,9.087041920933661
2025-03-06 15:55:40.159,0.00020399597356910237,8.910129291626742
2025-03-06 15:55:40.167,0.00022471628089668858,8.652861573505739
2025-03-06 15:55:40.175,0.00024600234354905687,8.323567380434799
2025-03-06 15:55:40.183,0.00026778559443200073,7.929378794806953
2025-03-06 15:55:40.191,0.0002899613926780132,7.476013828803122
2025-03-06 15:55:40.198,0.0003123854117466328,6.967692698413953
2025-03-06 15:55:40.206,0.0003348722438127745,6.407189357841045
2025-03-06 15:55:40.214,0.00035719650038750167,5.796012233379701
2025-03-06 15:55:40.222,0.00037909653135091714,5.13470091971428
2025-03-06 15:55:40.230,0.00040028070025082064,4.423219110843885
2025-03-06 15:55:40.238,0.0004204359922361861,3.6614185541427564
2025-03-06 15:55:40.245,0.0004392386183084939,2.849544617552713
2025-03-06 15:55:40.253,0.0004563661977784346,1.9887513685471574
2025-03-06 15:55:40.261,0.00047151100845266053,1.0815930325579504
2025-03-06 15:55:40.269,0.00048439367175261925,0.1324594041537486
2025-03-06 15:55:40.277,0.0004947765155810135,-0.8520747790767532
2025-03-06 15:55:40.284,0.0005024757826847604,-1.863012411499601
2025-03-06 15:55:40.292,0.0005073718636301129,-2.888828907126919
2025-03-06 15:55:40.300,0.000509416842925523,-3.9155129990220003
2025-03-06 15:55:40.308,0.0005086388431662339,-4.92675939172272
2025-03-06 15:55:40.316,0.0005051428985288473,-5.904311043413945
2025-03-06 15:55:40.323,0.0004991083324773866,-6.828440614311611
2025-03-06 15:55:40.331,0.0004907828170595832,-7.678552753617827
2025-03-06 15:55:40.339,0.0004804734487162554,-8.433881851735611
2025-03-06 15:55:40.347,0.00046853530687302787,-9.074254060041035
2025-03-06 15:55:40.355,0.00045535808619702185,-9.580878115359653
2025-03-06 15:55:40.363,0.0004413515093869846,-9.937127054078125
2025-03-06 15:55:40.370,0.00042693030167027004,-10.129272418475207
2025-03-06 15:55:40.378,0.0004124995038149637,-10.147134097201997
2025-03-06 15:55:40.386,0.0003984408185489657,-9.98461244220396
2025-03-06 15:55:40.394,0.00038510056335362426,-9.640074589642976
2025-03-06 15:55:40.402,0.0003727796692943183,-9.116573699703453
2025-03-06 15:55:40.409,0.00036172602325412837,-8.421887751259959
2025-03-06 15:55:40.417,0.00035212931318366934,-7.568373155682261
2025-03-06 15:55:40.425,0.0003441184416447734,-6.572637331395997
2025-03-06 15:55:40.433,0.00033776153440035953,-5.455043042396535
2025-03-06 15:55:40.441,0.00033306854109710414,-4.239065303212141
2025-03-06 15:55:40.448,0.0003299963452925548,-2.9505285868380913
2025-03-06 15:55:40.456,0.00032845616130898784,-1.6167576040569787
2025-03-06 15:55:40.464,0.0003283228320374991,-0.2656787970811722
2025-03-06 15:55:40.472,0.00032944549068820127,1.0750882594595024
2025-03-06 15:55:40.480,0.00033165892504304447,2.3791102091678944
2025-03-06 15:55:40.488,0.0003347948987856261,3.62195241683911
2025-03-06 15:55:40.495,0.0003386926649684691,4.781890553302917
2025-03-06 15:55:40.503,0.00034320796386906973,5.840492318681177
2025-03-06 15:55:40.511,0.0003482199151271106,6.783046817308421
2025-03-06 15:55:40.519,0.0003536353659020386,7.598826549995413
2025-03-06 15:55:40.527,0.00035939043521489213,8.28117505890241
2025-03-06 15:55:40.534,0.000365449204331227,8.827421548960164
2025-03-06 15:55:40.542,0.0003717997265688094,9.238631921259298
2025-03-06 15:55:40.550,0.0003784477233920167,9.51921320865453
2025-03-06 15:55:40.558,0.0003854084689884084,9.676395051282075
2025-03-06 15:55:40.566,0.00039269745901871227,9.719617281159902
2025-03-06 15:55:40.573,0.00040032054158933275,9.659856650575588
2025-03-06 15:55:40.581,0.00040826425637388743,9.508928063618
2025-03-06 15:55:40.589,0.00041648714389920467,9.278796263559395
2025-03-06 15:55:40.597,0.0004249127286270314,8.980932784813001
2025-03-06 15:55:40.605,0.00043342476870746624,8.625750169906162
2025-03-06 15:55:40.613,0.00044186523895218887,8.222141126045019
2025-03-06 15:55:40.620,0.00045003537465026914,7.777144666031754
2025-03-06 15:55:40.628,0.0004576999214652178,7.29575461256562
2025-03-06 15:55:40.636,0.00046459449459931244,6.780878449614277
2025-03-06 15:55:40.644,0.0004704356788089512,6.233446711944449
2025-03-06 15:55:40.652,0.00047493325399422146,5.652665265944853
2025-03-06 15:55:40.659,0.0004778037496893816,5.036395314895942
2025-03-06 15:55:40.667,0.00047878443341137683,4.381639119563496
2025-03-06 15:55:40.675,0.00047764682605377364,3.6851035979408255
2025-03-06 15:55:40.683,0.00047420890347356516,2.9438094556874
2025-03-06 15:55:40.691,0.000468345262903341,2.1557105510489323
2025-03-06 15:55:40.698,0.0004599946785831042,1.3202870028561893
2025-03-06 15:55:40.706,0.0004491646299975014,0.4390762194345985
2025-03-06 15:55:40.714,0.0004359325550002818,-0.48389141910066663
2025-03-06 15:55:40.722,0.00042044375391777895,-1.4417811317271654
2025-03-06 15:55:40.730,0.0004029060460839607,-2.424789479088175
2025-03-06 15:55:40.738,0.0003835814554067408,-3.4201428529982163
2025-03-06 15:55:40.745,0.0003627753713633663,-4.412265943186823
2025-03-06 15:55:40.753,0.0003408237910578105,-5.383118486527543
2025-03-06 15:55:40.761,0.00031807938328100115,-6.312689569457099
2025-03-06 15:55:40.769,0.00029489719115194087,-7.1796301052433105
2025-03-06 15:55:40.777,0.0002716207685847585,-7.961996334175899
2025-03-06 15:55:40.784,0.00024856943072690697,-8.638070748808648
2025-03-06 15:55:40.792,0.00022602713810065673,-9.1872221095394
2025-03-06 15:55:40.800,0.00020423337964927202,-9.59076347160438
2025-03-06 15:55:40.808,0.00018337628747425378,-9.832766559915054
2025-03-06 15:55:40.816,0.00016358809786034558,-9.9007924425649
2025-03-06 15:55:40.823,0.00014494297176226973,-9.786502177563321
2025-03-06 15:55:40.831,0.00012745711625254116,-9.486116730641582
2025-03-06 15:55:40.839,0.00011109109700427519,-9.000702672218917
2025-03-06 15:55:40.847,9.575416432492376e-05,-8.336268564283994
2025-03-06 15:55:40.855,8.131031047313923e-05,-7.503666089897173
2025-03-06 15:55:40.863,6.758565836690885e-05,-6.518299373103266
2025-03-06 15:55:40.870,5.437669919271638e-05,-5.399655092705424
2025-03-06 15:55:40.878,4.145888100834387e-05,-4.170674437948595
2025-03-06 15:55:40.886,2.8595102807368226e-05,-2.856995265090256
2025-03-06 15:55:40.894,1.55437642647042e-05,-1.486098642224852
2025-03-06 15:55:40.902,2.0661315414943504e-06,-0.08639805542628594
2025-03-06 15:55:40.909,-1.2067112050140257e-05,1.3136882744087797
2025-03-06 15:55:40.917,-2.7070169140237613e-05,2.686641320881035
2025-03-06 15:55:40.925,-4.3137273211879495e-05,4.006682553072675
2025-03-06 15:55:40.933,-6.043866774690158e-05,5.250517351675458
2025-03-06 15:55:40.941,-7.91174379131918e-05,6.3979505485983985
2025-03-06 15:55:40.948,-9.928720334645208e-05,7.432350727170969
2025-03-06 15:55:40.956,-0.00012103062151824388,8.340947565700299
2025-03-06 15:55:40.964,-0.00014439859923776388,9.114954780948414
2025-03-06 15:55:40.972,-0.00016941012267358716,9.749519721709682
