Timestamp,GSR_Filtered,PPG_Filtered,FMSQ
2025-03-06 16:02:24.162,-0.0019552058446546,-10.667666794239905,0.0
2025-03-06 16:02:24.170,-0.0019743204023775,-10.679460317680562,0.0
2025-03-06 16:02:24.178,-0.0019939815911679,-10.579347856499856,0.0
2025-03-06 16:02:24.185,-0.0020148885003906,-10.366797474313076,0.0
2025-03-06 16:02:24.193,-0.0020377007577833,-10.042754453938231,0.0
2025-03-06 16:02:24.201,-0.0020630204627296,-9.609654840869744,0.0
2025-03-06 16:02:24.209,-0.0020913757917924,-9.071412774463427,0.0
2025-03-06 16:02:24.217,-0.0021232069885691,-8.433381171589012,0.0
2025-03-06 16:02:24.224,-0.0021588553408628,-7.70228551808675,0.0
2025-03-06 16:02:24.232,-0.0021985555258576,-6.886130810915884,0.0
2025-03-06 16:02:24.240,-0.0022424314093317,-5.994082119449806,0.0
2025-03-06 16:02:24.248,-0.0022904950557593,-5.036319822166654,0.0
2025-03-06 16:02:24.256,-0.0023426484563458,-4.023871326521332,0.0
2025-03-06 16:02:24.264,-0.0023986874383164,-2.968421969723441,0.0
2025-03-06 16:02:24.271,-0.0024583073710017,-1.882108775192608,0.0
2025-03-06 16:02:24.279,-0.0025211105020596,-0.7773017329180081,0.0
2025-03-06 16:02:24.287,-0.0025866149239052,0.3336217991161692,0.0
2025-03-06 16:02:24.295,-0.0026542652360699,1.43850319282131,0.0
2025-03-06 16:02:24.303,-0.0027234449202394,2.5256222070839582,0.0
2025-03-06 16:02:24.310,-0.0027934902831596,3.5839029901470925,0.0
2025-03-06 16:02:24.318,-0.0028637055875458,4.603099278788831,0.0
2025-03-06 16:02:24.326,-0.0029333787895105,5.573952087361398,0.0
2025-03-06 16:02:24.334,-0.0030017972551813,6.488314013035883,0.0
2025-03-06 16:02:24.342,-0.0030682629434748,7.339235495931004,0.0
2025-03-06 16:02:24.349,-0.0031321066918833,8.121009920695828,0.0
2025-03-06 16:02:24.357,-0.0031927013454469,8.829176257918071,0.0
2025-03-06 16:02:24.365,-0.0032494735642788,9.460479925611358,0.0
2025-03-06 16:02:24.373,-0.0033019142662187,10.012794594284903,0.0
2025-03-06 16:02:24.381,-0.0033495877562994,10.48500964687839,0.0
2025-03-06 16:02:24.389,-0.0033921395971052,10.876889817637933,0.0
2025-03-06 16:02:24.396,-0.0034293031856305,11.188915055695087,0.0
2025-03-06 16:02:24.404,-0.0034609048931509,11.422109785153488,0.0
2025-03-06 16:02:24.412,-0.0034868675502017,11.577871379349462,0.0
2025-03-06 16:02:24.420,-0.0035072119875127,11.657807774047257,0.0
2025-03-06 16:02:24.428,-0.0035220562389522,11.663593683735664,0.0
2025-03-06 16:02:24.435,-0.0035316119571663,11.59685386123864,0.0
2025-03-06 16:02:24.443,-0.0035361777107696,11.45908029407913,0.0
2025-03-06 16:02:24.451,-0.0035361291177227,11.251588237507193,0.0
2025-03-06 16:02:24.459,-0.0035319060976736,10.97551365093147,0.0
2025-03-06 16:02:24.467,-0.003523997785522,10.631852065181802,0.0
2025-03-06 16:02:24.474,-0.0035129257949413,10.221536318188596,0.0
2025-03-06 16:02:24.482,-0.0034992265457703,9.745548125562072,0.0
2025-03-06 16:02:24.490,-0.0034834332795827,9.205056268397424,0.0
2025-03-06 16:02:24.498,-0.0034660582257969,8.601572433958543,0.0
2025-03-06 16:02:24.506,-0.0034475752552821,7.9371145551458335,0.0
2025-03-06 16:02:24.514,-0.003428403386923,7.21436694057708,0.0
2025-03-06 16:02:24.521,-0.0034088916660973,6.436826599855149,0.0
2025-03-06 16:02:24.529,-0.0033893060169951,5.608925928591198,0.0
2025-03-06 16:02:24.537,-0.0033698185594986,4.73612325731039,0.0
2025-03-06 16:02:24.545,-0.0033504996953222,3.824954579865624,0.0
2025-03-06 16:02:24.553,-0.003331313198801,2.883041924324068,0.0
2025-03-06 16:02:24.560,-0.0033121146206063,1.9190561600932512,0.0
2025-03-06 16:02:24.568,-0.0032926534077825,0.9426343922775626,0.0
2025-03-06 16:02:24.576,-0.003272579150423,-0.0357456721155819,0.0
2025-03-06 16:02:24.584,-0.0032514522412553,-1.0049300220528488,0.0
2025-03-06 16:02:24.592,-0.0032287589739101,-1.9532853154461045,0.0
2025-03-06 16:02:24.599,-0.0032039307194442,-2.868921332535153,0.0
2025-03-06 16:02:24.607,-0.003176366356998,-3.739930957910796,0.0
2025-03-06 16:02:24.615,-0.0031454567149101,-4.554639426944749,0.0
2025-03-06 16:02:24.623,-0.0031106095668414,-5.30185466854449,0.0
2025-03-06 16:02:24.631,-0.003071273804896,-5.971111017129093,0.0
2025-03-06 16:02:24.639,-0.0030269616993414,-6.552899271844904,0.0
2025-03-06 16:02:24.646,-0.0029772684911057,-7.038876966819618,0.0
2025-03-06 16:02:24.654,-0.0029218888295913,-7.422053706180507,0.0
2025-03-06 16:02:24.662,-0.0028606297187875,-7.696947444673685,0.0
2025-03-06 16:02:24.670,-0.0027934196609933,-7.859708601281449,0.0
2025-03-06 16:02:24.678,-0.0027203135977566,-7.908209831917354,0.0
2025-03-06 16:02:24.685,-0.0026414930872394,-7.842100123217025,0.0
2025-03-06 16:02:24.693,-0.0025572610444776,-7.662822582658057,0.0
2025-03-06 16:02:24.701,-0.0024680304656457,-7.373595889778119,0.0
2025-03-06 16:02:24.709,-0.0023743069361542,-6.979359860202457,0.0
2025-03-06 16:02:24.717,-0.0022766653005465,-6.486685999097204,0.0
2025-03-06 16:02:24.724,-0.002175721481853,-5.903654336016903,0.0
2025-03-06 16:02:24.732,-0.0020721009525378,-5.239698293427723,0.0
2025-03-06 16:02:24.740,-0.0019664057242427,-4.505419891953613,0.0
2025-03-06 16:02:24.748,-0.0018591819218239,-3.712378263965828,0.0
2025-03-06 16:02:24.756,-0.0017508900317666,-2.872855238416002,0.0
2025-03-06 16:02:24.764,-0.0016418797642822,-1.9996026544116687,0.0
2025-03-06 16:02:24.771,-0.0015323711458396,-1.1055770135831842,0.0
2025-03-06 16:02:24.779,-0.0014224429788562,-0.2036680221591846,0.0
2025-03-06 16:02:24.787,-0.0013120292138506,0.6935715831601084,0.0
2025-03-06 16:02:24.795,-0.0012009231690835,1.5741868779671215,0.0
2025-03-06 16:02:24.803,-0.0010887890017421,2.427063839588082,0.0
2025-03-06 16:02:24.810,-0.0009751794298038,3.2421462440893465,0.0
2025-03-06 16:02:24.818,-0.0008595584347949,4.010618327341955,0.0
2025-03-06 16:02:24.826,-0.0007413275480481,4.725045997777804,0.0
2025-03-06 16:02:24.834,-0.0006198543053003,5.379470643513696,0.0
2025-03-06 16:02:24.842,-0.0004945014690756,5.9694512158051625,0.0
2025-03-06 16:02:24.849,-0.0003646556253495,6.49205223386634,0.0
2025-03-06 16:02:24.857,-0.0002297538295486,6.945777564644527,0.0
2025-03-06 16:02:24.865,-8.930721254903941e-05,7.330452189129984,0.0
2025-03-06 16:02:24.873,5.7079173922815725e-05,7.647056562195312,0.0
2025-03-06 16:02:24.881,0.0002096906901123,7.897520482942077,0.0
2025-03-06 16:02:24.889,0.0003686919253505,8.084485490716814,0.0
2025-03-06 16:02:24.896,0.0005341202666236,8.211046566598773,0.0
2025-03-06 16:02:24.904,0.000705884327575,8.280485242396264,0.0
2025-03-06 16:02:24.912,0.0008837670427507,8.296007010880666,0.0
2025-03-06 16:02:24.920,0.0010674329001323,8.260496130632937,0.0
2025-03-06 16:02:24.928,0.0012564385344439,8.17630049286647,0.0
2025-03-06 16:02:24.935,0.0014502457759198,8.045058157193123,0.0
2025-03-06 16:02:24.943,0.0016482362438341,7.867575483791481,0.0
2025-03-06 16:02:24.951,0.0018497266544716,7.643764536645222,0.0
2025-03-06 16:02:24.959,0.0020539841025814,7.372644692096873,0.0
2025-03-06 16:02:24.967,0.0022602406242916,7.052410286058742,0.0
2025-03-06 16:02:24.974,0.0024677064290847,6.680562830696447,0.0
2025-03-06 16:02:24.982,0.0026755814392659,6.254103002331488,0.0
2025-03-06 16:02:24.990,0.0028830652246722,5.769774424879504,0.0
2025-03-06 16:02:24.998,0.0030893659005546,5.224348420286739,0.0
2025-03-06 16:02:25.006,0.0032937088295248,4.614936529096025,0.0
2025-03-06 16:02:25.014,0.0034953459173098,3.939315856765586,0.0
2025-03-06 16:02:25.021,0.0036935659899949,3.196251276332161,0.0
2025-03-06 16:02:25.029,0.0038877063512595,2.3857982757034257,0.0
2025-03-06 16:02:25.037,0.0040771652664917,1.5095707949402135,0.0
2025-03-06 16:02:25.045,0.0042614148604957,0.5709597274529357,0.0
2025-03-06 16:02:25.053,0.0044400137654606,-0.4247102137489248,0.0
2025-03-06 16:02:25.060,0.0046126188202267,-1.4700949516099766,0.0
2025-03-06 16:02:25.068,0.0047789951743568,-2.5558234570809013,0.0
2025-03-06 16:02:25.076,0.004939024219076,-3.670571421665419,0.0
2025-03-06 16:02:25.084,0.005092708779843,-4.801216050784637,0.0
2025-03-06 16:02:25.092,0.0052401749680199,-5.933068442113745,0.0
2025-03-06 16:02:25.099,0.0053816700852846,-7.050176814546216,0.0
2025-03-06 16:02:25.107,0.0055175560865064,-8.135690987050836,0.0
2025-03-06 16:02:25.115,0.0056482983645722,-9.172276083314229,0.0
2025-03-06 16:02:25.123,0.0057744499944787,-10.142561538396889,0.0
2025-03-06 16:02:25.131,0.0058966319811336,-11.029610156578842,0.0
2025-03-06 16:02:25.139,0.0060155104057862,-11.817391234285209,0.0
2025-03-06 16:02:25.146,0.0061317716141937,-12.49124161080485,0.0
2025-03-06 16:02:25.154,0.0062460967036028,-13.038298913252222,0.0
2025-03-06 16:02:25.162,0.006359136501413,-13.44789217856802,0.0
2025-03-06 16:02:25.170,0.0064714880174576,-13.71187641632094,0.0
2025-03-06 16:02:25.178,0.0065836731266337,-13.824899470318025,0.0
2025-03-06 16:02:25.185,0.0066961200825984,-13.784591688309185,0.0
2025-03-06 16:02:25.193,0.0068091483379496,-13.591671355199734,0.0
2025-03-06 16:02:25.201,0.0069229570164053,-13.249961519335264,0.0
2025-03-06 16:02:25.209,0.0070376172923876,-12.766316673718151,0.0
2025-03-06 16:02:25.217,0.0071530689144998,-12.150460671882197,0.0
2025-03-06 16:02:25.224,0.0072691210877019,-11.41474018547967,0.0
2025-03-06 16:02:25.232,0.0073854577873424,-10.573800865079368,0.0
2025-03-06 16:02:25.240,0.0075016473111313,-9.644196055006043,0.0
2025-03-06 16:02:25.248,0.0076171556054322,-8.643940335087578,0.0
2025-03-06 16:02:25.256,0.0077313627099946,-7.59202221165667,0.0
2025-03-06 16:02:25.264,0.0078435815098605,-6.507891860357352,0.0
2025-03-06 16:02:25.271,0.0079530778285035,-5.410940856660112,0.0
2025-03-06 16:02:25.279,0.0080590907927517,-4.319991263250412,0.0
2025-03-06 16:02:25.287,0.0081608524184639,-3.252811247632597,0.0
2025-03-06 16:02:25.295,0.0082576055356865,-2.225673572249725,0.0
2025-03-06 16:02:25.303,0.0083486194853331,-1.25297185028079,0.0
2025-03-06 16:02:25.310,0.0084332034262037,-0.3469074349769485,0.0
2025-03-06 16:02:25.318,0.0085107174686497,0.4827427239927628,0.0
2025-03-06 16:02:25.326,0.008580582035461,1.228769877063672,0.0
2025-03-06 16:02:25.334,0.008642285760848,1.88658480693879,0.0
2025-03-06 16:02:25.342,0.008695391955308,2.4541760273494786,0.0
2025-03-06 16:02:25.349,0.0087395433513326,2.9319776790372845,0.0
2025-03-06 16:02:25.357,0.0087744646245731,3.3226533686380315,0.0
2025-03-06 16:02:25.365,0.0087999621064797,3.630805396304922,0.0
2025-03-06 16:02:25.373,0.0088159201794681,3.862621684091814,0.0
2025-03-06 16:02:25.381,0.0088222940752027,4.0254751427925335,0.0
2025-03-06 16:02:25.389,0.0088190991703326,4.12749210630083,0.0
2025-03-06 16:02:25.396,0.0088063973438608,4.177107740341718,0.0
2025-03-06 16:02:25.404,0.0087842814045223,4.182626934017666,0.0
2025-03-06 16:02:25.412,0.0087528588509717,4.151809063940662,0.0
2025-03-06 16:02:25.420,0.0087122362100952,4.091494160279584,0.0
2025-03-06 16:02:25.428,0.0086625049873361,4.007286409688578,0.0
2025-03-06 16:02:25.435,0.008603730012044,3.903308644704677,0.0
2025-03-06 16:02:25.443,0.0085359407560196,3.782038571489794,0.0
2025-03-06 16:02:25.451,0.0084591260148798,3.644234087973733,0.0
2025-03-06 16:02:25.459,0.008373232106473,3.48895127773915,0.0
2025-03-06 16:02:25.467,0.0082781644662956,3.3136546848373314,0.0
2025-03-06 16:02:25.474,0.0081737922857114,3.114415447464044,0.0
2025-03-06 16:02:25.482,0.0080599556952129,2.886188968509852,0.0
2025-03-06 16:02:25.490,0.0079364749031297,2.623160203993687,0.0
2025-03-06 16:02:25.498,0.0078031605925249,2.3191415239529865,0.0
2025-03-06 16:02:25.506,0.007659824758639,1.9680055965567265,0.0
2025-03-06 16:02:25.514,0.0075062911152363,1.5641339944422483,0.0
2025-03-06 16:02:25.521,0.0073424042874949,1.102861319691481,0.0
2025-03-06 16:02:25.529,0.0071680372650386,0.5808946443896186,0.0
2025-03-06 16:02:25.537,0.0069830969694823,-0.0033110292989319,0.0
2025-03-06 16:02:25.545,0.0067875281747598,-0.6492388201557233,0.0
2025-03-06 16:02:25.553,0.0065813162408375,-1.3540725305660075,0.0
2025-03-06 16:02:25.560,0.0063644890988523,-2.112547556824016,0.0
2025-03-06 16:02:25.568,0.0061371187345317,-2.9168983407574824,0.0
2025-03-06 16:02:25.576,0.0058993222146996,-3.7569066100495423,0.0
2025-03-06 16:02:25.584,0.0056512621983034,-4.620050585721028,0.0
2025-03-06 16:02:25.592,0.0053931468775542,-5.491751320537251,0.0
2025-03-06 16:02:25.599,0.005125229335643,-6.355708532471767,0.0
2025-03-06 16:02:25.607,0.0048478063071889,-7.194314851123391,0.0
2025-03-06 16:02:25.615,0.0045612162846509,-7.989134416691177,0.0
2025-03-06 16:02:25.623,0.004265836898012,-8.721429350868242,0.0
2025-03-06 16:02:25.631,0.0039620815475298,-9.372715819890187,0.0
2025-03-06 16:02:25.639,0.003650395342669,-9.92533026727703,0.0
2025-03-06 16:02:25.646,0.0033312504188684,-10.362985920089749,0.0
2025-03-06 16:02:25.654,0.0030051406632826,-10.67129986593802,0.0
2025-03-06 16:02:25.662,0.0026725758537605,-10.838271847894411,0.0
2025-03-06 16:02:25.670,0.0023340752682472,-10.854697411242796,0.0
2025-03-06 16:02:25.678,0.0019901609472305,-10.714500127326742,0.0
2025-03-06 16:02:25.685,0.0016413509092339,-10.414970268046426,0.0
2025-03-06 16:02:25.693,0.0012881526423816,-9.956900445981532,0.0
2025-03-06 16:02:25.701,0.0009310571155301,-9.344612287637576,0.0
2025-03-06 16:02:25.709,0.0005705334405962,-8.58587206575197,0.0
2025-03-06 16:02:25.717,0.0002070242496419,-7.691697249653628,0.0
2025-03-06 16:02:25.724,-0.0001590581217189,-6.676059987422395,0.0
2025-03-06 16:02:25.732,-0.0005273343972724,-5.555497445989635,0.0
2025-03-06 16:02:25.740,-0.0008974595878289,-4.348642540617576,0.0
2025-03-06 16:02:25.748,-0.0012691220598499,-3.075691725475613,0.0
2025-03-06 16:02:25.756,-0.0016420399345081,-1.757829047104423,0.0
2025-03-06 16:02:25.764,-0.0020159546511253,-0.4166274565051829,0.0
2025-03-06 16:02:25.771,-0.0023906219171236,0.9265506652561782,0.0
2025-03-06 16:02:25.779,-0.0027658005524107,2.2511317520913234,0.0
2025-03-06 16:02:25.787,-0.0031412399547897,3.53786691168224,0.0
2025-03-06 16:02:25.795,-0.0035166671776513,4.769305995810089,0.0
2025-03-06 16:02:25.803,-0.0038917748935896,5.930193060390601,0.0
2025-03-06 16:02:25.810,-0.0042662116275298,7.0077696884534335,0.0
2025-03-06 16:02:25.818,-0.0046395754450542,7.991976514584911,0.0
2025-03-06 16:02:25.826,-0.0050114118400449,8.875547555043811,0.0
2025-03-06 16:02:25.834,-0.0053812160560445,9.653996427482198,0.0
2025-03-06 16:02:25.842,-0.0057484396331753,10.32549804387055,0.0
2025-03-06 16:02:25.849,-0.0061125006334191,10.890673686742598,0.0
2025-03-06 16:02:25.857,-0.0064727967246212,11.352291349399064,0.0
2025-03-06 16:02:25.865,-0.006828720075102,11.714896670295348,0.0
2025-03-06 16:02:25.873,-0.0071796728886849,11.984392577204044,0.0
2025-03-06 16:02:25.881,-0.0075250824590324,12.167587759378472,0.0
2025-03-06 16:02:25.889,-0.007864414783617,12.271735217942783,0.0
2025-03-06 16:02:25.896,-0.0081971859411252,12.3040823546776,0.0
2025-03-06 16:02:25.904,-0.0085229705835312,12.27145333437698,0.0
2025-03-06 16:02:25.912,-0.0088414070520037,12.179882820642591,0.0
2025-03-06 16:02:25.920,-0.0091521987622525,12.034317700314846,0.0
2025-03-06 16:02:25.928,-0.0094551116002563,11.838400174845765,0.0
2025-03-06 16:02:25.935,-0.0097499672188414,11.594341740869718,0.0
2025-03-06 16:02:25.943,-0.010036632455096,11.302893273961086,0.0
2025-03-06 16:02:25.951,-0.0103150055722241,10.963411864173898,0.0
2025-03-06 16:02:25.959,-0.0105850004528487,10.57402044308313,0.0
2025-03-06 16:02:25.967,-0.0108465300218264,10.131851810380777,0.0
2025-03-06 16:02:25.974,-0.0110994900681371,9.633364630287396,0.0
2025-03-06 16:02:25.982,-0.0113437444776419,9.074715525694584,0.0
2025-03-06 16:02:25.990,-0.0115791128233784,8.45216872459165,0.0
2025-03-06 16:02:25.998,-0.0118053612000123,7.762522941433153,0.0
2025-03-06 16:02:26.006,-0.0120221969707298,7.003534388392653,0.0
2025-03-06 16:02:26.014,-0.0122292677163703,6.174315036652636,0.0
2025-03-06 16:02:26.021,-0.0124261642870715,5.275686457812976,0.0
2025-03-06 16:02:26.029,-0.0126124275628253,4.310471684235517,0.0
2025-03-06 16:02:26.037,-0.0127875583216211,3.283710397245058,0.0
2025-03-06 16:02:26.045,-0.0129510294530629,2.202786209685046,0.0
2025-03-06 16:02:26.053,-0.0131022996385737,1.0774586625436402,0.0
2025-03-06 16:02:26.060,-0.0132408275695505,-0.0802033911117496,0.0
2025-03-06 16:02:26.068,-0.0133660858186625,-1.2559862773574977,0.0
2025-03-06 16:02:26.076,-0.0134775736353292,-2.4337892296320582,0.0
2025-03-06 16:02:26.084,-0.0135748281869423,-3.595967127610255,0.0
2025-03-06 16:02:26.092,-0.0136574340225903,-4.723746861471086,0.0
2025-03-06 16:02:26.099,-0.0137250306634824,-5.797703291917328,0.0
2025-03-06 16:02:26.107,-0.0137773181722081,-6.798278702923236,0.0
2025-03-06 16:02:26.115,-0.0138140604274607,-7.706328171364398,0.0
2025-03-06 16:02:26.123,-0.0138350858109447,-8.503672411901421,0.0
2025-03-06 16:02:26.131,-0.013840285198995,-9.173639386912342,0.0
2025-03-06 16:02:26.139,-0.0138296074903305,-9.70157628040537,0.0
2025-03-06 16:02:26.146,-0.0138030532274329,-10.07531429698471,0.0
2025-03-06 16:02:26.154,-0.0137606670168287,-10.285570134564756,0.0
2025-03-06 16:02:26.162,-0.0137025293716458,-10.326269862266358,0.0
2025-03-06 16:02:26.170,-0.0136287483903802,-10.194783277185955,0.0
2025-03-06 16:02:26.178,-0.0135394515307224,-9.892059571524369,0.0
2025-03-06 16:02:26.185,-0.013434777746095,-9.422658258824308,0.0
2025-03-06 16:02:26.193,-0.0133148703776926,-8.794672712058462,0.0
2025-03-06 16:02:26.201,-0.0131798713085658,-8.019547265097568,0.0
2025-03-06 16:02:26.209,-0.0130299169037876,-7.111792513507016,0.0
2025-03-06 16:02:26.217,-0.0128651361701596,-6.088607097714928,0.0
2025-03-06 16:02:26.225,-0.0126856513943189,-4.96941772547496,0.0
2025-03-06 16:02:26.232,-0.0124915812917854,-3.775352343326998,0.0
2025-03-06 16:02:26.240,-0.0122830464553322,-2.5286640464501007,0.0
2025-03-06 16:02:26.248,-0.012060176663376,-1.2521253821362324,0.0
2025-03-06 16:02:26.256,-0.0118231194313321,0.0315859609435933,0.0
2025-03-06 16:02:26.264,-0.0115720490924955,1.3004885591482005,0.0
2025-03-06 16:02:26.271,-0.0113071757082028,2.533864566747101,0.0
2025-03-06 16:02:26.279,-0.0110287532483571,3.712772936264549,0.0
2025-03-06 16:02:26.287,-0.0107370867341396,4.820490560995052,0.0
2025-03-06 16:02:26.295,-0.010432538302007,5.842866113882085,0.0
2025-03-06 16:02:26.303,-0.010115532295182,6.76857475113251,0.0
2025-03-06 16:02:26.310,-0.0097865594532027,7.589265741721054,0.0
2025-03-06 16:02:26.318,-0.0094461801192165,8.299599320806669,0.0
2025-03-06 16:02:26.326,-0.0090950262223006,8.89717347781046,0.0
2025-03-06 16:02:26.334,-0.0087338016734988,9.382345800402303,0.0
2025-03-06 16:02:26.342,-0.0083632807710233,9.757959721216425,0.0
2025-03-06 16:02:26.350,-0.0079843042648378,10.0289883759096,0.0
2025-03-06 16:02:26.357,-0.0075977728641683,10.202112613853188,0.0
2025-03-06 16:02:26.365,-0.0072046381226283,10.28525236152274,0.0
2025-03-06 16:02:26.373,-0.0068058907476414,10.287072403033587,0.0
2025-03-06 16:02:26.381,-0.0064025464617821,10.216484619911144,0.0
2025-03-06 16:02:26.389,-0.0059956296768285,10.08216876466562,0.0
2025-03-06 16:02:26.396,-0.0055861554799907,9.89213291135125,0.0
2025-03-06 16:02:26.404,-0.0051751107002888,9.65333285555394,0.0
2025-03-06 16:02:26.412,-0.0047634349787687,9.37136699514766,0.0
2025-03-06 16:02:26.420,-0.0043520027445081,9.050259723718623,0.0
2025-03-06 16:02:26.428,-0.0039416068793885,8.692342261139947,0.0
2025-03-06 16:02:26.435,-0.0035329447905531,8.29823531292226,0.0
2025-03-06 16:02:26.443,-0.0031266076521634,7.866933200961511,0.0
2025-03-06 16:02:26.451,-0.0027230735858575,7.39598437205247,0.0
2025-03-06 16:02:26.459,-0.0023227053376045,6.88175870321799,0.0
2025-03-06 16:02:26.467,-0.001925752588011,6.319788012267114,0.0
2025-03-06 16:02:26.475,-0.001532358609092,5.705162851918756,0.0
2025-03-06 16:02:26.482,-0.0011425707204033,5.032966182404801,0.0
2025-03-06 16:02:26.490,-0.0007563539006284,4.298722997561878,0.0
2025-03-06 16:02:26.498,-0.0003736069108507,3.4988444835280417,0.0
2025-03-06 16:02:26.506,5.8196499918657845e-06,2.631045818973372,0.0
2025-03-06 16:02:26.514,0.0003821038492789,1.6947182256371855,0.0
2025-03-06 16:02:26.521,0.0007554319443805,0.6912382402634328,0.0
2025-03-06 16:02:26.529,0.0011259774541958,-0.3757997463064187,0.0
2025-03-06 16:02:26.537,0.0014938804306489,-1.5004380323183306,0.0
2025-03-06 16:02:26.545,0.0018592276814442,-2.6743036486289737,0.0
2025-03-06 16:02:26.553,0.0022220347340472,-3.886652274173232,0.0
2025-03-06 16:02:26.560,0.0025822303072839,-5.124506436423372,0.0
2025-03-06 16:02:26.568,0.0029396439717178,-6.3728827179850365,0.0
2025-03-06 16:02:26.576,0.0032939975681203,-7.615099409337318,0.0
2025-03-06 16:02:26.584,0.0036449008938021,-8.833153284284617,0.0
2025-03-06 16:02:26.592,0.003991852198653,-10.008152001619443,0.0
2025-03-06 16:02:26.600,0.0043342440742098,-11.120787093790124,0.0
2025-03-06 16:02:26.607,0.0046713751910528,-12.151831595864335,0.0
2025-03-06 16:02:26.615,0.0050024679026771,-13.082646064536592,0.0
2025-03-06 16:02:26.623,0.0053266910379606,-13.89567697688127,0.0
2025-03-06 16:02:26.631,0.0056431864986394,-14.574932205730706,0.0
2025-03-06 16:02:26.639,0.005951097819063,-15.106419364572703,0.0
2025-03-06 16:02:26.646,0.006249598693385,-15.478534228234023,0.0
2025-03-06 16:02:26.654,0.0065379195303349,-15.682388105114432,0.0
2025-03-06 16:02:26.662,0.0068153702947199,-15.712064911409405,0.0
2025-03-06 16:02:26.670,0.0070813582784403,-15.56480073648771,0.0
2025-03-06 16:02:26.678,0.0073354000419539,-15.241080859190044,0.0
2025-03-06 16:02:26.685,0.0075771274902384,-14.744651451252418,0.0
2025-03-06 16:02:26.693,0.0078062887055809,-14.08244556134946,0.0
2025-03-06 16:02:26.701,0.008022744593422,-13.264425381017324,0.0
2025-03-06 16:02:26.709,0.008226462601582,-12.303345210376492,0.0
2025-03-06 16:02:26.717,0.0084175088692382,-11.214441911519156,0.0
2025-03-06 16:02:26.725,0.0085960402328811,-10.015061892159173,0.0
2025-03-06 16:02:26.732,0.008762297500786,-8.72423572447655,0.0
2025-03-06 16:02:26.740,0.0089166011770569,-7.362213292804044,0.0
2025-03-06 16:02:26.748,0.009059350325874,-5.949973796673663,0.0
2025-03-06 16:02:26.756,0.0091910246203009,-4.508725932391995,0.0
2025-03-06 16:02:26.764,0.0093121890029698,-3.059414064740928,0.0
2025-03-06 16:02:26.771,0.0094234999176646,-1.622246126637546,0.0
2025-03-06 16:02:26.779,0.0095257117470513,-0.2162583200534931,0.0
2025-03-06 16:02:26.787,0.0096196818976669,1.1410695645052222,0.0
2025-03-06 16:02:26.795,0.0097063729750623,2.434136212904616,0.0
2025-03-06 16:02:26.803,0.0097868507434146,3.6494685699184384,0.0
2025-03-06 16:02:26.810,0.0098622769912019,4.775892433885855,0.0
2025-03-06 16:02:26.818,0.0099338968774416,5.804620048510148,0.0
2025-03-06 16:02:26.826,0.010003020703122,6.729254174515742,0.0
2025-03-06 16:02:26.834,0.0100710003040546,7.545711489952266,0.0
2025-03-06 16:02:26.842,0.0101392004003112,8.25207145313274,0.0
2025-03-06 16:02:26.850,0.0102089653106817,8.848359814304406,0.0
2025-03-06 16:02:26.857,0.0102815815611696,9.336278633944604,0.0
2025-03-06 16:02:26.865,0.0103582372104035,9.718896823231532,0.0
2025-03-06 16:02:26.873,0.0104399791818294,10.000316752563096,0.0
2025-03-06 16:02:26.881,0.0105276703685942,10.18533328893894,0.0
2025-03-06 16:02:26.889,0.0106219485693191,10.279101663874076,0.0
2025-03-06 16:02:26.896,0.0107231893093327,10.286829817926362,0.0
2025-03-06 16:02:26.904,0.0108314742753732,10.21350933790771,0.0
2025-03-06 16:02:26.912,0.0109465665231279,10.063696867909622,0.0
2025-03-06 16:02:26.920,0.0110678930188866,9.841355047693687,0.0
2025-03-06 16:02:26.928,0.0111945346997119,9.549758758002758,0.0
2025-03-06 16:02:26.935,0.0113252241991663,9.191468904344932,0.0
2025-03-06 16:02:26.943,0.011458351589036,8.76837234065968,0.0
2025-03-06 16:02:26.951,0.0115919787059143,8.281783023972585,0.0
2025-03-06 16:02:26.959,0.0117238627038445,7.732596300199925,0.0
2025-03-06 16:02:26.967,0.0118514894017431,7.12148553339793,0.0
2025-03-06 16:02:26.975,0.0119721168229237,6.4491282608141205,0.0
2025-03-06 16:02:26.982,0.0120828289924815,5.716447797170738,0.0
2025-03-06 16:02:26.990,0.0121805994707665,4.924855784100569,0.0
2025-03-06 16:02:26.998,0.0122623632978011,4.076481586152902,0.0
2025-03-06 16:02:27.006,0.0123250951685527,3.174375616156658,0.0
2025-03-06 16:02:27.014,0.0123658909061957,2.22267552039535,0.0
2025-03-06 16:02:27.021,0.0123820487392537,1.226726517272595,0.0
2025-03-06 16:02:27.029,0.0123711465728684,0.1931498843948675,0.0
2025-03-06 16:02:27.037,0.0123311114181272,-0.8701435597831753,0.0
2025-03-06 16:02:27.045,0.0122602774381056,-1.9539953138775092,0.0
2025-03-06 16:02:27.053,0.0121574296765178,-3.048094097079001,0.0
2025-03-06 16:02:27.060,0.0120218313682192,-4.141119197957795,0.0
2025-03-06 16:02:27.068,0.01185323365562,-5.220925781443343,0.0
2025-03-06 16:02:27.076,0.0116518674856572,-6.274764264765711,0.0
2025-03-06 16:02:27.084,0.0114184184861387,-7.289524987899708,0.0
2025-03-06 16:02:27.092,0.0111539867316426,-8.251999032183017,0.0
2025-03-06 16:02:27.100,0.0108600343300037,-9.14914614377138,0.0
2025-03-06 16:02:27.107,0.0105383244082298,-9.968361230045318,0.0
2025-03-06 16:02:27.115,0.0101908552264921,-10.6977317323501,0.0
2025-03-06 16:02:27.123,0.009819792950174,-11.326279241481238,0.0
2025-03-06 16:02:27.131,0.0094274063034379,-11.844179911460335,0.0
2025-03-06 16:02:27.139,0.0090160059992725,-12.242959443668454,0.0
2025-03-06 16:02:27.146,0.0085878914235635,-12.51565957123936,0.0
2025-03-06 16:02:27.154,0.0081453064935926,-12.656974005462605,0.0
2025-03-06 16:02:27.162,0.0076904059357207,-12.663352664938657,0.0
2025-03-06 16:02:27.170,0.007225232477204,-12.533073668733358,0.0
2025-03-06 16:02:27.178,0.0067517046785875,-12.26628303513992,0.0
2025-03-06 16:02:27.185,0.0062716144052993,-11.865002312594436,0.0
2025-03-06 16:02:27.193,0.0057866323007332,-11.333104527157838,0.0
2025-03-06 16:02:27.201,0.005298319156428,-10.676258924797256,0.0
2025-03-06 16:02:27.209,0.0048081408915777,-9.901845083839994,0.0
2025-03-06 16:02:27.217,0.0043174850184712,-9.018837138475224,0.0
2025-03-06 16:02:27.225,0.0038276769149858,-8.037659146135633,0.0
2025-03-06 16:02:27.232,0.003339994769079,-6.970013092892786,0.0
2025-03-06 16:02:27.240,0.002855682512853,-5.828681677948001,0.0
2025-03-06 16:02:27.248,0.0023759603182307,-4.627308834151926,0.0
2025-03-06 16:02:27.256,0.0019020322900501,-3.380161879339622,0.0
2025-03-06 16:02:27.264,0.0014350909815599,-2.1018801839340746,0.0
2025-03-06 16:02:27.271,0.0009763184382975,-0.80721619975151,0.0
2025-03-06 16:02:27.279,0.0005268837358602,0.4892244685212595,0.0
2025-03-06 16:02:27.287,8.793734354375397e-05,1.7732366447442118,0.0
2025-03-06 16:02:27.295,-0.0003393970328833,3.031255181141617,0.0
2025-03-06 16:02:27.303,-0.0007540323085544,4.250572964593899,0.0
2025-03-06 16:02:27.310,-0.0011549287769954,5.419530128303798,0.0
2025-03-06 16:02:27.318,-0.0015411051672102,6.527668077357224,0.0
2025-03-06 16:02:27.326,-0.001911649725685,7.56584313153639,0.0
2025-03-06 16:02:27.334,-0.0022657313748495,8.526296131648891,0.0
2025-03-06 16:02:27.342,-0.0026026111583441,9.402676185162337,0.0
2025-03-06 16:02:27.350,-0.0029216540897475,10.190018757547808,0.0
2025-03-06 16:02:27.357,-0.0032223412511061,10.88468044178602,0.0
2025-03-06 16:02:27.365,-0.0035042816994379,11.484234842195034,0.0
2025-03-06 16:02:27.373,-0.0037672235506586,11.987335969240824,0.0
2025-03-06 16:02:27.381,-0.0040110635655187,12.393557241798916,0.0
2025-03-06 16:02:27.389,-0.0042358546630732,12.703215521374034,0.0
2025-03-06 16:02:27.396,-0.0044418109932061,12.917190456925844,0.0
2025-03-06 16:02:27.404,-0.004629310396708,13.036749712283877,0.0
2025-03-06 16:02:27.412,-0.004798894118444,13.063390321169782,0.0
2025-03-06 16:02:27.420,-0.0049512634737314,12.998705450158988,0.0
2025-03-06 16:02:27.428,-0.005087272953465,12.84428428170769,0.0
2025-03-06 16:02:27.435,-0.0052079191931925,12.601650643400758,0.0
2025-03-06 16:02:27.443,-0.0053143253614819,12.272243535797992,0.0
2025-03-06 16:02:27.451,-0.0054077207270985,11.857440013703396,0.0
2025-03-06 16:02:27.459,-0.0054894153658191,11.35861814104513,0.0
2025-03-06 16:02:27.467,-0.0055607702013533,10.77725516295122,0.0
2025-03-06 16:02:27.475,-0.0056231629006934,10.115053804949689,0.0
2025-03-06 16:02:27.482,-0.0056779505744453,9.374087872629328,0.0
2025-03-06 16:02:27.490,-0.0057264307202889,8.55695719314191,0.0
2025-03-06 16:02:27.498,-0.0057698022934438,7.666941467314355,0.0
2025-03-06 16:02:27.506,-0.0058091290869546,6.708142791288516,0.0
2025-03-06 16:02:27.514,-0.0058453077038057,5.685607417343476,0.0
2025-03-06 16:02:27.521,-0.0058790422871883,4.605418674357235,0.0
2025-03-06 16:02:27.529,-0.0059108278358374,3.4747547475399228,0.0
2025-03-06 16:02:27.537,-0.0059409433983956,2.3019070887102377,0.0
2025-03-06 16:02:27.545,-0.0059694557986244,1.0962574410297217,0.0
2025-03-06 16:02:27.553,-0.0059962338740457,-0.1317863395264272,0.0
2025-03-06 16:02:27.560,-0.0060209725537395,-1.3708934453083106,0.0
2025-03-06 16:02:27.568,-0.006043225468544,-2.6089482848231103,0.0
2025-03-06 16:02:27.576,-0.0060624441902238,-3.8332182997708655,0.0
2025-03-06 16:02:27.584,-0.0060780216784367,-5.0305451208853045,0.0
2025-03-06 16:02:27.592,-0.0060893371813347,-6.187552250052555,0.0
2025-03-06 16:02:27.600,-0.0060957998037801,-7.290862395705179,0.0
2025-03-06 16:02:27.607,-0.0060968882203076,-8.327317927643925,0.0
2025-03-06 16:02:27.615,-0.0060921844290603,-9.28419858258878,0.0
2025-03-06 16:02:27.623,-0.0060813999177096,-10.14943144600095,0.0
2025-03-06 16:02:27.631,-0.0060643931601512,-10.911789251261292,0.0
2025-03-06 16:02:27.639,-0.0060411779941175,-11.561074067209464,0.0
2025-03-06 16:02:27.646,-0.0060119230672484,-12.088284392307203,0.0
2025-03-06 16:02:27.654,-0.0059769430840046,-12.48576445742975,0.0
2025-03-06 16:02:27.662,-0.0059366829808643,-12.7473350998618,0.0
2025-03-06 16:02:27.670,-0.0058916963831164,-12.86840587518751,0.0
2025-03-06 16:02:27.678,-0.0058426197775148,-12.846068117685952,0.0
2025-03-06 16:02:27.685,-0.0057901438645325,-12.679168468050255,0.0
2025-03-06 16:02:27.693,-0.0057349836424751,-12.368362009045484,0.0
2025-03-06 16:02:27.701,-0.0056778489175375,-11.916143657529322,0.0
2025-03-06 16:02:27.709,-0.0056194169964624,-11.326855948089673,0.0
2025-03-06 16:02:27.717,-0.0055603092138443,-10.606670915049426,0.0
2025-03-06 16:02:27.725,-0.0055010727095511,-9.763543541489268,0.0
2025-03-06 16:02:27.732,-0.0054421685369327,-8.80713428897441,0.0
2025-03-06 16:02:27.740,-0.0053839667054059,-7.748698617288215,0.0
2025-03-06 16:02:27.748,-0.0053267481130056,-6.60094218029255,0.0
2025-03-06 16:02:27.756,-0.0052707125904085,-5.37784152728439,0.0
2025-03-06 16:02:27.764,-0.0052159916209373,-4.094431587108372,0.0
2025-03-06 16:02:27.771,-0.0051626638440081,-2.76656286303176,0.0
2025-03-06 16:02:27.779,-0.0051107712275836,-1.4106329919165637,0.0
2025-03-06 16:02:27.787,-0.005060333808526,-0.0432989835574557,0.0
2025-03-06 16:02:27.795,-0.0050113611403006,1.3188220778527096,0.0
2025-03-06 16:02:27.803,-0.0049638590287882,2.659454936223518,0.0
2025-03-06 16:02:27.810,-0.0049178307457822,3.962960994560374,0.0
2025-03-06 16:02:27.818,-0.0048732726202966,5.2146161366339685,0.0
2025-03-06 16:02:27.826,-0.004830164575825,6.400861855792986,0.0
2025-03-06 16:02:27.834,-0.0047884566541351,7.509520783780995,0.0
2025-03-06 16:02:27.842,-0.0047480528210662,8.529968985903093,0.0
2025-03-06 16:02:27.850,-0.0047087935128693,9.453259105628144,0.0
2025-03-06 16:02:27.857,-0.0046704385817411,10.272190522293354,0.0
2025-03-06 16:02:27.865,-0.0046326525235914,10.981325029347596,0.0
2025-03-06 16:02:27.873,-0.0045949939818948,11.576949028586377,0.0
2025-03-06 16:02:27.881,-0.0045569113953123,12.05698573370915,0.0
2025-03-06 16:02:27.889,-0.0045177462539814,12.420863240864978,0.0
2025-03-06 16:02:27.896,-0.0044767447529721,12.66934641200992,0.0
2025-03-06 16:02:27.904,-0.0044330777272218,12.804342197575796,0.0
2025-03-06 16:02:27.912,-0.0043858677613007,12.828689188481066,0.0
2025-03-06 16:02:27.920,-0.0043342215046378,12.745942754652642,0.0
2025-03-06 16:02:27.928,-0.0042772646943761,12.560167054080624,0.0
2025-03-06 16:02:27.935,-0.0042141773134148,12.275744476142108,0.0
2025-03-06 16:02:27.943,-0.0041442266547864,11.897211747676751,0.0
2025-03-06 16:02:27.951,-0.004066796625199,11.429130054191615,0.0
2025-03-06 16:02:27.959,-0.0039814121508465,10.875994226881348,0.0
2025-03-06 16:02:27.967,-0.003887757919112,10.24218346715823,0.0
2025-03-06 16:02:27.975,-0.0037856909517474,9.531953392560531,0.0
2025-03-06 16:02:27.982,-0.0036752467688462,8.749466567508996,0.0
2025-03-06 16:02:27.990,-0.0035566391937828,7.898856303357609,0.0
2025-03-06 16:02:27.998,-0.0034302541169773,6.984316535963451,0.0
2025-03-06 16:02:28.006,-0.0032966377478664,6.010209151243751,0.0
2025-03-06 16:02:28.014,-0.0031564800357992,4.98117932436534,0.0
2025-03-06 16:02:28.021,-0.003010594029819,3.902269307272349,0.0
2025-03-06 16:02:28.029,-0.0028598920066081,2.779021625595377,0.0
2025-03-06 16:02:28.037,-0.0027053593007955,1.6175637601112465,0.0
2025-03-06 16:02:28.045,-0.0025480269575631,0.4246679772868572,0.0
2025-03-06 16:02:28.053,-0.0023889445122975,-0.7922181053368579,0.0
2025-03-06 16:02:28.060,-0.0022291542332005,-2.02497254017458,0.0
2025-03-06 16:02:28.068,-0.0020696679620094,-3.2648318757014554,0.0
2025-03-06 16:02:28.076,-0.001911447334992,-4.50245404586178,0.0
2025-03-06 16:02:28.084,-0.0017553878152784,-5.72800789433081,0.0
2025-03-06 16:02:28.092,-0.0016023067015048,-6.931284594847455,0.0
2025-03-06 16:02:28.100,-0.001452935062793,-8.101825361270084,0.0
2025-03-06 16:02:28.107,-0.0013079133173938,-9.229059445022322,0.0
2025-03-06 16:02:28.115,-0.0011677899228796,-10.302446488634008,0.0
2025-03-06 16:02:28.123,-0.0010330224506004,-11.31161780755211,0.0
2025-03-06 16:02:28.131,-0.0009039802181168,-12.246512042930616,0.0
2025-03-06 16:02:28.139,-0.0007809476081405,-13.09750177037527,0.0
2025-03-06 16:02:28.146,-0.0006641271668374,-13.855508946234597,0.0
2025-03-06 16:02:28.154,-0.0005536416110699,-14.512108397034686,0.0
2025-03-06 16:02:28.162,-0.0004495340918914,-15.059619783912888,0.0
2025-03-06 16:02:28.170,-0.0003517664442209,-15.491189487873433,0.0
2025-03-06 16:02:28.178,-0.0002602155596872,-15.800864567122574,0.0
2025-03-06 16:02:28.185,-0.0001746683582922,-15.983661264854552,0.0
2025-03-06 16:02:28.193,-9.481612193308446e-05,-16.03563046027132,0.0
2025-03-06 16:02:28.201,-2.0249208100468575e-05,-15.953921965267226,0.0
2025-03-06 16:02:28.209,4.954667500686314e-05,-15.73684872506532,0.0
2025-03-06 16:02:28.217,0.0001151914637506,-15.383950871717024,0.0
2025-03-06 16:02:28.225,0.0001774080326252,-14.896058322960926,0.0
2025-03-06 16:02:28.232,0.0002370151181493,-14.275349354168116,0.0
2025-03-06 16:02:28.240,0.0002949155377065,-13.52540144534876,0.0
2025-03-06 16:02:28.248,0.0003520796911264,-12.65122985888696,0.0
2025-03-06 16:02:28.256,0.0004095246351792,-11.659308951974806,0.0
2025-03-06 16:02:28.264,0.0004682892967803,-10.55757124394983,0.0
2025-03-06 16:02:28.271,0.0005294066335743,-9.355379765026605,0.0
2025-03-06 16:02:28.279,0.0005938737546959,-8.06347017917577,0.0
2025-03-06 16:02:28.287,0.00066262117394,-6.693860522498255,0.0
2025-03-06 16:02:28.295,0.000736482476527,-5.259728013857973,0.0
2025-03-06 16:02:28.303,0.000816165733618,-3.775254139262903,0.0
2025-03-06 16:02:28.310,0.0009022279907153,-2.255440944823516,0.0
2025-03-06 16:02:28.318,0.0009950540827609,-0.715903065725384,0.0
2025-03-06 16:02:28.326,0.0010948408868051,0.8273586404981592,0.0
2025-03-06 16:02:28.334,0.0012015879104771,2.358194988848526,0.0
2025-03-06 16:02:28.342,0.0013150948306498,3.860550430412665,0.0
2025-03-06 16:02:28.350,0.0014349662429931,5.318701478502411,0.0
2025-03-06 16:02:28.357,0.001560623468407,6.717484297230975,0.0
2025-03-06 16:02:28.365,0.0016913228244499,8.042504885963034,0.0
2025-03-06 16:02:28.373,0.0018261793906326,9.280326399092262,0.0
2025-03-06 16:02:28.381,0.0019641950558603,10.418629537445511,0.0
2025-03-06 16:02:28.389,0.0021042895346727,11.446343533204324,0.0
2025-03-06 16:02:28.396,0.0022453330025306,12.353746909139875,0.0
2025-03-06 16:02:28.404,0.0023861789810844,13.132538803860012,0.0
2025-03-06 16:02:28.412,0.0025256961406921,13.775883099110043,0.0
2025-03-06 16:02:28.420,0.0026627978441862,14.27842875790614,0.0
2025-03-06 16:02:28.428,0.0027964685248499,14.636310602362924,0.0
2025-03-06 16:02:28.435,0.0029257862865754,14.847135176729465,0.0
2025-03-06 16:02:28.443,0.0030499413493868,14.90995633504352,0.0
2025-03-06 16:02:28.451,0.0031682501049201,14.825244774855044,0.0
2025-03-06 16:02:28.459,0.0032801646184682,14.594854948163396,0.0
2025-03-06 16:02:28.467,0.0033852774930723,14.221991684174196,0.0
2025-03-06 16:02:28.475,0.0034833221735653,13.71117754633947,0.0
2025-03-06 16:02:28.482,0.003574169013208,13.068220530539836,0.0
2025-03-06 16:02:28.490,0.0036578176732963,12.300180319388666,0.0
2025-03-06 16:02:28.498,0.0037343865975007,11.415330072010024,0.0
2025-03-06 16:02:28.506,0.0038041003641268,10.423109777163427,0.0
2025-03-06 16:02:28.514,0.0038672756681938,9.334066643286056,0.0
2025-03-06 16:02:28.521,0.0039243065331424,8.15977792688584,0.0
2025-03-06 16:02:28.529,0.0039756491412917,6.912752053037694,0.0
2025-03-06 16:02:28.537,0.0040218064896894,5.606304848257715,0.0
2025-03-06 16:02:28.545,0.004063313008857,4.254409123579855,0.0
2025-03-06 16:02:28.553,0.0041007193311008,2.871517606578719,0.0
2025-03-06 16:02:28.560,0.0041345774871267,1.4723611870299125,0.0
2025-03-06 16:02:28.568,0.004165426866944,0.0717264582088875,0.0
2025-03-06 16:02:28.576,0.0041937812693818,-1.3157815509288364,0.0
2025-03-06 16:02:28.584,0.0042201172787415,-2.675983894763254,0.0
2025-03-06 16:02:28.592,0.0042448640549394,-3.995370639265124,0.0
2025-03-06 16:02:28.600,0.00426839444156,-5.261332553604252,0.0
2025-03-06 16:02:28.607,0.0042910171647084,-6.462371666235812,0.0
2025-03-06 16:02:28.615,0.0043129698921586,-7.588281124509879,0.0
2025-03-06 16:02:28.623,0.004334413044282,-8.63028573363205,0.0
2025-03-06 16:02:28.631,0.0043554244178408,-9.58113605969767,0.0
2025-03-06 16:02:28.639,0.004375994847855,-10.43515100017128,0.0
2025-03-06 16:02:28.646,0.0043960253186562,-11.188206157038335,0.0
2025-03-06 16:02:28.654,0.004415326168981,-11.83766806486043,0.0
2025-03-06 16:02:28.662,0.0044336192286579,-12.382277174011133,0.0
2025-03-06 16:02:28.670,0.0044505437133198,-12.821985298130324,0.0
2025-03-06 16:02:28.678,0.0044656664140066,-13.1577558301286,0.0
2025-03-06 16:02:28.686,0.0044784962314632,-13.391337246295832,0.0
2025-03-06 16:02:28.693,0.0044885025788295,-13.52502210377521,0.0
2025-03-06 16:02:28.701,0.0044951367393283,-13.561404769902126,0.0
2025-03-06 16:02:28.709,0.0044978549674538,-13.503151415736143,0.0
2025-03-06 16:02:28.717,0.0044961419708115,-13.352795318105816,0.0
2025-03-06 16:02:28.725,0.0044895334081583,-13.112569253027424,0.0
2025-03-06 16:02:28.732,0.0044776361533715,-12.784284789801534,0.0
2025-03-06 16:02:28.740,0.0044601452247971,-12.369265719760207,0.0
2025-03-06 16:02:28.748,0.004436856416339,-11.868339827256277,0.0
2025-03-06 16:02:28.756,0.0044076738297898,-11.28188991423864,0.0
2025-03-06 16:02:28.764,0.0043726117683186,-10.609961624232396,0.0
2025-03-06 16:02:28.771,0.0043317908336754,-9.85242238372011,0.0
2025-03-06 16:02:28.779,0.0042854285575289,-9.009162888469596,0.0
2025-03-06 16:02:28.787,0.004233825442493,-8.08033018795961,0.0
2025-03-06 16:02:28.795,0.0041773477652717,-7.066579705477486,0.0
2025-03-06 16:02:28.803,0.004116408731228,-5.969332566272426,0.0
2025-03-06 16:02:28.811,0.0040514494892689,-4.7910244218505404,0.0
2025-03-06 16:02:28.818,0.0039829211972705,-3.535332525495458,0.0
2025-03-06 16:02:28.826,0.0039112689284362,-2.207369053575817,0.0
2025-03-06 16:02:28.834,0.0038369178551055,-0.8138304652479751,0.0
2025-03-06 16:02:28.842,0.0037602618879161,0.6369050881813378,0.0
2025-03-06 16:02:28.850,0.0036816547921811,2.134737807923983,0.0
2025-03-06 16:02:28.857,0.0036014037525674,3.6678666589409135,0.0
2025-03-06 16:02:28.865,0.0035197653775813,5.222870513970955,0.0
2025-03-06 16:02:28.873,0.0034369441414792,6.784848022258473,0.0
2025-03-06 16:02:28.881,0.0033530931731924,8.337612089082299,0.0
2025-03-06 16:02:28.889,0.0032683170916571,9.863933082881257,0.0
2025-03-06 16:02:28.896,0.0031826762903394,11.345823497969953,0.0
2025-03-06 16:02:28.904,0.0030961918050856,12.764855813938498,0.0
2025-03-06 16:02:28.912,0.0030088498150947,14.102504703846792,0.0
2025-03-06 16:02:28.920,0.0029206050011739,15.340504521498335,0.0
2025-03-06 16:02:28.928,0.0028313823328267,16.461213090270668,0.0
2025-03-06 16:02:28.936,0.0027410772142938,17.447973154849517,0.0
2025-03-06 16:02:28.943,0.0026495541971464,18.28546336901,0.0
2025-03-06 16:02:28.951,0.0025566446871315,18.96003130382961,0.0
2025-03-06 16:02:28.959,0.0024621442938776,19.46000160486302,0.0
2025-03-06 16:02:28.967,0.0023658106820493,19.77595305055036,0.0
2025-03-06 16:02:28.975,0.0022673628949557,19.90095883264061,0.0
2025-03-06 16:02:28.982,0.002166483053399,19.83078488049568,0.0
2025-03-06 16:02:28.990,0.0020628210557573,19.564041497229447,0.0
2025-03-06 16:02:28.998,0.0019560024590448,19.10228400145897,0.0
2025-03-06 16:02:29.006,0.0018456392259271,18.45005852438137,0.0
2025-03-06 16:02:29.014,0.0017313426453295,17.614889656222562,0.0
2025-03-06 16:02:29.021,0.0016127375664485,16.607207328668217,0.0
2025-03-06 16:02:29.029,0.001489477088697,15.440211215713925,0.0
2025-03-06 16:02:29.037,0.0013612569463375,14.129672076093902,0.0
2025-03-06 16:02:29.045,0.0012278289792273,12.693670864934203,0.0
2025-03-06 16:02:29.053,0.0010890132464084,11.15227810090488,0.0
2025-03-06 16:02:29.061,0.0009447084360441,9.527177849286264,0.0
2025-03-06 16:02:29.068,0.0007949002078122,7.841242704251601,0.0
2025-03-06 16:02:29.076,0.0006396670175185,6.118068230670149,0.0
2025-03-06 16:02:29.084,0.0004791828990398,4.381477339059066,0.0
2025-03-06 16:02:29.092,0.0003137166587417,2.655006888974142,0.0
2025-03-06 16:02:29.100,0.0001436270081371,0.961390324057395,0.0
2025-03-06 16:02:29.107,-3.064660281046938e-05,-0.6779487684310999,0.0
2025-03-06 16:02:29.115,-0.0002085972498552,-2.243376691594964,0.0
2025-03-06 16:02:29.123,-0.0003896671466249,-3.717487754774481,0.0
2025-03-06 16:02:29.131,-0.0005732663687059,-5.085485526538566,0.0
2025-03-06 16:02:29.139,-0.0007587921525997,-6.335493456776683,0.0
2025-03-06 16:02:29.146,-0.0009456471655695,-7.458782872780955,0.0
2025-03-06 16:02:29.154,-0.0011332553177946,-8.449908680725008,0.0
2025-03-06 16:02:29.162,-0.0013210740951674,-9.306745916319567,0.0
2025-03-06 16:02:29.170,-0.0015086029785214,-10.03042349850407,0.0
2025-03-06 16:02:29.178,-0.0016953881508089,-10.62515503983939,0.0
2025-03-06 16:02:29.186,-0.0018810241744991,-11.09797022789159,0.0
2025-03-06 16:02:29.193,-0.00206515348268,-11.458353968103852,0.0
2025-03-06 16:02:29.201,-0.0022474643673942,-11.717804020310446,0.0
2025-03-06 16:02:29.209,-0.0024276878288865,-11.889321124692248,0.0
2025-03-06 16:02:29.217,-0.0026055933694028,-11.986848467574694,0.0
2025-03-06 16:02:29.225,-0.0027809837033794,-12.024679665228533,0.0
2025-03-06 16:02:29.232,-0.0029536884536066,-12.01685614129047,0.0
2025-03-06 16:02:29.240,-0.0031235571789764,-11.976575755227168,0.0
2025-03-06 16:02:29.248,-0.0032904524148801,-11.915634742130248,0.0
2025-03-06 16:02:29.256,-0.0034542436111714,-11.843924409150665,0.0
2025-03-06 16:02:29.264,-0.003614802770931,-11.769002588808933,0.0
2025-03-06 16:02:29.271,-0.0037720022333088,-11.695757591952486,0.0
2025-03-06 16:02:29.279,-0.0039257145736547,-11.626179384045592,0.0
2025-03-06 16:02:29.287,-0.0040758142185076,-11.559249012684012,0.0
2025-03-06 16:02:29.295,-0.0042221802228584,-11.490953059054064,0.0
2025-03-06 16:02:29.303,-0.0043646997688695,-11.414425218209503,0.0
2025-03-06 16:02:29.311,-0.004503272253987,-11.320212206033595,0.0
2025-03-06 16:02:29.318,-0.0046378141515444,-11.19665624136457,0.0
2025-03-06 16:02:29.326,-0.0047682649148749,-11.030381572088649,0.0
2025-03-06 16:02:29.334,-0.004894593982141,-10.806868119656112,0.0
2025-03-06 16:02:29.342,-0.0050168085809011,-10.511091515510232,0.0
2025-03-06 16:02:29.350,-0.0051349617402029,-10.128205786599535,0.0
2025-03-06 16:02:29.357,-0.0052491597737507,-9.644242878148225,0.0
2025-03-06 16:02:29.365,-0.0053595684729277,-9.046802198561949,0.0
2025-03-06 16:02:29.373,-0.0054664173164981,-8.325703494472636,0.0
2025-03-06 16:02:29.381,-0.0055700011345825,-7.47357761199081,0.0
2025-03-06 16:02:29.389,-0.0056706787826838,-6.486372011986142,0.0
2025-03-06 16:02:29.396,-0.0057688684392489,-5.363751165594245,0.0
2025-03-06 16:02:29.404,-0.0058650391885337,-4.109375993857787,0.0
2025-03-06 16:02:29.412,-0.0059596986675144,-2.731051126359862,0.0
2025-03-06 16:02:29.420,-0.0060533767681567,-1.24073371074087,0.0
2025-03-06 16:02:29.428,-0.0061466056904324,0.3455974212016889,0.0
2025-03-06 16:02:29.436,-0.0062398970019927,2.0082084521637995,0.0
2025-03-06 16:02:29.443,-0.0063337166910689,3.7240046901899655,0.0
2025-03-06 16:02:29.451,-0.0064284594407427,5.467039436878568,0.0
2025-03-06 16:02:29.459,-0.0065244235396026,7.2091213649664,0.0
2025-03-06 16:02:29.467,-0.0066217880059173,8.92050126694829,0.0
2025-03-06 16:02:29.475,-0.0067205935567768,10.570616895896706,0.0
2025-03-06 16:02:29.482,-0.0068207288825525,12.128873237541036,0.0
2025-03-06 16:02:29.490,-0.0069219232932087,13.565434910861546,0.0
2025-03-06 16:02:29.498,-0.0070237463149996,14.85200745668174,0.0
2025-03-06 16:02:29.506,-0.0071256143546879,15.962584990170663,0.0
2025-03-06 16:02:29.514,-0.0072268041579442,16.874143004932037,0.0
2025-03-06 16:02:29.521,-0.007326472478326,17.567256959803466,0.0
2025-03-06 16:02:29.529,-0.0074236811229195,18.026629587758656,0.0
2025-03-06 16:02:29.537,-0.0075174262801303,18.24151256859928,0.0
2025-03-06 16:02:29.545,-0.0076066707276507,18.206011228232423,0.0
2025-03-06 16:02:29.553,-0.0076903772542447,17.919264189307622,0.0
2025-03-06 16:02:29.561,-0.0077675415617841,17.38549332310173,0.0
2025-03-06 16:02:29.568,-0.0078372231168025,16.61392286524266,0.0
2025-03-06 16:02:29.576,-0.0078985728127316,15.618570084658764,0.0
2025-03-06 16:02:29.584,-0.0079508566961554,14.417913362245656,0.0
2025-03-06 16:02:29.592,-0.0079934752423383,13.034446864876168,0.0
2025-03-06 16:02:29.600,-0.0080259777287993,11.494134104981272,0.0
2025-03-06 16:02:29.607,-0.0080480712737437,9.825775461580433,0.0
2025-03-06 16:02:29.615,-0.0080596241935367,8.060307109414488,0.0
2025-03-06 16:02:29.623,-0.008060663527742,6.230050670774246,0.0
2025-03-06 16:02:29.631,-0.0080513668831845,4.367934197895601,0.0
2025-03-06 16:02:29.639,-0.0080320491253688,2.506705762808047,0.0
2025-03-06 16:02:29.646,-0.008003144783627,0.6781609544503766,0.0
2025-03-06 16:02:29.654,-0.0079651872132121,-1.0875950309564018,0.0
2025-03-06 16:02:29.662,-0.0079187855745788,-2.762831232326438,0.0
2025-03-06 16:02:29.670,-0.0078646006667492,-4.322802974727187,0.0
2025-03-06 16:02:29.678,-0.0078033206650384,-5.746276619259221,0.0
2025-03-06 16:02:29.686,-0.007735637798559,-7.015954103124395,0.0
2025-03-06 16:02:29.693,-0.0076622268518721,-8.118787268224576,0.0
2025-03-06 16:02:29.701,-0.0075837260968342,-9.0461751047048,0.0
2025-03-06 16:02:29.709,-0.0075007209805783,-9.79404029530121,0.0
2025-03-06 16:02:29.717,-0.007413730700686,-10.362784746272748,0.0
2025-03-06 16:02:29.725,-0.0073231976591226,-10.75712704368271,0.0
2025-03-06 16:02:29.732,-0.0072294796643137,-10.985827897464915,0.0
2025-03-06 16:02:29.740,-0.0071328446923425,-11.061312551419034,0.0
2025-03-06 16:02:29.748,-0.0070334680617831,-10.999201770142095,0.0
2025-03-06 16:02:29.756,-0.006931431943312,-10.817765296271205,0.0
2025-03-06 16:02:29.764,-0.0068267270973547,-10.537313547789152,0.0
2025-03-06 16:02:29.771,-0.0067192566092712,-10.179544754686038,0.0
2025-03-06 16:02:29.779,-0.0066088412869213,-9.766865689897855,0.0
2025-03-06 16:02:29.787,-0.0064952263765931,-9.321704616644627,0.0
2025-03-06 16:02:29.795,-0.0063780893006208,-8.86583505205128,0.0
2025-03-06 16:02:29.803,-0.0062570481765843,-8.419728448750561,0.0
2025-03-06 16:02:29.811,-0.0061316709825276,-8.001952948035115,0.0
2025-03-06 16:02:29.818,-0.0060014854169314,-7.6286339947396895,0.0
2025-03-06 16:02:29.826,-0.0058659896824867,-7.312990867533174,0.0
2025-03-06 16:02:29.834,-0.0057246644728245,-7.064961120556527,0.0
2025-03-06 16:02:29.842,-0.005576986326251,-6.890922615522305,0.0
2025-03-06 16:02:29.850,-0.0054224422825263,-6.793520313522532,0.0
2025-03-06 16:02:29.857,-0.0052605455056574,-6.771602352939587,0.0
2025-03-06 16:02:29.865,-0.0050908513037729,-6.820267214648936,0.0
2025-03-06 16:02:29.873,-0.0049129728769446,-6.931021015371766,0.0
2025-03-06 16:02:29.881,-0.0047265961609,-7.092041225955829,0.0
2025-03-06 16:02:29.889,-0.0045314932293137,-7.288540438918651,0.0
2025-03-06 16:02:29.896,-0.004327533799372,-7.503221261120834,0.0
2025-03-06 16:02:29.904,-0.0041146944228335,-7.716811027504313,0.0
2025-03-06 16:02:29.912,-0.0038930649299594,-7.90866285987656,0.0
2025-03-06 16:02:29.920,-0.003662851637196,-8.057407670432378,0.0
2025-03-06 16:02:29.928,-0.003424376744202,-8.141640075591045,0.0
2025-03-06 16:02:29.936,-0.0031780732728779,-8.14061988769354,0.0
2025-03-06 16:02:29.943,-0.0029244749565743,-8.034969940018165,0.0
2025-03-06 16:02:29.951,-0.0026642007935195,-7.807350528193464,0.0
2025-03-06 16:02:29.959,-0.0023979345233872,-7.443090773843803,0.0
2025-03-06 16:02:29.967,-0.0021263999039117,-6.930757785527326,0.0
2025-03-06 16:02:29.975,-0.0018503331540156,-6.262645645957699,0.0
2025-03-06 16:02:29.982,-0.0015704541687632,-5.435168009495256,0.0
2025-03-06 16:02:29.990,-0.001287438093352,-4.449140438342017,0.0
2025-03-06 16:02:29.998,-0.0010018886727777,-3.3099414956551283,0.0
2025-03-06 16:02:30.006,-0.0007143146281348,-2.0275449697622805,0.0
2025-03-06 16:02:30.014,-0.0004251102304595,-0.6164193153556602,0.0
2025-03-06 16:02:30.021,-0.0001345411744204,0.904705666487344,0.0
2025-03-06 16:02:30.029,0.000157263348442,2.5132008682465266,0.0
2025-03-06 16:02:30.037,0.0004503118798224,4.1830206340658656,0.0
2025-03-06 16:02:30.045,0.0007447452528821,5.885294470894377,0.0
2025-03-06 16:02:30.053,0.0010408249843654,7.589012511504065,0.0
2025-03-06 16:02:30.061,0.0013389163522484,9.261786534064308,0.0
2025-03-06 16:02:30.068,0.0016394672501576,10.870665881541086,0.0
2025-03-06 16:02:30.076,0.0019429840807642,12.382985758395096,0.0
2025-03-06 16:02:30.084,0.002250006006343,13.767224149365209,0.0
2025-03-06 16:02:30.092,0.002561078778102,14.99384302465702,0.0
2025-03-06 16:02:30.100,0.0028767291966147,16.03608957507693,0.0
2025-03-06 16:02:30.107,0.0031974411327788,16.87073396035139,0.0
2025-03-06 16:02:30.115,0.0035236339655034,17.47872145111786,0.0
2025-03-06 16:02:30.123,0.003855644156377,17.845718892700052,0.0
2025-03-06 16:02:30.131,0.0041937104147901,17.962538100839648,0.0
2025-03-06 16:02:30.139,0.0045379625903819,17.82542208417652,0.0
2025-03-06 16:02:30.146,0.0048884142152207,17.43618381976198,0.0
2025-03-06 16:02:30.154,0.0052449585780784,16.8021915999703,0.0
2025-03-06 16:02:30.162,0.0056073682730463,15.93619960170498,0.0
2025-03-06 16:02:30.170,0.0059752981707814,14.856027150307282,0.0
2025-03-06 16:02:30.178,0.0063482916308476,13.584094986924624,0.0
2025-03-06 16:02:30.186,0.0067257895814943,12.146831514915773,0.0
2025-03-06 16:02:30.193,0.0071071419847107,10.57396631587843,0.0
2025-03-06 16:02:30.201,0.0074916212473061,8.897732018564518,0.0
2025-03-06 16:02:30.209,0.0078784372558536,7.15199872265961,0.0
2025-03-06 16:02:30.217,0.0082667537498142,5.371367496565426,0.0
2025-03-06 16:02:30.225,0.0086557056217566,3.5902508847125114,0.0
2025-03-06 16:02:30.232,0.0090444165222872,1.841968810316448,0.0
2025-03-06 16:02:30.240,0.0094320160053319,0.1578877193404823,0.0
2025-03-06 16:02:30.248,0.0098176554818097,-1.4333706997359914,0.0
2025-03-06 16:02:30.256,0.0102005224535961,-2.9066273071981046,0.0
2025-03-06 16:02:30.264,0.0105798527642627,-4.240729137714345,0.0
2025-03-06 16:02:30.271,0.0109549407677667,-5.4190021108888375,0.0
2025-03-06 16:02:30.279,0.0113251473001972,-6.429560546512896,0.0
2025-03-06 16:02:30.287,0.011689905219964,-7.265466046241311,0.0
2025-03-06 16:02:30.295,0.0120487222152716,-7.924733336559573,0.0
2025-03-06 16:02:30.303,0.012401180671319,-8.41018570688856,0.0
2025-03-06 16:02:30.311,0.0127469346424897,-8.729167540617034,0.0
2025-03-06 16:02:30.318,0.0130857042780035,-8.893125956127172,0.0
2025-03-06 16:02:30.326,0.0134172682441272,-8.917077596392856,0.0
2025-03-06 16:02:30.334,0.0137414546924493,-8.818979997540302,0.0
2025-03-06 16:02:30.342,0.0140581312197728,-8.619029623028794,0.0
2025-03-06 16:02:30.350,0.0143671942025281,-8.338910496866736,0.0
2025-03-06 16:02:30.357,0.0146685579418451,-8.001018370316997,0.0
2025-03-06 16:02:30.365,0.0149621441547024,-7.627685516201373,0.0
2025-03-06 16:02:30.373,0.0152478723446936,-7.24043060287274,0.0
2025-03-06 16:02:30.381,0.0155256514090216,-6.859256718522511,0.0
2025-03-06 16:02:30.389,0.0157953725691712,-6.502018569245893,0.0
2025-03-06 16:02:30.396,0.016056903512495,-6.1838772429139945,0.0
2025-03-06 16:02:30.404,0.0163100836106054,-5.916857807716275,0.0
2025-03-06 16:02:30.412,0.0165547202386636,-5.709521502462128,0.0
2025-03-06 16:02:30.420,0.0167905864488579,-5.566760486318498,0.0
2025-03-06 16:02:30.428,0.0170174203917054,-5.489719164570252,0.0
2025-03-06 16:02:30.436,0.0172349268487766,-5.475842113734477,0.0
2025-03-06 16:02:30.443,0.0174427811097857,-5.519044713421796,0.0
2025-03-06 16:02:30.451,0.0176406353120748,-5.609998866995436,0.0
2025-03-06 16:02:30.459,0.0178281272641958,-5.736522760603237,0.0
2025-03-06 16:02:30.467,0.0180048915868907,-5.884060560842743,0.0
2025-03-06 16:02:30.475,0.0181705726601603,-6.03623536485329,0.0
2025-03-06 16:02:30.482,0.0183248384513029,-6.175456662895372,0.0
2025-03-06 16:02:30.490,0.0184673939809767,-6.283562111359316,0.0
2025-03-06 16:02:30.498,0.0185979930760995,-6.342472589415702,0.0
2025-03-06 16:02:30.506,0.018716447169099,-6.334839356336679,0.0
2025-03-06 16:02:30.514,0.0188226301589544,-6.244662654160287,0.0
2025-03-06 16:02:30.521,0.0189164786610039,-6.057862308505268,0.0
2025-03-06 16:02:30.529,0.0189979872965595,-5.762782742076132,0.0
2025-03-06 16:02:30.537,0.0190671989988535,-5.350617275321435,0.0
2025-03-06 16:02:30.545,0.0191241906275436,-4.815739561471752,0.0
2025-03-06 16:02:30.553,0.0191690545057609,-4.155933375991037,0.0
2025-03-06 16:02:30.561,0.019201876852635,-3.372515616896154,0.0
2025-03-06 16:02:30.568,0.0192227144342686,-2.4703511169673984,0.0
2025-03-06 16:02:30.576,0.0192315709647051,-1.4577615556017716,0.0
2025-03-06 16:02:30.584,0.01922837477579,-0.3463342239841149,0.0
2025-03-06 16:02:30.592,0.0192129591082249,0.8493605035614649,0.0
2025-03-06 16:02:30.600,0.0191850461760247,2.11213152599977,0.0
2025-03-06 16:02:30.607,0.0191442359578841,3.4225956941110782,0.0
2025-03-06 16:02:30.615,0.0190900004304551,4.759657892370128,0.0
2025-03-06 16:02:30.623,0.0190216836559895,6.101026836149368,0.0
2025-03-06 16:02:30.631,0.0189385077748894,7.423750752360956,0.0
2025-03-06 16:02:30.639,0.0188395845393056,8.70475754204648,0.0
2025-03-06 16:02:30.646,0.0187239315983348,9.921384950398838,0.0
2025-03-06 16:02:30.654,0.0185904923991295,11.051887598563384,0.0
2025-03-06 16:02:30.662,0.0184381583841897,12.07590936000836,0.0
2025-03-06 16:02:30.670,0.0182657921778542,12.97491138765349,0.0
2025-03-06 16:02:30.678,0.0180722506604044,13.732548010771058,0.0
2025-03-06 16:02:30.686,0.0178564071782163,14.334984619949449,0.0
2025-03-06 16:02:30.693,0.0176171725108078,14.771153452943697,0.0
2025-03-06 16:02:30.701,0.0173535144455364,15.032944815080556,0.0
2025-03-06 16:02:30.709,0.0170644758149275,15.11533267411749,0.0
2025-03-06 16:02:30.717,0.0167491907069953,15.016434749321704,0.0
2025-03-06 16:02:30.725,0.0164068984240757,14.737508183522372,0.0
2025-03-06 16:02:30.732,0.0160369547567289,14.282882682618068,0.0
2025-03-06 16:02:30.740,0.0156388402929,13.65983368230926,0.0
2025-03-06 16:02:30.748,0.015212165765307,12.878398718020062,0.0
2025-03-06 16:02:30.756,0.0147566747387305,11.951140793719928,0.0
2025-03-06 16:02:30.764,0.0142722440970478,10.892863223043484,0.0
2025-03-06 16:02:30.771,0.0137588827317238,9.720281187452107,0.0
2025-03-06 16:02:30.779,0.0132167286419485,8.45165613071925,0.0
2025-03-06 16:02:30.787,0.0126460444947598,7.106400068013446,0.0
2025-03-06 16:02:30.795,0.0120472116746265,5.704657887474855,0.0
2025-03-06 16:02:30.803,0.011420722981451,4.266876699566674,0.0
2025-03-06 16:02:30.811,0.010767174310892,2.8133721691993285,0.0
2025-03-06 16:02:30.818,0.0100872557177318,1.363902466261633,0.0
2025-03-06 16:02:30.826,0.0093817421468148,-0.0627390886956174,0.0
2025-03-06 16:02:30.834,0.0086514838985806,-1.449101498312413,0.0
2025-03-06 16:02:30.842,0.0078973967373541,-2.779412780197065,0.0
2025-03-06 16:02:30.850,0.0071204515587909,-4.039865691366506,0.0
2025-03-06 16:02:30.857,0.0063216637071941,-5.218843464860499,0.0
2025-03-06 16:02:30.865,0.0055020822632956,-6.307078139837898,0.0
2025-03-06 16:02:30.873,0.0046627797464355,-7.297736067122767,0.0
2025-03-06 16:02:30.881,0.0038048426078954,-8.186427509433791,0.0
2025-03-06 16:02:30.889,0.0029293627015464,-8.97113984748096,0.0
2025-03-06 16:02:30.896,0.0020374297229624,-9.652096652341738,0.0
2025-03-06 16:02:30.904,0.0011301244461809,-10.23154768042859,0.0
2025-03-06 16:02:30.912,0.0002085124504849,-10.71349756947306,0.0
2025-03-06 16:02:30.920,-0.0007263620115981,-11.103383539241657,0.0
2025-03-06 16:02:30.928,-0.001673482190826,-11.407714610862977,0.0
2025-03-06 16:02:30.936,-0.0026318648992985,-11.63368664242542,0.0
2025-03-06 16:02:30.943,-0.0036005659029481,-11.788788731546289,0.0
2025-03-06 16:02:30.951,-0.0045786838134795,-11.880417164854254,0.0
2025-03-06 16:02:30.959,-0.0055653615124394,-11.91551302860632,0.0
2025-03-06 16:02:30.967,-0.0065597841911854,-11.900238796126462,0.0
2025-03-06 16:02:30.975,-0.0075611733095806,-11.839707679004327,0.0
2025-03-06 16:02:30.982,-0.0085687760943662,-11.73777731586412,0.0
2025-03-06 16:02:30.990,-0.0095818505492048,-11.596916563695927,0.0
2025-03-06 16:02:30.998,-0.0105996463089288,-11.41815087921889,0.0
2025-03-06 16:02:31.006,-0.0116213820444968,-11.201088187743183,0.0
2025-03-06 16:02:31.014,-0.0126462205165745,-10.94402340948853,0.0
2025-03-06 16:02:31.022,-0.0136732427560663,-10.644116133326794,0.0
2025-03-06 16:02:31.029,-0.014701423121751,-10.297632483332087,0.0
2025-03-06 16:02:31.037,-0.0157296070122518,-9.900239196689952,0.0
2025-03-06 16:02:31.045,-0.0167564927404848,-9.44733548818791,0.0
2025-03-06 16:02:31.053,-0.0177806186240118,-8.934406553685177,0.0
2025-03-06 16:02:31.061,-0.0188003558975671,-8.357381660499716,0.0
2025-03-06 16:02:31.068,-0.0198139077595547,-7.712979738195294,0.0
2025-03-06 16:02:31.076,-0.0208193147604598,-6.999026220397419,0.0
2025-03-06 16:02:31.084,-0.0218144667520778,-6.21472654699769,0.0
2025-03-06 16:02:31.092,-0.0227971215827226,-5.36088411494697,0.0
2025-03-06 16:02:31.100,-0.0237649304942723,-4.440053416392808,0.0
2025-03-06 16:02:31.107,-0.0247154697179523,-3.4566224416509943,0.0
2025-03-06 16:02:31.115,-0.0256462771989836,-2.416821948884708,0.0
2025-03-06 16:02:31.123,-0.0265548929091464,-1.3286627061329763,0.0
2025-03-06 16:02:31.131,-0.0274389009635548,-0.2018050983212138,0.0
2025-03-06 16:02:31.139,-0.0282959717197999,0.9526316107374972,0.0
2025-03-06 16:02:31.147,-0.0291239021002439,2.122310703122987,0.0
2025-03-06 16:02:31.154,-0.0299206524798443,3.293958721830229,0.0
2025-03-06 16:02:31.162,-0.030684378631914,4.453673029366184,0.0
2025-03-06 16:02:31.170,-0.0314134574599698,5.587243414664154,0.0
2025-03-06 16:02:31.178,-0.0321065055750593,6.6804752751871845,0.0
2025-03-06 16:02:31.186,-0.0327623901433597,7.719502822971806,0.0
2025-03-06 16:02:31.193,-0.0333802317248778,8.691082181017007,0.0
2025-03-06 16:02:31.201,-0.0339593990213871,9.582856024184588,0.0
2025-03-06 16:02:31.209,-0.0344994956442042,10.383583442253588,0.0
2025-03-06 16:02:31.217,-0.0350003392950132,11.083330827838871,0.0
2025-03-06 16:02:31.225,-0.0354619340997006,11.67362168867081,0.0
2025-03-06 16:02:31.232,-0.0358844371479502,12.147545231039338,0.0
2025-03-06 16:02:31.240,-0.0362681205161287,12.499825255065678,0.0
2025-03-06 16:02:31.248,-0.0366133302064201,12.72685226454082,0.0
2025-03-06 16:02:31.256,-0.0369204435685826,12.826682674243909,0.0
2025-03-06 16:02:31.264,-0.037189826902432,12.79900957300032,0.0
2025-03-06 16:02:31.272,-0.0374217950185425,12.645109676819068,0.0
2025-03-06 16:02:31.279,-0.0376165744687815,12.367770920629775,0.0
2025-03-06 16:02:31.287,-0.0377742719282683,11.971204657633905,0.0
2025-03-06 16:02:31.295,-0.0378948489203253,11.460945753291508,0.0
2025-03-06 16:02:31.303,-0.0379781038312091,10.843743080041786,0.0
2025-03-06 16:02:31.311,-0.0380236619461741,10.127442144698392,0.0
2025-03-06 16:02:31.318,-0.0380309739652387,9.320860910243129,0.0
2025-03-06 16:02:31.326,-0.0379993230829952,8.433659385310273,0.0
2025-03-06 16:02:31.334,-0.0379278402777953,7.476203298185748,0.0
2025-03-06 16:02:31.342,-0.037815527049129,6.4594221661442655,0.0
2025-03-06 16:02:31.350,-0.0376612846020882,5.394662303016431,0.0
2025-03-06 16:02:31.357,-0.0374639484735782,4.29353573941498,0.0
2025-03-06 16:02:31.365,-0.0372223276993649,3.167766602831529,0.0
2025-03-06 16:02:31.373,-0.0369352475804071,2.029037147500265,0.0
2025-03-06 16:02:31.381,-0.0366015947978099,0.888836258186327,0.0
2025-03-06 16:02:31.389,-0.0362203631619358,-0.2416862005966231,0.0
2025-03-06 16:02:31.397,-0.0357906978806326,-1.3518554295049916,0.0
2025-03-06 16:02:31.404,-0.0353119360736174,-2.4315942018033807,0.0
2025-03-06 16:02:31.412,-0.0347836414197389,-3.471527992441223,0.0
2025-03-06 16:02:31.420,-0.0342056312524368,-4.463069266179082,0.0
2025-03-06 16:02:31.428,-0.0335779950046699,-5.398478130940691,0.0
2025-03-06 16:02:31.436,-0.0329011035471935,-6.2708974998258205,0.0
2025-03-06 16:02:31.443,-0.0321756095609387,-7.0743620650668095,0.0
2025-03-06 16:02:31.451,-0.0314024395240555,-7.803781701554605,0.0
2025-03-06 16:02:31.459,-0.0305827781463393,-8.454901297881916,0.0
2025-03-06 16:02:31.467,-0.0297180462420651,-9.024240355560758,0.0
2025-03-06 16:02:31.475,-0.028809873192681,-9.509016895140409,0.0
2025-03-06 16:02:31.482,-0.0278600652893935,-9.907061165397966,0.0
2025-03-06 16:02:31.490,-0.026870571272715,-10.2167252941697,0.0
2025-03-06 16:02:31.498,-0.0258434462835678,-10.436795297393225,0.0
2025-03-06 16:02:31.506,-0.0247808153003235,-10.566411751481157,0.0
2025-03-06 16:02:31.514,-0.023684837054082,-10.605004931153134,0.0
2025-03-06 16:02:31.522,-0.0225576693740089,-10.552249340481314,0.0
2025-03-06 16:02:31.529,-0.0214014368462785,-10.408041360238276,0.0
2025-03-06 16:02:31.537,-0.0202182016155652,-10.17250225913778,0.0
2025-03-06 16:02:31.545,-0.0190099382408371,-9.846007146202838,0.0
2025-03-06 16:02:31.553,-0.0177785137294237,-9.429238668798622,0.0
2025-03-06 16:02:31.561,-0.0165256740163996,-8.923262494152636,0.0
2025-03-06 16:02:31.568,-0.0152530380368005,-8.32961996979116,0.0
2025-03-06 16:02:31.576,-0.0139621001524284,-7.650431957616043,0.0
2025-03-06 16:02:31.584,-0.0126542411919071,-6.888506783004292,0.0
2025-03-06 16:02:31.592,-0.0113307478610567,-6.047444621963068,0.0
2025-03-06 16:02:31.600,-0.009992839784449,-5.13173052997727,0.0
2025-03-06 16:02:31.607,-0.0086417029446635,-4.146808725959366,0.0
2025-03-06 16:02:31.615,-0.0072785278740162,-3.099131669064767,0.0
2025-03-06 16:02:31.623,-0.0059045506953498,-1.9961788423065177,0.0
2025-03-06 16:02:31.631,-0.0045210949552218,-0.8464418803756554,0.0
2025-03-06 16:02:31.639,-0.0031296120535277,0.3406253846988762,0.0
2025-03-06 16:02:31.647,-0.0017317179687893,1.5546913882921811,0.0
2025-03-06 16:02:31.654,-0.0003292240393372,2.784663328752752,0.0
2025-03-06 16:02:31.662,0.0010758401313404,4.0188315354074255,0.0
2025-03-06 16:02:31.670,0.0024812130958543,5.245036213337382,0.0
2025-03-06 16:02:31.678,0.0038843982648189,6.450850150820141,0.0
2025-03-06 16:02:31.686,0.0052826714418516,7.623770512559883,0.0
2025-03-06 16:02:31.693,0.0066730994447144,8.75141283106911,0.0
2025-03-06 16:02:31.701,0.008052569771825,9.821700711612912,0.0
2025-03-06 16:02:31.709,0.0094178308426695,10.823045519610682,0.0
2025-03-06 16:02:31.717,0.010765541714293,11.744511343810691,0.0
2025-03-06 16:02:31.725,0.0120923294567362,12.575961735310672,0.0
2025-03-06 16:02:31.732,0.0133948517381989,13.308186018677128,0.0
2025-03-06 16:02:31.740,0.01466986173734,13.933004262894269,0.0
2025-03-06 16:02:31.748,0.0159142722667028,14.443351194873388,0.0
2025-03-06 16:02:31.756,0.0171252159455412,14.833340353575416,0.0
2025-03-06 16:02:31.764,0.0183000984683466,15.098310551778376,0.0
2025-03-06 16:02:31.772,0.0194366425383078,15.23485719024644,0.0
2025-03-06 16:02:31.779,0.0205329207761612,15.24085113256123,0.0
2025-03-06 16:02:31.787,0.0215873766555881,15.115447696026944,0.0
2025-03-06 16:02:31.795,0.0225988330898136,14.85908786544598,0.0
2025-03-06 16:02:31.803,0.0235664886615576,14.473493139223192,0.0
2025-03-06 16:02:31.811,0.0244899017077511,13.961654545924056,0.0
2025-03-06 16:02:31.818,0.025368962660842,13.327815422149332,0.0
2025-03-06 16:02:31.826,0.0262038553320666,12.577446630763207,0.0
2025-03-06 16:02:31.834,0.0269950082430739,11.717212133535504,0.0
2025-03-06 16:02:31.842,0.0277430376350115,10.754922312136978,0.0
2025-03-06 16:02:31.850,0.0284486843635458,9.699472229589292,0.0
2025-03-06 16:02:31.857,0.0291127474871199,8.56076218315408,0.0
2025-03-06 16:02:31.865,0.0297360178868013,7.349598429268436,0.0
2025-03-06 16:02:31.873,0.0303192155634575,6.07757283893266,0.0
2025-03-06 16:02:31.881,0.0308629341981656,4.756921411258291,0.0
2025-03-06 16:02:31.889,0.0313675961108793,3.40036294322662,0.0
2025-03-06 16:02:31.897,0.0318334200448443,2.020920607969251,0.0
2025-03-06 16:02:31.904,0.0322604034525416,0.6317306030382819,0.0
2025-03-06 16:02:31.912,0.0326483202792816,-0.7541567291873238,0.0
2025-03-06 16:02:31.920,0.0329967345577038,-2.123976939743443,0.0
2025-03-06 16:02:31.928,0.0333050293166352,-3.465445690043968,0.0
2025-03-06 16:02:31.936,0.0335724494135288,-4.766939972620088,0.0
2025-03-06 16:02:31.943,0.0337981561073111,-6.017659412461453,0.0
2025-03-06 16:02:31.951,0.0339812906119517,-7.207761420278165,0.0
2025-03-06 16:02:31.959,0.0341210434678523,-8.328465065935122,0.0
2025-03-06 16:02:31.967,0.0342167262859607,-9.372119970779394,0.0
2025-03-06 16:02:31.975,0.0342678423275083,-10.332238194916364,0.0
2025-03-06 16:02:31.982,0.0342741525718659,-11.203488923949658,0.0
2025-03-06 16:02:31.990,0.0342357343346102,-11.981657640015724,0.0
2025-03-06 16:02:31.998,0.0341530299472753,-12.66357329427904,0.0
2025-03-06 16:02:32.006,0.034026883395133,-13.24700868268877,0.0
2025-03-06 16:02:32.014,0.0338585631854503,-13.730560664893972,0.0
2025-03-06 16:02:32.022,0.0336497702025423,-14.113517964923524,0.0
2025-03-06 16:02:32.029,0.033402629940897,-14.395724973927688,0.0
2025-03-06 16:02:32.037,0.0331196692293047,-14.577450184880757,0.0
2025-03-06 16:02:32.045,0.0328037782559545,-14.659267596913084,0.0
2025-03-06 16:02:32.053,0.0324581593027726,-14.64195863034798,0.0
2025-03-06 16:02:32.061,0.0320862640943598,-14.526440820724558,0.0
2025-03-06 16:02:32.068,0.031691722066882,-14.31372787277255,0.0
2025-03-06 16:02:32.076,0.0312782621000916,-14.00492364840214,0.0
2025-03-06 16:02:32.084,0.0308496302581386,-13.601250460133397,0.0
2025-03-06 16:02:32.092,0.0304095059020064,-13.10410978638961,0.0
2025-03-06 16:02:32.100,0.0299614183339951,-12.515171367420855,0.0
2025-03-06 16:02:32.107,0.0295086660319305,-11.83648472427172,0.0
2025-03-06 16:02:32.115,0.0290542404992722,-11.070605597630324,0.0
2025-03-06 16:02:32.123,0.0286007567133266,-10.220728734584704,0.0
2025-03-06 16:02:32.131,0.0281503920906376,-9.29081793043885,0.0
2025-03-06 16:02:32.139,0.0277048358395007,-8.285724286772824,0.0
2025-03-06 16:02:32.147,0.0272652504831531,-7.211284257406462,0.0
2025-03-06 16:02:32.154,0.0268322471176848,-6.074390163847405,0.0
2025-03-06 16:02:32.162,0.0264058756355069,-4.883027384049465,0.0
2025-03-06 16:02:32.170,0.0259856308112197,-3.646274241713321,0.0
2025-03-06 16:02:32.178,0.0255704748321432,-2.3742626192901533,0.0
2025-03-06 16:02:32.186,0.0251588764664477,-1.0780993500094007,0.0
2025-03-06 16:02:32.193,0.0247488665491839,0.2302496194449364,0.0
2025-03-06 16:02:32.201,0.0243381088677866,1.5381085807721069,0.0
2025-03-06 16:02:32.209,0.023923984842696,2.8322698005344,0.0
2025-03-06 16:02:32.217,0.0235036895494735,4.099193472683553,0.0
2025-03-06 16:02:32.225,0.0230743355975556,5.325223092776589,0.0
2025-03-06 16:02:32.232,0.0226330603046007,6.4968092478068105,0.0
2025-03-06 16:02:32.240,0.0221771307079163,7.600734983362191,0.0
2025-03-06 16:02:32.248,0.0217040404466841,8.624336394277206,0.0
2025-03-06 16:02:32.256,0.0212115926264434,9.555712807409462,0.0
2025-03-06 16:02:32.264,0.0206979635974946,10.383921802452535,0.0
2025-03-06 16:02:32.272,0.0201617441191172,11.099155268209808,0.0
2025-03-06 16:02:32.279,0.0196019563650601,11.692893644402709,0.0
2025-03-06 16:02:32.287,0.0190180472603521,12.15803639122461,0.0
2025-03-06 16:02:32.295,0.0184098604083917,12.489007512773528,0.0
2025-03-06 16:02:32.303,0.0177775902102859,12.681835603104984,0.0
2025-03-06 16:02:32.311,0.0171217226913771,12.7342083657699,0.0
2025-03-06 16:02:32.318,0.0164429681247577,12.645501873966229,0.0
2025-03-06 16:02:32.326,0.0157421908490754,12.416784999825222,0.0
2025-03-06 16:02:32.334,0.0150203416837136,12.0507994780052,0.0
2025-03-06 16:02:32.342,0.0142783979528263,11.551916027855713,0.0
2025-03-06 16:02:32.350,0.0135173153215117,10.926066897551904,0.0
2025-03-06 16:02:32.357,0.0127379945396891,10.180655173856856,0.0
2025-03-06 16:02:32.365,0.0119412649399246,9.324441281193645,0.0
2025-03-06 16:02:32.373,0.0111278852624621,8.3674073238745,0.0
2025-03-06 16:02:32.381,0.0102985612009298,7.320600340516985,0.0
2025-03-06 16:02:32.389,0.0094539780928695,6.195956150295583,0.0
2025-03-06 16:02:32.397,0.0085948464267971,5.006106255905117,0.0
2025-03-06 16:02:32.404,0.0077219571710847,3.764171176343652,0.0
2025-03-06 16:02:32.412,0.0068362432587524,2.4835445382664925,0.0
2025-03-06 16:02:32.420,0.0059388429843949,1.1776731665603706,0.0
2025-03-06 16:02:32.428,0.0050311607610966,-0.1401608149882647,0.0
2025-03-06 16:02:32.436,0.0041149207221236,-1.4570493280437185,0.0
2025-03-06 16:02:32.443,0.0031922090228757,-2.760652367184317,0.0
2025-03-06 16:02:32.451,0.0022655013688332,-4.039370106341921,0.0
2025-03-06 16:02:32.459,0.001337673166104,-5.2824870391035645,0.0
2025-03-06 16:02:32.467,0.0004119906130848,-6.480283057024716,0.0
2025-03-06 16:02:32.475,-0.0005079180524079,-7.624107660867203,0.0
2025-03-06 16:02:32.482,-0.0014181110527146,-8.70641505350317,0.0
2025-03-06 16:02:32.490,-0.002314400351898,-9.720759586650638,0.0
2025-03-06 16:02:32.498,-0.0031924359538517,-10.661752833367522,0.0
2025-03-06 16:02:32.506,-0.004047804746399,-11.524985349264528,0.0
2025-03-06 16:02:32.514,-0.0048761408148465,-12.30691788920265,0.0
2025-03-06 16:02:32.522,-0.0056732436464214,-13.004748386281287,0.0
2025-03-06 16:02:32.529,-0.0064352002285732,-13.616262300991693,0.0
2025-03-06 16:02:32.537,-0.0071585066755732,-14.139674939560742,0.0
2025-03-06 16:02:32.545,-0.0078401847449541,-14.573474958358345,0.0
2025-03-06 16:02:32.553,-0.0084778885621702,-14.916278462962577,0.0
2025-03-06 16:02:32.561,-0.0090699971413512,-15.166702837332284,0.0
2025-03-06 16:02:32.568,-0.009615688803662,-15.323268680504809,0.0
2025-03-06 16:02:32.576,-0.0101149942099119,-15.38433698888582,0.0
2025-03-06 16:02:32.584,-0.0105688253681905,-15.348087032267811,0.0
2025-03-06 16:02:32.592,-0.0109789786875856,-15.212538291463732,0.0
2025-03-06 16:02:32.600,-0.0113481109731706,-14.97561744578818,0.0
2025-03-06 16:02:32.607,-0.0116796881594724,-14.63526883861698,0.0
2025-03-06 16:02:32.615,-0.0119779075151948,-14.189604248532223,0.0
2025-03-06 16:02:32.623,-0.012247595086846,-13.637085303031128,0.0
2025-03-06 16:02:32.631,-0.0124940813531218,-12.976729646852457,0.0
2025-03-06 16:02:32.639,-0.0127230593018229,-12.208330171886734,0.0
2025-03-06 16:02:32.647,-0.0129404301210764,-11.33267537320065,0.0
2025-03-06 16:02:32.654,-0.0131521422162533,-10.351758329650384,0.0
2025-03-06 16:02:32.662,-0.0133640293484836,-9.268961982217805,0.0
2025-03-06 16:02:32.670,-0.0135816534766966,-8.089209300616092,0.0
2025-03-06 16:02:32.678,-0.0138101574487365,-6.819068530036265,0.0
2025-03-06 16:02:32.686,-0.0140541319979798,-5.466805887860496,0.0
2025-03-06 16:02:32.693,-0.0143175005320936,-4.042380692478073,0.0
2025-03-06 16:02:32.701,-0.0146034240712391,-2.5573807851608694,0.0
2025-03-06 16:02:32.709,-0.0149142276703777,-1.0248990676593754,0.0
2025-03-06 16:02:32.717,-0.015251348969178,0.5406451621615098,0.0
2025-03-06 16:02:32.725,-0.0156153091733635,2.1237338068110705,0.0
2025-03-06 16:02:32.732,-0.0160057066415389,3.708018055097664,0.0
2025-03-06 16:02:32.740,-0.0164212332064863,5.276616863732183,0.0
2025-03-06 16:02:32.748,-0.0168597133505833,6.81243467965138,0.0
2025-03-06 16:02:32.756,-0.0173181662662484,8.298486805422241,0.0
2025-03-06 16:02:32.764,-0.0177928904241085,9.71822097740434,0.0
2025-03-06 16:02:32.772,-0.0182795693984386,11.055824461932112,0.0
2025-03-06 16:02:32.779,-0.018773396505055,12.29650720724882,0.0
2025-03-06 16:02:32.787,-0.0192692145961612,13.42675321963237,0.0
2025-03-06 16:02:32.795,-0.0197616663542597,14.434534239531894,0.0
2025-03-06 16:02:32.803,-0.0202453497160418,15.309481842732495,0.0
2025-03-06 16:02:32.811,-0.0207149726511077,16.043016147195353,0.0
2025-03-06 16:02:32.818,-0.0211655014182971,16.62843124208594,0.0
2025-03-06 16:02:32.826,-0.021592296619268,17.060939160003016,0.0
2025-03-06 16:02:32.834,-0.0219912318507818,17.337675595279965,0.0
2025-03-06 16:02:32.842,-0.0223587904799251,17.457671567773716,0.0
2025-03-06 16:02:32.850,-0.022692136946792,17.421795815854814,0.0
2025-03-06 16:02:32.857,-0.0229891599810172,17.232672884739458,0.0
2025-03-06 16:02:32.865,-0.0232484862606766,16.894581700204483,0.0
2025-03-06 16:02:32.873,-0.0234694644499249,16.41333895241506,0.0
2025-03-06 16:02:32.881,-0.0236521212004769,15.796170948277114,0.0
2025-03-06 16:02:32.889,-0.0237970924038476,15.05157682348812,0.0
2025-03-06 16:02:32.897,-0.0239055344931842,14.189185241290488,0.0
2025-03-06 16:02:32.904,-0.0239790216738647,13.219606041570858,0.0
2025-03-06 16:02:32.912,-0.0240194354161417,12.154277820729572,0.0
2025-03-06 16:02:32.920,-0.0240288523426507,11.00531216973094,0.0
2025-03-06 16:02:32.928,-0.0240094359752576,9.785335290641733,0.0
2025-03-06 16:02:32.936,-0.0239633369400766,8.507327933508694,0.0
2025-03-06 16:02:32.943,-0.0238926053333454,7.184465000356584,0.0
2025-03-06 16:02:32.951,-0.023799118037916,5.829956685283512,0.0
2025-03-06 16:02:32.959,-0.0236845228236172,4.456893580955846,0.0
2025-03-06 16:02:32.967,-0.0235502000847847,3.0780986999556905,0.0
2025-03-06 16:02:32.975,-0.0233972421049403,1.7059897534854145,0.0
2025-03-06 16:02:32.982,-0.0232264488349827,0.3524552262142218,0.0
2025-03-06 16:02:32.990,-0.0230383383992462,-0.9712522737555148,0.0
2025-03-06 16:02:32.998,-0.0228331699751203,-2.25460226087325,0.0
2025-03-06 16:02:33.006,-0.0226109763209629,-3.4878497296685538,0.0
2025-03-06 16:02:33.014,-0.0223716029607759,-4.662074053256783,0.0
2025-03-06 16:02:33.022,-0.0221147508143803,-5.769192986700713,0.0
2025-03-06 16:02:33.029,-0.0218400189752736,-6.801952627815215,0.0
2025-03-06 16:02:33.037,-0.0215469445166904,-7.753895549558333,0.0
2025-03-06 16:02:33.045,-0.0212350366550957,-8.619310657891194,0.0
2025-03-06 16:02:33.053,-0.0209038032305815,-9.393169544989854,0.0
2025-03-06 16:02:33.061,-0.0205527682404708,-10.071055099996489,0.0
2025-03-06 16:02:33.068,-0.0201814801112002,-10.649088817918614,0.0
2025-03-06 16:02:33.076,-0.0197895114858227,-11.123863537466724,0.0
2025-03-06 16:02:33.084,-0.0193764524102777,-11.492388188657053,0.0
2025-03-06 16:02:33.092,-0.018941899742248,-11.75205051772194,0.0
2025-03-06 16:02:33.100,-0.018485446220029,-11.90060268954968,0.0
2025-03-06 16:02:33.107,-0.0180066727975653,-11.936173189523853,0.0
2025-03-06 16:02:33.115,-0.0175051475116619,-11.857306633073996,0.0
2025-03-06 16:02:33.123,-0.0169804333281643,-11.663031047609072,0.0
2025-03-06 16:02:33.131,-0.0164321062704416,-11.352950046977856,0.0
2025-03-06 16:02:33.139,-0.0158597838808916,-10.927355220089524,0.0
2025-03-06 16:02:33.147,-0.0152631628753325,-10.387352158236684,0.0
2025-03-06 16:02:33.154,-0.0146420638255681,-9.734992001416696,0.0
2025-03-06 16:02:33.162,-0.0139964799407675,-8.973399326276152,0.0
2025-03-06 16:02:33.170,-0.0133266266253369,-8.10688672950331,0.0
2025-03-06 16:02:33.178,-0.0126329885150228,-7.14104663927674,0.0
2025-03-06 16:02:33.186,-0.0119163610039938,-6.082811722169778,0.0
2025-03-06 16:02:33.193,-0.0111778836536879,-4.940476702404437,0.0
2025-03-06 16:02:33.201,-0.0104190632216786,-3.723676388311637,0.0
2025-03-06 16:02:33.209,-0.0096417844154299,-2.44331708180228,0.0
2025-03-06 16:02:33.217,-0.0088483069058906,-1.1114611727371069,0.0
2025-03-06 16:02:33.225,-0.0080412475963608,0.2588325884888826,0.0
2025-03-06 16:02:33.232,-0.0072235475768828,1.6537080763233956,0.0
2025-03-06 16:02:33.240,-0.0063984236119632,3.058742693859632,0.0
2025-03-06 16:02:33.248,-0.0055693045245846,4.459201019843905,0.0
2025-03-06 16:02:33.256,-0.0047397536040211,5.840300736244959,0.0
2025-03-06 16:02:33.264,-0.0039133792322552,7.187479704294593,0.0
2025-03-06 16:02:33.272,-0.003093737160007,8.486653037770477,0.0
2025-03-06 16:02:33.279,-0.0022842289736203,9.724449650527085,0.0
2025-03-06 16:02:33.287,-0.001488001978046,10.888418994732064,0.0
2025-03-06 16:02:33.295,-0.0007078558456199,11.9672004877371,0.0
2025-03-06 16:02:33.303,5.383899472479959e-05,12.950650346079888,0.0
2025-03-06 16:02:33.311,0.0007952069785917,13.829923070108425,0.0
2025-03-06 16:02:33.318,0.0015149137387857,14.597507492374325,0.0
2025-03-06 16:02:33.326,0.0022121909662607,15.247219943769544,0.0
2025-03-06 16:02:33.334,0.002886838839746,15.774159530654767,0.0
2025-03-06 16:02:33.342,0.0035392062678791,16.174632595445186,0.0
2025-03-06 16:02:33.350,0.004170150229044,16.446055017113622,0.0
2025-03-06 16:02:33.357,0.0047809763243822,16.58684199101773,0.0
2025-03-06 16:02:33.365,0.0053733632857064,16.596295239456158,0.0
2025-03-06 16:02:33.373,0.0059492745624609,16.47449721986141,0.0
2025-03-06 16:02:33.381,0.0065108602233893,16.222220842189515,0.0
2025-03-06 16:02:33.389,0.0070603523749519,15.84086155808929,0.0
2025-03-06 16:02:33.397,0.007599957328518,15.332396564340714,0.0
2025-03-06 16:02:33.404,0.0081317478998483,14.699373430836774,0.0
2025-03-06 16:02:33.412,0.0086575593483383,13.944927904924034,0.0
2025-03-06 16:02:33.420,0.0091788924189212,13.0728281588608,0.0
2025-03-06 16:02:33.428,0.0096968267807283,12.087540530419604,0.0
2025-03-06 16:02:33.436,0.0102119479842851,10.994310026860914,0.0
2025-03-06 16:02:33.443,0.0107242908826344,9.79924764194902,0.0
2025-03-06 16:02:33.451,0.0112333021653254,8.509415937826944,0.0
2025-03-06 16:02:33.459,0.0117378241400234,7.132904372546904,0.0
2025-03-06 16:02:33.467,0.012236101143406,5.678886464583052,0.0
2025-03-06 16:02:33.475,0.0127258090225925,4.157651995637279,0.0
2025-03-06 16:02:33.483,0.0132041071291451,2.5806089531881518,0.0
2025-03-06 16:02:33.490,0.0136677113574344,0.9602516755017452,0.0
2025-03-06 16:02:33.498,0.0141129859713025,-0.6899064560550587,0.0
2025-03-06 16:02:33.506,0.0145360512055242,-2.3554355705863266,0.0
2025-03-06 16:02:33.514,0.0149329028604224,-4.021125187983522,0.0
2025-03-06 16:02:33.522,0.0152995394378572,-5.671150049972596,0.0
2025-03-06 16:02:33.529,0.0156320919423714,-7.289261398495318,0.0
2025-03-06 16:02:33.537,0.015926951355865,-8.858998440482003,0.0
2025-03-06 16:02:33.545,0.0161808889699512,-10.363914357994448,0.0
2025-03-06 16:02:33.553,0.0163911651771152,-11.787811195068024,0.0
2025-03-06 16:02:33.561,0.0165556228889127,-13.1149782204643,0.0
2025-03-06 16:02:33.568,0.016672762337765,-14.330428846915586,0.0
2025-03-06 16:02:33.576,0.0167417945948824,-15.42013178818564,0.0
2025-03-06 16:02:33.584,0.0167626718379352,-16.37123276259184,0.0
2025-03-06 16:02:33.592,0.0167360933373464,-17.17226362256265,0.0
2025-03-06 16:02:33.600,0.016663487192465,-17.81333623591796,0.0
2025-03-06 16:02:33.608,0.0165469688578119,-18.28631871739085,0.0
2025-03-06 16:02:33.615,0.0163892784054205,-18.584991687332817,0.0
2025-03-06 16:02:33.623,0.016193699295042,-18.705182129826348,0.0
2025-03-06 16:02:33.631,0.0159639621345652,-18.644872176539337,0.0
2025-03-06 16:02:33.639,0.0157041374530959,-18.404279822077765,0.0
2025-03-06 16:02:33.647,0.0154185218688157,-17.985908266952034,0.0
2025-03-06 16:02:33.654,0.0151115221997943,-17.39456038505083,0.0
2025-03-06 16:02:33.662,0.0147875419843001,-16.637314825834288,0.0
2025-03-06 16:02:33.670,0.014450874502971,-15.723460575225936,0.0
2025-03-06 16:02:33.678,0.0141056057373592,-14.664387473822073,0.0
2025-03-06 16:02:33.686,0.0137555298310236,-13.473431254243946,0.0
2025-03-06 16:02:33.693,0.0134040786914933,-12.16567310259296,0.0
2025-03-06 16:02:33.701,0.0130542665752499,-10.757695520698984,0.0
2025-03-06 16:02:33.709,0.0127086499397824,-9.267298269166972,0.0
2025-03-06 16:02:33.717,0.0123693024697971,-7.713180270824548,0.0
2025-03-06 16:02:33.725,0.0120378048464433,-6.11459539254272,0.0
2025-03-06 16:02:33.733,0.0117152484255168,-4.490991838962321,0.0
2025-03-06 16:02:33.740,0.0114022514954096,-2.861646334118374,0.0
2025-03-06 16:02:33.748,0.0110989862373686,-1.245305208193943,0.0
2025-03-06 16:02:33.756,0.0108052140307823,0.3401551513594931,0.0
2025-03-06 16:02:33.764,0.0105203265233264,1.87803634244358,0.0
2025-03-06 16:02:33.772,0.0102433900668996,3.3530833343839426,0.0
2025-03-06 16:02:33.779,0.009973191687424,4.751697679011567,0.0
2025-03-06 16:02:33.787,0.0097082855278096,6.062091220277267,0.0
2025-03-06 16:02:33.795,0.0094470394579741,7.2743756116812675,0.0
2025-03-06 16:02:33.803,0.0091876821348863,8.38058589154304,0.0
2025-03-06 16:02:33.811,0.0089283511532019,9.374639460893343,0.0
2025-03-06 16:02:33.818,0.0086671430297737,10.252234898117116,0.0
2025-03-06 16:02:33.826,0.0084021656116485,11.010697961984938,0.0
2025-03-06 16:02:33.834,0.0081315931237855,11.648784712782106,0.0
2025-03-06 16:02:33.842,0.007853723569218,12.166453762638758,0.0
2025-03-06 16:02:33.850,0.0075670376623947,12.564621117622307,0.0
2025-03-06 16:02:33.858,0.0072702579722487,12.844911798240112,0.0
2025-03-06 16:02:33.865,0.0069624065002005,13.009422367718134,0.0
2025-03-06 16:02:33.873,0.0066428585503231,13.060507651165189,0.0
2025-03-06 16:02:33.881,0.0063113904885114,13.00060333213938,0.0
2025-03-06 16:02:33.889,0.0059682188516393,12.832093849495717,0.0
2025-03-06 16:02:33.897,0.0056140282813924,12.557232211780647,0.0
2025-03-06 16:02:33.904,0.0052499859418647,12.178115159771824,0.0
2025-03-06 16:02:33.912,0.0048777404726486,11.696713726559938,0.0
2025-03-06 16:02:33.920,0.0044994042034167,11.114955868923223,0.0
2025-03-06 16:02:33.928,0.0041175183102705,10.434854676654805,0.0
2025-03-06 16:02:33.936,0.0037350016223554,9.658672903294594,0.0
2025-03-06 16:02:33.943,0.0033550845720069,8.789112375935163,0.0
2025-03-06 16:02:33.951,0.0029812301581086,7.829515368286708,0.0
2025-03-06 16:02:33.959,0.0026170438717854,6.784064343035576,0.0
2025-03-06 16:02:33.967,0.0022661745485474,5.657966613617528,0.0
2025-03-06 16:02:33.975,0.0019322082124572,4.457611414614116,0.0
2025-03-06 16:02:33.983,0.0016185572342393,3.190688525741548,0.0
2025-03-06 16:02:33.990,0.0013283475999467,1.866259841643605,0.0
2025-03-06 16:02:33.998,0.0010643077658635,0.4947779552432454,0.0
2025-03-06 16:02:34.006,0.0008286632658191,-0.911951260861118,0.0
2025-03-06 16:02:34.014,0.0006230416711055,-2.340862127151837,0.0
2025-03-06 16:02:34.022,0.0004483925415404,-3.7777759125321215,0.0
2025-03-06 16:02:34.029,0.0003049266923512,-5.207595580371121,0.0
2025-03-06 16:02:34.037,0.0001920785636425,-6.614541147339369,0.0
2025-03-06 16:02:34.045,0.0001084948130536,-7.982416715785323,0.0
2025-03-06 16:02:34.053,5.205145389389084e-05,-9.294899251611367,0.0
2025-03-06 16:02:34.061,1.990085490885944e-05,-10.535838771929251,0.0
2025-03-06 16:02:34.068,8.548662536611955e-06,-11.68955975503226,0.0
2025-03-06 16:02:34.076,1.3959256976684037e-05,-12.741154234069224,0.0
2025-03-06 16:02:34.084,3.1686806306786456e-05,-13.676758101688344,0.0
2025-03-06 16:02:34.092,5.702740463400601e-05,-14.48380352861374,0.0
2025-03-06 16:02:34.100,8.518624326517769e-05,-15.151241962686884,0.0
2025-03-06 16:02:34.108,0.0001114524201567,-15.669733800337406,0.0
2025-03-06 16:02:34.115,0.0001313730424666,-16.031802389229863,0.0
2025-03-06 16:02:34.123,0.0001409178911475,-16.231951422334276,0.0
2025-03-06 16:02:34.131,0.0001366262207719,-16.266745935190677,0.0
2025-03-06 16:02:34.139,0.0001157283103365,-16.134857964570198,0.0
2025-03-06 16:02:34.147,7.623605503838144e-05,-15.837078448240613,0.0
2025-03-06 16:02:34.154,1.699893143535903e-05,-15.376297159909498,0.0
2025-03-06 16:02:34.162,-6.22762571733398e-05,-14.757452435124486,0.0
2025-03-06 16:02:34.170,-0.0001610416425077,-13.987452239304172,0.0
2025-03-06 16:02:34.178,-0.0002779589258029,-13.075067865790684,0.0
2025-03-06 16:02:34.186,-0.0004109815813102,-12.030801342725102,0.0
2025-03-06 16:02:34.193,-0.0005574647187672,-10.866727573162004,0.0
2025-03-06 16:02:34.201,-0.0007142976278246,-9.59631240683457,0.0
2025-03-06 16:02:34.209,-0.0008780531172545,-8.234208281504182,0.0
2025-03-06 16:02:34.217,-0.0010451471134378,-6.796029771822772,0.0
2025-03-06 16:02:34.225,-0.0012120016318357,-5.298112295242695,0.0
2025-03-06 16:02:34.233,-0.0013752041798146,-3.757258259448451,0.0
2025-03-06 16:02:34.240,-0.0015316568768147,-2.1904759779476795,0.0
2025-03-06 16:02:34.248,-0.0016787090715532,-0.6147176029041569,0.0
2025-03-06 16:02:34.256,-0.0018142679750026,0.9533769927937878,0.0
2025-03-06 16:02:34.264,-0.0019368827881588,2.497723107564425,0.0
2025-03-06 16:02:34.272,-0.0020457989577849,4.003013663505772,0.0
2025-03-06 16:02:34.279,-0.0021409805111194,5.454914510589044,0.0
2025-03-06 16:02:34.287,-0.0022230998687398,6.840226817568477,0.0
2025-03-06 16:02:34.295,-0.0022934960772644,8.147012122006712,0.0
2025-03-06 16:02:34.303,-0.0023541039959725,9.364677264727632,0.0
2025-03-06 16:02:34.311,-0.0024073585345303,10.484018300650623,0.0
2025-03-06 16:02:34.318,-0.0024560794175425,11.49722444687639,0.0
2025-03-06 16:02:34.326,-0.0025033429243639,12.397845087485573,0.0
2025-03-06 16:02:34.334,-0.0025523474417608,13.180724691394708,0.0
2025-03-06 16:02:34.342,-0.0026062794625342,13.841912105337626,0.0
2025-03-06 16:02:34.350,-0.0026681860225301,14.378551954407316,0.0
2025-03-06 16:02:34.358,-0.0027408586921174,14.788766724290197,0.0
2025-03-06 16:02:34.365,-0.0028267332602082,15.071538436623444,0.0
2025-03-06 16:02:34.373,-0.0029278082264805,15.226598611890998,0.0
2025-03-06 16:02:34.381,-0.0030455841724524,15.25433442751972,0.0
2025-03-06 16:02:34.389,-0.0031810250276405,15.155717646748435,0.0
2025-03-06 16:02:34.397,-0.0033345411988729,14.93226108067244,0.0
2025-03-06 16:02:34.404,-0.0035059935289296,14.586005152176922,0.0
2025-03-06 16:02:34.412,-0.0036947161748841,14.119534688474822,0.0
2025-03-06 16:02:34.420,-0.0038995558268306,13.536023537903151,0.0
2025-03-06 16:02:34.428,-0.0041189242483723,12.839302166734756,0.0
2025-03-06 16:02:34.436,-0.0043508608958643,12.033941232596105,0.0
2025-03-06 16:02:34.443,-0.0045931023476048,11.12534243251353,0.0
2025-03-06 16:02:34.451,-0.0048431554201745,10.119826834606403,0.0
2025-03-06 16:02:34.459,-0.0050983711312183,9.024710525465771,0.0
2025-03-06 16:02:34.467,-0.0053560170537944,7.848357787746854,0.0
2025-03-06 16:02:34.475,-0.0056133460319192,6.600203151268972,0.0
2025-03-06 16:02:34.483,-0.0058676595841077,5.290735459242203,0.0
2025-03-06 16:02:34.490,-0.0061163645492622,3.931439424585952,0.0
2025-03-06 16:02:34.498,-0.0063570216860235,2.534692843681974,0.0
2025-03-06 16:02:34.506,-0.0065873851572724,1.1136204892556174,0.0
2025-03-06 16:02:34.514,-0.006805432186564,-0.3180914807660881,0.0
2025-03-06 16:02:34.522,-0.0070093826131202,-1.7464141780569062,0.0
2025-03-06 16:02:34.529,-0.0071977085405091,-3.157219102625733,0.0
2025-03-06 16:02:34.537,-0.0073691347966852,-4.53653549288159,0.0
2025-03-06 16:02:34.545,-0.007522631492273,-5.87081069102727,0.0
2025-03-06 16:02:34.553,-0.0076574004162416,-7.147162029341961,0.0
2025-03-06 16:02:34.561,-0.0077728571475696,-8.353609172558963,0.0
2025-03-06 16:02:34.568,-0.0078686105926737,-9.479276942064129,0.0
2025-03-06 16:02:34.576,-0.0079444413857213,-10.514560311448616,0.0
2025-03-06 16:02:34.584,-0.0080002803779342,-11.451245385082611,0.0
2025-03-06 16:02:34.592,-0.0080361882676015,-12.282582618593048,0.0
2025-03-06 16:02:34.600,-0.0080523371614335,-13.003311164473308,0.0
2025-03-06 16:02:34.608,-0.0080489944596351,-13.609635867894935,0.0
2025-03-06 16:02:34.615,-0.0080265090158344,-14.099160933949785,0.0
2025-03-06 16:02:34.623,-0.0079852992095948,-14.470786484258698,0.0
2025-03-06 16:02:34.631,-0.0079258424849662,-14.72457598638829,0.0
2025-03-06 16:02:34.639,-0.0078486660222273,-14.861603773208362,0.0
2025-03-06 16:02:34.647,-0.007754338445014,-14.883792508253666,0.0
2025-03-06 16:02:34.654,-0.0076434627559053,-14.7937504757999,0.0
2025-03-06 16:02:34.662,-0.0075166709292996,-14.594617999777128,0.0
2025-03-06 16:02:34.670,-0.0073746206457013,-14.28993117930353,0.0
2025-03-06 16:02:34.678,-0.0072179945308683,-13.883509558388702,0.0
2025-03-06 16:02:34.686,-0.0070475020954128,-13.379372438802513,0.0
2025-03-06 16:02:34.693,-0.0068638844316545,-12.781686432888485,0.0
2025-03-06 16:02:34.701,-0.0066679215550906,-12.094744679711775,0.0
2025-03-06 16:02:34.709,-0.0064604419811054,-11.322976054248045,0.0
2025-03-06 16:02:34.717,-0.0062423337186406,-10.470980817501232,0.0
2025-03-06 16:02:34.725,-0.006014555505517,-9.543587601280386,0.0
2025-03-06 16:02:34.733,-0.0057781469720488,-8.545925484890224,0.0
2025-03-06 16:02:34.740,-0.005534236508637,-7.483504257518465,0.0
2025-03-06 16:02:34.748,-0.0052840458101663,-6.362295785254268,0.0
2025-03-06 16:02:34.756,-0.0050288902732528,-5.188809691700784,0.0
2025-03-06 16:02:34.764,-0.0047701746203596,-3.97015725745698,0.0
2025-03-06 16:02:34.772,-0.0045093833755919,-2.7140984597023783,0.0
2025-03-06 16:02:34.779,-0.0042480661544582,-1.4290683023915087,0.0
2025-03-06 16:02:34.787,-0.0039878180708619,-0.1241799146279026,0.0
2025-03-06 16:02:34.795,-0.0037302557763158,1.1907967926374792,0.0
2025-03-06 16:02:34.803,-0.0034769897178379,2.5054809203463977,0.0
2025-03-06 16:02:34.811,-0.003229593248554,3.808949817691615,0.0
2025-03-06 16:02:34.818,-0.0029895693429003,5.089829966207264,0.0
2025-03-06 16:02:34.826,-0.0027583158763941,6.336407175927104,0.0
2025-03-06 16:02:34.834,-0.0025370907159228,7.536753454771082,0.0
2025-03-06 16:02:34.842,-0.0023269781701572,8.678867818046404,0.0
2025-03-06 16:02:34.850,-0.0021288585383959,9.750828376947748,0.0
2025-03-06 16:02:34.858,-0.0019433824344518,10.740953231090948,0.0
2025-03-06 16:02:34.865,-0.0017709512353239,11.637967932007234,0.0
2025-03-06 16:02:34.873,-0.0016117045565205,12.43117752110303,0.0
2025-03-06 16:02:34.881,-0.0014655152667595,13.11064131750268,0.0
2025-03-06 16:02:34.889,-0.0013319922934533,13.667348685536112,0.0
2025-03-06 16:02:34.897,-0.0012104912876473,14.093393907276075,0.0
2025-03-06 16:02:34.904,-0.0011001330281368,14.38214799887107,0.0
2025-03-06 16:02:34.912,-0.0009998291971534,14.528424839543623,0.0
2025-03-06 16:02:34.920,-0.0009083148424752,14.528638354224087,0.0
2025-03-06 16:02:34.928,-0.0008241864503269,14.380946757581132,0.0
2025-03-06 16:02:34.936,-0.0007459441182601,14.085379108144872,0.0
2025-03-06 16:02:34.943,-0.0006720359495345,13.643938737797091,0.0
2025-03-06 16:02:34.951,-0.0006009026394565,13.06067762695431,0.0
2025-03-06 16:02:34.959,-0.0005310203520715,12.341735598514306,0.0
2025-03-06 16:02:34.967,-0.0004609403068858,11.495338395898395,0.0
2025-03-06 16:02:34.975,-0.0003893238439939,10.531749356879091,0.0
2025-03-06 16:02:34.983,-0.0003149720171946,9.463170525479574,0.0
2025-03-06 16:02:34.990,-0.0002368490331727,8.303590648553474,0.0
2025-03-06 16:02:34.998,-0.0001540992107166,7.068579526107392,0.0
2025-03-06 16:02:35.006,-6.605756288162546e-05,5.775030524863952,0.0
2025-03-06 16:02:35.014,2.774552694892495e-05,4.440855585510179,0.0
2025-03-06 16:02:35.022,0.0001275848714784,3.084639592529194,0.0
2025-03-06 16:02:35.029,0.0002335456123979,1.725263356555262,0.0
2025-03-06 16:02:35.037,0.000345532339406,0.3815065113752793,0.0
2025-03-06 16:02:35.045,0.0004632817364169,-0.9283568004477748,0.0
2025-03-06 16:02:35.053,0.0005863783975689,-2.186955605305043,0.0
2025-03-06 16:02:35.061,0.0007142735246115,-3.3781989904445995,0.0
2025-03-06 16:02:35.068,0.0008463062209268,-4.48761846261754,0.0
2025-03-06 16:02:35.076,0.0009817269898965,-5.502663116616869,0.0
2025-03-06 16:02:35.084,0.0011197228604944,-6.412936680659744,0.0
2025-03-06 16:02:35.092,0.0012594434242596,-7.210367770144797,0.0
2025-03-06 16:02:35.100,0.0014000270545163,-7.889307366082435,0.0
2025-03-06 16:02:35.108,0.0015406266480525,-8.446550501679312,0.0
2025-03-06 16:02:35.115,0.0016804343040736,-8.881282244101037,0.0
2025-03-06 16:02:35.123,0.0018187044067292,-9.1949511496183,0.0
2025-03-06 16:02:35.131,0.0019547746007833,-9.391076303050047,0.0
2025-03-06 16:02:35.139,0.0020880841419594,-9.474996690530803,0.0
2025-03-06 16:02:35.147,0.0022181890738718,-9.453573880471806,0.0
2025-03-06 16:02:35.154,0.0023447736436093,-9.33486070823271,0.0
2025-03-06 16:02:35.162,0.002467657351939,-9.127749809156674,0.0
2025-03-06 16:02:35.170,0.0025867971236982,-8.841616380778056,0.0
2025-03-06 16:02:35.178,0.0027022843253522,-8.485969460124497,0.0
2025-03-06 16:02:35.186,0.0028143366723769,-8.070125282862792,0.0
2025-03-06 16:02:35.193,0.0029232853411827,-7.6029149814936146,0.0
2025-03-06 16:02:35.201,0.003029557819719,-7.092437042106743,0.0
2025-03-06 16:02:35.209,0.0031336572762027,-6.545862663895531,0.0
2025-03-06 16:02:35.217,0.0032361394929552,-5.969299568887234,0.0
2025-03-06 16:02:35.225,0.0033375885787176,-5.367717025914559,0.0
2025-03-06 16:02:35.233,0.0034385926604572,-4.744932026207629,0.0
2025-03-06 16:02:35.240,0.0035397206108678,-4.103653821513178,0.0
2025-03-06 16:02:35.248,0.003641500640787,-3.445581546096692,0.0
2025-03-06 16:02:35.256,0.0037444012752813,-2.771547514985586,0.0
2025-03-06 16:02:35.264,0.0038488148873771,-2.081697124260635,0.0
2025-03-06 16:02:35.272,0.0039550437144022,-1.3756951458022155,0.0
2025-03-06 16:02:35.279,0.0040632882113074,-0.6529476420731879,0.0
2025-03-06 16:02:35.287,0.0041736376655138,0.0871712774611018,0.0
2025-03-06 16:02:35.295,0.0042860631543957,0.8450981142529547,0.0
2025-03-06 16:02:35.303,0.0044004131702157,1.620873325181559,0.0
2025-03-06 16:02:35.311,0.004516412516819,2.413957272544525,0.0
2025-03-06 16:02:35.318,0.0046336652264288,3.2230750896773337,0.0
2025-03-06 16:02:35.326,0.0047516620979106,4.046095034650572,0.0
2025-03-06 16:02:35.334,0.004869793025707,4.879943161448994,0.0
2025-03-06 16:02:35.342,0.0049873637330608,5.720555497284802,0.0
2025-03-06 16:02:35.350,0.0051036160699528,6.562867460815612,0.0
2025-03-06 16:02:35.358,0.0052177508538927,7.400839047993798,0.0
2025-03-06 16:02:35.365,0.005328952323262,8.227513382994749,0.0
2025-03-06 16:02:35.373,0.0054364134810861,9.035105588534826,0.0
2025-03-06 16:02:35.381,0.0055393617441852,9.815118555538684,0.0
2025-03-06 16:02:35.389,0.0056370842965989,10.558482046468606,0.0
2025-03-06 16:02:35.397,0.0057289524467775,11.25571159188803,0.0
2025-03-06 16:02:35.404,0.0058144442543499,11.897083767922224,0.0
2025-03-06 16:02:35.412,0.0058931648018948,12.472824602411029,0.0
2025-03-06 16:02:35.420,0.0059648636625325,12.973307983848608,0.0
2025-03-06 16:02:35.428,0.0060294492061343,13.389260986667042,0.0
2025-03-06 16:02:35.436,0.0060869993252706,13.711972944068336,0.0
2025-03-06 16:02:35.443,0.0061377680224121,13.933504879434771,0.0
2025-03-06 16:02:35.451,0.0061821872365671,14.04689555338141,0.0
2025-03-06 16:02:35.459,0.0062208633821334,14.046359923615109,0.0
2025-03-06 16:02:35.467,0.0062545682558687,13.927475302168984,0.0
2025-03-06 16:02:35.475,0.0062842241236292,13.68735000241669,0.0
2025-03-06 16:02:35.483,0.0063108829243598,13.324768879718269,0.0
2025-03-06 16:02:35.490,0.0063356997354946,12.84030996922976,0.0
2025-03-06 16:02:35.498,0.0063599009952546,12.236426492073203,0.0
2025-03-06 16:02:35.506,0.0063847483854952,11.51748890422833,0.0
2025-03-06 16:02:35.514,0.0064114995826026,10.689782445068786,0.0
2025-03-06 16:02:35.522,0.0064413671999098,9.761456812509222,0.0
2025-03-06 16:02:35.529,0.0064754772347627,8.74242611691865,0.0
2025-03-06 16:02:35.537,0.006514828336413,7.644219078666818,0.0
2025-03-06 16:02:35.545,0.0065602532948259,6.479781439197516,0.0
2025-03-06 16:02:35.553,0.0066123842327192,5.263234636025024,0.0
2025-03-06 16:02:35.561,0.0066716229364052,4.009596817564014,0.0
2025-03-06 16:02:35.568,0.006738117573939,2.7344741130780608,0.0
2025-03-06 16:02:35.576,0.0068117468269037,1.4537316082545677,0.0
2025-03-06 16:02:35.584,0.0068921122725836,0.1831546120089172,0.0
2025-03-06 16:02:35.592,0.0069785396489451,-1.0618885358651138,0.0
2025-03-06 16:02:35.600,0.0070700893629164,-2.2667707182189187,0.0
2025-03-06 16:02:35.608,0.0071655762981609,-3.41790633912204,0.0
2025-03-06 16:02:35.615,0.0072635986784273,-4.503017544629013,0.0
2025-03-06 16:02:35.623,0.0073625753975691,-5.511357598582092,0.0
2025-03-06 16:02:35.631,0.0074607907910353,-6.433884394886883,0.0
2025-03-06 16:02:35.639,0.0075564453456523,-7.26337914737763,0.0
2025-03-06 16:02:35.647,0.007647710404634,-7.994507576862321,0.0
2025-03-06 16:02:35.654,0.0077327845604341,-8.623823307794265,0.0
2025-03-06 16:02:35.662,0.0078099491815835,-9.149715578757643,0.0
2025-03-06 16:02:35.670,0.0078776204689201,-9.572305641257206,0.0
2025-03-06 16:02:35.678,0.0079343956224347,-9.893298253757257,0.0
2025-03-06 16:02:35.686,0.0079790910708169,-10.115796367518788,0.0
2025-03-06 16:02:35.693,0.0080107711833743,-10.244088360028838,0.0
2025-03-06 16:02:35.701,0.008028766401505,-10.283417937282564,0.0
2025-03-06 16:02:35.709,0.0080326802797428,-10.23974706504359,0.0
2025-03-06 16:02:35.717,0.008022385494767,-10.119522002083023,0.0
2025-03-06 16:02:35.725,0.0079980094452463,-9.929451726781986,0.0
2025-03-06 16:02:35.733,0.0079599105857359,-9.67630683003734,0.0
2025-03-06 16:02:35.740,0.0079086470271921,-9.36674537279344,0.0
2025-03-06 16:02:35.748,0.0078449391396083,-9.007170377100676,0.0
2025-03-06 16:02:35.756,0.0077696279563378,-8.603621652904337,0.0
2025-03-06 16:02:35.764,0.0076836311833779,-8.161702684960664,0.0
2025-03-06 16:02:35.772,0.0075878985913671,-7.686541441470584,0.0
2025-03-06 16:02:35.779,0.0074833685223767,-7.1827823350852125,0.0
2025-03-06 16:02:35.787,0.0073709271858659,-6.654605264833824,0.0
2025-03-06 16:02:35.795,0.0072513723444284,-6.105766760102329,0.0
2025-03-06 16:02:35.803,0.0071253828950089,-5.539657761855596,0.0
2025-03-06 16:02:35.811,0.0069934957075416,-4.959372498233035,0.0
2025-03-06 16:02:35.818,0.006856090814906,-4.367783192932484,0.0
2025-03-06 16:02:35.826,0.0067133856104365,-3.767615912193581,0.0
2025-03-06 16:02:35.834,0.0065654381587656,-3.161523622764756,0.0
2025-03-06 16:02:35.842,0.0064121591498078,-2.5521534075636354,0.0
2025-03-06 16:02:35.850,0.0062533314691688,-1.9422056801730596,0.0
2025-03-06 16:02:35.858,0.0060886358708059,-1.3344840785444785,0.0
2025-03-06 16:02:35.865,0.0059176809042753,-0.7319354454289082,0.0
2025-03-06 16:02:35.873,0.0057400351168713,-0.1376798800262304,0.0
2025-03-06 16:02:35.881,0.0055552595752273,0.4449687502352429,0.0
2025-03-06 16:02:35.889,0.0053629388546963,1.012491224790459,0.0
2025-03-06 16:02:35.897,0.0051627088192379,1.5611596468556508,0.0
2025-03-06 16:02:35.904,0.0049542798191271,2.087041812587426,0.0
2025-03-06 16:02:35.912,0.0047374543920179,2.586012908626123,0.0
2025-03-06 16:02:35.920,0.0045121390705362,3.0537744460627727,0.0
2025-03-06 16:02:35.928,0.004278350311172,3.485880631343558,0.0
2025-03-06 16:02:35.936,0.0040362147737421,3.877772643549784,0.0
2025-03-06 16:02:35.944,0.003785964265321,4.22482149107637,0.0
2025-03-06 16:02:35.951,0.0035279257593602,4.5223802205800805,0.0
2025-03-06 16:02:35.959,0.0032625070814116,4.765846214605263,0.0
2025-03-06 16:02:35.967,0.0029901790727771,4.950734117671031,0.0
2025-03-06 16:02:35.975,0.002711455223563,5.0727595615367385,0.0
2025-03-06 16:02:35.983,0.0024268698933115,5.127933322094414,0.0
2025-03-06 16:02:35.990,0.0021369563410347,5.112664855934326,0.0
2025-03-06 16:02:35.998,0.0018422258330744,5.023873377125992,0.0
2025-03-06 16:02:36.006,0.0015431489949421,4.859103801414941,0.0
2025-03-06 16:02:36.014,0.0012401403209811,4.6166440704387055,0.0
2025-03-06 16:02:36.022,0.0009335464751063,4.295639640761015,0.0
2025-03-06 16:02:36.029,0.0006236387861261,3.8962003506693,0.0
2025-03-06 16:02:36.037,0.0003106101205983,3.4194945273565054,0.0
2025-03-06 16:02:36.045,-5.423932295481024e-06,2.867825122599906,0.0
2025-03-06 16:02:36.053,-0.0003244198616361,2.2446829016751275,0.0
2025-03-06 16:02:36.061,-0.0006463974972263,1.554772269811532,0.0
2025-03-06 16:02:36.069,-0.0009714283723347,0.8040061908492419,0.0
2025-03-06 16:02:36.076,-0.0012996220126227,-0.0005321999909387,0.0
2025-03-06 16:02:36.084,-0.0016311111193234,-0.8506623174422916,0.0
2025-03-06 16:02:36.092,-0.0019660365955287,-1.737212692968912,0.0
2025-03-06 16:02:36.100,-0.0023045331911696,-2.650159330175076,0.0
2025-03-06 16:02:36.108,-0.0026467163456724,-3.5787922804824785,0.0
2025-03-06 16:02:36.115,-0.0029926706700382,-4.511905522676738,0.0
2025-03-06 16:02:36.123,-0.0033424404046737,-5.438004138713143,0.0
2025-03-06 16:02:36.131,-0.0036960220863599,-6.3455220138423405,0.0
2025-03-06 16:02:36.139,-0.0040533596024697,-7.223042892568108,0.0
2025-03-06 16:02:36.147,-0.0044143418458688,-8.05951760431397,0.0
2025-03-06 16:02:36.154,-0.0047788032361836,-8.844470620068318,0.0
2025-03-06 16:02:36.162,-0.0051465272926131,-9.568189780346644,0.0
2025-03-06 16:02:36.170,-0.0055172531659745,-10.221893994608184,0.0
2025-03-06 16:02:36.178,-0.0058906846515493,-10.797874883868944,0.0
2025-03-06 16:02:36.186,-0.0062665008719493,-11.289609637303004,0.0
2025-03-06 16:02:36.194,-0.0066443676636711,-11.691843687590683,0.0
2025-03-06 16:02:36.201,-0.0070239487367552,-12.000643086943324,0.0
2025-03-06 16:02:36.209,-0.0074049158310163,-12.213417603520142,0.0
2025-03-06 16:02:36.217,-0.0077869572875401,-12.328916490570023,0.0
2025-03-06 16:02:36.225,-0.008169784655199,-12.34719956565342,0.0
2025-03-06 16:02:36.233,-0.0085531371504967,-12.269586659276742,0.0
2025-03-06 16:02:36.240,-0.0089367839824948,-12.098588661970526,0.0
2025-03-06 16:02:36.248,-0.0093205247352987,-11.837823348430186,0.0
2025-03-06 16:02:36.256,-0.0097041881346321,-11.49191893424133,0.0
2025-03-06 16:02:36.264,-0.0100876295426803,-11.06640798245794,0.0
2025-03-06 16:02:36.272,-0.0104707273881274,-10.567613886604136,0.0
2025-03-06 16:02:36.279,-0.0108533785315914,-10.002531775202408,0.0
2025-03-06 16:02:36.287,-0.0112354924535542,-9.378705363760211,0.0
2025-03-06 16:02:36.295,-0.0116169842165006,-8.704101060322003,0.0
2025-03-06 16:02:36.303,-0.011997766354212,-7.986980527804377,0.0
2025-03-06 16:02:36.311,-0.012377740100082,-7.235772921602704,0.0
2025-03-06 16:02:36.319,-0.0127567866121382,-6.458948144014702,0.0
2025-03-06 16:02:36.326,-0.0131347589983627,-5.664892666103984,0.0
2025-03-06 16:02:36.334,-0.0135114759138921,-4.861789728413749,0.0
2025-03-06 16:02:36.342,-0.0138867172952953,-4.057506001496946,0.0
2025-03-06 16:02:36.350,-0.0142602225013588,-3.259487020840732,0.0
2025-03-06 16:02:36.358,-0.0146316908327517,-2.474663866076644,0.0
2025-03-06 16:02:36.365,-0.0150007841495146,-1.7093735930059069,0.0
2025-03-06 16:02:36.373,-0.0153671311118106,-0.969295817097588,0.0
2025-03-06 16:02:36.381,-0.0157303324443926,-0.2594075677349478,0.0
2025-03-06 16:02:36.389,-0.0160899665748934,0.4160419224391468,0.0
2025-03-06 16:02:36.397,-0.0164455950238034,1.0535354484510349,0.0
2025-03-06 16:02:36.404,-0.0167967670306233,1.6502707981263296,0.0
2025-03-06 16:02:36.412,-0.0171430230787967,2.2041230253988604,0.0
2025-03-06 16:02:36.420,-0.0174838971949682,2.713587522650477,0.0
2025-03-06 16:02:36.428,-0.0178189180651589,3.1777063072017167,0.0
2025-03-06 16:02:36.436,-0.0181476090529018,3.595980815177224,0.0
2025-03-06 16:02:36.444,-0.0184694871290502,3.968275270397424,0.0
2025-03-06 16:02:36.451,-0.0187840606433407,4.294715308074912,0.0
2025-03-06 16:02:36.459,-0.0190908259351588,4.5755869297310605,0.0
2025-03-06 16:02:36.467,-0.0193892630657169,4.811241006868756,0.0
2025-03-06 16:02:36.475,-0.0196788313461712,5.002008415342107,0.0
2025-03-06 16:02:36.483,-0.019958965598444,5.1481304692042205,0.0
2025-03-06 16:02:36.490,-0.0202290740600939,5.24970864860392,0.0
2025-03-06 16:02:36.498,-0.020488538578046,5.306676709924119,0.0
2025-03-06 16:02:36.506,-0.0207367173861351,5.318797166182447,0.0
2025-03-06 16:02:36.514,-0.0209729504515249,5.285682879960485,0.0
2025-03-06 16:02:36.522,-0.0211965671517758,5.206843178379826,0.0
2025-03-06 16:02:36.529,-0.0214068958919667,5.081752547813909,0.0
2025-03-06 16:02:36.537,-0.0216032751287646,4.909938671008544,0.0
2025-03-06 16:02:36.545,-0.0217850651015042,4.691085412508944,0.0
2025-03-06 16:02:36.553,-0.0219516594591701,4.4251454200643145,0.0
2025-03-06 16:02:36.561,-0.0221024960379806,4.11245635897904,0.0
2025-03-06 16:02:36.569,-0.0222370662571634,3.753854481669282,0.0
2025-03-06 16:02:36.576,-0.0223549227698198,3.350779278768636,0.0
2025-03-06 16:02:36.584,-0.022455685018165,2.905363356570528,0.0
2025-03-06 16:02:36.592,-0.0225390423164766,2.42050240746026,0.0
2025-03-06 16:02:36.600,-0.0226047542109468,1.899901130992984,0.0
2025-03-06 16:02:36.608,-0.022652648145248,1.3480921520436189,0.0
2025-03-06 16:02:36.615,-0.0226826147022024,0.770426288740276,0.0
2025-03-06 16:02:36.623,-0.0226946007480247,0.173033865287248,0.0
2025-03-06 16:02:36.631,-0.0226886007235664,-0.4372419327116114,0.0
2025-03-06 16:02:36.639,-0.0226646462559676,-1.0529374652575445,0.0
2025-03-06 16:02:36.647,-0.0226227942880106,-1.6660835710249742,0.0
2025-03-06 16:02:36.654,-0.0225631140083886,-2.268338944939376,0.0
2025-03-06 16:02:36.662,-0.0224856729406572,-2.8511372588034463,0.0
2025-03-06 16:02:36.670,-0.0223905225813029,-3.4058429495716367,0.0
2025-03-06 16:02:36.678,-0.0222776839762607,-3.923910482386125,0.0
2025-03-06 16:02:36.686,-0.022147133620673,-4.397042031841684,0.0
2025-03-06 16:02:36.694,-0.0219987901314942,-4.817338895196702,0.0
2025-03-06 16:02:36.701,-0.0218325023246397,-5.177442516129076,0.0
2025-03-06 16:02:36.709,-0.0216480395416891,-5.470661702608059,0.0
2025-03-06 16:02:36.717,-0.0214450851579224,-5.691083406233235,0.0
2025-03-06 16:02:36.725,-0.0212232340907522,-5.83366523287629,0.0
2025-03-06 16:02:36.733,-0.02098199485697,-5.894308622130263,0.0
2025-03-06 16:02:36.740,-0.0207207963781375,-5.869912322882356,0.0
2025-03-06 16:02:36.748,-0.0204389993560033,-5.758406374260503,0.0
2025-03-06 16:02:36.756,-0.0201359116529646,-5.558767259531122,0.0
2025-03-06 16:02:36.764,-0.0198108067626841,-5.271015234236237,0.0
2025-03-06 16:02:36.772,-0.0194629442313095,-4.896195051513083,0.0
2025-03-06 16:02:36.779,-0.0190915908422245,-4.436341439555912,0.0
2025-03-06 16:02:36.787,-0.0186960414668063,-3.894430755625425,0.0
2025-03-06 16:02:36.795,-0.0182756386335754,-3.274320275122116,0.0
2025-03-06 16:02:36.803,-0.0178297900431597,-2.580676596817093,0.0
2025-03-06 16:02:36.811,-0.0173579834535039,-1.818894673085811,0.0
2025-03-06 16:02:36.819,-0.0168597985701046,-0.9950090145447392,0.0
2025-03-06 16:02:36.826,-0.0163349157911953,-0.1155986724401389,0.0
2025-03-06 16:02:36.834,-0.0157831218479784,0.8123123324673877,0.0
2025-03-06 16:02:36.842,-0.0152043124684202,1.7813573903029507,0.0
2025-03-06 16:02:36.850,-0.0145984921393313,2.7839306624376365,0.0
2025-03-06 16:02:36.858,-0.0139657709286269,3.812289499184035,0.0
2025-03-06 16:02:36.865,-0.0133063582807645,4.85865389730811,0.0
2025-03-06 16:02:36.873,-0.0126205537210391,5.915300900471707,0.0
2025-03-06 16:02:36.881,-0.0119087343906457,6.974651811677078,0.0
2025-03-06 16:02:36.889,-0.0111713392202944,8.029350135707869,0.0
2025-03-06 16:02:36.897,-0.0104088494202985,9.072328335724947,0.0
2025-03-06 16:02:36.904,-0.0096217649795016,10.09686179007156,0.0
2025-03-06 16:02:36.912,-0.0088105771298744,11.096608769326162,0.0
2025-03-06 16:02:36.920,-0.0079757372415212,12.065635796872566,0.0
2025-03-06 16:02:36.928,-0.0071176232400713,12.998428374668029,0.0
2025-03-06 16:02:36.936,-0.0062365051801475,13.88988771141498,0.0
2025-03-06 16:02:36.944,-0.0053325118944072,14.735314745943777,0.0
2025-03-06 16:02:36.951,-0.0044056006507631,15.530383381017666,0.0
2025-03-06 16:02:36.959,-0.0034555316067549,16.27110540211044,0.0
2025-03-06 16:02:36.967,-0.0024818486596945,16.953790023492612,0.0
2025-03-06 16:02:36.975,-0.0014838680950307,17.575001351603632,0.0
2025-03-06 16:02:36.983,-0.0004606762680897,18.131517254165814,0.0
2025-03-06 16:02:36.990,0.000588862540548,18.620293145989237,0.0
2025-03-06 16:02:36.998,0.0016660870132567,19.03843403092878,0.0
2025-03-06 16:02:37.006,0.0027725074923542,19.383177770446306,0.0
2025-03-06 16:02:37.014,0.0039097618977517,19.65189199289011,0.0
2025-03-06 16:02:37.022,0.0050795588474615,19.842086333286705,0.0
2025-03-06 16:02:37.029,0.0062836087402627,19.951440827973222,0.0
2025-03-06 16:02:37.037,0.0075235444852984,19.977850318961607,0.0
2025-03-06 16:02:37.045,0.0088008344961177,19.919483699102877,0.0
2025-03-06 16:02:37.053,0.0101166913523097,19.774855809856515,0.0
2025-03-06 16:02:37.061,0.0114719801371028,19.542908851721204,0.0
2025-03-06 16:02:37.069,0.0128671309674517,19.223099346258824,0.0
2025-03-06 16:02:37.076,0.0143020606850327,18.815486058151304,0.0
2025-03-06 16:02:37.084,0.015776108972246,18.320813898328243,0.0
2025-03-06 16:02:37.092,0.0172879941565581,17.740588724323214,0.0
2025-03-06 16:02:37.100,0.0188357936501284,17.077138152700464,0.0
2025-03-06 16:02:37.108,0.0204169534373194,16.333653999905565,0.0
2025-03-06 16:02:37.115,0.0220283303099739,15.514212749660649,0.0
2025-03-06 16:02:37.123,0.0236662695487556,14.623771465118278,0.0
2025-03-06 16:02:37.131,0.025326719353363,13.668137764239711,0.0
2025-03-06 16:02:37.139,0.0270053816123155,12.653913786271582,0.0
2025-03-06 16:02:37.147,0.0286978967623651,11.588415416955591,0.0
2025-03-06 16:02:37.154,0.0304000586448274,10.479569329750184,0.0
2025-03-06 16:02:37.162,0.0321080534715907,9.33579156189042,0.0
2025-03-06 16:02:37.170,0.0338187153318841,8.165852304028347,0.0
2025-03-06 16:02:37.178,0.0355297892009284,6.978732275303274,0.0
2025-03-06 16:02:37.186,0.0372401912082088,5.783476432229578,0.0
2025-03-06 16:02:37.194,0.0389502549418195,4.589050791208142,0.0
2025-03-06 16:02:37.201,0.0406619517447485,3.404207825110713,0.0
2025-03-06 16:02:37.209,0.0423790723571076,2.2373652413832223,0.0
2025-03-06 16:02:37.217,0.0441073570444672,1.0965020034895252,0.0
2025-03-06 16:02:37.225,0.0458545616494136,-0.0109257141777641,0.0
2025-03-06 16:02:37.233,0.047630447806327,-1.0780472561219627,0.0
2025-03-06 16:02:37.240,0.0494466868414345,-2.098618861733596,0.0
2025-03-06 16:02:37.248,0.0513166686831459,-3.067044927873975,0.0
2025-03-06 16:02:37.256,0.0532552094518518,-3.978381527921865,0.0
2025-03-06 16:02:37.264,0.0552781541935815,-4.828325469114653,0.0
2025-03-06 16:02:37.272,0.0574018743594429,-5.613192812457018,0.0
2025-03-06 16:02:37.279,0.0596426630994803,-6.32989111513562,0.0
2025-03-06 16:02:37.287,0.0620160352674101,-6.975889664251812,0.0
2025-03-06 16:02:37.295,0.0645359431873993,-7.549191654851536,0.0
2025-03-06 16:02:37.303,0.0672139236195712,-8.048311652932206,0.0
2025-03-06 16:02:37.311,0.0700581959229205,-8.472260830834669,0.0
2025-03-06 16:02:37.319,0.0730727361782548,-8.820541447654659,0.0
2025-03-06 16:02:37.326,0.0762563569631922,-9.09315096525407,0.0
2025-03-06 16:02:37.334,0.0796018272755353,-9.290595135587647,0.0
2025-03-06 16:02:37.342,0.0830950712474114,-9.41390844815016,0.0
2025-03-06 16:02:37.350,0.0867144872200679,-9.464679548223105,0.0
2025-03-06 16:02:37.358,0.0904304300343857,-9.445078669304475,0.0
2025-03-06 16:02:37.365,0.0942048987306367,-9.357883791130453,0.0
2025-03-06 16:02:37.373,0.0979914689729443,-9.20650214343992,0.0
2025-03-06 16:02:37.381,0.101735504196144,-8.994983811988805,0.0
2025-03-06 16:02:37.389,0.1053746716632587,-8.728024540879796,0.0
2025-03-06 16:02:37.397,0.1088397795000963,-8.410955329457392,0.0
2025-03-06 16:02:37.404,0.1120559386422344,-8.04971705192949,0.0
2025-03-06 16:02:37.412,0.114944039824147,-7.650819037967751,0.0
2025-03-06 16:02:37.420,0.1174225207195251,-7.221281296757362,0.0
2025-03-06 16:02:37.428,0.1194093827967701,-6.768560803155491,0.0
2025-03-06 16:02:37.436,0.1208244022443654,-6.300462956941903,0.0
2025-03-06 16:02:37.444,0.1215914653423508,-5.825039945890754,0.0
2025-03-06 16:02:37.451,0.1216409467918553,-5.350478268406801,0.0
2025-03-06 16:02:37.459,0.1209120406685406,-4.884978085128628,0.0
2025-03-06 16:02:37.467,0.1193549487637469,-4.436627361059293,0.0
2025-03-06 16:02:37.475,0.1169328309348701,-4.013273929520761,0.0
2025-03-06 16:02:37.483,0.113623427181233,-3.6223986656020783,0.0
2025-03-06 16:02:37.490,0.1094202715357357,-3.270992916027771,0.0
2025-03-06 16:02:37.498,0.1043334332806926,-2.965443214259294,0.0
2025-03-06 16:02:37.506,0.0983897411256811,-2.711426133989462,0.0
2025-03-06 16:02:37.514,0.0916324702583358,-2.513815915956884,0.0
2025-03-06 16:02:37.522,0.0841204993078559,-2.376607247578207,0.0
2025-03-06 16:02:37.529,0.0759269718579326,-2.302855278842571,0.0
2025-03-06 16:02:37.537,0.0671375220623328,-2.2946346149156587,0.0
2025-03-06 16:02:37.545,0.0578481432935841,-2.3530186317333355,0.0
2025-03-06 16:02:37.553,0.0481627909846075,-2.478080014227978,0.0
2025-03-06 16:02:37.561,0.0381908157698657,-2.6689129182472224,0.0
2025-03-06 16:02:37.569,0.0280443216850223,-2.923676609052513,0.0
2025-03-06 16:02:37.576,0.0178355381841108,-3.239659837017876,0.0
2025-03-06 16:02:37.584,0.0076742859503163,-3.613364584411213,0.0
2025-03-06 16:02:37.592,-0.0023343934381494,-4.040607170090522,0.0
2025-03-06 16:02:37.600,-0.0120923839832764,-4.516634050332309,0.0
2025-03-06 16:02:37.608,-0.0215103678685048,-5.036249026292383,0.0
2025-03-06 16:02:37.615,-0.0305093841892428,-5.593947986823557,0.0
2025-03-06 16:02:37.623,-0.0390220437387607,-6.184056807169017,0.0
2025-03-06 16:02:37.631,-0.046993379397788,-6.800867620724707,0.0
2025-03-06 16:02:37.639,-0.0543813212491381,-7.438768419217178,0.0
2025-03-06 16:02:37.647,-0.0611567957568282,-8.092360859166389,0.0
2025-03-06 16:02:37.654,-0.067303459673714,-8.756561305864944,0.0
2025-03-06 16:02:37.662,-0.0728170914562697,-9.426680571796414,0.0
2025-03-06 16:02:37.670,-0.0777046749051282,-10.098478529046837,0.0
2025-03-06 16:02:37.678,-0.0819832204484722,-10.768190791936354,0.0
2025-03-06 16:02:37.686,-0.0856783781415117,-11.432525940798223,0.0
2025-03-06 16:02:37.694,-0.0888229025229632,-12.088633223742022,0.0
2025-03-06 16:02:37.701,-0.0914550326000265,-12.734042242411483,0.0
2025-03-06 16:02:37.709,-0.0936168504114729,-13.366577702909373,0.0
2025-03-06 16:02:37.717,-0.0953526791960782,-13.984253797410783,0.0
2025-03-06 16:02:37.725,-0.0967075775477762,-14.585154086605122,0.0
2025-03-06 16:02:37.733,-0.0977259791579962,-15.167303801207051,0.0
2025-03-06 16:02:37.740,-0.0984505188505096,-15.728542207576387,0.0
2025-03-06 16:02:37.748,-0.0989210749718819,-16.266403033127066,0.0
2025-03-06 16:02:37.756,-0.099174046482314,-16.77801087745425,0.0
2025-03-06 16:02:37.764,-0.0992418709352787,-17.260001016790138,0.0
2025-03-06 16:02:37.772,-0.0991527774847026,-17.708469038727145,0.0
2025-03-06 16:02:37.779,-0.0989307577529156,-18.11895535000876,0.0
2025-03-06 16:02:37.787,-0.0985957276152039,-18.486467848732715,0.0
2025-03-06 16:02:37.795,-0.0981638454771396,-18.80554404363344,0.0
2025-03-06 16:02:37.803,-0.0976479479362917,-19.070351759315685,0.0
2025-03-06 16:02:37.811,-0.0970580618772404,-19.274825416663067,0.0
2025-03-06 16:02:37.819,-0.0964019527234786,-19.412832847590984,0.0
2025-03-06 16:02:37.826,-0.0956856713136846,-19.47836580825484,0.0
2025-03-06 16:02:37.834,-0.0949140662763986,-19.46574589574074,0.0
2025-03-06 16:02:37.842,-0.09409123451431,-19.36983653301382,0.0
2025-03-06 16:02:37.850,-0.0932208891839381,-19.18625112676185,0.0
2025-03-06 16:02:37.858,-0.0923066320165317,-18.91154745860574,0.0
2025-03-06 16:02:37.865,-0.0913521244807815,-18.54339884957409,0.0
2025-03-06 16:02:37.873,-0.0903611595720688,-18.080733620148717,0.0
2025-03-06 16:02:37.881,-0.0893376424498278,-17.523835806528144,0.0
2025-03-06 16:02:37.889,-0.088285493436307,-16.87440191628509,0.0
2025-03-06 16:02:37.897,-0.0872084908828035,-16.135550619141572,0.0
2025-03-06 16:02:37.904,-0.0861100740269403,-15.311784559181596,0.0
2025-03-06 16:02:37.912,-0.0849931271763493,-14.408905820477418,0.0
2025-03-06 16:02:37.920,-0.0838597663702527,-13.43388885107422,0.0
2025-03-06 16:02:37.928,-0.0827111481458725,-12.39471672320896,0.0
2025-03-06 16:02:37.936,-0.0815473173018678,-11.300188360155705,0.0
2025-03-06 16:02:37.944,-0.080367106872772,-10.159705687752565,0.0
2025-03-06 16:02:37.951,-0.0791680993173644,-8.983050491965061,0.0
2025-03-06 16:02:37.959,-0.0779466536087181,-7.780161034710729,0.0
2025-03-06 16:02:37.967,-0.0766979987986029,-6.560918185179603,0.0
2025-03-06 16:02:37.975,-0.0754163908960479,-5.334949984492977,0.0
2025-03-06 16:02:37.983,-0.0740953266535415,-4.111462232159656,0.0
2025-03-06 16:02:37.990,-0.0727278050720544,-2.899100946941477,0.0
2025-03-06 16:02:37.998,-0.0713066249615552,-1.7058505196803495,0.0
2025-03-06 16:02:38.006,-0.0698247045851231,-0.5389691670056483,0.0
2025-03-06 16:02:38.014,-0.0682754073296153,0.5950389481298057,0.0
2025-03-06 16:02:38.022,-0.0666528558529867,1.69041769494623,0.0
2025-03-06 16:02:38.029,-0.0649522168817037,2.7421236994734137,0.0
2025-03-06 16:02:38.037,-0.0631699402987698,3.745767973842864,0.0
2025-03-06 16:02:38.045,-0.0613039393596805,4.697541660840531,0.0
2025-03-06 16:02:38.053,-0.0593537031792743,5.594133640586477,0.0
2025-03-06 16:02:38.061,-0.0573203372113794,6.432647742923369,0.0
2025-03-06 16:02:38.069,-0.0552065316826581,7.210526776748246,0.0
2025-03-06 16:02:38.076,-0.0530164616015549,7.9254895750496255,0.0
2025-03-06 16:02:38.084,-0.0507556250460675,8.57548585104293,0.0
2025-03-06 16:02:38.092,-0.0484306289744818,9.158671989219132,0.0
2025-03-06 16:02:38.100,-0.0460489337439235,9.673409096925845,0.0
2025-03-06 16:02:38.108,-0.0436185687561784,10.118282861601344,0.0
2025-03-06 16:02:38.115,-0.0411478321860348,10.49214312836698,0.0
2025-03-06 16:02:38.123,-0.038644987794771,10.79415974041219,0.0
2025-03-06 16:02:38.131,-0.0361179716493915,11.023890147066435,0.0
2025-03-06 16:02:38.139,-0.0335741212176959,11.181353626333182,0.0
2025-03-06 16:02:38.147,-0.0310199386289213,11.267106704786368,0.0
2025-03-06 16:02:38.154,-0.0284608987172319,11.282314473574992,0.0
2025-03-06 16:02:38.162,-0.0259013108269733,11.228812951723729,0.0
2025-03-06 16:02:38.170,-0.0233442414316858,11.10915836958348,0.0
2025-03-06 16:02:38.178,-0.020791502543904,10.926660152687218,0.0
2025-03-06 16:02:38.186,-0.0182437086625251,10.685395389763398,0.0
2025-03-06 16:02:38.194,-0.0157004025361044,10.390203581864975,0.0
2025-03-06 16:02:38.201,-0.0131602472842811,10.046661416123554,0.0
2025-03-06 16:02:38.209,-0.010621279496657,9.661038125393532,0.0
2025-03-06 16:02:38.217,-0.0080812150097257,9.240232640048449,0.0
2025-03-06 16:02:38.225,-0.0055377963898928,8.791694189016813,0.0
2025-03-06 16:02:38.233,-0.0029891688866652,8.32332826673256,0.0
2025-03-06 16:02:38.240,-0.000434269768063,7.8433899754623955,0.0
2025-03-06 16:02:38.248,0.0021267855636763,7.360366719256769,0.0
2025-03-06 16:02:38.256,0.0046923384562285,6.882852119239921,0.0
2025-03-06 16:02:38.264,0.0072588613793228,6.419412900487618,0.0
2025-03-06 16:02:38.272,0.0098206903042664,5.978450430540981,0.0
2025-03-06 16:02:38.279,0.0123698328124254,5.56805862396419,0.0
2025-03-06 16:02:38.287,0.0148958679799774,5.195880103435533,0.0
