Timestamp,GSR_Filtered,PPG_Filtered
2025-07-25 11:59:57.725,-0.0049663297961033,5.131741722137651
2025-07-25 11:59:57.733,-0.0052625374660472,5.134517248379167
2025-07-25 11:59:57.741,-0.0055785620933264,5.120075999187113
2025-07-25 11:59:57.748,-0.0059089770100107,5.089567823714616
2025-07-25 11:59:57.756,-0.0062485922225199,5.04422748022411
2025-07-25 11:59:57.764,-0.0065925618892203,4.985358221958231
2025-07-25 11:59:57.772,-0.0069364708224633,4.914315277906771
2025-07-25 11:59:57.780,-0.0072763988143455,4.832489756088268
2025-07-25 11:59:57.787,-0.0076089623558684,4.741293295245944
2025-07-25 11:59:57.795,-0.0079313340808533,4.642143570217136
2025-07-25 11:59:57.803,-0.0082412410107181,4.536450552677888
2025-07-25 11:59:57.811,-0.0085369433996672,4.425603275640992
2025-07-25 11:59:57.819,-0.0088171966539172,4.310956769960328
2025-07-25 11:59:57.826,-0.009081199323503,4.193818842438277
2025-07-25 11:59:57.834,-0.0093285304370144,4.075436443074697
2025-07-25 11:59:57.842,-0.0095590794922845,3.95698151049326
2025-07-25 11:59:57.850,-0.0097729723746002,3.839536371232109
2025-07-25 11:59:57.858,-0.0099704964527458,3.7240789761996935
2025-07-25 11:59:57.866,-0.01015202805931,3.611468457233383
2025-07-25 11:59:57.873,-0.0103179653764508,3.502431650352049
2025-07-25 11:59:57.881,-0.0104686693496503,3.397551339661286
2025-07-25 11:59:57.889,-0.0106044146495147,3.29725701686441
2025-07-25 11:59:57.897,-0.0107253519703805,3.201818924176069
2025-07-25 11:59:57.905,-0.0108314822213273,3.1113460572841567
2025-07-25 11:59:57.912,-0.0109226425561463,3.02578865908968
2025-07-25 11:59:57.920,-0.0109985037438569,2.9449455467658834
2025-07-25 11:59:57.928,-0.0110585780372469,2.8684763952714456
2025-07-25 11:59:57.936,-0.0111022363705029,2.7959188557768693
2025-07-25 11:59:57.944,-0.0111287334054812,2.726710121157978
2025-07-25 11:59:57.951,-0.0111372387221119,2.6602122717278016
2025-07-25 11:59:57.959,-0.0111268723445302,2.5957404616209283
2025-07-25 11:59:57.967,-0.0110967427649973,2.532592765846019
2025-07-25 11:59:57.975,-0.0110459856520981,2.470080327075262
2025-07-25 11:59:57.983,-0.0109738015461042,2.407556343477381
2025-07-25 11:59:57.991,-0.0108794910404848,2.3444424420210974
2025-07-25 11:59:57.998,-0.0107624861299314,2.280251092954735
2025-07-25 11:59:58.006,-0.0106223765224668,2.2146029325175074
2025-07-25 11:59:58.014,-0.0104589298331889,2.147238149104499
2025-07-25 11:59:58.022,-0.0102721047732523,2.0780214224602265
2025-07-25 11:59:58.030,-0.0100620567051417,2.006940258064398
2025-07-25 11:59:58.037,-0.0098291352376419,1.934096909047684
2025-07-25 11:59:58.045,-0.009573873948988,1.85969440986946
2025-07-25 11:59:58.053,-0.0092969729124069,1.784017544231187
2025-07-25 11:59:58.061,-0.0089992753818908,1.7074098194789706
2025-07-25 11:59:58.069,-0.0086817406033921,1.6302477114388896
2025-07-25 11:59:58.076,-0.0083454150750141,1.5529135755482542
2025-07-25 11:59:58.084,-0.0079914045941869,1.4757686946777209
2025-07-25 11:59:58.092,-0.0076208491239328,1.3991279515516146
2025-07-25 11:59:58.100,-0.007234901998597,1.323237571330154
2025-07-25 11:59:58.108,-0.0068347143921834,1.2482572740927829
2025-07-25 11:59:58.116,-0.0064214253683688,1.1742480043459544
2025-07-25 11:59:58.123,-0.0059961572706876,1.0942210908872458
2025-07-25 11:59:58.131,-0.0055600157360142,1.0262242529377017
2025-07-25 11:59:58.139,-0.0051140932614748,0.9696532116231732
2025-07-25 11:59:58.147,-0.0046594750557092,0.9234614993237223
2025-07-25 11:59:58.155,-0.0041972458845821,0.8862047846585476
2025-07-25 11:59:58.162,-0.0037284967905807,0.8561028865488983
2025-07-25 11:59:58.170,-0.0032543308955217,0.831117197166474
2025-07-25 11:59:58.178,-0.0027758678822821,0.8090404447454376
2025-07-25 11:59:58.186,-0.0022942470416122,0.787595047040472
2025-07-25 11:59:58.194,-0.0018106288857069,0.76453578752686
2025-07-25 11:59:58.201,-0.0013261953212813,0.7377522356156863
2025-07-25 11:59:58.209,-0.0008421483274225,0.7053662594420941
2025-07-25 11:59:58.217,-0.0003597070353953,0.6658201560357826
2025-07-25 11:59:58.225,0.0001198969259584,0.6179513407064886
2025-07-25 11:59:58.233,0.0005954259613541,0.5610501674150995
2025-07-25 11:59:58.241,0.0010656450367663,0.4948982473193482
2025-07-25 11:59:58.248,0.0015293322708007,0.419785532796915
2025-07-25 11:59:58.256,0.0019852915672793,0.3365053779588605
2025-07-25 11:59:58.264,0.0024323671482074,0.2463277255515725
2025-07-25 11:59:58.272,0.0028694597040873,0.1509514728710172
2025-07-25 11:59:58.280,0.0032955437145907,0.0524379162238428
2025-07-25 11:59:58.287,0.0037096853221102,-0.0468720511099213
2025-07-25 11:59:58.295,0.0041110599807239,-0.1444536242479296
2025-07-25 11:59:58.303,0.0044989689933853,-0.2377027092867517
2025-07-25 11:59:58.311,0.0048728540783368,-0.3240450827728844
2025-07-25 11:59:58.319,0.0052323093234253,-0.4010453925609301
2025-07-25 11:59:58.326,0.0055770902163186,-0.4665112012661543
2025-07-25 11:59:58.334,0.0059071197288062,-0.5185873898686745
2025-07-25 11:59:58.342,0.0062224915790812,-0.5558365915720078
2025-07-25 11:59:58.350,0.0065234707733541,-0.5773019180133248
2025-07-25 11:59:58.358,0.0068104913797446,-0.5825490602397907
2025-07-25 11:59:58.366,0.0070841513091622,-0.5716858665378307
2025-07-25 11:59:58.373,0.0073452037672754,-0.5453586663018668
2025-07-25 11:59:58.381,0.007594545018552,-0.5047258466743996
2025-07-25 11:59:58.389,0.0078331981144887,-0.4514104002460077
2025-07-25 11:59:58.397,0.0080622922557561,-0.3874342457515722
2025-07-25 11:59:58.405,0.0082830375397295,-0.3151379901254736
2025-07-25 11:59:58.412,0.0084966950724071,-0.2370903883485265
2025-07-25 11:59:58.420,0.0087045427973644,-0.1559920423134492
2025-07-25 11:59:58.428,0.0089078378060812,-0.0745778714849706
2025-07-25 11:59:58.436,0.0091077761956645,0.0044773778921694
2025-07-25 11:59:58.444,0.0093054516565824,0.0786467928501157
2025-07-25 11:59:58.451,0.0095018139749276,0.1456289605476881
2025-07-25 11:59:58.459,0.0096976286481526,0.2034132104370943
2025-07-25 11:59:58.467,0.0098934388528761,0.2503307797713322
2025-07-25 11:59:58.475,0.0100895309874662,0.2850910283701908
2025-07-25 11:59:58.483,0.0102859049467302,0.3068025591091607
2025-07-25 11:59:58.491,0.0104822502640174,0.3149797442680691
2025-07-25 11:59:58.498,0.0106779292764845,0.3095356835695297
2025-07-25 11:59:58.506,0.0108719684164095,0.2907630071414392
2025-07-25 11:59:58.514,0.011063058540369,0.2593041796029272
2025-07-25 11:59:58.522,0.0112495649266653,0.2161130718237063
2025-07-25 11:59:58.530,0.0114295472514563,0.1624095733632445
2025-07-25 11:59:58.537,0.0116007894746884,0.099628957472547
2025-07-25 11:59:58.545,0.0117608391109143,0.0293676145882252
2025-07-25 11:59:58.553,0.0119070549222461,-0.0466733355043477
2025-07-25 11:59:58.561,0.0120366617957203,-0.1267451386627322
2025-07-25 11:59:58.569,0.0121468114781409,-0.2091078660081619
2025-07-25 11:59:58.576,0.0122346478332471,-0.2920849373984747
2025-07-25 11:59:58.584,0.0122973752755341,-0.37411442584251
2025-07-25 11:59:58.592,0.0123323290068734,-0.4537958676745502
2025-07-25 11:59:58.600,0.0123370456196507,-0.5299313161534052
2025-07-25 11:59:58.608,0.0123093324949708,-0.6015594087407014
2025-07-25 11:59:58.616,0.0122473342112742,-0.6679812863027998
2025-07-25 11:59:58.623,0.012149593969168,-0.7287773224033205
2025-07-25 11:59:58.631,0.0120151079548858,-0.7838138063092295
2025-07-25 11:59:58.639,0.0118433706531251,-0.8332389811869265
2025-07-25 11:59:58.647,0.0116344093413343,-0.8774681681871551
2025-07-25 11:59:58.655,0.0113888063157207,-0.917158098909114
2025-07-25 11:59:58.662,0.0111077077871469,-0.9531710159687647
2025-07-25 11:59:58.670,0.0107928187927515,-0.9865295586868126
2025-07-25 11:59:58.678,0.0104463838573408,-1.0183638983418806
2025-07-25 11:59:58.686,0.0100711535119248,-1.0498529974295463
2025-07-25 11:59:58.694,0.0096703371665346,-1.0821622194945038
2025-07-25 11:59:58.701,0.0092475432699838,-1.116379795202657
2025-07-25 11:59:58.709,0.00880670816381,-1.153454840003228
2025-07-25 11:59:58.717,0.0083520154704893,-1.194139698070382
2025-07-25 11:59:58.725,0.007887808121803,-1.2389393351775708
2025-07-25 11:59:58.733,0.007418495184388,-1.2880703063312244
2025-07-25 11:59:58.741,0.0069484555828422,-1.3414314805555536
2025-07-25 11:59:58.748,0.0064819408324905,-1.3985882246085444
2025-07-25 11:59:58.756,0.0060229790676607,-1.4587711505176824
2025-07-25 11:59:58.764,0.0055752829298836,-1.5208898530054469
2025-07-25 11:59:58.772,0.0051421641170775,-1.5835613481569708
2025-07-25 11:59:58.780,0.0047264574769643,-1.6451522228502202
2025-07-25 11:59:58.787,0.0043304574249163,-1.7038328567172427
2025-07-25 11:59:58.795,0.003955869176852,-1.7576415146597533
2025-07-25 11:59:58.803,0.0036037768135787,-1.8045556500954647
2025-07-25 11:59:58.811,0.0032746295503604,-1.8425674250022763
2025-07-25 11:59:58.819,0.0029682467944541,-1.869760257273224
2025-07-25 11:59:58.826,0.0026838416845041,-1.8843831591426723
2025-07-25 11:59:58.834,0.0024200619528469,-1.8849197352924836
2025-07-25 11:59:58.842,0.0021750463047736,-1.87014895949782
2025-07-25 11:59:58.850,0.0019464941496758,-1.839195231005057
2025-07-25 11:59:58.858,0.0017317463806505,-1.791565708407845
2025-07-25 11:59:58.866,0.0015278748276296,-1.7271735070975331
2025-07-25 11:59:58.873,0.0013317778937998,-1.6463459979899269
2025-07-25 11:59:58.881,0.0011402797277818,-1.549818126329886
2025-07-25 11:59:58.889,0.0009502301617936,-1.4387113421619673
2025-07-25 11:59:58.897,0.0007586026439361,-1.31449935879852
2025-07-25 11:59:58.905,0.0005625875525103,-1.1789624958831084
2025-07-25 11:59:58.912,0.0003596785771119,-1.0341327941798522
2025-07-25 11:59:58.920,0.0001477502162191,-0.882232399198656
2025-07-25 11:59:58.928,-7.487519364529716e-05,-0.7256078981122386
2025-07-25 11:59:58.936,-0.0003093721629444,-0.566663357709071
2025-07-25 11:59:58.944,-0.0005563693715158,-0.4077947486775201
2025-07-25 11:59:58.951,-0.0008159202593411,-0.251328257513306
2025-07-25 11:59:58.959,-0.0010874873086519,-0.0994646961789549
2025-07-25 11:59:58.967,-0.0013699403330098,0.0457681569788899
2025-07-25 11:59:58.975,-0.0016615690138086,0.1825538908664593
2025-07-25 11:59:58.983,-0.0019601098060396,0.3093155561010519
2025-07-25 11:59:58.991,-0.0022627871800579,0.4247331052666233
2025-07-25 11:59:58.998,-0.0025663689944314,0.5277502558765979
2025-07-25 11:59:59.006,-0.0028672355375814,0.6175713152203656
2025-07-25 11:59:59.014,-0.0031614613690899,0.6936489223518884
2025-07-25 11:59:59.022,-0.0034449086033922,0.755664021386562
2025-07-25 11:59:59.030,-0.0037133298212126,0.8034996731647488
2025-07-25 11:59:59.037,-0.0039624783910204,0.8372105311314919
2025-07-25 11:59:59.045,-0.0041882235952227,0.8569899448758936
2025-07-25 11:59:59.053,-0.0043866675652141,0.8631367045403806
2025-07-25 11:59:59.061,-0.0045542606706491,0.8560233942099531
2025-07-25 11:59:59.069,-0.0046879117631891,0.836068175935764
2025-07-25 11:59:59.076,-0.0047850895993334,0.8037115762429867
2025-07-25 11:59:59.084,-0.0048439118025318,0.7593995013807531
2025-07-25 11:59:59.092,-0.0048632177711386,0.7035732846902306
2025-07-25 11:59:59.100,-0.0048426220445511,0.6366670945538826
2025-07-25 11:59:59.108,-0.0047825450111383,0.5591125318652872
2025-07-25 11:59:59.116,-0.0046842186022566,0.4713497516227696
2025-07-25 11:59:59.123,-0.0045496656526688,0.3738439885117768
2025-07-25 11:59:59.131,-0.0043816527205155,0.2671059878469775
2025-07-25 11:59:59.139,-0.0041836172986218,0.1517145726389166
2025-07-25 11:59:59.147,-0.0039595715730468,0.0283394355850713
2025-07-25 11:59:59.155,-0.0037139861357547,-0.1022377598858961
2025-07-25 11:59:59.162,-0.0034516581172266,-0.2391057555567252
2025-07-25 11:59:59.170,-0.003177568903924,-0.3812110876465076
2025-07-25 11:59:59.178,-0.0028967369730157,-0.5273516819176409
2025-07-25 11:59:59.186,-0.0026140715439608,-0.6761774424598606
2025-07-25 11:59:59.194,-0.0023342327809467,-0.8261981884839277
2025-07-25 11:59:59.202,-0.0020615041344545,-0.9757988584646016
2025-07-25 11:59:59.209,-0.0017996819989421,-1.1232614865183586
2025-07-25 11:59:59.217,-0.0015519871474625,-1.266793082467211
2025-07-25 11:59:59.225,-0.0013210013863032,-1.40455823571873
2025-07-25 11:59:59.233,-0.0011086315947689,-1.534715034290792
2025-07-25 11:59:59.241,-0.0009161019253652,-1.6554527612136891
2025-07-25 11:59:59.248,-0.000743973672429,-1.765029813440427
2025-07-25 11:59:59.256,-0.0005921912923113,-1.8618103875536816
2025-07-25 11:59:59.264,-0.0004601521534081,-1.94429868142676
2025-07-25 11:59:59.272,-0.0003467966127474,-2.011169640184268
2025-07-25 11:59:59.280,-0.0002507139522445,-2.061295579266387
2025-07-25 11:59:59.287,-0.0001702587767199,-2.0937682951821626
2025-07-25 11:59:59.295,-0.000103671895056,-2.107916488609282
2025-07-25 11:59:59.303,-4.919953296986991e-05,-2.1033184612829774
2025-07-25 11:59:59.311,-5.204926178039852e-06,-2.079810112880898
2025-07-25 11:59:59.319,2.973308013863442e-05,-2.0374882718438587
2025-07-25 11:59:59.327,5.673885220994977e-05,-1.9767093656123973
2025-07-25 11:59:59.334,7.657945249771462e-05,-1.898083397703436
2025-07-25 11:59:59.342,8.962679656748478e-05,-1.802463179993774
2025-07-25 11:59:59.350,9.58432662679728e-05,-1.6909287908433586
2025-07-25 11:59:59.358,9.479033236689108e-05,-1.5647673032206575
2025-07-25 11:59:59.366,8.565856749566537e-05,-1.425447950158777
2025-07-25 11:59:59.373,6.731648768759309e-05,-1.274593059580262
2025-07-25 11:59:59.381,3.8375067702426426e-05,-1.1139452858415668
2025-07-25 11:59:59.389,-2.7355055439813425e-06,-0.9453318776415152
2025-07-25 11:59:59.397,-5.768036819777188e-05,-0.7706269339395442
2025-07-25 11:59:59.405,-0.0001281293209716,-0.5917127904789024
2025-07-25 11:59:59.412,-0.0002156644328856,-0.4104418262376774
2025-07-25 11:59:59.420,-0.0003216893007668,-0.2286000582411144
2025-07-25 11:59:59.428,-0.0004473433112853,-0.0478738863493901
2025-07-25 11:59:59.436,-0.0005934241212012,0.1301787489140727
2025-07-25 11:59:59.444,-0.000760321213415,0.3041517123348217
2025-07-25 11:59:59.452,-0.0009479628098032,0.472807679670888
2025-07-25 11:59:59.459,-0.0011557778024336,0.6350882328354588
2025-07-25 11:59:59.467,-0.0013826738353966,0.7901167655651442
2025-07-25 11:59:59.475,-0.0016270322027642,0.9371942199574832
2025-07-25 11:59:59.483,-0.0018867197616756,1.0757879774983123
2025-07-25 11:59:59.491,-0.0021591176116044,1.2055145294810767
2025-07-25 11:59:59.498,-0.0024411658801464,1.326116841492718
2025-07-25 11:59:59.506,-0.0027294235153267,1.4374375917606144
2025-07-25 11:59:59.514,-0.0030201414565723,1.5393896868600556
2025-07-25 11:59:59.522,-0.0033093470078664,1.63192562100745
2025-07-25 11:59:59.530,-0.0035929368028711,1.715007329001616
2025-07-25 11:59:59.537,-0.0038667754987537,1.7885781780832335
2025-07-25 11:59:59.545,-0.0041267972138567,1.8525386519727296
2025-07-25 11:59:59.553,-0.0043691066528168,1.906727110666524
2025-07-25 11:59:59.561,-0.0045900768329801,1.9509067748649576
2025-07-25 11:59:59.569,-0.004786440408614,1.9847597971533792
2025-07-25 11:59:59.577,-0.004955371850668,2.0078889556871964
2025-07-25 11:59:59.584,-0.0050945581688617,2.0198271512719668
2025-07-25 11:59:59.592,-0.0052022563504226,2.020054515550767
2025-07-25 11:59:59.600,-0.0052773360802771,2.0080225586949254
2025-07-25 11:59:59.608,-0.0053193065279708,1.9831844169827515
2025-07-25 11:59:59.616,-0.0053283261187119,1.9450299254156729
2025-07-25 11:59:59.623,-0.0053051943855605,1.8931239579399253
2025-07-25 11:59:59.631,-0.0052513252822272,1.8271462617259997
2025-07-25 11:59:59.639,-0.005168701730621,1.7469308705147066
2025-07-25 11:59:59.647,-0.0050598117700062,1.6525031213860728
2025-07-25 11:59:59.655,-0.004927567580457,1.5441123250404476
2025-07-25 11:59:59.662,-0.0047752098233349,1.4222582544100932
2025-07-25 11:59:59.670,-0.0046062009209577,1.2877098173162185
2025-07-25 11:59:59.678,-0.0044241118010802,1.1415145594707312
2025-07-25 11:59:59.686,-0.0042325070985373,0.9849979977515356
2025-07-25 11:59:59.694,-0.004034833822012,0.8197522028748536
2025-07-25 11:59:59.702,-0.003834318163621,0.6476135216103629
2025-07-25 11:59:59.709,-0.0036338746143988,0.4706298271562673
2025-07-25 11:59:59.717,-0.0034360309433014,0.2910181790256319
2025-07-25 11:59:59.725,-0.0032428718749291,0.1111142266651775
2025-07-25 11:59:59.733,-0.0030560034302263,-0.0666849218748143
2025-07-25 11:59:59.741,-0.0028765389311003,-0.2399823368879876
2025-07-25 11:59:59.748,-0.0027051066708673,-0.4064451550336299
2025-07-25 11:59:59.756,-0.0025418781930165,-0.5638683225161912
2025-07-25 11:59:59.764,-0.0023866150096937,-0.7102357434590034
2025-07-25 11:59:59.772,-0.0022387305945845,-0.8437764231502879
2025-07-25 11:59:59.780,-0.0020973638077443,-0.9630133347764472
2025-07-25 11:59:59.787,-0.0019614595856632,-1.0668029765839426
2025-07-25 11:59:59.795,-0.0018298526353276,-1.1543639164510593
2025-07-25 11:59:59.803,-0.0017013499198609,-1.2252930289155974
2025-07-25 11:59:59.811,-0.001574807939279,-1.2795685995500872
2025-07-25 11:59:59.819,-0.0014492012403781,-1.317539985927569
2025-07-25 11:59:59.827,-0.0013236792394387,-1.339904063661237
2025-07-25 11:59:59.834,-0.0011976092825192,-1.3476692269407011
2025-07-25 11:59:59.842,-0.0010706048571901,-1.342108231701284
2025-07-25 11:59:59.850,-0.0009425389272291,-1.3247016476692113
2025-07-25 11:59:59.858,-0.00081354333759,-1.2970741125741054
2025-07-25 11:59:59.866,-0.0006839959413982,-1.2609259483755757
2025-07-25 11:59:59.873,-0.0005544974301523,-1.2179629868606003
2025-07-25 11:59:59.881,-0.000425839868859,-1.169827631205058
2025-07-25 11:59:59.889,-0.0002989688287455,-1.1180342205275855
2025-07-25 11:59:59.897,-0.0001749409491452,-1.0639116454785793
2025-07-25 11:59:59.905,-5.4878824822571686e-05,-1.008555879143057
2025-07-25 11:59:59.912,6.007477379391892e-05,-0.952794648822838
2025-07-25 11:59:59.920,0.0001688013455453,-0.8971659035339884
2025-07-25 11:59:59.928,0.0002702479744487,-0.8419110627689705
2025-07-25 11:59:59.936,0.0003634640935785,-0.7869833046906627
2025-07-25 11:59:59.944,0.0004476327329761,-0.7320704092565871
2025-07-25 11:59:59.952,0.0005220957677138,-0.6766309553775912
2025-07-25 11:59:59.959,0.0005863731008457,-0.6199420212312345
2025-07-25 11:59:59.967,0.0006401759993509,-0.5611559927267984
2025-07-25 11:59:59.975,0.0006834149565824,-0.4993636813438596
2025-07-25 11:59:59.983,0.0007162025645429,-0.4336607094507625
2025-07-25 11:59:59.991,0.0007388520008345,-0.3632140397127261
2025-07-25 11:59:59.998,0.0007518718391833,-0.2873255918552625
2025-07-25 12:00:00.006,0.0007559579178333,-0.2054900861015504
2025-07-25 12:00:00.014,0.000751982930991,-0.1174445580121034
2025-07-25 12:00:00.022,0.0007409842641163,-0.0232073815646817
2025-07-25 12:00:00.030,0.0007241503900585,0.0768949084568942
2025-07-25 12:00:00.037,0.0007028059023711,0.1822142083987078
2025-07-25 12:00:00.045,0.0006783950128638,0.2917815427472414
2025-07-25 12:00:00.053,0.0006524631047554,0.4043220147186205
2025-07-25 12:00:00.061,0.0006266357633963,0.5182836052448946
2025-07-25 12:00:00.069,0.0006025946954135,0.6318788601601881
2025-07-25 12:00:00.077,0.0005820501413135,0.7431379629781827
2025-07-25 12:00:00.084,0.0005667097111324,0.8499711819194914
2025-07-25 12:00:00.092,0.000558243876488,0.9502382345865824
2025-07-25 12:00:00.100,0.0005582485478917,1.041821766700754
2025-07-25 12:00:00.108,0.0005682052919571,1.1227019256220598
2025-07-25 12:00:00.116,0.0005894398709067,1.191028949449222
2025-07-25 12:00:00.123,0.0006230799380374,1.2451907982424688
2025-07-25 12:00:00.131,0.0006700128948352,1.283873116692965
2025-07-25 12:00:00.139,0.0007308451028037,1.3061092113421964
2025-07-25 12:00:00.147,0.0008058638272395,1.3113182134088155
2025-07-25 12:00:00.155,0.0008950034563417,1.299330141182205
2025-07-25 12:00:00.162,0.0009978176768069,1.2703971386615478
2025-07-25 12:00:00.170,0.0011134593749879,1.2251907219078744
2025-07-25 12:00:00.178,0.0012406700553571,1.1647853901233711
2025-07-25 12:00:00.186,0.0013777805169014,1.0906294358179032
2025-07-25 12:00:00.194,0.0015227243861182,1.004504199443994
2025-07-25 12:00:00.202,0.0016730658586283,0.9084733463180668
2025-07-25 12:00:00.209,0.0018260426189769,0.8048239977690518
2025-07-25 12:00:00.217,0.0019786243165033,0.6960017362807384
2025-07-25 12:00:00.225,0.0021275861370624,0.5845416398395176
2025-07-25 12:00:00.233,0.0022695959968153,0.4729975896424656
2025-07-25 12:00:00.241,0.0024013128025963,0.3638721338632314
2025-07-25 12:00:00.248,0.0025194921439595,0.2595491690885783
2025-07-25 12:00:00.256,0.0026210947901791,0.1622316100404126
2025-07-25 12:00:00.264,0.0027033926175749,0.0738860489501536
2025-07-25 12:00:00.272,0.0027640662781784,-0.0038038444727317
2025-07-25 12:00:00.280,0.0028012891751477,-0.0694737579278435
2025-07-25 12:00:00.287,0.0028137931444495,-0.1221039700217388
2025-07-25 12:00:00.295,0.0028009125367225,-0.1610327740601359
2025-07-25 12:00:00.303,0.0027626049395273,-0.1859579234977057
2025-07-25 12:00:00.311,0.0026994483311272,-0.1969263544849196
2025-07-25 12:00:00.319,0.0026126157939474,-0.1943128299488836
2025-07-25 12:00:00.327,0.0025038299153427,-0.1787884963303709
2025-07-25 12:00:00.334,0.0023752996617293,-0.1512806527838978
2025-07-25 12:00:00.342,0.0022296429397204,-0.112925313608385
2025-07-25 12:00:00.350,0.0020697984142012,-0.0650144049414769
2025-07-25 12:00:00.358,0.0018989304953212,-0.0089396717306028
2025-07-25 12:00:00.366,0.0017203315998889,0.0538644368384977
2025-07-25 12:00:00.373,0.001537325656401,0.1219765106386277
2025-07-25 12:00:00.381,0.0013531763447706,0.1940401265106504
2025-07-25 12:00:00.389,0.0011710028883567,0.268809662686173
2025-07-25 12:00:00.397,0.0009937054859306,0.3451878640572597
2025-07-25 12:00:00.405,0.0008239017783219,0.4222534096614885
2025-07-25 12:00:00.412,0.0006638751927449,0.4992772358305092
2025-07-25 12:00:00.420,0.0005155356545447,0.5757269755226706
2025-07-25 12:00:00.428,0.0003803929296125,0.6512595396170648
2025-07-25 12:00:00.436,0.0002595426387369,0.7257025345492637
2025-07-25 12:00:00.444,0.0001536647288255,0.7990258292842668
2025-07-25 12:00:00.452,6.303393112635922e-05,0.8713051085812902
2025-07-25 12:00:00.459,-1.2458498257659332e-05,0.9426796474805976
2025-07-25 12:00:00.467,-7.327268510342439e-05,1.0133067984164332
2025-07-25 12:00:00.475,-0.0001201788461056,1.0833157967391112
2025-07-25 12:00:00.483,-0.0001542082187825,1.152763472431635
2025-07-25 12:00:00.491,-0.0001765979835702,1.2215943194536
2025-07-25 12:00:00.498,-0.0001887323575797,1.2896071342732671
2025-07-25 12:00:00.506,-0.0001920823527721,1.3564301074518983
2025-07-25 12:00:00.514,-0.0001881467666107,1.4215058530694162
2025-07-25 12:00:00.522,-0.000178396814067,1.4840874052208597
2025-07-25 12:00:00.530,-0.00016422654451,1.5432457114646607
2025-07-25 12:00:00.537,-0.0001469109026083,1.597888624625632
2025-07-25 12:00:00.545,-0.0001275729349013,1.6467908581874735
2025-07-25 12:00:00.553,-0.0001071611168878,1.6886338534560312
2025-07-25 12:00:00.561,-8.643710051871527e-05,1.7220540333175265
2025-07-25 12:00:00.569,-6.597349703180543e-05,1.745697504520969
2025-07-25 12:00:00.577,-4.6160720479598974e-05,1.7582789294822092
2025-07-25 12:00:00.584,-2.7221438265315324e-05,1.7586420322447995
2025-07-25 12:00:00.592,-9.230849463051832e-06,1.7458190459230298
2025-07-25 12:00:00.600,7.859064161446061e-06,1.7190863610598115
2025-07-25 12:00:00.608,2.4193026735486343e-05,1.678013698070209
2025-07-25 12:00:00.616,3.998524711913609e-05,1.622504299739867
2025-07-25 12:00:00.623,5.549297718128452e-05,1.5528239201099203
2025-07-25 12:00:00.631,7.09922608441741e-05,1.4696167746755604
2025-07-25 12:00:00.639,8.675700969680114e-05,1.3739071117319854
2025-07-25 12:00:00.647,0.0001030420489055,1.2670856550714975
2025-07-25 12:00:00.655,0.0001200702237504,1.1508808308622736
2025-07-25 12:00:00.662,0.0001380232101921,1.027315391952156
2025-07-25 12:00:00.670,0.0001570353884165,0.8986497494634642
2025-07-25 12:00:00.678,0.0001771900121701,0.7673139707992283
2025-07-25 12:00:00.686,0.0001985169821954,0.6358309655285116
2025-07-25 12:00:00.694,0.0002209918393647,0.5067338268243259
2025-07-25 12:00:00.702,0.0002445360085314,0.382480609243558
2025-07-25 12:00:00.709,0.0002690186339737,0.2653699944748683
2025-07-25 12:00:00.717,0.0002942604600869,0.1574613178792398
2025-07-25 12:00:00.725,0.0003200401983499,0.0605022933660618
2025-07-25 12:00:00.733,0.0003461037492961,-0.0241325200746224
2025-07-25 12:00:00.741,0.0003721764768754,-0.0954899121025175
2025-07-25 12:00:00.748,0.0003979784213199,-0.1530708509403689
2025-07-25 12:00:00.756,0.0004232419412735,-0.1968465934871477
2025-07-25 12:00:00.764,0.0004477308828222,-0.2272574419066098
2025-07-25 12:00:00.772,0.0004712600259019,-0.245194251178108
2025-07-25 12:00:00.780,0.000493713305376,-0.2519635129389012
2025-07-25 12:00:00.787,0.0005150592275386,-0.2492375158174342
2025-07-25 12:00:00.795,0.0005353620473836,-0.2389916852210653
2025-07-25 12:00:00.803,0.0005547875885174,-0.2234317096120922
2025-07-25 12:00:00.811,0.0005736029887674,-0.2049134379298983
2025-07-25 12:00:00.819,0.0005921700878417,-0.1858587591787738
2025-07-25 12:00:00.827,0.0006109325907311,-0.1686707362090349
2025-07-25 12:00:00.834,0.0006303974516133,-0.1556511637181671
2025-07-25 12:00:00.842,0.0006511110735995,-0.1489234728912243
2025-07-25 12:00:00.850,0.0006736309848303,-0.1503635383469148
2025-07-25 12:00:00.858,0.0006984937732541,-0.1615404891549783
2025-07-25 12:00:00.866,0.000726180310219,-0.1836691225109303
2025-07-25 12:00:00.873,0.0007570796174417,-0.217575007686045
2025-07-25 12:00:00.881,0.000791453041985,-0.2636728857723043
2025-07-25 12:00:00.889,0.000829400645428,-0.3219585406529371
2025-07-25 12:00:00.897,0.0008708318390441,-0.3920139462108535
2025-07-25 12:00:00.905,0.0009154422194159,-0.473025179684639
2025-07-25 12:00:00.912,0.000962698230344,-0.5638123186055971
2025-07-25 12:00:00.920,0.0010118307811865,-0.6628702911693567
2025-07-25 12:00:00.928,0.0010618384431504,-0.76841941015833
2025-07-25 12:00:00.936,0.0011115004081665,-0.8784640793962505
2025-07-25 12:00:00.944,0.0011593989990671,-0.9908579212507692
2025-07-25 12:00:00.952,0.0012039511007848,-1.1033733451951764
2025-07-25 12:00:00.959,0.0012434474478296,-1.213773376982322
2025-07-25 12:00:00.967,0.0012760983380989,-1.3198834135252653
2025-07-25 12:00:00.975,0.0013000841309424,-1.4196604794659438
2025-07-25 12:00:00.983,0.0013136088599131,-1.5112575579331031
2025-07-25 12:00:00.991,0.0013149554153506,-1.593080667836915
2025-07-25 12:00:00.998,0.0013025409177065,-1.6638365724158493
2025-07-25 12:00:01.006,0.0012749709560647,-1.7225693257235877
2025-07-25 12:00:01.014,0.0012310912362295,-1.7686842819988502
2025-07-25 12:00:01.022,0.0011700349574249,-1.801958688155298
2025-07-25 12:00:01.030,0.0010912640801227,-1.8225385291638017
2025-07-25 12:00:01.037,0.0009946026535026,-1.830921873031864
2025-07-25 12:00:01.045,0.0008802605161149,-1.827929536002552
2025-07-25 12:00:01.053,0.0007488459080378,-1.814664428550094
2025-07-25 12:00:01.061,0.0006013658457327,-1.7924614196995117
2025-07-25 12:00:01.069,0.0004392135875643,-1.7628299449850728
2025-07-25 12:00:01.077,0.0002641431959693,-1.727391861995039
2025-07-25 12:00:01.084,7.823199267152964e-05,-1.6878172184762414
2025-07-25 12:00:01.092,-0.0001161675846524,-1.6457606451789684
2025-07-25 12:00:01.100,-0.0003164847447947,-1.6028010276387057
2025-07-25 12:00:01.108,-0.0005199935254365,-1.5603869517405478
2025-07-25 12:00:01.116,-0.0007238801136755,-1.519790153287596
2025-07-25 12:00:01.123,-0.0009253119975737,-1.482068826820036
2025-07-25 12:00:01.131,-0.0011215067087316,-1.448042167301929
2025-07-25 12:00:01.139,-0.0013097981153475,-1.418276947267477
2025-07-25 12:00:01.147,-0.0014876985043723,-1.3930863003107354
2025-07-25 12:00:01.155,-0.0016529549711631,-1.3725402259670898
2025-07-25 12:00:01.162,-0.0018035988881122,-1.356486693502946
2025-07-25 12:00:01.170,-0.0019379874483722,-1.3445816482330082
2025-07-25 12:00:01.178,-0.0020548364793124,-1.3363257569992408
2025-07-25 12:00:01.186,-0.002153243909322,-1.3311054067236996
2025-07-25 12:00:01.194,-0.0022327034647659,-1.3282353202727528
2025-07-25 12:00:01.202,-0.0022931083813206,-1.3270001921793184
2025-07-25 12:00:01.209,-0.0023347451516853,-1.326692966532016
2025-07-25 12:00:01.217,-0.002358277583456,-1.3266477501314142
2025-07-25 12:00:01.225,-0.0023647216473645,-1.3262658297194934
2025-07-25 12:00:01.233,-0.0023554117317304,-1.3250337952175286
2025-07-25 12:00:01.241,-0.0023319590465772,-1.3225333235654215
2025-07-25 12:00:01.248,-0.0022962031294165,-1.31844272350985
2025-07-25 12:00:01.256,-0.0022501577089435,-1.3125308597265888
2025-07-25 12:00:01.264,-0.0021959525169464,-1.304644543201446
2025-07-25 12:00:01.272,-0.0021357729280932,-1.2946908692340893
2025-07-25 12:00:01.280,-0.0020717994927858,-1.2826162794534235
2025-07-25 12:00:01.287,-0.0020061494361121,-1.2683842970372787
2025-07-25 12:00:01.295,-0.0019408219617007,-1.2519539188082456
2025-07-25 12:00:01.303,-0.0018776487457146,-1.2332605404049406
2025-07-25 12:00:01.311,-0.0018182504638336,-1.212201054914344
2025-07-25 12:00:01.319,-0.0017639997372386,-1.188624430314603
2025-07-25 12:00:01.327,-0.001715990638205,-1.1623286715439902
2025-07-25 12:00:01.334,-0.0016750148756166,-1.1330646382423328
2025-07-25 12:00:01.342,-0.0016415449082963,-1.1005467397663382
2025-07-25 12:00:01.350,-0.0016157244197184,-1.0644700814135648
2025-07-25 12:00:01.358,-0.0015973667543225,-1.0245332073412394
2025-07-25 12:00:01.366,-0.0015859619699005,-0.980465196370614
2025-07-25 12:00:01.373,-0.0015806930180878,-0.932055538048373
2025-07-25 12:00:01.381,-0.0015804612240085,-0.8791849683517392
2025-07-25 12:00:01.389,-0.0015839207775908,-0.8218552943230815
2025-07-25 12:00:01.397,-0.0015895214590014,-0.7602161970211608
2025-07-25 12:00:01.405,-0.0015955583441888,-0.6945870788311163
2025-07-25 12:00:01.412,-0.0016002267982054,-0.6254722136008318
2025-07-25 12:00:01.420,-0.001601680710036,-0.5535677587962032
2025-07-25 12:00:01.428,-0.0015980917358073,-0.4797595850528629
2025-07-25 12:00:01.436,-0.0015877073492625,-0.4051113506047771
2025-07-25 12:00:01.444,-0.001568905682458,-0.3308427665112382
2025-07-25 12:00:01.452,-0.0015402453574354,-0.2582985248613784
2025-07-25 12:00:01.459,-0.0015005087567889,-0.1889088566643129
2025-07-25 12:00:01.467,-0.0014487375457456,-0.1241431169751516
2025-07-25 12:00:01.475,-0.0013842597351276,-0.0654581405718158
2025-07-25 12:00:01.483,-0.0013067080372736,-0.0142433592104931
2025-07-25 12:00:01.491,-0.0012160296129919,0.0282351854116256
2025-07-25 12:00:01.498,-0.001112487509537,0.0608897593510281
2025-07-25 12:00:01.506,-0.000996654153153,0.0828626658473621
2025-07-25 12:00:01.514,-0.0008693972338284,0.0935728023434672
2025-07-25 12:00:01.522,-0.000731858299732,0.0927552609325306
2025-07-25 12:00:01.530,-0.0005854244266961,0.0804924364554051
2025-07-25 12:00:01.537,-0.0004316934171643,0.0572353815900884
2025-07-25 12:00:01.545,-0.0002724330569026,0.0238144268256103
2025-07-25 12:00:01.553,-0.0001095350292584,-0.0185616508360633
2025-07-25 12:00:01.561,5.503575768556061e-05,-0.068318374879096
2025-07-25 12:00:01.569,0.0002192953600247,-0.1235404458732433
2025-07-25 12:00:01.577,0.0003812969635856,-0.182008691581878
2025-07-25 12:00:01.584,0.0005391869779284,-0.2412487269312124
2025-07-25 12:00:01.592,0.0006912586316657,-0.2985906063705703
2025-07-25 12:00:01.600,0.0008360005124653,-0.3512383529435321
2025-07-25 12:00:01.608,0.0009721376205225,-0.3963478175625036
2025-07-25 12:00:01.616,0.0010986628132832,-0.4311108801907524
2025-07-25 12:00:01.623,0.0012148569360145,-0.4528435814430325
2025-07-25 12:00:01.631,0.0013202964443617,-0.4590754004062935
2025-07-25 12:00:01.639,0.0014148479862816,-0.4476366015144596
2025-07-25 12:00:01.647,0.001498650218706,-0.4167403863214288
2025-07-25 12:00:01.655,0.0015720839201712,-0.3650565298618753
2025-07-25 12:00:01.662,0.0016357320193093,-0.2917732779294592
2025-07-25 12:00:01.670,0.0016903314817731,-0.1966445446278163
2025-07-25 12:00:01.678,0.0017367192723235,-0.0800198792658935
2025-07-25 12:00:01.686,0.0017757749795092,0.0571447451615278
2025-07-25 12:00:01.694,0.001808363104011,0.2132965566843087
2025-07-25 12:00:01.702,0.0018352782821166,0.3863164460066805
2025-07-25 12:00:01.709,0.0018571966600755,0.5735698191312971
2025-07-25 12:00:01.717,0.0018746361774026,0.7719765113759864
2025-07-25 12:00:01.725,0.0018879277507749,0.9780975809518888
2025-07-25 12:00:01.733,0.0018971984910173,1.1882360214125909
2025-07-25 12:00:01.741,0.0019023673410728,1.3985477654924483
2025-07-25 12:00:01.748,0.0019031529924957,1.6051588338476208
2025-07-25 12:00:01.756,0.0018990935676956,1.804284141282116
2025-07-25 12:00:01.764,0.0018895771716124,1.992343330651092
2025-07-25 12:00:01.772,0.001873881879577,2.166069068610172
2025-07-25 12:00:01.780,0.0018512230601444,2.322603504126957
2025-07-25 12:00:01.787,0.0018208053009878,2.459579049526584
2025-07-25 12:00:01.795,0.0017818758133036,2.575180280503494
2025-07-25 12:00:01.803,0.0017337761378754,2.668184547047507
2025-07-25 12:00:01.811,0.001675989226402,2.737979813543577
2025-07-25 12:00:01.819,0.0016081794455234,2.784559262941864
2025-07-25 12:00:01.827,0.0015302237051057,2.8084932548028045
2025-07-25 12:00:01.834,0.0014422326876809,2.810880260200108
2025-07-25 12:00:01.842,0.0013445619202957,2.7932793447728885
2025-07-25 12:00:01.850,0.0012378130149534,2.7576275756051003
2025-07-25 12:00:01.858,0.0011228256965596,2.7061463428781933
2025-07-25 12:00:01.866,0.0010006612705419,2.6412409891298485
2025-07-25 12:00:01.873,0.0008725781433236,2.565398323086856
2025-07-25 12:00:01.881,0.0007400001028887,2.481086569369028
2025-07-25 12:00:01.889,0.0006044783370634,2.390662082766149
2025-07-25 12:00:01.897,0.0004676484985496,2.2962867510401943
2025-07-25 12:00:01.905,0.0003311844309237,2.1998594399549685
2025-07-25 12:00:01.912,0.0001967504517281,2.1029641183206764
2025-07-25 12:00:01.920,6.59543007833716e-05,2.006836465393657
2025-07-25 12:00:01.928,-5.96971282234638e-05,1.91234984359714
2025-07-25 12:00:01.936,-0.0001788374146916,1.8200205599966264
2025-07-25 12:00:01.944,-0.0002902741882201,1.7300313859419971
2025-07-25 12:00:01.952,-0.000393015732451,1.6422713980781147
2025-07-25 12:00:01.959,-0.0004862900904481,1.5563893860405558
2025-07-25 12:00:01.967,-0.0005695564163256,1.471857387769001
2025-07-25 12:00:01.975,-0.0006425084672344,1.3880404141181637
2025-07-25 12:00:01.983,-0.0007050701991491,1.3042681585939595
2025-07-25 12:00:01.991,-0.0007573835333155,1.2199044840401805
2025-07-25 12:00:01.998,-0.0007997886324097,1.1344107349171786
2025-07-25 12:00:02.006,-0.0008327974712427,1.0473994153069397
2025-07-25 12:00:02.014,-0.0008570619805608,0.9586754587564192
2025-07-25 12:00:02.022,-0.0008733384720738,0.8682631488651605
2025-07-25 12:00:02.030,-0.0008824503506818,0.7764176750357863
2025-07-25 12:00:02.037,-0.000885251206094,0.68362126716259
2025-07-25 12:00:02.045,-0.0008825902097285,0.590564786672006
2025-07-25 12:00:02.053,-0.000875281387843,0.4981165013578966
2025-07-25 12:00:02.061,-0.0008640778946832,0.407280481056263
2025-07-25 12:00:02.069,-0.0008496519256484,0.3191475673202154
2025-07-25 12:00:02.077,-0.0008325804510666,0.2348421544588575
2025-07-25 12:00:02.084,-0.0008133366126788,0.1554680612249872
2025-07-25 12:00:02.092,-0.0007922864607022,0.0820565944686599
2025-07-25 12:00:02.100,-0.0007696906526554,0.0155195546329164
2025-07-25 12:00:02.108,-0.0007457106449115,-0.0433905376013203
2025-07-25 12:00:02.116,-0.0007204187140114,-0.0941112552767885
2025-07-25 12:00:02.123,-0.0006938109312611,-0.1362909560859437
2025-07-25 12:00:02.131,-0.0006658221358185,-0.1697987687184466
2025-07-25 12:00:02.139,-0.0006363420829908,-0.1947238630956959
2025-07-25 12:00:02.147,-0.000605232207647,-0.211364531907094
2025-07-25 12:00:02.155,-0.0005723426526082,-0.2202080965657594
2025-07-25 12:00:02.163,-0.000537529213009,-0.2219030601766972
2025-07-25 12:00:02.170,-0.0005006696431367,-0.2172252466812384
2025-07-25 12:00:02.178,-0.0004616785240826,-0.2070398822131866
2025-07-25 12:00:02.186,-0.0004205197895895,-0.1922616905726981
2025-07-25 12:00:02.194,-0.0003772161374023,-0.1738150868709282
2025-07-25 12:00:02.202,-0.0003318548443708,-0.152596456623185
2025-07-25 12:00:02.209,-0.0002845898046283,-0.1294403005205811
2025-07-25 12:00:02.217,-0.0002356398346967,-0.1050907176833439
2025-07-25 12:00:02.225,-0.0001852834718221,-0.0801793151825059
2025-07-25 12:00:02.233,-0.0001338506736051,-0.0552102003171173
2025-07-25 12:00:02.241,-8.17119633938803e-05,-0.0305522697007927
2025-07-25 12:00:02.248,-2.926561364430272e-05,-0.0064385931031537
2025-07-25 12:00:02.256,2.3076535991245037e-05,0.0170276621622684
2025-07-25 12:00:02.264,7.490402112745195e-05,0.0398615777293787
2025-07-25 12:00:02.272,0.0001258228796335,0.0621800594354999
2025-07-25 12:00:02.280,0.0001754704917192,0.0841816377566504
2025-07-25 12:00:02.288,0.0002235297879388,0.1061234383663384
2025-07-25 12:00:02.295,0.0002697425464827,0.1282961538836398
2025-07-25 12:00:02.303,0.0003139214778223,0.1509977065128863
2025-07-25 12:00:02.311,0.0003559606823641,0.1745061632127746
2025-07-25 12:00:02.319,0.0003958439021823,0.1990523904403561
2025-07-25 12:00:02.327,0.00043364988572,0.2247929424530222
2025-07-25 12:00:02.334,0.0004695542678449,0.251783772327021
2025-07-25 12:00:02.342,0.0005038276351534,0.2799555221331553
2025-07-25 12:00:02.350,0.0005368297712111,0.309091353538912
2025-07-25 12:00:02.358,0.000569000340361,0.3388084768165733
2025-07-25 12:00:02.366,0.0006008464310292,0.3685446779179571
2025-07-25 12:00:02.373,0.0006329274352365,0.3975511915682447
2025-07-25 12:00:02.381,0.0006658377159264,0.4248931986105638
2025-07-25 12:00:02.389,0.0007001874842729,0.4494590272250821
2025-07-25 12:00:02.397,0.000736582324515,0.4699788110395523
2025-07-25 12:00:02.405,0.0007756018195764,0.4850529137047117
2025-07-25 12:00:02.413,0.0008177777015227,0.4931898907183957
2025-07-25 12:00:02.420,0.0008635719183678,0.4928531584135353
2025-07-25 12:00:02.428,0.0009133550138864,0.4825149224684854
2025-07-25 12:00:02.436,0.0009673852129225,0.4607153383343543
2025-07-25 12:00:02.444,0.0010257885493335,0.4261243906946327
2025-07-25 12:00:02.452,0.001088540339394,0.3776036406508361
2025-07-25 12:00:02.459,0.0011554483987044,0.3142648354555503
2025-07-25 12:00:02.467,0.0012261386156876,0.2355224208635847
2025-07-25 12:00:02.475,0.0013000437022234,0.1411372300509332
2025-07-25 12:00:02.483,0.001376396051982,0.0312490165629958
2025-07-25 12:00:02.491,0.0014542256759909,-0.0936039849513287
2025-07-25 12:00:02.498,0.0015323641873121,-0.2324796830823737
2025-07-25 12:00:02.506,0.0016094557224445,-0.3840414920295537
2025-07-25 12:00:02.514,0.0016839754697781,-0.5465822952232405
2025-07-25 12:00:02.522,0.0017542561701568,-0.7180621806423886
2025-07-25 12:00:02.530,0.001818522610515,-0.8961584524810526
2025-07-25 12:00:02.538,0.0018749337144864,-1.0783258200433463
2025-07-25 12:00:02.545,0.001921631319262,-1.261864162331236
2025-07-25 12:00:02.553,0.0019567942093841,-1.4439909045123938
2025-07-25 12:00:02.561,0.0019786955889449,-1.6219148506798322
2025-07-25 12:00:02.569,0.0019857619317103,-1.7929083123752394
2025-07-25 12:00:02.577,0.001976630956024,-1.954374556405923
2025-07-25 12:00:02.584,0.0019502062736537,-2.103907959116387
2025-07-25 12:00:02.592,0.0019057061471633,-2.239344776686881
2025-07-25 12:00:02.600,0.0018427038894092,-2.3588030868924306
2025-07-25 12:00:02.608,0.0017611577633285,-2.460711175264988
2025-07-25 12:00:02.616,0.0016614286829623,-2.5438243635301285
2025-07-25 12:00:02.623,0.0015442845050119,-2.60723094303528
2025-07-25 12:00:02.631,0.0014108902736917,-2.650348420511144
2025-07-25 12:00:02.639,0.0012627844824225,-2.6729116659256755
2025-07-25 12:00:02.647,0.0011018421899778,-2.6749547572340897
2025-07-25 12:00:02.655,0.0009302265861623,-2.656788357479223
2025-07-25 12:00:02.663,0.0007503312683073,-2.618974368996252
2025-07-25 12:00:02.670,0.000564715948592,-2.562299427239773
2025-07-25 12:00:02.678,0.0003760384418764,-2.487748557632075
2025-07-25 12:00:02.686,0.0001869856226502,-2.396480046375141
2025-07-25 12:00:02.694,2.057949642566488e-07,-2.2898022839970897
2025-07-25 12:00:02.702,-0.0001817552508326,-2.169153037777308
2025-07-25 12:00:02.709,-0.0003565123521962,-2.0360813055798226
2025-07-25 12:00:02.717,-0.0005218913477807,-1.8922316097902847
2025-07-25 12:00:02.725,-0.0006759702018278,-1.73933031921511
2025-07-25 12:00:02.733,-0.0008171099038896,-1.579173357587362
2025-07-25 12:00:02.741,-0.0009439747473402,-1.413614493294255
2025-07-25 12:00:02.748,-0.0010555421710154,-1.244553326911064
2025-07-25 12:00:02.756,-0.0011511028933961,-1.0739221093140277
2025-07-25 12:00:02.764,-0.0012302525003401,-0.903670625524854
2025-07-25 12:00:02.772,-0.0012928759198494,-0.7357485485870555
2025-07-25 12:00:02.780,-0.0013391263829076,-0.5720848811582452
2025-07-25 12:00:02.788,-0.0013694005788739,-0.4145643407567258
2025-07-25 12:00:02.795,-0.0013843117071766,-0.2650007941965493
2025-07-25 12:00:02.803,-0.0013846619102105,-0.1251080995074625
2025-07-25 12:00:02.811,-0.0013714151714676,0.0035310361705003
2025-07-25 12:00:02.819,-0.0013456713229032,0.1194973336957116
2025-07-25 12:00:02.827,-0.0013086414341181,0.2215672852103823
2025-07-25 12:00:02.834,-0.0012616245445026,0.3087443116124739
2025-07-25 12:00:02.842,-0.0012059854306752,0.3802873562120916
2025-07-25 12:00:02.850,-0.001143132941221,0.4357354902992786
2025-07-25 12:00:02.858,-0.0010744984342468,0.4749271579845519
2025-07-25 12:00:02.866,-0.0010015139559493,0.4980128425989176
2025-07-25 12:00:02.873,-0.0009255898932327,0.505460182626311
2025-07-25 12:00:02.881,-0.0008480919253558,0.4980508727313693
2025-07-25 12:00:02.889,-0.0007703173053104,0.4768690185266582
2025-07-25 12:00:02.897,-0.000693470889183,0.4432809413514766
2025-07-25 12:00:02.905,-0.0006186418158528,0.3989067357335388
2025-07-25 12:00:02.913,-0.0005467821543221,0.3455841655152783
2025-07-25 12:00:02.920,-0.0004786890600428,0.2853257466952598
2025-07-25 12:00:02.928,-0.0004149919685813,0.2202701032894049
2025-07-25 12:00:02.936,-0.0003561460984382,0.1526288909285502
2025-07-25 12:00:02.944,-0.000302433047095,0.0846307578105837
2025-07-25 12:00:02.952,-0.0002539685976414,0.018463954676351
2025-07-25 12:00:02.959,-0.0002107171357323,-0.0437806852655713
2025-07-25 12:00:02.967,-0.00017251148064,-0.100164606239497
2025-07-25 12:00:02.975,-0.0001390765577769,-0.1489524253264943
2025-07-25 12:00:02.983,-0.0001100551550091,-0.1886571174527242
2025-07-25 12:00:02.991,-8.503397098285403e-05,-0.2180778866431676
2025-07-25 12:00:02.998,-6.356832109174603e-05,-0.2363293511103515
2025-07-25 12:00:03.006,-4.520424438404773e-05,-0.2428609851869706
2025-07-25 12:00:03.014,-2.9497261193667862e-05,-0.2374661496699846
2025-07-25 12:00:03.022,-1.6027528109816285e-05,-0.2202804835678348
2025-07-25 12:00:03.030,-4.411567225857119e-06,-0.1917698960026271
2025-07-25 12:00:03.038,5.688900363626191e-06,-0.1527088524897251
2025-07-25 12:00:03.045,1.4560299030028344e-05,-0.10415005729385
2025-07-25 12:00:03.053,2.243209947146655e-05,-0.0473869565631884
2025-07-25 12:00:03.061,2.9472997407560503e-05,0.0160893039097944
2025-07-25 12:00:03.069,3.578847342742399e-05,0.0846367531376144
2025-07-25 12:00:03.077,4.142009142076936e-05,0.1565116366035593
2025-07-25 12:00:03.084,4.6347013148355074e-05,0.2299181138897886
2025-07-25 12:00:03.092,5.049022364147646e-05,0.3030573230202775
2025-07-25 12:00:03.100,5.3719830561828655e-05,0.3741747682492084
2025-07-25 12:00:03.108,5.586548569173592e-05,0.441605215974357
2025-07-25 12:00:03.116,5.672956878236591e-05,0.5038144614173357
2025-07-25 12:00:03.123,5.610243695517852e-05,0.559437440076845
2025-07-25 12:00:03.131,5.3778889800698406e-05,0.6073122030834355
2025-07-25 12:00:03.139,4.95750355574758e-05,0.6465092674497497
2025-07-25 12:00:03.147,4.334486277478477e-05,0.6763558076526647
2025-07-25 12:00:03.155,3.4995869172818164e-05,0.6964540898299636
2025-07-25 12:00:03.163,2.4502998073242245e-05,0.7066934834559239
2025-07-25 12:00:03.170,1.1919962527230902e-05,0.7072553469125273
2025-07-25 12:00:03.178,-2.613043706148535e-06,0.6986101088440002
2025-07-25 12:00:03.186,-1.8866133927861655e-05,0.6815059873201632
2025-07-25 12:00:03.194,-3.652159134499431e-05,0.6569490195769916
2025-07-25 12:00:03.202,-5.5180991461964005e-05,0.6261744152054173
2025-07-25 12:00:03.209,-7.437745677149866e-05,0.5906096768728281
2025-07-25 12:00:03.217,-9.359276943579188e-05,0.5518304189560205
2025-07-25 12:00:03.225,-0.0001122790132438,0.5115103030515021
2025-07-25 12:00:03.233,-0.0001298843040433,0.4713669380332746
2025-07-25 12:00:03.241,-0.0001458818988618,0.4331059037445282
2025-07-25 12:00:03.248,-0.0001598015577069,0.3983652137209615
2025-07-25 12:00:03.256,-0.000171261586884,0.3686625225987053
2025-07-25 12:00:03.264,-0.0001799996874303,0.3453472210071022
2025-07-25 12:00:03.272,-0.0001859006564118,0.3295592722761168
2025-07-25 12:00:03.280,-0.0001890190792797,0.3221962628685901
2025-07-25 12:00:03.288,-0.0001895952970404,0.3238896904933965
2025-07-25 12:00:03.295,-0.0001880631331675,0.3349910238750144
2025-07-25 12:00:03.303,-0.0001850482339818,0.3555675590827806
2025-07-25 12:00:03.311,-0.0001813564758511,0.3854075974852036
2025-07-25 12:00:03.319,-0.0001779526325911,0.424034015480446
2025-07-25 12:00:03.327,-0.0001759302056662,0.4707249249442587
2025-07-25 12:00:03.334,-0.0001764738704333,0.5245398691802501
2025-07-25 12:00:03.342,-0.0001808163308509,0.5843498820665383
2025-07-25 12:00:03.350,-0.0001901914942147,0.6488697617149871
2025-07-25 12:00:03.358,-0.0002057858123921,0.716691063074505
2025-07-25 12:00:03.366,-0.0002286894974948,0.7863145732488088
2025-07-25 12:00:03.373,-0.0002598492624205,0.8561813666591743
2025-07-25 12:00:03.381,-0.000300024334281,0.9247019071868792
2025-07-25 12:00:03.389,-0.0003497476570809,0.9902830316952697
2025-07-25 12:00:03.397,-0.000409294274878,1.0513529743544798
2025-07-25 12:00:03.405,-0.0004786587485372,1.1063848361625317
2025-07-25 12:00:03.413,-0.0005575430703601,1.1539190364820364
2025-07-25 12:00:03.420,-0.000645355931164,1.1925852834701354
2025-07-25 12:00:03.428,-0.0007412234496283,1.221124469857819
2025-07-25 12:00:03.436,-0.0008440106954445,1.238410666469404
2025-07-25 12:00:03.444,-0.0009523526129523,1.2434730930757592
2025-07-25 12:00:03.452,-0.0010646924037937,1.2355176452259764
2025-07-25 12:00:03.459,-0.0011793252163261,1.2139472927248878
2025-07-25 12:00:03.467,-0.0012944451580603,1.178380477246704
2025-07-25 12:00:03.475,-0.0014081940259694,1.1286665474050297
2025-07-25 12:00:03.483,-0.0015187104931969,1.064897286019031
2025-07-25 12:00:03.491,-0.001624178649531,0.9874136934302606
2025-07-25 12:00:03.498,-0.0017228747554456,0.8968073680224974
2025-07-25 12:00:03.506,-0.0018132109413615,0.7939160482270373
2025-07-25 12:00:03.514,-0.0018937745250225,0.6798131362985508
2025-07-25 12:00:03.522,-0.0019633617202008,0.5557913044724268
2025-07-25 12:00:03.530,-0.0020210047315393,0.4233405753137896
2025-07-25 12:00:03.538,-0.002065991500363,0.2841215476816633
2025-07-25 12:00:03.545,-0.0020978776600197,0.1399346789542745
2025-07-25 12:00:03.553,-0.0021164905739201,-0.0073132951925672
2025-07-25 12:00:03.561,-0.0021219256623835,-0.1556446393349238
2025-07-25 12:00:03.569,-0.0021145355783238,-0.3030464404907653
2025-07-25 12:00:03.577,-0.0020949131366513,-0.4475059101557381
2025-07-25 12:00:03.584,-0.0020638691597585,-0.5870442537570372
2025-07-25 12:00:03.592,-0.0020224065016083,-0.7197483833727021
2025-07-25 12:00:03.600,-0.0019716914339093,-0.8437999544155695
2025-07-25 12:00:03.608,-0.0019130233359444,-0.9575014125518854
2025-07-25 12:00:03.616,-0.0018478032837544,-1.0592989296935411
2025-07-25 12:00:03.623,-0.0017775018159994,-1.147802274215441
2025-07-25 12:00:03.631,-0.0017036260294216,-1.2218017895958002
2025-07-25 12:00:03.639,-0.0016276862819243,-1.2802827414739817
2025-07-25 12:00:03.647,-0.0015511630123713,-1.3224373344778195
2025-07-25 12:00:03.655,-0.0014754743258261,-1.3476746974887868
2025-07-25 12:00:03.663,-0.0014019450066351,-1.355629088957672
2025-07-25 12:00:03.670,-0.0013317776231999,-1.346166483304542
2025-07-25 12:00:03.678,-0.001266026447131,-1.3193895721116204
2025-07-25 12:00:03.686,-0.001205574978764,-1.2756410641907396
2025-07-25 12:00:03.694,-0.0011511178749968,-1.2155050147929485
2025-07-25 12:00:03.702,-0.0011031479769067,-1.1398057734736988
2025-07-25 12:00:03.709,-0.0010619489260165,-1.049604028329157
2025-07-25 12:00:03.717,-0.0010275935456988,-0.9461893564432108
2025-07-25 12:00:03.725,-0.0009999477897985,-0.8310686786251448
2025-07-25 12:00:03.733,-0.0009786797321342,-0.7059500684632066
2025-07-25 12:00:03.741,-0.0009632729102296,-0.5727214841466295
2025-07-25 12:00:03.748,-0.0009530433473615,-0.433424174500834
2025-07-25 12:00:03.756,-0.0009471596320171,-0.290220751257174
2025-07-25 12:00:03.764,-0.0009446654481043,-0.1453582048354758
2025-07-25 12:00:03.772,-0.0009445039581764,-0.0011264511992685
2025-07-25 12:00:03.780,-0.0009455434766615,0.1401866926542548
2025-07-25 12:00:03.788,-0.0009466038813703,0.276342924188181
2025-07-25 12:00:03.795,-0.0009464831575348,0.4052018501956439
2025-07-25 12:00:03.803,-0.0009439833917316,0.5247687912147008
2025-07-25 12:00:03.811,-0.0009379355100961,0.633240359603833
2025-07-25 12:00:03.819,-0.0009272221193818,0.7290462146247007
2025-07-25 12:00:03.827,-0.0009107979595519,0.8108855417827658
2025-07-25 12:00:03.834,-0.0008877077095283,0.8777570338449402
2025-07-25 12:00:03.842,-0.0008571011660344,0.9289814348061058
2025-07-25 12:00:03.850,-0.0008182460527212,0.9642160068557144
2025-07-25 12:00:03.858,-0.0007705388343946,0.9834605578310232
2025-07-25 12:00:03.866,-0.0007135138789426,0.9870548982055172
2025-07-25 12:00:03.873,-0.0006468511359664,0.9756677772669105
2025-07-25 12:00:03.881,-0.0005703822382311,0.9502774925765992
2025-07-25 12:00:03.889,-0.0004840947003024,0.9121445019005509
2025-07-25 12:00:03.897,-0.0003881338238362,0.8627765213720996
2025-07-25 12:00:03.905,-0.0002828020377415,0.8038867903184442
2025-07-25 12:00:03.913,-0.000168555590307,0.7373464312645982
2025-07-25 12:00:03.920,-4.599869604695088e-05,0.6651321239564466
2025-07-25 12:00:03.928,8.412453817868115e-05,0.5892706173214904
2025-07-25 12:00:03.936,0.0002209398199354,0.5117818823258893
2025-07-25 12:00:03.944,0.0003634532385799,0.4346229146700691
2025-07-25 12:00:03.952,0.0005105619333327,0.3596342844842916
2025-07-25 12:00:03.959,0.0006610642940549,0.2884914686900596
2025-07-25 12:00:03.967,0.0008136694103683,0.2226627812908636
2025-07-25 12:00:03.975,0.0009670058129374,0.1633753557506963
2025-07-25 12:00:03.983,0.0011196298756041,0.1115901733146106
2025-07-25 12:00:03.991,0.0012700344737245,0.0679866251373576
2025-07-25 12:00:03.998,0.0014166585700584,0.0329565964964157
2025-07-25 12:00:04.006,0.0015578983705123,0.006607609035728
2025-07-25 12:00:04.014,0.0016921206301678,-0.0112258201213758
2025-07-25 12:00:04.022,0.0018176786322193,-0.0209637254346912
2025-07-25 12:00:04.030,0.0019329313196875,-0.0232564409070876
2025-07-25 12:00:04.038,0.0020362660327401,-0.0189559001157904
2025-07-25 12:00:04.045,0.0021261252621565,-0.0090837920700386
2025-07-25 12:00:04.053,0.0022010376783154,0.0052022497833853
2025-07-25 12:00:04.061,0.0022596533308954,0.0226434265254739
2025-07-25 12:00:04.069,0.0023007823555114,0.0419147309837479
2025-07-25 12:00:04.077,0.0023234359205456,0.0616595150269729
2025-07-25 12:00:04.084,0.0023268676171649,0.0805233100439695
2025-07-25 12:00:04.092,0.0023106130623918,0.0971867167302669
2025-07-25 12:00:04.100,0.0022745252146983,0.1103972880909168
2025-07-25 12:00:04.108,0.0022188029140642,0.1190003533861187
2025-07-25 12:00:04.116,0.0021440104681944,0.1219686638592338
2025-07-25 12:00:04.123,0.0020510865999446,0.1184305903750962
2025-07-25 12:00:04.131,0.0019413416444116,0.1076963897119418
2025-07-25 12:00:04.139,0.0018164424745788,0.0892818143249089
2025-07-25 12:00:04.147,0.0016783851622024,0.062928112539835
2025-07-25 12:00:04.155,0.0015294558057175,0.0286172957304615
2025-07-25 12:00:04.163,0.0013721803601844,-0.013418528043528
2025-07-25 12:00:04.170,0.0012092648032796,-0.0626949146675564
2025-07-25 12:00:04.178,0.0010435275649232,-0.1184809322038116
2025-07-25 12:00:04.186,0.0008778267105974,-0.1798137966654519
2025-07-25 12:00:04.194,0.0007149847826663,-0.2455225906919294
2025-07-25 12:00:04.202,0.0005577144301302,-0.3142608727468776
2025-07-25 12:00:04.209,0.0004085479855331,-0.384547451815909
2025-07-25 12:00:04.217,0.0002697739720354,-0.4548140684693138
2025-07-25 12:00:04.225,0.0001433831524056,-0.5234582323574647
2025-07-25 12:00:04.233,3.1026176997949125e-05,-0.5888990628299102
2025-07-25 12:00:04.241,-6.601580781230588e-05,-0.649633703952373
2025-07-25 12:00:04.248,-0.0001468469457157,-0.704291768979952
2025-07-25 12:00:04.256,-0.0002109588143829,-0.7516853269123288
2025-07-25 12:00:04.264,-0.0002582193858639,-0.7908521681288182
2025-07-25 12:00:04.272,-0.0002888497580586,-0.8210904502326062
2025-07-25 12:00:04.280,-0.0003033901794768,-0.8419832891015817
2025-07-25 12:00:04.288,-0.0003026574522359,-0.8534123787938677
2025-07-25 12:00:04.295,-0.0002876962038159,-0.8555602536416228
2025-07-25 12:00:04.303,-0.0002597266621048,-0.8489013088923646
2025-07-25 12:00:04.311,-0.0002200914300424,-0.8341821451570667
2025-07-25 12:00:04.319,-0.000170203388536,-0.8123921811937055
2025-07-25 12:00:04.327,-0.0001114963941006,-0.7847257839841785
2025-07-25 12:00:04.334,-4.538006018054904e-05,-0.752537396984795
2025-07-25 12:00:04.342,2.680028292854225e-05,-0.717291314506516
2025-07-25 12:00:04.350,0.0001037974259098,-0.6805078625557713
2025-07-25 12:00:04.358,0.0001844889834057,-0.6437078129317513
2025-07-25 12:00:04.366,0.0002678962409357,-0.6083568826221999
2025-07-25 12:00:04.373,0.0003531947839493,-0.5758121554844446
2025-07-25 12:00:04.381,0.000439717040258,-0.5472722071157637
2025-07-25 12:00:04.389,0.0005269474375994,-0.5237326146990227
2025-07-25 12:00:04.397,0.0006145113977781,-0.5059483867432507
2025-07-25 12:00:04.405,0.000702159688813,-0.4944046469377844
2025-07-25 12:00:04.413,0.0007897496516594,-0.4892966500867337
2025-07-25 12:00:04.420,0.0008772245851566,-0.4905199041508092
2025-07-25 12:00:04.428,0.0009645922723503,-0.4976708372256309
2025-07-25 12:00:04.436,0.0010519033829817,-0.5100580998366503
2025-07-25 12:00:04.444,0.0011392303381779,-0.5267242437711235
2025-07-25 12:00:04.452,0.0012266471851394,-0.5464771743720983
2025-07-25 12:00:04.459,0.0013142110972837,-0.5679304364083946
2025-07-25 12:00:04.467,0.0014019462474964,-0.5895510693249746
2025-07-25 12:00:04.475,0.0014898308847375,-0.6097134666126119
2025-07-25 12:00:04.483,0.0015777883271178,-0.6267574126914436
2025-07-25 12:00:04.491,0.0016656822269228,-0.6390482686358632
2025-07-25 12:00:04.498,0.0017533160211257,-0.6450371544270324
2025-07-25 12:00:04.506,0.0018404361623079,-0.643318944510877
2025-07-25 12:00:04.514,0.0019267385715126,-0.6326859595357786
2025-07-25 12:00:04.522,0.0020118776571792,-0.6121753931540421
2025-07-25 12:00:04.530,0.0020954771348813,-0.581108745320824
2025-07-25 12:00:04.538,0.0021771418067529,-0.5391218291266721
2025-07-25 12:00:04.545,0.0022564694890414,-0.4861842647534276
2025-07-25 12:00:04.553,0.0023330624365884,-0.422607758863943
2025-07-25 12:00:04.561,0.0024065378715293,-0.3490428760198704
2025-07-25 12:00:04.569,0.0024765374958727,-0.2664644250700855
2025-07-25 12:00:04.577,0.0025427360642391,-0.176145992162452
2025-07-25 12:00:04.584,0.0026048491759323,-0.0796245370794339
2025-07-25 12:00:04.592,0.002662640413655,0.0213436841717533
2025-07-25 12:00:04.600,0.002715927813317,0.1248343112916259
2025-07-25 12:00:04.608,0.0027645894360174,0.228811385703712
2025-07-25 12:00:04.616,0.0028085676212129,0.3311871866328484
2025-07-25 12:00:04.623,0.0028478714151649,0.4298832950567332
2025-07-25 12:00:04.631,0.0028825767299739,0.5228907480066812
2025-07-25 12:00:04.639,0.0029128239971479,0.6083272141039057
2025-07-25 12:00:04.647,0.0029388133937748,0.6844893037125104
2025-07-25 12:00:04.655,0.0029607980231694,0.749898413399286
2025-07-25 12:00:04.663,0.00297907556687,0.8033388650808155
2025-07-25 12:00:04.670,0.0029939788140878,0.8438874947234275
2025-07-25 12:00:04.678,0.0030058652006841,0.8709342291886483
2025-07-25 12:00:04.686,0.0030151052161598,0.8841935215581777
2025-07-25 12:00:04.694,0.0030220693843875,0.883706768065275
2025-07-25 12:00:04.702,0.0030271135321243,0.8698360013342353
2025-07-25 12:00:04.709,0.0030305622033462,0.8432492685910598
2025-07-25 12:00:04.717,0.0030326902778828,0.8048981985756682
2025-07-25 12:00:04.725,0.003033703027973,0.755988374141414
2025-07-25 12:00:04.733,0.0030337149956105,0.6979432811532291
2025-07-25 12:00:04.741,0.0030327282934788,0.6323628012483805
2025-07-25 12:00:04.748,0.0030306113215129,0.5609774411961365
2025-07-25 12:00:04.756,0.0030270794015138,0.4855997133752534
2025-07-25 12:00:04.764,0.0030216792276714,0.408074257195998
2025-07-25 12:00:04.772,0.003013779095014,0.3302283787041929
2025-07-25 12:00:04.780,0.0030025666325796,0.2538246614728436
2025-07-25 12:00:04.788,0.0029870553998023,0.1805171683541547
2025-07-25 12:00:04.795,0.0029661012400566,0.1118125337037894
2025-07-25 12:00:04.803,0.0029384286576345,0.049036970659881
2025-07-25 12:00:04.811,0.0029026667245312,-0.0066900830218033
2025-07-25 12:00:04.819,0.0028573932754043,-0.0544752619586659
2025-07-25 12:00:04.827,0.0028011855416545,-0.0936633872219313
2025-07-25 12:00:04.834,0.0027326749692352,-0.1238425415806192
2025-07-25 12:00:04.842,0.0026506037765877,-0.1448424886539049
2025-07-25 12:00:04.850,0.0025538808122123,-0.1567270194176768
2025-07-25 12:00:04.858,0.0024416343642551,-0.15978096574049
2025-07-25 12:00:04.866,0.0023132596169,-0.1544927273568033
2025-07-25 12:00:04.873,0.0021684584064684,-0.1415332145017957
2025-07-25 12:00:04.881,0.0020072689634166,-0.121732115931294
2025-07-25 12:00:04.889,0.0018300836416751,-0.0960523660514337
2025-07-25 12:00:04.897,0.0016376532650361,-0.0655636113578193
2025-07-25 12:00:04.905,0.0014310775097538,-0.0314153738828155
2025-07-25 12:00:04.913,0.0012117815356176,0.0051895096378097
2025-07-25 12:00:04.920,0.0009814798186067,0.0430207151054422
2025-07-25 12:00:04.928,0.0007421288204932,0.0808451780923843
2025-07-25 12:00:04.936,0.0004958707005843,0.1174505090277018
2025-07-25 12:00:04.944,0.0002449706484232,0.151666904792292
2025-07-25 12:00:04.952,-8.249409958512892e-06,0.1823874525258815
2025-07-25 12:00:04.959,-0.0002614779295411,0.2085867806540207
2025-07-25 12:00:04.967,-0.0005124789183982,0.2293380662434326
2025-07-25 12:00:04.975,-0.000759152553022,0.2438284567320583
2025-07-25 12:00:04.983,-0.0009995889685659,0.2513730015262185
2025-07-25 12:00:04.991,-0.0012321134764976,0.2514272034834947
2025-07-25 12:00:04.998,-0.0014553220423132,0.2435982814435719
2025-07-25 12:00:05.006,-0.0016681063346004,0.2276551793654499
2025-07-25 12:00:05.014,-0.0018696679598827,0.2035372714337155
2025-07-25 12:00:05.022,-0.0020595216997534,0.1713616100304642
2025-07-25 12:00:05.030,-0.0022374878228845,0.1314284633740869
2025-07-25 12:00:05.038,-0.0024036739442145,0.0842248102534119
2025-07-25 12:00:05.045,-0.0025584474082009,0.0304254151379064
2025-07-25 12:00:05.053,-0.0027023997021352,-0.029108893704317
2025-07-25 12:00:05.061,-0.0028363048935463,-0.0933360778152752
2025-07-25 12:00:05.069,-0.0029610744195283,-0.1610411325523114
2025-07-25 12:00:05.077,-0.0030777105895058,-0.2308478876893723
2025-07-25 12:00:05.084,-0.0031872608681005,-0.3012344404328252
2025-07-25 12:00:05.092,-0.0032907745250938,-0.370552222792123
2025-07-25 12:00:05.100,-0.003389262756388,-0.437048654984098
2025-07-25 12:00:05.108,-0.0034836629873594,-0.4988933078945456
2025-07-25 12:00:05.116,-0.0035748077979869,-0.554207478783757
2025-07-25 12:00:05.124,-0.0036633987760933,-0.60109705737956
2025-07-25 12:00:05.131,-0.0037499855906327,-0.6376885082358557
2025-07-25 12:00:05.139,-0.0038349506069356,-0.6621677123535424
2025-07-25 12:00:05.147,-0.0039184993686838,-0.6728212971597902
2025-07-25 12:00:05.155,-0.0040006572189103,-0.66807994293929
2025-07-25 12:00:05.163,-0.0040812722246898,-0.6465629915423062
2025-07-25 12:00:05.170,-0.0041600244147112,-0.6071235096379585
2025-07-25 12:00:05.178,-0.0042364411445676,-0.5488927872030909
2025-07-25 12:00:05.186,-0.0043099181818648,-0.4713230928313568
2025-07-25 12:00:05.194,-0.0043797458639745,-0.3742273637574829
2025-07-25 12:00:05.202,-0.0044451394384818,-0.257814377368275
2025-07-25 12:00:05.209,-0.0045052724639956,-0.1227178303829037
2025-07-25 12:00:05.217,-0.0045593119415377,0.0299823518263901
2025-07-25 12:00:05.225,-0.0046064536789512,0.1987482198963832
2025-07-25 12:00:05.233,-0.0046459562772939,0.3815832581088733
2025-07-25 12:00:05.241,-0.0046771720829971,0.5760447146041981
2025-07-25 12:00:05.249,-0.0046995734856069,0.7792701518222981
2025-07-25 12:00:05.256,-0.004712773069507,0.9880191200256374
2025-07-25 12:00:05.264,-0.0047165363583577,1.1987302462543128
2025-07-25 12:00:05.272,-0.0047107862296539,1.4075932888067524
2025-07-25 12:00:05.280,-0.0046955985272387,1.610634884715221
2025-07-25 12:00:05.288,-0.0046711889616523,1.803815873276726
2025-07-25 12:00:05.295,-0.0046378920523283,1.9831372733981096
2025-07-25 12:00:05.303,-0.0045961335860818,2.144751289077085
2025-07-25 12:00:05.311,-0.0045463987247699,2.285073179057713
2025-07-25 12:00:05.319,-0.0044891983316557,2.400889510713641
2025-07-25 12:00:05.327,-0.0044250362181284,2.489458264588998
2025-07-25 12:00:05.334,-0.0043543798855646,2.548596479067035
2025-07-25 12:00:05.342,-0.0042776370105253,2.576751611416019
2025-07-25 12:00:05.350,-0.0041951393745897,2.5730535056789496
2025-07-25 12:00:05.358,-0.004107135164817,2.5373447449565285
2025-07-25 12:00:05.366,-0.0040137896846347,2.470188158932161
2025-07-25 12:00:05.374,-0.0039151937087286,2.3728512866397327
2025-07-25 12:00:05.381,-0.0038113781336003,2.2472685941552526
2025-07-25 12:00:05.389,-0.0037023332783851,2.095983162613098
2025-07-25 12:00:05.397,-0.003588031163597,1.9220703513235011
2025-07-25 12:00:05.405,-0.0034684492389755,1.7290465722809167
2025-07-25 12:00:05.413,-0.0033435941969933,1.5207667650390106
2025-07-25 12:00:05.420,-0.0032135246223951,1.3013144256688025
2025-07-25 12:00:05.428,-0.0030783713645798,1.0748881237589574
2025-07-25 12:00:05.436,-0.0029383547955744,0.8456883520775788
2025-07-25 12:00:05.444,-0.0027937985256387,0.6178083192972089
2025-07-25 12:00:05.452,-0.002645139535182,0.395131949780845
2025-07-25 12:00:05.459,-0.0024929348637999,0.1812419316526928
2025-07-25 12:00:05.467,-0.0023378649028188,-0.020659814997679
2025-07-25 12:00:05.475,-0.0021807330555394,-0.2078173776878325
2025-07-25 12:00:05.483,-0.0020224612624846,-0.3779704529204534
2025-07-25 12:00:05.491,-0.0018640808394015,-0.5293875149422821
2025-07-25 12:00:05.499,-0.0017067183238174,-0.6608823275518073
2025-07-25 12:00:05.506,-0.0015515764678534,-0.7718141467338927
2025-07-25 12:00:05.514,-0.0013999109205217,-0.8620725111586619
2025-07-25 12:00:05.522,-0.0012530033464454,-0.9320480149101892
2025-07-25 12:00:05.530,-0.0011121317695963,-0.9825908738600552
2025-07-25 12:00:05.538,-0.000978538956884,-1.014959410259996
2025-07-25 12:00:05.545,-0.0008533997378294,-1.0307607728131736
2025-07-25 12:00:05.553,-0.0007377882525641,-1.0318862729750216
2025-07-25 12:00:05.561,-0.0006326461613817,-1.0204436525168714
2025-07-25 12:00:05.569,-0.0005387528248931,-0.998688413610673
2025-07-25 12:00:05.577,-0.0004566984404086,-0.9689560662067817
2025-07-25 12:00:05.584,-0.0003868611403268,-0.9335968174226128
2025-07-25 12:00:05.592,-0.0003293890651871,-0.8949138898129552
2025-07-25 12:00:05.600,-0.0002841883331501,-0.8551063504976749
2025-07-25 12:00:05.608,-0.0002509176055944,-0.8162170887934067
2025-07-25 12:00:05.616,-0.0002289895929747,-0.7800864108720527
2025-07-25 12:00:05.624,-0.0002175793908139,-0.7483116313291666
2025-07-25 12:00:05.631,-0.0002156391016273,-0.7222130298653114
2025-07-25 12:00:05.639,-0.000221917940735,-0.7028065922706856
2025-07-25 12:00:05.647,-0.0002349870115533,-0.690784043617101
2025-07-25 12:00:05.655,-0.0002532680901585,-0.686500775851388
2025-07-25 12:00:05.663,-0.000275065914971,-0.6899723361968093
2025-07-25 12:00:05.670,-0.0002986035094625,-0.7008801397905371
2025-07-25 12:00:05.678,-0.000322059940267,-0.7185869644535604
2025-07-25 12:00:05.686,-0.0003436096633035,-0.7421625521898808
2025-07-25 12:00:05.694,-0.0003614623462712,-0.7704192771513146
2025-07-25 12:00:05.702,-0.0003739019431138,-0.8019573662703091
2025-07-25 12:00:05.709,-0.0003793239163078,-0.8352186204599574
2025-07-25 12:00:05.717,-0.0003762697749858,-0.8685470351612128
2025-07-25 12:00:05.725,-0.0003634583714551,-0.9002542149708287
2025-07-25 12:00:05.733,-0.0003398135654494,-0.9286870709842634
2025-07-25 12:00:05.741,-0.0003044878845984,-0.9522950247418592
2025-07-25 12:00:05.749,-0.0002568816968618,-0.96969384571531
2025-07-25 12:00:05.756,-0.0001966572205287,-0.9797233262561826
2025-07-25 12:00:05.764,-0.000123746552906,-0.9814962372156684
2025-07-25 12:00:05.772,-3.835297055835206e-05,-0.9744363852244388
2025-07-25 12:00:05.780,5.905490253621157e-05,-0.9583040783590488
2025-07-25 12:00:05.788,0.0001677559951054,-0.9332078671786802
2025-07-25 12:00:05.795,0.0002867962972193,-0.899602029872922
2025-07-25 12:00:05.803,0.0004150142573948,-0.8582698846252729
2025-07-25 12:00:05.811,0.0005510711810152,-0.8102936161777994
2025-07-25 12:00:05.819,0.0006934856346321,-0.7570118774952641
2025-07-25 12:00:05.827,0.0008406708027605,-0.6999669520606991
2025-07-25 12:00:05.834,0.0009909737219359,-0.6408437175833336
2025-07-25 12:00:05.842,0.001142715322617,-0.5814030186646941
2025-07-25 12:00:05.850,0.0012942302407882,-0.5234123179659814
2025-07-25 12:00:05.858,0.0014439054059358,-0.4685766386145146
2025-07-25 12:00:05.866,0.0015902164655006,-0.4184728217367194
2025-07-25 12:00:05.874,0.0017317611700873,-0.3744899917840186
2025-07-25 12:00:05.881,0.0018672889117186,-0.3377788475094058
2025-07-25 12:00:05.889,0.0019957256795172,-0.3092119902549388
2025-07-25 12:00:05.897,0.0021161937807218,-0.2893569871919992
2025-07-25 12:00:05.905,0.0022280257677673,-0.2784632742333112
2025-07-25 12:00:05.913,0.0023307721187442,-0.2764633604482537
2025-07-25 12:00:05.920,0.0024242023494822,-0.2829881290663107
2025-07-25 12:00:05.928,0.0025082993908552,-0.2973953619514543
2025-07-25 12:00:05.936,0.0025832472499825,-0.3188099648757788
2025-07-25 12:00:05.944,0.0026494121989262,-0.3461737621527359
2025-07-25 12:00:05.952,0.0027073179973703,-0.3783021907701179
2025-07-25 12:00:05.959,0.002757615958561,-0.4139447951655433
2025-07-25 12:00:05.967,0.0028010510105363,-0.4518461485368193
2025-07-25 12:00:05.975,0.0028384252475901,-0.4908037458305746
2025-07-25 12:00:05.983,0.0028705607316727,-0.5297195566666981
2025-07-25 12:00:05.991,0.0028982634188769,-0.5676423067922438
2025-07-25 12:00:05.999,0.0029222900499119,-0.6037981662924358
2025-07-25 12:00:06.006,0.0029433197272799,-0.6376083248638009
2025-07-25 12:00:06.014,0.0029619317306932,-0.6686928600094804
2025-07-25 12:00:06.022,0.0029785907875883,-0.6968612617283182
2025-07-25 12:00:06.030,0.0029936404193149,-0.7220908746871391
2025-07-25 12:00:06.038,0.0030073042299848,-0.7444952824671526
2025-07-25 12:00:06.045,0.0030196943433173,-0.7642852404718639
2025-07-25 12:00:06.053,0.0030308257933516,-0.7817251366966066
2025-07-25 12:00:06.061,0.0030406355152246,-0.7970881087821291
2025-07-25 12:00:06.069,0.0030490045290146,-0.8106128730467824
2025-07-25 12:00:06.077,0.0030557818850727,-0.8224650484319155
2025-07-25 12:00:06.084,0.0030608089832259,-0.8327053271827026
2025-07-25 12:00:06.092,0.0030639430288177,-0.8412663075235605
2025-07-25 12:00:06.100,0.0030650785679622,-0.8479392139140828
2025-07-25 12:00:06.108,0.0030641661369921,-0.8523711300535483
2025-07-25 12:00:06.116,0.0030612270682185,-0.854072787490253
2025-07-25 12:00:06.124,0.0030563635338945,-0.8524364059715349
2025-07-25 12:00:06.131,0.0030497630626665,-0.846762581946843
2025-07-25 12:00:06.139,0.0030416969912756,-0.8362947804678845
2025-07-25 12:00:06.147,0.0030325125743877,-0.8202596189796278
2025-07-25 12:00:06.155,0.0030226188075521,-0.7979108574391547
2025-07-25 12:00:06.163,0.0030124664546426,-0.7685748418282443
2025-07-25 12:00:06.170,0.0030025232215295,-0.7316950927396856
2025-07-25 12:00:06.178,0.0029932453266232,-0.6868737850760179
2025-07-25 12:00:06.186,0.0029850468106677,-0.6339080218347258
2025-07-25 12:00:06.194,0.0029782678742832,-0.5728190524512309
2025-07-25 12:00:06.202,0.0029731434836252,-0.5038729063138758
2025-07-25 12:00:06.209,0.0029697735225071,-0.4275912833747705
2025-07-25 12:00:06.217,0.0029680958245585,-0.3447519480240457
2025-07-25 12:00:06.225,0.0029678633780547,-0.256378299869259
2025-07-25 12:00:06.233,0.0029686268611768,-0.1637182418544373
2025-07-25 12:00:06.241,0.0029697235545209,-0.068212925252286
2025-07-25 12:00:06.249,0.0029702736641507,0.0285435941164241
2025-07-25 12:00:06.256,0.0029691850968426,0.1248523283285407
2025-07-25 12:00:06.264,0.0029651676077184,0.2189631282268211
2025-07-25 12:00:06.272,0.0029567568910631,0.3091321305466533
2025-07-25 12:00:06.280,0.0029423486209186,0.3936805616785123
2025-07-25 12:00:06.288,0.0029202417934004,0.4710524854707237
2025-07-25 12:00:06.295,0.0028886901549539,0.5398690983989485
2025-07-25 12:00:06.303,0.0028459601204291,0.5989772993404892
2025-07-25 12:00:06.311,0.0027903933367442,0.6474904874886639
2025-07-25 12:00:06.319,0.0027204717989261,0.6848198607162774
2025-07-25 12:00:06.327,0.0026348830932124,0.7106948824797961
2025-07-25 12:00:06.334,0.0025325829524523,0.725172035645572
2025-07-25 12:00:06.342,0.0024128519950767,0.7286314589343817
2025-07-25 12:00:06.350,0.0022753434615025,0.7217615395082996
2025-07-25 12:00:06.358,0.0021201190596433,0.7055319932568334
2025-07-25 12:00:06.366,0.0019476706212565,0.6811563894574565
2025-07-25 12:00:06.374,0.0017589260057152,0.6500454614821816
2025-07-25 12:00:06.381,0.0015552384587789,0.6137528885822151
2025-07-25 12:00:06.389,0.0013383594015564,0.5739155386651987
2025-07-25 12:00:06.397,0.0011103953819998,0.5321904294037494
2025-07-25 12:00:06.405,0.000873750665876,0.4901908832821517
2025-07-25 12:00:06.413,0.0006310576730745,0.4494244940696119
2025-07-25 12:00:06.420,0.000385098168087,0.4112355567713616
2025-07-25 12:00:06.428,0.0001387187460205,0.3767545222472382
2025-07-25 12:00:06.436,-0.0001052553975985,0.3468568213357209
2025-07-25 12:00:06.444,-0.000344104318709,0.3221330713590823
2025-07-25 12:00:06.452,-0.0005752910091153,0.3028722407441447
2025-07-25 12:00:06.459,-0.0007965297503418,0.2890588144169794
2025-07-25 12:00:06.467,-0.0010058427465817,0.2803843860334475
2025-07-25 12:00:06.475,-0.0012016034327598,0.2762734236424849
2025-07-25 12:00:06.483,-0.0013825655935768,0.2759222444020847
2025-07-25 12:00:06.491,-0.0015478780995176,0.2783495324018238
2025-07-25 12:00:06.499,-0.0016970856532916,0.2824560875709831
2025-07-25 12:00:06.506,-0.0018301164369852,0.2870909484043303
2025-07-25 12:00:06.514,-0.0019472579527397,0.2911206261185701
2025-07-25 12:00:06.522,-0.0020491226584011,0.2934979522878901
2025-07-25 12:00:06.530,-0.0021366052181175,0.2933269940147176
2025-07-25 12:00:06.538,-0.0022108333228067,0.289920637765951
2025-07-25 12:00:06.545,-0.0022731140953779,0.2828477817255183
2025-07-25 12:00:06.553,-0.0023248780905398,0.2719675885325642
2025-07-25 12:00:06.561,-0.0023676228396139,0.2574489004465283
2025-07-25 12:00:06.569,-0.0024028577877664,0.239773662227337
2025-07-25 12:00:06.577,-0.0024320523347489,0.2197239901327451
2025-07-25 12:00:06.584,-0.0024565885299779,0.1983533330377097
2025-07-25 12:00:06.592,-0.0024777197966784,0.1769429621974409
2025-07-25 12:00:06.600,-0.002496536869081,0.1569457653088921
2025-07-25 12:00:06.608,-0.0025139418942476,0.1399199704380398
2025-07-25 12:00:06.616,-0.002530631311274,0.1274559483404481
2025-07-25 12:00:06.624,-0.0025470876401158,0.1210996031972686
2025-07-25 12:00:06.631,-0.0025635797772906,0.1222760337124244
2025-07-25 12:00:06.639,-0.0025801709698473,0.1322171132043643
2025-07-25 12:00:06.647,-0.0025967334060815,0.1518964021193966
2025-07-25 12:00:06.655,-0.0026129682797006,0.1819743941450357
2025-07-25 12:00:06.663,-0.0026284301791783,0.222756550873227
2025-07-25 12:00:06.670,-0.0026425546866862,0.2741659524684011
2025-07-25 12:00:06.678,-0.0026546881280912,0.3357317341178779
2025-07-25 12:00:06.686,-0.0026641184892412,0.4065938295317416
2025-07-25 12:00:06.694,-0.00267010659659,0.4855239241576728
2025-07-25 12:00:06.702,-0.0026719167452905,0.5709619320764193
2025-07-25 12:00:06.709,-0.0026688460393303,0.6610667369944475
2025-07-25 12:00:06.717,-0.0026602517814229,0.753779364932122
2025-07-25 12:00:06.725,-0.0026455763118814,0.8468961876672934
2025-07-25 12:00:06.733,-0.0026243687437492,0.9381492217174832
2025-07-25 12:00:06.741,-0.0025963030756517,1.025290136305966
2025-07-25 12:00:06.749,-0.0025611921852122,1.10617426604407
2025-07-25 12:00:06.756,-0.0025189972167732,1.1788407818806583
2025-07-25 12:00:06.764,-0.0024698318810252,1.2415852393392437
2025-07-25 12:00:06.772,-0.0024139611906562,1.2930210174309709
2025-07-25 12:00:06.780,-0.0023517942021742,1.332126687351645
2025-07-25 12:00:06.788,-0.0022838704928268,1.3582770817957373
2025-07-25 12:00:06.795,-0.0022108404204762,1.3712567197721657
2025-07-25 12:00:06.803,-0.0021334396432243,1.371255206317478
2025-07-25 12:00:06.811,-0.0020524588220722,1.3588451959604542
2025-07-25 12:00:06.819,-0.0019687098483962,1.3349444157110222
2025-07-25 12:00:06.827,-0.0018829902830724,1.3007640340699882
2025-07-25 12:00:06.834,-0.0017960478735395,1.2577462974294098
2025-07-25 12:00:06.842,-0.0017085469794394,1.2074948061263957
2025-07-25 12:00:06.850,-0.0016210385352279,1.1517010523743436
2025-07-25 12:00:06.858,-0.0015339348896764,1.0920708882367682
2025-07-25 12:00:06.866,-0.0014474905590228,1.0302544457863396
2025-07-25 12:00:06.874,-0.0013617896942391,0.9677827167803886
2025-07-25 12:00:06.881,-0.0012767409391187,0.906013541745995
2025-07-25 12:00:06.889,-0.0011920802670257,0.8460891811879497
2025-07-25 12:00:06.897,-0.0011073821754895,0.788906965436787
2025-07-25 12:00:06.905,-0.0010220792142296,0.7351037702906436
2025-07-25 12:00:06.913,-0.000935489279565,0.6850542808786753
2025-07-25 12:00:06.920,-0.0008468495472935,0.6388822371553904
2025-07-25 12:00:06.928,-0.0007553554860884,0.596483160327791
2025-07-25 12:00:06.936,-0.0006602032231444,0.5575564977221665
2025-07-25 12:00:06.944,-0.0005606335983758,0.5216447384395533
2025-07-25 12:00:06.952,-0.0004559763494642,0.4881768663432183
2025-07-25 12:00:06.959,-0.0003456928883647,0.4565135279386886
2025-07-25 12:00:06.967,-0.00022941614035,0.4259914742966572
2025-07-25 12:00:06.975,-0.0001069860063714,0.3959651450836615
2025-07-25 12:00:06.983,2.152090779718087e-05,0.365843649566394
2025-07-25 12:00:06.991,0.0001557686611367,0.335121819483172
2025-07-25 12:00:06.999,0.0002951478146855,0.3034044282922831
2025-07-25 12:00:07.006,0.000438770978885,0.2704230679304873
2025-07-25 12:00:07.014,0.0005854790702584,0.2360455331762604
2025-07-25 12:00:07.022,0.0007338589567822,0.2002778756656942
2025-07-25 12:00:07.030,0.0008822727311025,0.1632595502032119
2025-07-25 12:00:07.038,0.0010288982627135,0.1252522873856961
2025-07-25 12:00:07.045,0.0011717800093288,0.0866234982097628
2025-07-25 12:00:07.053,0.0013088884050196,0.047825162555733
2025-07-25 12:00:07.061,0.0014381855434204,0.0093692867417264
2025-07-25 12:00:07.069,0.0015576943720045,-0.0281988617944619
2025-07-25 12:00:07.077,0.0016655682622452,-0.0643284341988623
2025-07-25 12:00:07.084,0.001760157709276,-0.098490230575218
2025-07-25 12:00:07.092,0.0018400710994065,-0.1302021305729785
2025-07-25 12:00:07.100,0.0019042268941475,-0.1590514691562121
2025-07-25 12:00:07.108,0.0019518950640198,-0.1847132800301407
2025-07-25 12:00:07.116,0.0019827260881415,-0.2069635774948811
2025-07-25 12:00:07.124,0.0019967663606351,-0.2256871487753498
2025-07-25 12:00:07.131,0.0019944594780642,-0.2408796615064186
2025-07-25 12:00:07.139,0.0019766336163485,-0.2526442305221348
2025-07-25 12:00:07.147,0.001944475933757,-0.2611829090614588
2025-07-25 12:00:07.155,0.001899495503178,-0.2667838494260768
2025-07-25 12:00:07.163,0.0018434766069961,-0.2698051003980627
2025-07-25 12:00:07.170,0.0017784243992297,-0.2706561635513625
2025-07-25 12:00:07.178,0.0017065050768574,-0.2697785136392121
2025-07-25 12:00:07.186,0.0016299828163929,-0.2676262975921144
2025-07-25 12:00:07.194,0.0015511557190834,-0.2646483602628611
2025-07-25 12:00:07.202,0.0014722928098007,-0.2612726025182063
2025-07-25 12:00:07.209,0.0013955738409604,-0.2578934659433832
2025-07-25 12:00:07.217,0.0013230334241866,-0.2548630774129561
2025-07-25 12:00:07.225,0.0012565109286878,-0.2524863041201932
2025-07-25 12:00:07.233,0.0011976075780175,-0.251019694742804
2025-07-25 12:00:07.241,0.0011476520913109,-0.2506740388378216
2025-07-25 12:00:07.249,0.0011076759398768,-0.2516200780255304
2025-07-25 12:00:07.256,0.0010783988262588,-0.2539967528872051
2025-07-25 12:00:07.264,0.0010602244222227,-0.2579212660881258
2025-07-25 12:00:07.272,0.0010532458411271,-0.2635001792201655
2025-07-25 12:00:07.280,0.0010572598839687,-0.2708407297512551
2025-07-25 12:00:07.288,0.0010717888378043,-0.2800615443703861
2025-07-25 12:00:07.295,0.0010961084729047,-0.2913019278308641
2025-07-25 12:00:07.303,0.0011292808021322,-0.3047289252991869
2025-07-25 12:00:07.311,0.0011701901225064,-0.3205414079497683
2025-07-25 12:00:07.319,0.0012175809192527,-0.3389705369991139
2025-07-25 12:00:07.327,0.0012700964332007,-0.3602761307933723
2025-07-25 12:00:07.334,0.0013263170495694,-0.3847386847374978
2025-07-25 12:00:07.342,0.0013847980358394,-0.4126470532525538
2025-07-25 12:00:07.350,0.0014441063671092,-0.4442820736417012
2025-07-25 12:00:07.358,0.0015028563403908,-0.4798966776652136
2025-07-25 12:00:07.366,0.0015597434674062,-0.5196932889497711
2025-07-25 12:00:07.374,0.001613575904681,-0.5637995368539546
2025-07-25 12:00:07.381,0.0016633025454448,-0.6122435216084285
2025-07-25 12:00:07.389,0.0017080369032812,-0.6649300284672193
2025-07-25 12:00:07.397,0.0017470760642643,-0.7216191924247707
2025-07-25 12:00:07.405,0.0017799142376537,-0.7819091382190146
2025-07-25 12:00:07.413,0.001806250714368,-0.8452240420219057
2025-07-25 12:00:07.420,0.0018259922612182,-0.910808869230764
2025-07-25 12:00:07.428,0.0018392501024205,-0.9777317404029752
2025-07-25 12:00:07.436,0.0018463316697241,-1.0448944849210415
2025-07-25 12:00:07.444,0.0018477272439822,-1.111051493975188
2025-07-25 12:00:07.452,0.0018440915052043,-1.1748365248780686
2025-07-25 12:00:07.459,0.0018362199460831,-1.2347966833020223
2025-07-25 12:00:07.467,0.0018250201692729,-1.289432455065478
2025-07-25 12:00:07.475,0.0018114783164906,-1.3372423913991451
2025-07-25 12:00:07.483,0.0017966212636825,-1.376770866898327
2025-07-25 12:00:07.491,0.0017814757121777,-1.4066572106334456
2025-07-25 12:00:07.499,0.0017670257867709,-1.425684440032649
2025-07-25 12:00:07.506,0.0017541710500394,-1.4328257929570904
2025-07-25 12:00:07.514,0.0017436868704572,-1.427287254549592
2025-07-25 12:00:07.522,0.0017361889115856,-1.408544319106891
2025-07-25 12:00:07.530,0.0017321032879907,-1.3763713254516166
2025-07-25 12:00:07.538,0.0017316437382717,-1.3308618714521183
2025-07-25 12:00:07.545,0.0017347969590453,-1.2724390641219527
2025-07-25 12:00:07.553,0.0017413169498149,-1.2018547065855156
2025-07-25 12:00:07.561,0.0017507288119443,-1.1201769622713087
2025-07-25 12:00:07.569,0.0017623419628078,-1.0287665555122956
2025-07-25 12:00:07.577,0.0017752722462405,-0.9292421361311992
2025-07-25 12:00:07.584,0.0017884720257345,-0.8234360100577378
2025-07-25 12:00:07.592,0.0018007670480008,-0.7133419678076316
2025-07-25 12:00:07.600,0.0018108985888897,-0.6010573788060318
2025-07-25 12:00:07.608,0.0018175691012556,-0.4887220235182654
2025-07-25 12:00:07.616,0.001819489328734,-0.3784562826951123
2025-07-25 12:00:07.624,0.001815424706139,-0.2723012822564793
2025-07-25 12:00:07.631,0.0018042388720238,-0.1721634049233148
2025-07-25 12:00:07.639,0.0017849322771909,-0.0797652440883757
2025-07-25 12:00:07.647,0.001756674180725,0.0033953711428968
2025-07-25 12:00:07.655,0.0017188267747677,0.0760771590889364
2025-07-25 12:00:07.663,0.0016709607539351,0.1373173781792385
2025-07-25 12:00:07.670,0.0016128622925112,0.1864439292825156
2025-07-25 12:00:07.678,0.001544531988246,0.2230779178848274
2025-07-25 12:00:07.686,0.0014661767113393,0.2471274111722262
2025-07-25 12:00:07.694,0.0013781953803186,0.2587734351383217
2025-07-25 12:00:07.702,0.0012811595539966,0.2584494882405052
2025-07-25 12:00:07.709,0.0011757895446026,0.2468159976927672
2025-07-25 12:00:07.717,0.0010629266440179,0.2247312053551074
2025-07-25 12:00:07.725,0.0009435020619575,0.1932199343881166
2025-07-25 12:00:07.733,0.0008185033078484,0.1534415542269314
2025-07-25 12:00:07.741,0.0006889389693959,0.1066582414500227
2025-07-25 12:00:07.749,0.0005558030436976,0.0542043523809709
2025-07-25 12:00:07.756,0.0004200400378476,-0.0025425851379138
2025-07-25 12:00:07.764,0.0002825119686898,-0.0621890474318473
2025-07-25 12:00:07.772,0.0001439682768726,-0.123350884377488
2025-07-25 12:00:07.780,5.01960647392788e-06,-0.1846770623545506
2025-07-25 12:00:07.788,-0.0001338836553893,-0.2448720119605082
2025-07-25 12:00:07.795,-0.0002724672741826,-0.3027167623518753
2025-07-25 12:00:07.803,-0.0004106427756591,-0.3570889106693832
2025-07-25 12:00:07.811,-0.0005485100820788,-0.4069812823500648
2025-07-25 12:00:07.819,-0.0006863525398005,-0.4515189157677426
2025-07-25 12:00:07.827,-0.0008246238358839,-0.4899737884409439
2025-07-25 12:00:07.834,-0.0009639265600382,-0.5217765338103759
2025-07-25 12:00:07.842,-0.0011049825495281,-0.5465243167502226
2025-07-25 12:00:07.850,-0.0012485956522522,-0.5639840673945381
2025-07-25 12:00:07.858,-0.0013956081135867,-0.5740904200048433
2025-07-25 12:00:07.866,-0.0015468523402347,-0.5769379513640908
2025-07-25 12:00:07.874,-0.0017031002287027,-0.5727676354494501
2025-07-25 12:00:07.881,-0.0018650125224328,-0.5619477958872175
2025-07-25 12:00:07.889,-0.0020330907665353,-0.5449502085766668
2025-07-25 12:00:07.897,-0.0022076343591149,-0.522322346321443
2025-07-25 12:00:07.905,-0.0023887049548746,-0.4946570330155359
2025-07-25 12:00:07.913,-0.0025761000665008,-0.4625609648662939
2025-07-25 12:00:07.920,-0.0027693371491022,-0.426623648748012
2025-07-25 12:00:07.928,-0.0029676487910803,-0.3873883002349341
2025-07-25 12:00:07.936,-0.00316998896586,-0.345326141796044
2025-07-25 12:00:07.944,-0.0033750497230284,-0.3008153593885136
2025-07-25 12:00:07.952,-0.0035812872632348,-0.254125733555081
2025-07-25 12:00:07.960,-0.0037869560605274,-0.2054096793207168
2025-07-25 12:00:07.967,-0.0039901495758769,-0.1547001237746762
2025-07-25 12:00:07.975,-0.0041888461170012,-0.1019153349333604
2025-07-25 12:00:07.983,-0.0043809584614971,-0.0468705052695734
2025-07-25 12:00:07.991,-0.0045643858976073,0.0107043961902885
2025-07-25 12:00:07.999,-0.0047370673209825,0.0711412459949958
2025-07-25 12:00:08.006,-0.0048970339646414,0.134805823130919
2025-07-25 12:00:08.014,-0.0050424602776596,0.2020664373262638
2025-07-25 12:00:08.022,-0.0051717114907663,0.2732603988695878
2025-07-25 12:00:08.030,-0.0052833865712362,0.3486596917812632
2025-07-25 12:00:08.038,-0.0053763555112675,0.4284372681094241
2025-07-25 12:00:08.045,-0.005449790073589,0.5126354082527133
2025-07-25 12:00:08.053,-0.0055031871750158,0.6011375913108524
2025-07-25 12:00:08.061,-0.0055363840873813,0.693645280489644
2025-07-25 12:00:08.069,-0.0055495646705569,0.7896609336408781
2025-07-25 12:00:08.077,-0.0055432559811718,0.8884783811586031
2025-07-25 12:00:08.085,-0.0055183148504574,0.9891814665752822
2025-07-25 12:00:08.092,-0.0054759044076072,1.09065152924742
2025-07-25 12:00:08.100,-0.0054174610159248,1.1915839463076825
2025-07-25 12:00:08.108,-0.0053446525880963,1.2905135687387916
2025-07-25 12:00:08.116,-0.0052593296101739,1.385848504336857
2025-07-25 12:00:08.124,-0.0051634703662912,1.4759113298017512
2025-07-25 12:00:08.131,-0.0050591219089461,1.558986460370958
2025-07-25 12:00:08.139,-0.0049483384258935,1.633372073324952
2025-07-25 12:00:08.147,-0.0048331188975683,1.6974346823801618
2025-07-25 12:00:08.155,-0.0047153462541298,1.7496642130190312
2025-07-25 12:00:08.163,-0.0045967304780774,1.7887272594780856
2025-07-25 12:00:08.170,-0.004478758143879,1.8135161383759093
2025-07-25 12:00:08.178,-0.0043626507120765,1.823191414448655
2025-07-25 12:00:08.186,-0.0042493335116236,1.8172157762874508
2025-07-25 12:00:08.194,-0.0041394167928518,1.795377487976613
2025-07-25 12:00:08.202,-0.0040331896090476,1.757802122761186
2025-07-25 12:00:08.210,-0.003930626655901,1.7049518664689771
2025-07-25 12:00:08.217,-0.0038314075414957,1.6376123178101738
2025-07-25 12:00:08.225,-0.0037349472572898,1.5568673608424684
2025-07-25 12:00:08.233,-0.003640435969358,1.4640632937924676
2025-07-25 12:00:08.241,-0.0035468857872501,1.3607639253259003
2025-07-25 12:00:08.249,-0.0034531819412756,1.2486987596561512
2025-07-25 12:00:08.256,-0.0033581357712249,1.1297066619898863
2025-07-25 12:00:08.264,-0.0032605370741214,1.005677515952157
2025-07-25 12:00:08.272,-0.0031592036659784,0.8784943594753674
2025-07-25 12:00:08.280,-0.003053026436776,0.7499783317383931
2025-07-25 12:00:08.288,-0.0029410086329305,0.621838505710285
2025-07-25 12:00:08.295,-0.0028222985074709,0.4956283476376489
2025-07-25 12:00:08.303,-0.0026962148229856,0.3727101655432682
2025-07-25 12:00:08.311,-0.0025622650430403,0.2542285092599475
2025-07-25 12:00:08.319,-0.0024201564450647,0.1410930867811599
2025-07-25 12:00:08.327,-0.0022698007479796,0.0339713859167623
2025-07-25 12:00:08.335,-0.0021113130248488,-0.0667091456084085
2025-07-25 12:00:08.342,-0.0019450056007526,-0.160749793076279
2025-07-25 12:00:08.350,-0.0017713774041132,-0.2481608069046988
2025-07-25 12:00:08.358,-0.0015910990122173,-0.3291340402855826
2025-07-25 12:00:08.366,-0.0014049935100771,-0.4040090460811985
2025-07-25 12:00:08.374,-0.0012140132447009,-0.4732338781339176
2025-07-25 12:00:08.381,-0.0010192125736833,-0.5373220411649668
2025-07-25 12:00:08.389,-0.0008217168301267,-0.596807232788047
2025-07-25 12:00:08.397,-0.0006226880025542,-0.6521977087848388
2025-07-25 12:00:08.405,-0.0004232880076721,-0.7039322629491954
2025-07-25 12:00:08.413,-0.0002246408323848,-0.7523399225624327
2025-07-25 12:00:08.420,-2.7795196791848338e-05,-0.7976054898882247
2025-07-25 12:00:08.428,0.0001663103068424,-0.8397429784299721
2025-07-25 12:00:08.436,0.0003568775038223,-0.8785787766524603
2025-07-25 12:00:08.444,0.000543272363935,-0.9137460097080632
2025-07-25 12:00:08.452,0.0007250405472932,-0.9446910639834064
2025-07-25 12:00:08.460,0.0009019137512111,-0.9706926094398908
2025-07-25 12:00:08.467,0.0010738065428369,-0.9908927390394224
2025-07-25 12:00:08.475,0.0012408039965374,-1.0043390980842577
2025-07-25 12:00:08.483,0.0014031409235571,-1.010036162370909
2025-07-25 12:00:08.491,0.0015611738169838,-1.007003201865773
2025-07-25 12:00:08.499,0.0017153469075533,-0.9943359816574784
2025-07-25 12:00:08.506,0.0018661539589554,-0.971268933043946
2025-07-25 12:00:08.514,0.0020140976225419,-0.9372343883480542
2025-07-25 12:00:08.522,0.002159648291897,-0.8919155149906726
2025-07-25 12:00:08.530,0.0023032043720473,-0.8352898024932323
2025-07-25 12:00:08.538,0.0024450556672396,-0.7676603448199748
2025-07-25 12:00:08.545,0.002585351285622,-0.6896727143254462
2025-07-25 12:00:08.553,0.0027240732161734,-0.6023159307070258
2025-07-25 12:00:08.561,0.0028610166315197,-0.5069068619703967
2025-07-25 12:00:08.569,0.0029957779426452,-0.4050583090293335
2025-07-25 12:00:08.577,0.0031277515320216,-0.2986319607946174
2025-07-25 12:00:08.585,0.0032561358412141,-0.1896782955571917
2025-07-25 12:00:08.592,0.0033799491322056,-0.0803662823519823
2025-07-25 12:00:08.600,0.0034980548328323,0.0270936533283219
2025-07-25 12:00:08.608,0.003609195886863,0.1305295339979484
2025-07-25 12:00:08.616,0.0037120369388207,0.2278865724168576
2025-07-25 12:00:08.624,0.0038052125963728,0.3173007925580078
2025-07-25 12:00:08.631,0.0038873795986939,0.3971638748829392
2025-07-25 12:00:08.639,0.0039572705674578,0.4661760867297299
2025-07-25 12:00:08.647,0.0040137470703699,0.523384853237078
2025-07-25 12:00:08.655,0.0040558498469945,0.568207356534569
2025-07-25 12:00:08.663,0.0040828441588758,0.6004364688075812
2025-07-25 12:00:08.670,0.0040942583771165,0.6202302666763955
2025-07-25 12:00:08.678,0.0040899141631973,0.6280862732716588
2025-07-25 12:00:08.686,0.0040699468979265,0.6248023670763849
2025-07-25 12:00:08.694,0.0040348153334059,0.6114269328259738
2025-07-25 12:00:08.702,0.0039852998343894,0.5892012790225748
2025-07-25 12:00:08.710,0.0039224890815592,0.5594975993340144
2025-07-25 12:00:08.717,0.0038477556562738,0.5237558174318138
2025-07-25 12:00:08.725,0.0037627213956734,0.4834225398610881
2025-07-25 12:00:08.733,0.0036692137681125,0.4398950639901454
2025-07-25 12:00:08.741,0.0035692148192345,0.3944729654559297
2025-07-25 12:00:08.749,0.0034648045105832,0.3483192473055286
2025-07-25 12:00:08.756,0.0033581005195388,0.3024324066465479
2025-07-25 12:00:08.764,0.0032511967940231,0.2576301051614383
2025-07-25 12:00:08.772,0.0031461033261613,0.2145444585083797
2025-07-25 12:00:08.780,0.0030446896450054,0.1736283257665009
2025-07-25 12:00:08.788,0.0029486343562048,0.1351714212294237
2025-07-25 12:00:08.795,0.0028593826562174,0.0993246195976941
2025-07-25 12:00:08.803,0.0027781131654868,0.0661305022072292
2025-07-25 12:00:08.811,0.0027057147839202,0.035557998216601
2025-07-25 12:00:08.819,0.0026427737409618,0.0075388956760168
2025-07-25 12:00:08.827,0.002589570678467,-0.0179959895978504
2025-07-25 12:00:08.835,0.0025460873951731,-0.0410831139939457
2025-07-25 12:00:08.842,0.0025120226492334,-0.0616969534406392
2025-07-25 12:00:08.850,0.0024868160882027,-0.0797269645566408
2025-07-25 12:00:08.858,0.0024696790256317,-0.0949622419149564
2025-07-25 12:00:08.866,0.0024596305582432,-0.1070849910164639
2025-07-25 12:00:08.874,0.0024555374920591,-0.115673500836832
2025-07-25 12:00:08.881,0.0024561566428812,-0.1202148124425886
2025-07-25 12:00:08.889,0.0024601781677059,-0.1201267719000295
2025-07-25 12:00:08.897,0.0024662686281842,-0.1147886546741993
2025-07-25 12:00:08.905,0.0024731125230924,-0.103579072699706
2025-07-25 12:00:08.913,0.0024794510780271,-0.0859194332920559
2025-07-25 12:00:08.920,0.0024841171456875,-0.0613208195890488
2025-07-25 12:00:08.928,0.002486065154359,-0.0294318203134276
2025-07-25 12:00:08.936,0.0024843951518096,0.0099154250263286
2025-07-25 12:00:08.944,0.0024783701551826,0.0566638519751498
2025-07-25 12:00:08.952,0.0024674263107357,0.1104976639323549
2025-07-25 12:00:08.960,0.0024511758305524,0.170818819233518
2025-07-25 12:00:08.967,0.0024294032176735,0.2367361677784283
2025-07-25 12:00:08.975,0.0024020557551906,0.3070690122535549
2025-07-25 12:00:08.983,0.002369229503792,0.3803661015144371
2025-07-25 12:00:08.991,0.0023311520938432,0.4549401530742858
2025-07-25 12:00:08.999,0.0022881634530919,0.5289170104852273
2025-07-25 12:00:09.006,0.0022406954021903,0.6002975462457247
2025-07-25 12:00:09.014,0.0021892509394784,0.6670295060021261
2025-07-25 12:00:09.022,0.0021343840793623,0.727085737956093
2025-07-25 12:00:09.030,0.0020766811660131,0.7785447328872257
2025-07-25 12:00:09.038,0.002016744467181,0.81966916410052
2025-07-25 12:00:09.045,0.0019551785397835,0.8489781860477733
2025-07-25 12:00:09.053,0.001892579479517,0.8653096204500221
2025-07-25 12:00:09.061,0.0018295268153413,0.8678687946050252
2025-07-25 12:00:09.069,0.0017665774984949,0.8562616345870504
2025-07-25 12:00:09.077,0.0017042612125041,0.8305105728739903
2025-07-25 12:00:09.085,0.0016430761931961,0.7910528178472296
2025-07-25 12:00:09.092,0.0015834849004917,0.7387214736591079
2025-07-25 12:00:09.100,0.0015259091056493,0.6747108322507396
2025-07-25 12:00:09.108,0.0014707241676531,0.6005278430906323
2025-07-25 12:00:09.116,0.0014182525079257,0.5179322794130701
2025-07-25 12:00:09.124,0.0013687565841882,0.428868462855463
2025-07-25 12:00:09.131,0.0013224319543755,0.3353915995876058
2025-07-25 12:00:09.139,0.0012794012303965,0.239591846458445
2025-07-25 12:00:09.147,0.0012397098097395,0.1435191892773307
2025-07-25 12:00:09.155,0.0012033242319141,0.0491120926858184
2025-07-25 12:00:09.163,0.0011701338377729,-0.0418673218367658
2025-07-25 12:00:09.170,0.0011399561186457,-0.1278890971023805
2025-07-25 12:00:09.178,0.0011125457445216,-0.2077001547976118
2025-07-25 12:00:09.186,0.0010876068026732,-0.280356248514664
2025-07-25 12:00:09.194,0.0010648073519952,-0.3452400303672385
2025-07-25 12:00:09.202,0.0010437951002897,-0.4020647036659434
2025-07-25 12:00:09.210,0.0010242128854897,-0.4508633752317906
2025-07-25 12:00:09.217,0.0010057126929617,-0.4919648717118662
2025-07-25 12:00:09.225,0.0009879671691211,-0.5259574038680094
2025-07-25 12:00:09.233,0.0009706779579686,-0.5536420094358755
2025-07-25 12:00:09.241,0.000953580600248,-0.5759781432418883
2025-07-25 12:00:09.249,0.000936446107387,-0.594024089970053
2025-07-25 12:00:09.256,0.0009190796118134,-0.6088750419022021
2025-07-25 12:00:09.264,0.0009013166895868,-0.621601713196784
2025-07-25 12:00:09.272,0.0008830180476669,-0.6331922611528962
2025-07-25 12:00:09.280,0.0008640632674008,-0.6445000649668268
2025-07-25 12:00:09.288,0.0008443442024924,-0.6561995921241084
2025-07-25 12:00:09.295,0.0008237584517449,-0.6687521866859609
2025-07-25 12:00:09.303,0.000802203080756,-0.6823831665051137
2025-07-25 12:00:09.311,0.0007795684983843,-0.6970711336174453
2025-07-25 12:00:09.319,0.0007557321929353,-0.712549892323932
2025-07-25 12:00:09.327,0.0007305519868266,-0.7283228426145385
2025-07-25 12:00:09.335,0.000703858583169,-0.7436891883608445
2025-07-25 12:00:09.342,0.0006754473782557,-0.7577807897372506
2025-07-25 12:00:09.350,0.0006450697222004,-0.7696080186969089
2025-07-25 12:00:09.358,0.0006124239958864,-0.7781125684340897
2025-07-25 12:00:09.366,0.0005771470605616,-0.7822248485196
2025-07-25 12:00:09.374,0.0005388068942055,-0.7809233911164398
2025-07-25 12:00:09.381,0.0004968975884697,-0.7732936167951331
2025-07-25 12:00:09.389,0.0004508382246741,-0.7585833653476045
2025-07-25 12:00:09.397,0.0003999772423275,-0.736252779789887
2025-07-25 12:00:09.405,0.0003436036087755,-0.7060164233856568
2025-07-25 12:00:09.413,0.0002809654522583,-0.6678758879558282
2025-07-25 12:00:09.420,0.0002112960065544,-0.6221415926787198
2025-07-25 12:00:09.428,0.0001338458818502,-0.5694429502747029
2025-07-25 12:00:09.436,4.791993036638923e-05,-0.5107265656675288
2025-07-25 12:00:09.444,-4.70835681567395e-05,-0.4472426057956429
2025-07-25 12:00:09.452,-0.0001516339133736,-0.3805199142317603
2025-07-25 12:00:09.460,-0.0002660316146118,-0.3123308178947616
2025-07-25 12:00:09.467,-0.0003903767755805,-0.2446468685437839
2025-07-25 12:00:09.475,-0.0005245439958962,-0.1795869754206119
2025-07-25 12:00:09.483,-0.0006681652223907,-0.1193595291885379
2025-07-25 12:00:09.491,-0.0008206216962865,-0.0662002110990687
2025-07-25 12:00:09.499,-0.000981045818231,-0.0223072419881379
2025-07-25 12:00:09.506,-0.0011483333130665,0.0102241389374329
2025-07-25 12:00:09.514,-0.0013211654941085,0.029466165278925
2025-07-25 12:00:09.522,-0.0014980407416977,0.033720222273332
2025-07-25 12:00:09.530,-0.0016773136421358,0.0215739805135912
2025-07-25 12:00:09.538,-0.0018572397438415,-0.0080476659204469
2025-07-25 12:00:09.545,-0.0020360236605529,-0.0558393951567559
2025-07-25 12:00:09.553,-0.0022118682167458,-0.1220813873293357
2025-07-25 12:00:09.561,-0.0023830223704596,-0.2066156255538953
2025-07-25 12:00:09.569,-0.0025478257582896,-0.3088336097621345
2025-07-25 12:00:09.577,-0.0027047479940963,-0.4276762851192324
2025-07-25 12:00:09.585,-0.0028524213775191,-0.5616466911228278
2025-07-25 12:00:09.592,-0.0029896663394959,-0.7088354818889582
2025-07-25 12:00:09.600,-0.0031155095998002,-0.8669590547912277
2025-07-25 12:00:09.608,-0.0032291955117916,-1.0334095601983164
2025-07-25 12:00:09.616,-0.0033301913746951,-1.205315564629046
2025-07-25 12:00:09.624,-0.0034181875970827,-1.3796116342598697
2025-07-25 12:00:09.631,-0.0034930935093683,-1.553114641976629
2025-07-25 12:00:09.639,-0.00355502939514,-1.7226042290873522
2025-07-25 12:00:09.647,-0.0036043150367602,-1.884904611507872
2025-07-25 12:00:09.655,-0.0036414548528054,-2.0369648317327456
2025-07-25 12:00:09.663,-0.0036671195959129,-2.1759346296782343
2025-07-25 12:00:09.670,-0.0036821245951794,-2.2992333338116397
2025-07-25 12:00:09.678,-0.0036874046779323,-2.4046095428696432
2025-07-25 12:00:09.686,-0.003683986164042,-2.4901898479065583
2025-07-25 12:00:09.694,-0.0036729566113795,-2.554515394080367
2025-07-25 12:00:09.702,-0.0036554332263746,-2.596565658224561
2025-07-25 12:00:09.710,-0.0036325310055229,-2.615769380717993
2025-07-25 12:00:09.717,-0.0036053317375461,-2.612003101628129
2025-07-25 12:00:09.725,-0.0035748549745663,-2.5855781818102908
2025-07-25 12:00:09.733,-0.0035420319787644,-2.5372175206182326
2025-07-25 12:00:09.741,-0.0035076834748972,-2.468023406838004
2025-07-25 12:00:09.749,-0.0034725018019319,-2.379438062985748
2025-07-25 12:00:09.756,-0.00343703780005,-2.273198476846139
2025-07-25 12:00:09.764,-0.0034016925707304,-2.1512870744715844
2025-07-25 12:00:09.772,-0.0033667141558425,-2.015879696677138
2025-07-25 12:00:09.780,-0.0033321991274172,-1.8692922196147697
2025-07-25 12:00:09.788,-0.0032980989435059,-1.713927028356238
2025-07-25 12:00:09.795,-0.0032642307087537,-1.5522204191833833
2025-07-25 12:00:09.803,-0.0032302918035677,-1.3865918722947002
2025-07-25 12:00:09.811,-0.0031958777804553,-1.219396004795334
2025-07-25 12:00:09.819,-0.0031605028995353,-1.052877894742104
2025-07-25 12:00:09.827,-0.0031236225780809,-0.8891323742282171
2025-07-25 12:00:09.835,-0.0030846568627024,-0.7300678298237194
2025-07-25 12:00:09.842,-0.0030430139418413,-0.5773750160426748
2025-07-25 12:00:09.850,-0.0029981128215558,-0.4325013643523451
2025-07-25 12:00:09.858,-0.0029494045154665,-0.2966312343154019
2025-07-25 12:00:09.866,-0.0028963912815005,-0.1706724846065452
2025-07-25 12:00:09.874,-0.0028386435364252,-0.0552496266853509
2025-07-25 12:00:09.881,-0.00277581417359,0.0492963388209431
2025-07-25 12:00:09.889,-0.0027076500996564,0.1429014997059943
2025-07-25 12:00:09.897,-0.0026340008072271,0.2257663227993655
2025-07-25 12:00:09.905,-0.0025548237222291,0.2983371292164652
2025-07-25 12:00:09.913,-0.002470186033956,0.3612823374779694
2025-07-25 12:00:09.920,-0.0023802628083213,0.4154640927023484
2025-07-25 12:00:09.928,-0.002285331360367,0.4619058651104179
2025-07-25 12:00:09.936,-0.002185762049665,0.5017565263651003
2025-07-25 12:00:09.944,-0.0020820058282595,0.5362513450814529
2025-07-25 12:00:09.952,-0.0019745790090022,0.5666703337145435
2025-07-25 12:00:09.960,-0.0018640458323906,0.5942944649334402
2025-07-25 12:00:09.967,-0.0017509994927647,0.6203604680099917
2025-07-25 12:00:09.975,-0.0016360423407801,0.6460151980524036
2025-07-25 12:00:09.983,-0.0015197660095735,0.6722709036088205
2025-07-25 12:00:09.991,-0.0014027322182238,0.6999630477808826
2025-07-25 12:00:09.999,-0.0012854549893111,0.729712605361668
2025-07-25 12:00:10.006,-0.0011683849788924,0.7618949067254475
2025-07-25 12:00:10.014,-0.0010518965583101,0.7966170842093244
2025-07-25 12:00:10.022,-0.0009362782091388,0.8337059786872051
2025-07-25 12:00:10.030,-0.0008217266964365,0.8727079909589308
2025-07-25 12:00:10.038,-0.0007083453724942,0.9129018428494864
2025-07-25 12:00:10.045,-0.0005961468347641,0.9533245842417648
2025-07-25 12:00:10.053,-0.0004850600190336,0.9928104865973896
2025-07-25 12:00:10.061,-0.0003749416539102,1.030041748050879
2025-07-25 12:00:10.069,-0.00026559183735,1.0636092517797844
2025-07-25 12:00:10.077,-0.0001567733227633,1.0920810181092673
2025-07-25 12:00:10.085,-4.82339241483343e-05,1.114075511836803
2025-07-25 12:00:10.092,6.026872977759511e-05,1.1283366363152438
2025-07-25 12:00:10.100,0.000168941039315,1.1338070792073944
2025-07-25 12:00:10.108,0.0002779269918887,1.1296966740489784
2025-07-25 12:00:10.116,0.0003872827084506,1.1155425970835826
2025-07-25 12:00:10.124,0.000496953391962,1.091258511534144
2025-07-25 12:00:10.131,0.0006067542030869,1.057170182965561
2025-07-25 12:00:10.139,0.0007163566281573,1.0140356084959588
2025-07-25 12:00:10.147,0.0008252817676149,0.963048322996962
2025-07-25 12:00:10.155,0.0009329015496616,0.9058232563478013
2025-07-25 12:00:10.163,0.0010384482041629,0.8443652953822375
2025-07-25 12:00:10.170,0.0011410316322414,0.7810215183908352
2025-07-25 12:00:10.178,0.0012396637575749,0.7184188735535961
2025-07-25 12:00:10.186,0.0013332885548295,0.6593898092312585
2025-07-25 12:00:10.194,0.0014208161954912,0.606888971601231
2025-07-25 12:00:10.202,0.0015011596847978,0.5639045078710136
2025-07-25 12:00:10.210,0.0015732724899429,0.5333677134274395
2025-07-25 12:00:10.217,0.0016361858276276,0.5180647234823439
2025-07-25 12:00:10.225,0.0016890443047524,0.5205536798645085
2025-07-25 12:00:10.233,0.0017311384957066,0.5430903258913711
2025-07-25 12:00:10.241,0.001761933021143,0.5875643383541567
2025-07-25 12:00:10.249,0.001781088965221,0.6554479543554004
2025-07-25 12:00:10.256,0.0017884799571006,0.7477576642525017
2025-07-25 12:00:10.264,0.0017842016787772,0.8650289955748472
2025-07-25 12:00:10.272,0.0017685747647808,1.0073037729353689
2025-07-25 12:00:10.280,0.0017421410736582,1.1741287548962562
2025-07-25 12:00:10.288,0.0017056532953804,1.3645642468484962
2025-07-25 12:00:10.295,0.001660057935264,1.5772011693734145
2025-07-25 12:00:10.303,0.0016064719270376,1.8101851006392524
2025-07-25 12:00:10.311,0.0015461534537156,2.061245971731278
2025-07-25 12:00:10.319,0.0014804679197202,2.3277323372394187
2025-07-25 12:00:10.327,0.0014108503378736,2.606649438341984
2025-07-25 12:00:10.335,0.0013387656356906,2.894700594684808
2025-07-25 12:00:10.342,0.0012656685455595,3.188331775008738
2025-07-25 12:00:10.350,0.0011929648174552,3.4837794704091745
2025-07-25 12:00:10.358,0.0011219754765372,3.777122192401769
2025-07-25 12:00:10.366,0.0010539057169712,4.064336008326341
2025-07-25 12:00:10.374,0.0009898197072475,4.341354484556933
2025-07-25 12:00:10.381,0.0009306220482762,4.604133220382067
2025-07-25 12:00:10.389,0.0008770459709556,4.848718825636063
2025-07-25 12:00:10.397,0.0008296477551656,5.071321748624478
2025-07-25 12:00:10.405,0.0007888064217977,5.268391844750862
2025-07-25 12:00:10.413,0.0007547275408892,5.436695049367315
2025-07-25 12:00:10.420,0.0007274500184234,5.573389037887607
2025-07-25 12:00:10.428,0.0007068549584628,5.676095369632342
2025-07-25 12:00:10.436,0.0006926760921404,5.742965355787262
2025-07-25 12:00:10.444,0.000684511690941,5.772736792804509
2025-07-25 12:00:10.452,0.0006818381650895,5.764778776481283
2025-07-25 12:00:10.460,0.0006840255960646,5.719122061510407
2025-07-25 12:00:10.467,0.0006903553323373,5.6364728445047225
2025-07-25 12:00:10.475,0.0007000396330507,5.518208400615748
2025-07-25 12:00:10.483,0.0007122432454114,5.366353660884525
2025-07-25 12:00:10.491,0.0007261066825325,5.1835385386561565
2025-07-25 12:00:10.499,0.0007407707223787,4.97293655545136
2025-07-25 12:00:10.506,0.0007554013083121,4.738186041624529
2025-07-25 12:00:10.514,0.0007692138015272,4.483295868644591
2025-07-25 12:00:10.522,0.0007814955732729,4.212538291371223
2025-07-25 12:00:10.530,0.0007916261802277,3.930332025986973
2025-07-25 12:00:10.538,0.0007990946857446,3.641119146431044
2025-07-25 12:00:10.545,0.0008035139550238,3.349239734212756
2025-07-25 12:00:10.553,0.0008046318862816,3.058808450856432
2025-07-25 12:00:10.561,0.000802339498069,2.7735973050447056
2025-07-25 12:00:10.569,0.0007966756184174,2.496928837439229
2025-07-25 12:00:10.577,0.0007878277707949,2.2315837207935787
2025-07-25 12:00:10.585,0.0007761288806745,1.9797263544482888
2025-07-25 12:00:10.592,0.0007620496120829,1.7428514234119836
2025-07-25 12:00:10.600,0.0007461862960701,1.5217536194379222
2025-07-25 12:00:10.608,0.000729244419252,1.316521829936942
2025-07-25 12:00:10.616,0.0007120176179806,1.126558144033064
2025-07-25 12:00:10.624,0.0006953622657397,0.9506210548377778
2025-07-25 12:00:10.631,0.0006801680789178,0.7868912944080236
2025-07-25 12:00:10.639,0.0006673255767742,0.6330578548560187
2025-07-25 12:00:10.647,0.0006576916264801,0.486420955599661
2025-07-25 12:00:10.655,0.0006520546747605,0.3440080472420936
2025-07-25 12:00:10.663,0.0006511015616506,0.2026984354552036
2025-07-25 12:00:10.670,0.0006553878979342,0.0593517978950393
2025-07-25 12:00:10.678,0.0006653137894236,-0.0890642250603487
2025-07-25 12:00:10.686,0.0006811062862428,-0.245352054446807
2025-07-25 12:00:10.694,0.000702809477922,-0.4119721579093173
2025-07-25 12:00:10.702,0.0007302827307065,-0.5909448136549481
2025-07-25 12:00:10.710,0.0007632071478703,-0.7837688004483933
2025-07-25 12:00:10.717,0.0008010998912449,-0.9913594093860522
2025-07-25 12:00:10.725,0.0008433355836842,-1.2140074070748303
2025-07-25 12:00:10.733,0.0008891737003855,-1.4513598556947198
2025-07-25 12:00:10.741,0.0009377906558278,-1.7024230495025006
2025-07-25 12:00:10.749,0.0009883151602372,-1.9655872750617056
2025-07-25 12:00:10.756,0.0010398653540498,-2.238672641531613
2025-07-25 12:00:10.764,0.0010915862394028,-2.5189948388114622
2025-07-25 12:00:10.772,0.0011426859623517,-2.8034493318973195
2025-07-25 12:00:10.780,0.0011924694855822,-3.0886121506034137
2025-07-25 12:00:10.788,0.0012403681294284,-3.370855054994601
2025-07-25 12:00:10.795,0.0012859634281821,-3.646472439284111
2025-07-25 12:00:10.803,0.0013290038284931,-3.911816893214485
2025-07-25 12:00:10.811,0.001369412980765,-4.163439896794347
2025-07-25 12:00:10.819,0.0014072887452952,-4.398233712703608
2025-07-25 12:00:10.827,0.0014428925447538,-4.613570188376439
2025-07-25 12:00:10.835,0.0014766293255665,-4.807431907412881
2025-07-25 12:00:10.842,0.0015090190882021,-4.978530952910043
2025-07-25 12:00:10.850,0.0015406615830385,-5.126410478858914
2025-07-25 12:00:10.858,0.0015721961759245,-5.251524349340742
2025-07-25 12:00:10.866,0.0016042589803465,-5.355290322528506
2025-07-25 12:00:10.874,0.0016374392070527,-5.440112651077847
2025-07-25 12:00:10.881,0.0016722364558591,-5.509370558248057
2025-07-25 12:00:10.889,0.0017090204856043,-5.567369831767849
2025-07-25 12:00:10.897,0.0017479948915425,-5.619255743353567
2025-07-25 12:00:10.905,0.0017891660973783,-5.670886632168606
2025-07-25 12:00:10.913,0.0018323190920164,-5.728668764365143
2025-07-25 12:00:10.921,0.001877001302022,-5.799354474209244
2025-07-25 12:00:10.928,0.0019225157683243,-5.889807075788382
2025-07-25 12:00:10.936,0.0019679243876181,-6.006737572108015
2025-07-25 12:00:10.944,0.0020120615133331,-6.156419736213876
2025-07-25 12:00:10.952,0.0020535577754613,-6.344391639607215
2025-07-25 12:00:10.960,0.0020908735416883,-6.575153083340906
2025-07-25 12:00:10.967,0.0021223409792433,-6.851869559634593
2025-07-25 12:00:10.975,0.0021462132509295,-7.176094242684569
2025-07-25 12:00:10.983,0.0021607190695853,-7.547519984380913
2025-07-25 12:00:10.991,0.0021641206555618,-7.963773292231512
2025-07-25 12:00:10.999,0.0021547730373795,-8.420261731862821
2025-07-25 12:00:11.006,0.0021311825679607,-8.910085094258443
2025-07-25 12:00:11.014,0.0020920625461665,-9.42401900354831
2025-07-25 12:00:11.022,0.0020363839889105,-9.95057745640242
2025-07-25 12:00:11.030,0.0019634198250512,-10.476158154387845
2025-07-25 12:00:11.038,0.0018727809674341,-10.98527151870652
2025-07-25 12:00:11.046,0.0017644428744039,-11.460851083601057
2025-07-25 12:00:11.053,0.0016387614361675,-11.884639682284073
2025-07-25 12:00:11.061,0.0014964773535115,-12.237642603447515
2025-07-25 12:00:11.069,0.0013387085824384,-12.50063583879326
2025-07-25 12:00:11.077,0.0011669308723927,-12.654714784440438
2025-07-25 12:00:11.085,0.0009829468999711,-12.681866417372929
2025-07-25 12:00:11.092,0.0007888449220678,-12.565546159846471
2025-07-25 12:00:11.100,0.0005869481976081,-12.291239489643663
2025-07-25 12:00:11.108,0.0003797567039642,-11.846987964244647
2025-07-25 12:00:11.116,0.0001698829510262,-11.22385979151365
2025-07-25 12:00:11.124,-4.001606756962895e-05,-10.416346449660283
2025-07-25 12:00:11.131,-0.0002473085921014,-9.422669135111668
2025-07-25 12:00:11.139,-0.0004494571729806,-8.244981936928378
2025-07-25 12:00:11.147,-0.0006440846802633,-6.889462472316166
2025-07-25 12:00:11.155,-0.0008290347872798,-5.366285079091608
2025-07-25 12:00:11.163,-0.0010024246339181,-3.689476309452374
2025-07-25 12:00:11.171,-0.0011626877390389,-1.8766571414483133
2025-07-25 12:00:11.178,-0.001308605678099,0.0513192437600727
2025-07-25 12:00:11.186,-0.0014393274919581,2.070821320342504
2025-07-25 12:00:11.194,-0.0015543762817189,4.155968644162712
2025-07-25 12:00:11.202,-0.0016536430137491,6.279218338223011
2025-07-25 12:00:11.210,-0.0017373681572207,8.411988604607927
2025-07-25 12:00:11.217,-0.0018061123247919,10.52529865563331
2025-07-25 12:00:11.225,-0.0018607175570198,12.59040480620393
2025-07-25 12:00:11.233,-0.0019022612783287,14.579413661335844
2025-07-25 12:00:11.241,-0.0019320052492634,16.465855236974548
2025-07-25 12:00:11.249,-0.0019513420192546,18.22520130590018
2025-07-25 12:00:11.256,-0.0019617413520653,19.835317088172307
2025-07-25 12:00:11.264,-0.001964698748354,21.27683743449027
2025-07-25 12:00:11.272,-0.0019616875879992,22.53346172181994
2025-07-25 12:00:11.280,-0.0019541158160977,23.59216465622385
2025-07-25 12:00:11.288,-0.0019432877503988,24.44332294818588
2025-07-25 12:00:11.296,-0.0019303715442533,25.080760310573247
2025-07-25 12:00:11.303,-0.0019163729571099,25.50171537581296
2025-07-25 12:00:11.311,-0.0019021161778203,25.70673890614806
2025-07-25 12:00:11.319,-0.0018882323974064,25.699528064551963
2025-07-25 12:00:11.327,-0.0018751565997069,25.486706522146623
2025-07-25 12:00:11.335,-0.0018631326361884,25.077559810738123
2025-07-25 12:00:11.342,-0.0018522261190577,24.4837356072286
2025-07-25 12:00:11.350,-0.0018423440960538,23.71891858858892
2025-07-25 12:00:11.358,-0.0018332599645139,22.79848915447277
2025-07-25 12:00:11.366,-0.0018246417213833,21.739174716404964
2025-07-25 12:00:11.374,-0.0018160815154048,20.55870144073979
2025-07-25 12:00:11.381,-0.0018071246453411,19.27545335614277
2025-07-25 12:00:11.389,-0.0017972965876642,17.908144648295284
2025-07-25 12:00:11.397,-0.0017861271386348,16.47550982246098
2025-07-25 12:00:11.405,-0.0017731711123585,14.9960152835535
2025-07-25 12:00:11.413,-0.0017580252037338,13.487594834986908
2025-07-25 12:00:11.421,-0.0017403407386535,11.967410699437623
2025-07-25 12:00:11.428,-0.0017198322422804,10.451640964400662
2025-07-25 12:00:11.436,-0.0016962820551208,8.955293870301038
2025-07-25 12:00:11.444,-0.001669541490091,7.492049076076337
2025-07-25 12:00:11.452,-0.0016395291435622,6.074125921861598
2025-07-25 12:00:11.460,-0.0016062269166505,4.712178713933947
2025-07-25 12:00:11.467,-0.0015696741082194,3.4152191334832933
2025-07-25 12:00:11.475,-0.0015299597270218,2.190565971784328
2025-07-25 12:00:11.483,-0.0014872130995139,1.0438224794853082
2025-07-25 12:00:11.491,-0.0014415930035777,-0.0211183512689071
2025-07-25 12:00:11.499,-0.0013932758588904,-1.0020403166853618
2025-07-25 12:00:11.506,-0.001342443792967,-1.8983422857306096
2025-07-25 12:00:11.514,-0.0012892735619539,-2.7109485421180386
2025-07-25 12:00:11.522,-0.0012339272952677,-3.4421920152954453
2025-07-25 12:00:11.530,-0.0011765458496744,-4.095671904265538
2025-07-25 12:00:11.538,-0.0011172452148417,-4.676087963548258
2025-07-25 12:00:11.546,-0.0010561159602356,-5.189054511591332
2025-07-25 12:00:11.553,-0.0009932252776185,-5.640897968989753
2025-07-25 12:00:11.561,-0.0009286209215964,-6.038442378736078
2025-07-25 12:00:11.569,-0.0008623363676228,-6.388787863470159
2025-07-25 12:00:11.577,-0.0007943967169116,-6.69908731470118
2025-07-25 12:00:11.585,-0.0007248251226573,-6.976326782640104
2025-07-25 12:00:11.592,-0.0006536496753589,-7.22711505168839
2025-07-25 12:00:11.600,-0.0005809107235203,-7.457487761621303
2025-07-25 12:00:11.608,-0.0005066685187579,-7.672731186658297
2025-07-25 12:00:11.616,-0.0004310108977763,-7.877230434134772
2025-07-25 12:00:11.624,-0.0003540605306819,-8.074346389719123
2025-07-25 12:00:11.631,-0.0002759811643085,-8.266325225240267
2025-07-25 12:00:11.639,-0.0001969823078905,-8.454243690422992
2025-07-25 12:00:11.647,-0.0001173219470199,-8.637992711198427
2025-07-25 12:00:11.655,-3.730712624066072e-05,-8.816300993022049
2025-07-25 12:00:11.663,4.27074300556175e-05,-8.986799364425314
2025-07-25 12:00:11.671,0.0001223221768688,-9.14612549667358
2025-07-25 12:00:11.678,0.0002010963985581,-9.290067424780672
2025-07-25 12:00:11.686,0.0002785518964955,-9.41374302127168
2025-07-25 12:00:11.694,0.0003541760502673,-9.511811301117582
2025-07-25 12:00:11.702,0.000427423827428,-9.57871023150986
2025-07-25 12:00:11.710,0.0004977186933117,-9.608914642306765
2025-07-25 12:00:11.717,0.0005644528364154,-9.597206926245253
2025-07-25 12:00:11.725,0.0006269875538035,-9.538952511543355
2025-07-25 12:00:11.733,0.0006846548710051,-9.43037159946708
2025-07-25 12:00:11.741,0.0007367614212687,-9.26879839235574
2025-07-25 12:00:11.749,0.0007825953549761,-9.05291899649161
2025-07-25 12:00:11.756,0.0008214367231414,-8.782979376125185
2025-07-25 12:00:11.764,0.0008525714334349,-8.460955174483264
2025-07-25 12:00:11.772,0.0008753085201019,-8.090675921195128
2025-07-25 12:00:11.780,0.0008890001621615,-7.677897121029611
2025-07-25 12:00:11.788,0.0008930636877813,-7.230314959425866
2025-07-25 12:00:11.796,0.000887004655696,-6.757519847406895
2025-07-25 12:00:11.803,0.0008704399020849,-6.270886734956841
2025-07-25 12:00:11.811,0.000843119205272,-5.783402010797224
2025-07-25 12:00:11.819,0.0008049440879358,-5.309428829137968
2025-07-25 12:00:11.827,0.0007559823598431,-4.864414804008231
2025-07-25 12:00:11.835,0.0006964773120748,-4.464548131357109
2025-07-25 12:00:11.842,0.00062685090506,-4.126370280600881
2025-07-25 12:00:11.850,0.000547700693751,-3.866355377082794
2025-07-25 12:00:11.858,0.0004597905215348,-3.7004681961418986
2025-07-25 12:00:11.866,0.0003640352353821,-3.64371420959041
2025-07-25 12:00:11.874,0.0002614799082138,-3.709696253215951
2025-07-25 12:00:11.881,0.0001532743309896,-3.9101930037735566
2025-07-25 12:00:11.889,4.0643857592159854e-05,-4.254774461075439
2025-07-25 12:00:11.897,-7.514198405297583e-05,-4.7504689444187775
2025-07-25 12:00:11.905,-0.0001928014722477,-5.401494689248568
2025-07-25 12:00:11.913,-0.0003110716130823,-6.209066976003881
2025-07-25 12:00:11.921,-0.0004287365615594,-7.171288902924917
2025-07-25 12:00:11.928,-0.0005446524007396,-8.283130552801952
2025-07-25 12:00:11.936,-0.0006577674408658,-9.536497581266618
2025-07-25 12:00:11.944,-0.0007671375330371,-10.920386398026649
2025-07-25 12:00:11.952,-0.0008719362798855,-12.421119375245722
2025-07-25 12:00:11.960,-0.0009714603814751,-14.02265015008454
2025-07-25 12:00:11.967,-0.0010651305556362,-15.706926311846516
2025-07-25 12:00:11.975,-0.0011524885150069,-17.45429474818807
2025-07-25 12:00:11.983,-0.0012331904844768,-19.2439337779389
2025-07-25 12:00:11.991,-0.0013069977832329,-21.05429596066764
2025-07-25 12:00:11.999,-0.0013737650419778,-22.86354611438417
2025-07-25 12:00:12.006,-0.0014334266393751,-24.649980494524257
2025-07-25 12:00:12.014,-0.0014859819707581,-26.39241513860355
2025-07-25 12:00:12.022,-0.0015314802488703,-28.07053388037976
2025-07-25 12:00:12.030,-0.0015700056079988,-29.66518929426284
2025-07-25 12:00:12.038,-0.0016016632291613,-31.15865265608054
2025-07-25 12:00:12.046,-0.001626567032082,-32.53481171899789
2025-07-25 12:00:12.053,-0.0016448293135415,-33.77931754015649
2025-07-25 12:00:12.061,-0.0016565526318058,-34.879683622712406
2025-07-25 12:00:12.069,-0.0016618241805026,-35.82534216794733
2025-07-25 12:00:12.077,-0.0016607127556954,-36.60766321368166
2025-07-25 12:00:12.085,-0.0016532682059092,-37.21994286254343
2025-07-25 12:00:12.092,-0.0016395230908756,-37.65736671694076
2025-07-25 12:00:12.100,-0.0016194962402399,-37.91695411923567
2025-07-25 12:00:12.108,-0.0015931979333285,-37.9974879562974
2025-07-25 12:00:12.116,-0.0015606364048667,-37.89943374860414
2025-07-25 12:00:12.124,-0.0015218253180483,-37.62485062370236
2025-07-25 12:00:12.131,-0.0014767918222225,-37.17729567922417
2025-07-25 12:00:12.139,-0.0014255848324807,-36.56172226154421
2025-07-25 12:00:12.147,-0.0013682831231654,-35.784371889323126
2025-07-25 12:00:12.155,-0.0013050026852771,-34.85265897750536
2025-07-25 12:00:12.163,-0.0012359027191703,-33.77504718499293
2025-07-25 12:00:12.171,-0.0011611898089353,-32.56091612202386
2025-07-25 12:00:12.178,-0.0010811202459544,-31.22041730775089
2025-07-25 12:00:12.186,-0.0009960009098381,-29.764318655432007
2025-07-25 12:00:12.194,-0.0009061893371522,-28.203837365091896
2025-07-25 12:00:12.202,-0.0008120935698965,-26.550461895553266
2025-07-25 12:00:12.210,-0.000714172194443,-24.815764634302063
2025-07-25 12:00:12.217,-0.0006129347429415,-23.011207938142483
2025-07-25 12:00:12.225,-0.0005089423396757,-21.14794731713253
2025-07-25 12:00:12.233,-0.0004028081855334,-19.23663659914388
2025-07-25 12:00:12.241,-0.0002951973157482,-17.28724085391515
2025-07-25 12:00:12.249,-0.0001868251166625,-15.30886358751852
2025-07-25 12:00:12.256,-7.845427039252509e-05,-13.30959516421715
2025-07-25 12:00:12.264,2.911004481665386e-05,-11.29638950673205
2025-07-25 12:00:12.272,0.0001350268439689,-9.27497581061538
2025-07-25 12:00:12.280,0.000238428166417,-7.249811236821948
2025-07-25 12:00:12.288,0.0003384304351337,-5.224079292355168
2025-07-25 12:00:12.296,0.0004341487386708,-3.199736881705498
2025-07-25 12:00:12.303,0.000524714238371,-1.177610869735377
2025-07-25 12:00:12.311,0.0006092945911517,0.8424574489306497
2025-07-25 12:00:12.319,0.0006871169737403,2.8614241674683223
2025-07-25 12:00:12.327,0.0007574930189557,4.88081760275276
2025-07-25 12:00:12.335,0.0008198446638433,6.902485170354278
2025-07-25 12:00:12.342,0.0008737295815265,8.928323189235234
2025-07-25 12:00:12.350,0.0009188646618115,10.960001833815072
2025-07-25 12:00:12.358,0.0009551460117593,12.99869816451321
2025-07-25 12:00:12.366,0.000982664128014,15.044850244819395
2025-07-25 12:00:12.374,0.0010017131765009,17.097944812472022
2025-07-25 12:00:12.381,0.0010127936440268,19.156349867518287
2025-07-25 12:00:12.389,0.001016607919638,21.2172019448958
2025-07-25 12:00:12.397,0.0010140485799686,23.276355833280245
2025-07-25 12:00:12.405,0.001006179372003,25.328402159857795
2025-07-25 12:00:12.413,0.000994209225543,27.366755649564656
2025-07-25 12:00:12.421,0.0009794600797147,29.38381404911123
2025-07-25 12:00:12.428,0.0009633297215814,31.371184740309246
2025-07-25 12:00:12.436,0.0009472510590425,33.31997301576376
2025-07-25 12:00:12.444,0.0009326492787021,35.22112292653798
2025-07-25 12:00:12.452,0.0009208982955369,37.06579863287414
2025-07-25 12:00:12.460,0.0009132778929964,38.84579142206958
2025-07-25 12:00:12.467,0.000910932982279,40.55393515336231
2025-07-25 12:00:12.475,0.000914836407258,42.18451100711682
2025-07-25 12:00:12.483,0.0009257566155253,43.73362120074981
2025-07-25 12:00:12.491,0.0009442313014877,45.19951090525501
2025-07-25 12:00:12.499,0.0009705478773265,46.58281803889415
2025-07-25 12:00:12.506,0.0010047313933494,47.88673197825785
2025-07-25 12:00:12.514,0.0010465402693009,49.11704452629773
2025-07-25 12:00:12.522,0.0010954698766198,50.28207969658674
2025-07-25 12:00:12.530,0.0011507637071627,51.39249297300928
2025-07-25 12:00:12.538,0.0012114316920705,52.46093561883298
2025-07-25 12:00:12.546,0.0012762751932,53.5015852341227
2025-07-25 12:00:12.553,0.0013439181596122,54.52954993183494
2025-07-25 12:00:12.561,0.0014128438417676,55.5601599843256
2025-07-25 12:00:12.569,0.0014814363216229,56.60816727992167
2025-07-25 12:00:12.577,0.0015480259911698,57.68687907771956
2025-07-25 12:00:12.585,0.0016109379539317,58.80725800396288
2025-07-25 12:00:12.592,0.0016685421007828,59.97702466483852
2025-07-25 12:00:12.600,0.0017193034076185,61.1998023735559
2025-07-25 12:00:12.608,0.0017618309411615,62.47434507744767
2025-07-25 12:00:12.616,0.0017949241477312,63.79388945837214
2025-07-25 12:00:12.624,0.0018176151235076,65.14567026069152
2025-07-25 12:00:12.631,0.001829205620495,66.51063412795848
2025-07-25 12:00:12.639,0.0018292975065563,67.86338162175794
2025-07-25 12:00:12.647,0.0018178152846623,69.17235975647465
2025-07-25 12:00:12.655,0.0017950191368482,70.4003185117357
