Timestamp,GSR_Filtered,PPG_Filtered,FMS,Condition
2025-07-25 12:07:32.172,-6.537630468620258e-05,21.17267846318821,0,DB
2025-07-25 12:07:32.180,-8.767880958205021e-05,22.167746592118984,0,DB
2025-07-25 12:07:32.188,-0.0001104065531794,23.069900950675475,0,DB
2025-07-25 12:07:32.196,-0.0001331156522553,23.82427409186521,0,DB
2025-07-25 12:07:32.203,-0.0001553086625692,24.37464239370831,0,DB
2025-07-25 12:07:32.211,-0.0001764531309454,24.6650533150882,0,DB
2025-07-25 12:07:32.219,-0.0001960024596691,24.641574734026506,0,DB
2025-07-25 12:07:32.227,-0.0002134182429513,24.254118960661412,0,DB
2025-07-25 12:07:32.235,-0.0002281930830741,23.458286578525566,0,DB
2025-07-25 12:07:32.242,-0.0002398727676889,22.21716916231576,0,DB
2025-07-25 12:07:32.250,-0.0002480766443613,20.503045599429697,0,DB
2025-07-25 12:07:32.258,-0.0002525150949851,18.29890463538221,0,DB
2025-07-25 12:07:32.266,-0.0002530031921146,15.599726753738686,0,DB
2025-07-25 12:07:32.274,-0.0002494699090441,12.41346189923985,0,DB
2025-07-25 12:07:32.281,-0.0002419626173149,8.761646057745267,0,DB
2025-07-25 12:07:32.289,-0.0002306469504118,4.679609368274591,0,DB
2025-07-25 12:07:32.297,-0.000215802358215,0.216241129404882,0,DB
2025-07-25 12:07:32.305,-0.0001978137930709,-4.566707554132603,0,DB
2025-07-25 12:07:32.313,-0.0001771599834686,-9.595785185687772,0,DB
2025-07-25 12:07:32.321,-0.0001543987455396,-14.787448044406847,0,DB
2025-07-25 12:07:32.328,-0.0001301498418754,-20.0500782135924,0,DB
2025-07-25 12:07:32.336,-0.0001050760505653,-25.286355417760827,0,DB
2025-07-25 12:07:32.344,-7.986331512123269e-05,-30.39590895568413,0,DB
2025-07-25 12:07:32.352,-5.5201000851587866e-05,-35.2781609200816,0,DB
2025-07-25 12:07:32.360,-3.176323624560549e-05,-39.83526033662525,0,DB
2025-07-25 12:07:32.367,-1.0192023461910617e-05,-43.97500063653173,0,DB
2025-07-25 12:07:32.375,8.917578265384046e-06,-47.61361055897256,0,DB
2025-07-25 12:07:32.383,2.5030151567779424e-05,-50.67831143705781,0,DB
2025-07-25 12:07:32.391,3.768056023064846e-05,-53.10954182066782,0,DB
2025-07-25 12:07:32.399,4.648264436663525e-05,-54.862763186340274,0,DB
2025-07-25 12:07:32.406,5.113619667808927e-05,-55.90977744231477,0,DB
2025-07-25 12:07:32.414,5.143260585318856e-05,-56.23950716775881,0,DB
2025-07-25 12:07:32.422,4.725966046995811e-05,-55.85821194851749,0,DB
2025-07-25 12:07:32.430,3.860590986584512e-05,-54.78913758749871,0,DB
2025-07-25 12:07:32.438,2.5564615132358e-05,-53.071618140278105,0,DB
2025-07-25 12:07:32.446,8.336819201462216e-06,-50.75967246958132,0,DB
2025-07-25 12:07:32.453,-1.2767336246494002e-05,-47.92015626736175,0,DB
2025-07-25 12:07:32.461,-3.733004731498346e-05,-44.63054639330728,0,DB
2025-07-25 12:07:32.469,-6.483092081526345e-05,-40.97644629409945,0,DB
2025-07-25 12:07:32.477,-9.465634853446114e-05,-37.04890882766456,0,DB
2025-07-25 12:07:32.485,-0.0001261136077508,-32.94167590684058,0,DB
2025-07-25 12:07:32.492,-0.0001584498122529,-28.748433123660888,0,DB
2025-07-25 12:07:32.500,-0.0001908754194594,-24.560172262069624,0,DB
2025-07-25 12:07:32.508,-0.0002225914800297,-20.462745880016083,0,DB
2025-07-25 12:07:32.516,-0.0002528193153905,-16.53468660369103,0,DB
2025-07-25 12:07:32.524,-0.0002808309933129,-12.845350167410947,0,DB
2025-07-25 12:07:32.531,-0.0003059789283977,-9.453426315899026,0,DB
2025-07-25 12:07:32.539,-0.0003277230899335,-6.405846203331667,0,DB
2025-07-25 12:07:32.547,-0.0003456544995532,-3.7370995591056855,0,DB
2025-07-25 12:07:32.555,-0.0003595138389074,-1.468960239086618,0,DB
2025-07-25 12:07:32.563,-0.0003692040624342,0.3893946701481775,0,DB
2025-07-25 12:07:32.571,-0.0003747960217138,1.8408989055338465,0,DB
2025-07-25 12:07:32.578,-0.0003765263763478,2.8997809935851886,0,DB
2025-07-25 12:07:32.586,-0.0003747874941713,3.5904629181118377,0,DB
2025-07-25 12:07:32.594,-0.0003701095040602,3.946224230767677,0,DB
2025-07-25 12:07:32.602,-0.0003631350725238,4.007686216034769,0,DB
2025-07-25 12:07:32.610,-0.0003545878654016,3.821172588783962,0,DB
2025-07-25 12:07:32.617,-0.0003452360577383,3.4370031975436177,0,DB
2025-07-25 12:07:32.625,-0.0003358526104508,2.9077754994609517,0,DB
2025-07-25 12:07:32.633,-0.0003271742629539,2.2866853569783734,0,DB
2025-07-25 12:07:32.641,-0.0003198612640226,1.6259341893666646,0,DB
2025-07-25 12:07:32.649,-0.0003144598045419,0.9752639095524032,0,DB
2025-07-25 12:07:32.656,-0.0003113689975052,0.3806546067354492,0,DB
2025-07-25 12:07:32.664,-0.000310814123904,-0.1167871781366243,0,DB
2025-07-25 12:07:32.672,-0.0003128276867432,-0.48172926132255,0,DB
2025-07-25 12:07:32.680,-0.0003172395164208,-0.6852910805650515,0,DB
2025-07-25 12:07:32.688,-0.00032367676032,-0.7054924019529528,0,DB
2025-07-25 12:07:32.696,-0.0003315741467817,-0.527475751694995,0,DB
2025-07-25 12:07:32.703,-0.0003401944863401,-0.1435115974305106,0,DB
2025-07-25 12:07:32.711,-0.0003486589330808,0.447198713222167,0,DB
2025-07-25 12:07:32.719,-0.0003559860167507,1.2389021961264777,0,DB
2025-07-25 12:07:32.727,-0.0003611378803159,2.21983160206523,0,DB
2025-07-25 12:07:32.735,-0.0003630716107472,3.3728740141072864,0,DB
2025-07-25 12:07:32.742,-0.000360793099301,4.676342101511982,0,DB
2025-07-25 12:07:32.750,-0.0003534105170804,6.104818952976658,0,DB
2025-07-25 12:07:32.758,-0.0003401842944585,7.630047985176214,0,DB
2025-07-25 12:07:32.766,-0.0003205705781375,9.22184094689564,0,DB
2025-07-25 12:07:32.774,-0.0002942555794129,10.84897934402171,0,DB
2025-07-25 12:07:32.782,-0.0002611789372935,12.480087496765677,0,DB
2025-07-25 12:07:32.789,-0.0002215450323879,14.084458693229417,0,DB
2025-07-25 12:07:32.797,-0.0001758219741672,15.63281930819598,0,DB
2025-07-25 12:07:32.805,-0.000124728689207,17.0980191125145,0,DB
2025-07-25 12:07:32.813,-6.921114082981863e-05,18.45563913446491,0,DB
2025-07-25 12:07:32.821,-1.0409199735733303e-05,19.68451121856805,0,DB
2025-07-25 12:07:32.828,5.038394725367568e-05,20.767145776114678,0,DB
2025-07-25 12:07:32.836,0.0001117677219323,21.69006609832352,0,DB
2025-07-25 12:07:32.844,0.0001722831710389,22.44404900849208,0,DB
2025-07-25 12:07:32.852,0.0002304628452728,23.02427259417264,0,DB
2025-07-25 12:07:32.860,0.0002848794475841,23.430372339832783,0,DB
2025-07-25 12:07:32.867,0.0003341914089814,23.66640725344245,0,DB
2025-07-25 12:07:32.875,0.0003771839040318,23.74073764537223,0,DB
2025-07-25 12:07:32.883,0.0004128042319364,23.66581618565303,0,DB
2025-07-25 12:07:32.891,0.0004401908822209,23.457893850090365,0,DB
2025-07-25 12:07:32.899,0.0004586959203436,23.13664247667276,0,DB
2025-07-25 12:07:32.907,0.0004679006018953,22.724695992028387,0,DB
2025-07-25 12:07:32.914,0.0004676243966627,22.24711302210005,0,DB
2025-07-25 12:07:32.922,0.0004579278005961,21.73076464239084,0,DB
2025-07-25 12:07:32.930,0.0004391093201305,21.203652494752617,0,DB
2025-07-25 12:07:32.938,0.0004116968459582,20.69416440846324,0,DB
2025-07-25 12:07:32.946,0.0003764334283529,20.230276982788777,0,DB
2025-07-25 12:07:32.953,0.0003342573448727,19.838717246680776,0,DB
2025-07-25 12:07:32.961,0.0002862763671322,19.54409840493948,0,DB
2025-07-25 12:07:32.969,0.0002337363016926,19.368047680278977,0,DB
2025-07-25 12:07:32.977,0.0001779841989504,19.328347221428874,0,DB
2025-07-25 12:07:32.985,0.0001204270575148,19.438111808315703,0,DB
2025-07-25 12:07:32.992,6.248731562158038e-05,19.705029470108077,0,DB
2025-07-25 12:07:33.000,5.556823190208523e-06,20.13069294865021,0,DB
2025-07-25 12:07:33.008,-4.904871536352837e-05,20.71005098728888,0,DB
2025-07-25 12:07:33.016,-0.000100132655843,21.43100850370669,0,DB
2025-07-25 12:07:33.024,-0.0001466554605623,22.274203632227778,0,DB
2025-07-25 12:07:33.032,-0.0001877657332603,23.21298724748213,0,DB
2025-07-25 12:07:33.039,-0.0002228223481924,24.213626809507936,0,DB
2025-07-25 12:07:33.047,-0.0002514062651738,25.235751166570523,0,DB
2025-07-25 12:07:33.055,-0.0002733213788307,26.23304635454589,0,DB
2025-07-25 12:07:33.063,-0.000288584676937,27.154204553405087,0,DB
2025-07-25 12:07:33.071,-0.0002974068984276,27.94411938718905,0,DB
2025-07-25 12:07:33.078,-0.0003001656221281,28.54531093853529,0,DB
2025-07-25 12:07:33.086,-0.0002973731567638,28.899553514672046,0,DB
2025-07-25 12:07:33.094,-0.0002896416856743,28.94966873549538,0,DB
2025-07-25 12:07:33.102,-0.0002776479261966,28.64143636016185,0,DB
2025-07-25 12:07:33.110,-0.000262099258625,27.92556591991509,0,DB
2025-07-25 12:07:33.117,-0.0002437029553462,26.759664214104944,0,DB
2025-07-25 12:07:33.125,-0.0002231397759665,25.110127608522152,0,DB
2025-07-25 12:07:33.133,-0.0002010427678712,22.95388439675948,0,DB
2025-07-25 12:07:33.141,-0.0001779816787543,20.27991173922976,0,DB
2025-07-25 12:07:33.149,-0.0001544530078589,17.090454270466438,0,DB
2025-07-25 12:07:33.157,-0.0001308753722136,13.401877605817685,0,DB
2025-07-25 12:07:33.164,-0.0001075895122335,9.245099743138804,0,DB
2025-07-25 12:07:33.172,-8.486199462459318e-05,4.665556592953242,0,DB
2025-07-25 12:07:33.180,-6.289161602889457e-05,-0.2773257956331119,0,DB
2025-07-25 12:07:33.188,-4.1817663049965935e-05,-5.511160919907574,0,DB
2025-07-25 12:07:33.196,-2.172941734806222e-05,-10.952121514981528,0,DB
2025-07-25 12:07:33.203,-2.6764956553997938e-06,-16.50691611949863,0,DB
2025-07-25 12:07:33.211,1.532026311393394e-05,-22.075168513469087,0,DB
2025-07-25 12:07:33.219,3.225761948177389e-05,-27.55212663214856,0,DB
2025-07-25 12:07:33.227,4.8138780331866e-05,-32.831610736488166,0,DB
2025-07-25 12:07:33.235,6.296273451675002e-05,-37.80909736736008,0,DB
2025-07-25 12:07:33.242,7.671473620860195e-05,-42.38482676133559,0,DB
2025-07-25 12:07:33.250,8.935875739555317e-05,-46.46681756524075,0,DB
2025-07-25 12:07:33.258,0.0001008327732637,-49.97367418420022,0,DB
2025-07-25 12:07:33.266,0.0001110476325093,-52.83707896052193,0,DB
2025-07-25 12:07:33.274,0.0001198900027291,-55.00387332721539,0,DB
2025-07-25 12:07:33.282,0.0001272294784041,-56.437648532968495,0,DB
2025-07-25 12:07:33.289,0.0001329294426681,-57.119786655902914,0,DB
2025-07-25 12:07:33.297,0.0001368607831567,-57.04991536512697,0,DB
2025-07-25 12:07:33.305,0.0001389171706454,-56.24576406715576,0,DB
2025-07-25 12:07:33.313,0.000139030364546,-54.7424334401636,0,DB
2025-07-25 12:07:33.321,0.0001371839274953,-52.591113680737806,0,DB
2025-07-25 12:07:33.328,0.000133423817204,-49.857307932554086,0,DB
2025-07-25 12:07:33.336,0.0001278645767944,-46.61863537495356,0,DB
2025-07-25 12:07:33.344,0.0001206902586582,-42.962302589541,0,DB
2025-07-25 12:07:33.352,0.0001121497740083,-38.98234161808089,0,DB
2025-07-25 12:07:33.360,0.0001025470059546,-34.77671835962952,0,DB
2025-07-25 12:07:33.367,9.222663004168116e-05,-30.44441566036174,0,DB
2025-07-25 12:07:33.375,8.15569830625183e-05,-26.08259187646097,0,DB
2025-07-25 12:07:33.383,7.091142159387838e-05,-21.783908273650603,0,DB
2025-07-25 12:07:33.391,6.064949008920399e-05,-17.634107947271968,0,DB
2025-07-25 12:07:33.399,5.109903137385489e-05,-13.709915689547032,0,DB
2025-07-25 12:07:33.407,4.25402354520664e-05,-10.077313141769196,0,DB
2025-07-25 12:07:33.414,3.519257299511102e-05,-6.79022741076766,0,DB
2025-07-25 12:07:33.422,2.92055662611331e-05,-3.889654837133061,0,DB
2025-07-25 12:07:33.430,2.465430282761553e-05,-1.4032254511174918,0,DB
2025-07-25 12:07:33.438,2.1540345158472205e-05,0.6548015749540744,0,DB
2025-07-25 12:07:33.446,1.9798168392178208e-05,2.283134993663156,0,DB
2025-07-25 12:07:33.453,1.930659378300829e-05,3.492676641993504,0,DB
2025-07-25 12:07:33.461,1.9904118192196178e-05,4.305420300009856,0,DB
2025-07-25 12:07:33.469,2.1406739805158392e-05,4.753077706278239,0,DB
2025-07-25 12:07:33.477,2.362681802040158e-05,4.875490778717547,0,DB
2025-07-25 12:07:33.485,2.6391536508915763e-05,4.718892413618921,0,DB
2025-07-25 12:07:33.492,2.9559585068023596e-05,4.334079349175758,0,DB
2025-07-25 12:07:33.500,3.303477877247497e-05,3.7745595992233945,0,DB
2025-07-25 12:07:33.508,3.677555830171035e-05,3.0947340542197965,0,DB
2025-07-25 12:07:33.516,4.07996825357107e-05,2.348167213569809,0,DB
2025-07-25 12:07:33.524,4.518389432343047e-05,1.5859958906754543,0,DB
2025-07-25 12:07:33.532,5.005882159623923e-05,0.8555173850662219,0,DB
2025-07-25 12:07:33.539,5.559977191858349e-05,0.1989903396456119,0,DB
2025-07-25 12:07:33.547,6.201434384987599e-05,-0.3473273895007593,0,DB
2025-07-25 12:07:33.555,6.952790480722512e-05,-0.7538887062744689,0,DB
2025-07-25 12:07:33.563,7.836796905557858e-05,-0.9983091023891048,0,DB
2025-07-25 12:07:33.571,8.87483847158702e-05,-1.0655631705652306,0,DB
2025-07-25 12:07:33.578,0.0001008540908146,-0.9479368234569108,0,DB
2025-07-25 12:07:33.586,0.0001148271094104,-0.6447535375926654,0,DB
2025-07-25 12:07:33.594,0.0001307543962829,-0.1618991321084096,0,DB
2025-07-25 12:07:33.602,0.0001486581220093,0.488825490443795,0,DB
2025-07-25 12:07:33.610,0.0001684888449077,1.2904906743922158,0,DB
2025-07-25 12:07:33.617,0.000190121907446,2.221928326664172,0,DB
2025-07-25 12:07:33.625,0.0002133572832731,3.2586904161290997,0,DB
2025-07-25 12:07:33.633,0.0002379229541386,4.37404046693014,0,DB
2025-07-25 12:07:33.641,0.0002634816213555,5.5399446706188735,0,DB
2025-07-25 12:07:33.649,0.0002896402378945,6.728032088713381,0,DB
2025-07-25 12:07:33.657,0.0003159616553388,7.910497093371113,0,DB
2025-07-25 12:07:33.664,0.0003419776468307,9.06092147451094,0,DB
2025-07-25 12:07:33.672,0.0003672025797556,10.154998291639735,0,DB
2025-07-25 12:07:33.680,0.0003911469990693,11.17114433439739,0,DB
2025-07-25 12:07:33.688,0.0004133303871726,12.090992759914188,0,DB
2025-07-25 12:07:33.696,0.0004332924593428,12.89976190724055,0,DB
2025-07-25 12:07:33.703,0.0004506025649869,13.586500293090117,0,DB
2025-07-25 12:07:33.711,0.0004648670883133,14.144211252268478,0,DB
2025-07-25 12:07:33.719,0.0004757351299547,14.569863529105714,0,DB
2025-07-25 12:07:33.727,0.0004829030842645,14.864296327958977,0,DB
2025-07-25 12:07:33.735,0.0004861188455898,15.03202890600138,0,DB
2025-07-25 12:07:33.742,0.0004851862045792,15.080985783567192,0,DB
2025-07-25 12:07:33.750,0.0004799696180016,15.022149120259671,0,DB
2025-07-25 12:07:33.758,0.0004703991213796,14.8691498394895,0,DB
2025-07-25 12:07:33.766,0.0004564748303592,14.63780877448656,0,DB
2025-07-25 12:07:33.774,0.0004382702984948,14.345638557018283,0,DB
2025-07-25 12:07:33.782,0.0004159339827789,14.011316278784095,0,DB
2025-07-25 12:07:33.789,0.0003896882138384,13.65413622755369,0,DB
2025-07-25 12:07:33.797,0.0003598253424266,13.293451341142942,0,DB
2025-07-25 12:07:33.805,0.0003267010570689,12.948111535879246,0,DB
2025-07-25 12:07:33.813,0.0002907251516391,12.635906838839794,0,DB
2025-07-25 12:07:33.821,0.000252350228092,12.373023337768323,0,DB
2025-07-25 12:07:33.828,0.0002120589452827,12.173520368663844,0,DB
2025-07-25 12:07:33.836,0.0001703504691353,12.048838052326303,0,DB
2025-07-25 12:07:33.844,0.0001277267711132,12.007345188574543,0,DB
2025-07-25 12:07:33.852,8.467941250619508e-05,12.053938505712347,0,DB
2025-07-25 12:07:33.860,4.167744394272794e-05,12.189705203945287,0,DB
2025-07-25 12:07:33.867,-8.43003904003676e-07,12.411661474417553,0,DB
2025-07-25 12:07:33.875,-4.248698546331672e-05,12.712580070508896,0,DB
2025-07-25 12:07:33.883,-8.290659627916487e-05,13.080919914633036,0,DB
2025-07-25 12:07:33.891,-0.0001218044012836,13.500870016945266,0,DB
2025-07-25 12:07:33.899,-0.0001589346809913,13.95251855675919,0,DB
2025-07-25 12:07:33.907,-0.0001941029342486,14.41215575422524,0,DB
2025-07-25 12:07:33.914,-0.0002271641224436,14.852716097398982,0,DB
2025-07-25 12:07:33.922,-0.0002580200398333,15.244361594738058,0,DB
2025-07-25 12:07:33.930,-0.000286616023629,15.555203054596005,0,DB
2025-07-25 12:07:33.938,-0.0003129370649292,15.752151061820635,0,DB
2025-07-25 12:07:33.946,-0.0003370032877791,15.801882485231683,0,DB
2025-07-25 12:07:33.953,-0.000358864734331,15.671902213030991,0,DB
2025-07-25 12:07:33.961,-0.0003785954325678,15.331673627448268,0,DB
2025-07-25 12:07:33.969,-0.0003962868031475,14.753785392834736,0,DB
2025-07-25 12:07:33.977,-0.0004120405343471,13.915116782013085,0,DB
2025-07-25 12:07:33.985,-0.0004259611127259,12.797959373139577,0,DB
2025-07-25 12:07:33.992,-0.0004381482577759,11.391049895148088,0,DB
2025-07-25 12:07:34.000,-0.0004486895280364,9.690467653796183,0,DB
2025-07-25 12:07:34.008,-0.0004576533019423,7.700350662123596,0,DB
2025-07-25 12:07:34.016,-0.0004650822681959,5.4333875885618745,0,DB
2025-07-25 12:07:34.024,-0.0004709876097106,2.9110480812827904,0,DB
2025-07-25 12:07:34.032,-0.0004753442259965,0.1635219510550953,0,DB
2025-07-25 12:07:34.039,-0.0004780874877624,-2.7706520483489885,0,DB
2025-07-25 12:07:34.047,-0.0004791120473767,-5.845274845215037,0,DB
2025-07-25 12:07:34.055,-0.0004782731067255,-9.007486342846397,0,DB
2025-07-25 12:07:34.063,-0.0004753903018346,-12.199054105335312,0,DB
2025-07-25 12:07:34.071,-0.0004702540861788,-15.357915642014364,0,DB
2025-07-25 12:07:34.078,-0.0004626342734797,-18.41992488674685,0,DB
2025-07-25 12:07:34.086,-0.0004522902772136,-21.32074166600625,0,DB
2025-07-25 12:07:34.094,-0.0004389825635247,-23.99779378360532,0,DB
2025-07-25 12:07:34.102,-0.000422484918527,-26.392235502236662,0,DB
2025-07-25 12:07:34.110,-0.00040259728596,-28.45082414416045,0,DB
2025-07-25 12:07:34.117,-0.0003791590720032,-30.12763848403715,0,DB
2025-07-25 12:07:34.125,-0.0003520628621753,-31.385568513704573,0,DB
2025-07-25 12:07:34.133,-0.0003212684189242,-32.19751570182453,0,DB
2025-07-25 12:07:34.141,-0.0002868166280118,-32.5472554904319,0,DB
2025-07-25 12:07:34.149,-0.0002488427532761,-32.42992871618067,0,DB
2025-07-25 12:07:34.157,-0.0002075879957632,-31.85214504515861,0,DB
2025-07-25 12:07:34.164,-0.0001634080598469,-30.831698440645404,0,DB
2025-07-25 12:07:34.172,-0.000116777371704,-29.396911222279385,0,DB
2025-07-25 12:07:34.180,-6.828785639473531e-05,-27.58563855953397,0,DB
2025-07-25 12:07:34.188,-1.864167843808835e-05,-25.443978514456493,0,DB
2025-07-25 12:07:34.196,3.1362077458077294e-05,-23.02474339862153,0,DB
2025-07-25 12:07:34.203,8.08462887025151e-05,-20.385755810234738,0,DB
2025-07-25 12:07:34.211,0.000128879328226,-17.588037048034437,0,DB
2025-07-25 12:07:34.219,0.0001745020448853,-14.693956649474664,0,DB
2025-07-25 12:07:34.227,0.0002167568263994,-11.765409759416183,0,DB
2025-07-25 12:07:34.235,0.0002547173568235,-8.862084255841046,0,DB
2025-07-25 12:07:34.242,0.00028751778966,-6.039872518078298,0,DB
2025-07-25 12:07:34.250,0.0003143802647119,-3.3494739737843005,0,DB
2025-07-25 12:07:34.258,0.0003346399217341,-0.8352246846730759,0,DB
2025-07-25 12:07:34.266,0.0003477667275698,1.4658202063452013,0,DB
2025-07-25 12:07:34.274,0.0003533835352684,3.524535827376477,0,DB
2025-07-25 12:07:34.282,0.0003512799064495,5.320103481084378,0,DB
2025-07-25 12:07:34.289,0.0003414213982705,6.840117203936833,0,DB
2025-07-25 12:07:34.297,0.0003239542027673,8.08043344801755,0,DB
2025-07-25 12:07:34.305,0.0002992051610185,9.044783562768457,0,DB
2025-07-25 12:07:34.313,0.0002676772615161,9.74417472532069,0,DB
2025-07-25 12:07:34.321,0.0002300408468968,10.19610967099716,0,DB
2025-07-25 12:07:34.328,0.0001871209378636,10.423659023341749,0,DB
2025-07-25 12:07:34.336,0.0001398812638856,10.454422256690169,0,DB
2025-07-25 12:07:34.344,8.940562301707465e-05,10.31941440044002,0,DB
2025-07-25 12:07:34.352,3.687700856422709e-05,10.051915578710856,0,DB
2025-07-25 12:07:34.360,-1.6445373193826173e-05,9.686319447663353,0,DB
2025-07-25 12:07:34.367,-6.925134481013166e-05,9.25701463187362,0,DB
2025-07-25 12:07:34.375,-0.0001202075234371,8.79733046570255,0,DB
2025-07-25 12:07:34.383,-0.0001679877828127,8.338574817142913,0,DB
2025-07-25 12:07:34.391,-0.0002113062871185,7.909187622332906,0,DB
2025-07-25 12:07:34.399,-0.0002489525197062,7.53402911727941,0,DB
2025-07-25 12:07:34.407,-0.000279827246506,7.233816765698274,0,DB
2025-07-25 12:07:34.414,-0.0003029780113579,7.024719709271794,0,DB
2025-07-25 12:07:34.422,-0.0003176326506158,6.918114379603683,0,DB
2025-07-25 12:07:34.430,-0.0003232293715923,6.92049988365909,0,DB
2025-07-25 12:07:34.438,-0.000319442023564,7.033567075234475,0,DB
2025-07-25 12:07:34.446,-0.000306199231271,7.254411006377341,0,DB
2025-07-25 12:07:34.453,-0.0002836961051202,7.57587283903966,0,DB
2025-07-25 12:07:34.461,-0.0002523973743297,7.98699437505665,0,DB
2025-07-25 12:07:34.469,-0.0002130310483782,8.473566174536531,0,DB
2025-07-25 12:07:34.477,-0.0001665721011687,9.018748778887264,0,DB
2025-07-25 12:07:34.485,-0.0001142161892837,9.603745799473105,0,DB
2025-07-25 12:07:34.492,-5.73440212015291e-05,10.208507515247767,0,DB
2025-07-25 12:07:34.500,2.5224034470297708e-06,10.8124440664577,0,DB
2025-07-25 12:07:34.508,6.376995408095021e-05,11.395128255574472,0,DB
2025-07-25 12:07:34.516,0.0001247488203472,11.93696929235282,0,DB
2025-07-25 12:07:34.524,0.000183828913933,12.419840472621727,0,DB
2025-07-25 12:07:34.532,0.0002394557989032,12.827645687369486,0,DB
2025-07-25 12:07:34.539,0.0002902037921227,13.1468117488061,0,DB
2025-07-25 12:07:34.547,0.0003348240499367,13.366695728060204,0,DB
2025-07-25 12:07:34.555,0.0003722856691567,13.479898771725589,0,DB
2025-07-25 12:07:34.563,0.000401808033787,13.48248016329536,0,DB
2025-07-25 12:07:34.571,0.0004228829088059,13.374067693370964,0,DB
2025-07-25 12:07:34.578,0.0004352852628145,13.157862675432751,0,DB
2025-07-25 12:07:34.586,0.0004390725226709,12.840540165343278,0,DB
2025-07-25 12:07:34.594,0.0004345727593709,12.43204708370639,0,DB
2025-07-25 12:07:34.602,0.0004223629373495,11.945302975869303,0,DB
2025-07-25 12:07:34.610,0.0004032387100565,11.39581006187056,0,DB
2025-07-25 12:07:34.617,0.00037817738171,10.80118103007194,0,DB
2025-07-25 12:07:34.625,0.0003482957350274,10.180594726780958,0,DB
2025-07-25 12:07:34.633,0.0003148045565276,9.55419150720967,0,DB
2025-07-25 12:07:34.641,0.0002789618780398,8.94242155420816,0,DB
2025-07-25 12:07:34.649,0.0002420270926696,8.365360942285843,0,DB
2025-07-25 12:07:34.657,0.0002052180444404,7.8420116100805055,0,DB
2025-07-25 12:07:34.664,0.0001696728627257,7.389602670005513,0,DB
2025-07-25 12:07:34.672,0.0001364178036316,7.022911577066481,0,DB
2025-07-25 12:07:34.680,0.0001063418391606,6.753624534435392,0,DB
2025-07-25 12:07:34.688,8.01783202159629e-05,6.589756057360427,0,DB
2025-07-25 12:07:34.696,5.849374798213419e-05,6.535147768031388,0,DB
2025-07-25 12:07:34.703,4.168345557064195e-05,6.589066162530339,0,DB
2025-07-25 12:07:34.711,2.997375514446196e-05,6.745918181989728,0,DB
2025-07-25 12:07:34.719,2.3429847315166945e-05,6.995101842365637,0,DB
2025-07-25 12:07:34.727,2.1968591678910616e-05,7.32100685545559,0,DB
2025-07-25 12:07:34.735,2.53751430142094e-05,7.703177059418821,0,DB
2025-07-25 12:07:34.742,3.332242035581466e-05,8.116642557652723,0,DB
2025-07-25 12:07:34.750,4.539232076095382e-05,8.532424770532796,0,DB
2025-07-25 12:07:34.758,6.109751209653799e-05,8.918212209676165,0,DB
2025-07-25 12:07:34.766,7.990261239217936e-05,9.23919880642176,0,DB
2025-07-25 12:07:34.774,0.0001012436589432,9.45907022433515,0,DB
2025-07-25 12:07:34.782,0.0001245450133563,9.541116961221046,0,DB
2025-07-25 12:07:34.789,0.0001492332269942,9.449446442937967,0,DB
2025-07-25 12:07:34.797,0.0001747478506496,9.150260011198151,0,DB
2025-07-25 12:07:34.805,0.000200549586352,8.613155023208868,0,DB
2025-07-25 12:07:34.813,0.0002261263809986,7.812407546025878,0,DB
2025-07-25 12:07:34.821,0.000250997973198,6.72818768524672,0,DB
2025-07-25 12:07:34.828,0.0002747191372914,5.347657772673183,0,DB
2025-07-25 12:07:34.836,0.0002968816528892,3.665903763927824,0,DB
2025-07-25 12:07:34.844,0.0003171150238408,1.6866525326941535,0,DB
2025-07-25 12:07:34.852,0.0003350861409181,-0.5772675131950339,0,DB
2025-07-25 12:07:34.860,0.0003504982719468,-3.103757844594373,0,DB
2025-07-25 12:07:34.867,0.0003630898583238,-5.86159895932222,0,DB
2025-07-25 12:07:34.875,0.0003726335634613,-8.810931148404983,0,DB
2025-07-25 12:07:34.883,0.0003789358543448,-11.90406718688125,0,DB
2025-07-25 12:07:34.891,0.0003818371478994,-15.086622537455112,0,DB
2025-07-25 12:07:34.899,0.0003812123382773,-18.29893356198231,0,DB
2025-07-25 12:07:34.907,0.000376971462723,-21.47771964695471,0,DB
2025-07-25 12:07:34.914,0.0003690603669174,-24.557931990532108,0,DB
2025-07-25 12:07:34.922,0.000357461349209,-27.47472096410252,0,DB
2025-07-25 12:07:34.930,0.0003421937447098,-30.16544623160465,0,DB
2025-07-25 12:07:34.938,0.0003233142584378,-32.571649778416,0,DB
2025-07-25 12:07:34.946,0.0003009166985579,-34.64091202021356,0,DB
2025-07-25 12:07:34.953,0.0002751307076438,-36.328515312832735,0,DB
2025-07-25 12:07:34.961,0.0002461191847227,-37.59884727460566,0,DB
2025-07-25 12:07:34.969,0.000214074333351,-38.42648791130273,0,DB
2025-07-25 12:07:34.977,0.0001792126173947,-38.79693892239841,0,DB
2025-07-25 12:07:34.985,0.00014176923887,-38.7069699107735,0,DB
2025-07-25 12:07:34.992,0.0001019929107907,-38.164573547379966,0,DB
2025-07-25 12:07:35.000,6.0141603652626447e-05,-37.18853904908151,0,DB
2025-07-25 12:07:35.008,1.6479677804069567e-05,-35.80766964042047,0,DB
2025-07-25 12:07:35.016,-2.872346225480973e-05,-34.05968412482382,0,DB
2025-07-25 12:07:35.024,-7.519322780777152e-05,-31.989854587068702,0,DB
2025-07-25 12:07:35.032,-0.0001226483116345,-29.649441085820666,0,DB
2025-07-25 12:07:35.039,-0.0001707978568321,-27.093989690865943,0,DB
2025-07-25 12:07:35.047,-0.0002193374624245,-24.381562314312625,0,DB
2025-07-25 12:07:35.055,-0.000267944257204,-21.570965627689056,0,DB
2025-07-25 12:07:35.063,-0.0003162714288275,-18.72004227742762,0,DB
2025-07-25 12:07:35.071,-0.0003639428027936,-15.884081078428654,0,DB
2025-07-25 12:07:35.078,-0.0004105482855161,-13.114394437183032,0,DB
2025-07-25 12:07:35.086,-0.0004556411284676,-10.457101529574484,0,DB
2025-07-25 12:07:35.094,-0.0004987379557053,-7.952145325731274,0,DB
2025-07-25 12:07:35.102,-0.0005393222987986,-5.632560963873527,0,DB
2025-07-25 12:07:35.110,-0.0005768520358406,-3.5240027054645258,0,DB
2025-07-25 12:07:35.117,-0.0006107707236112,-1.644527147598125,0,DB
2025-07-25 12:07:35.125,-0.0006405224408182,-0.0046218249048718,0,DB
2025-07-25 12:07:35.133,-0.0006655694731093,1.392538991817505,0,DB
2025-07-25 12:07:35.141,-0.000685411979818,2.5506354808659992,0,DB
2025-07-25 12:07:35.149,-0.0006996086977451,3.479569226340817,0,DB
2025-07-25 12:07:35.157,-0.0007077977328079,4.194687976692983,0,DB
2025-07-25 12:07:35.164,-0.0007097164897569,4.715902175516442,0,DB
2025-07-25 12:07:35.172,-0.0007052197285903,5.066727962662506,0,DB
2025-07-25 12:07:35.180,-0.0006942946274731,5.273290967666051,0,DB
2025-07-25 12:07:35.188,-0.0006770716835927,5.3633238576862166,0,DB
2025-07-25 12:07:35.196,-0.0006538304230358,5.365188385729835,0,DB
2025-07-25 12:07:35.203,-0.0006249992266927,5.306949742838304,0,DB
2025-07-25 12:07:35.211,-0.000591148988991,5.215527484040496,0,DB
2025-07-25 12:07:35.219,-0.0005529807224105,5.1159433081850825,0,DB
2025-07-25 12:07:35.227,-0.0005113076073479,5.030681661839058,0,DB
2025-07-25 12:07:35.235,-0.0004670323251436,4.979174640699736,0,DB
2025-07-25 12:07:35.242,-0.0004211207052701,4.977418112976706,0,DB
2025-07-25 12:07:35.250,-0.0003745727703863,5.037721528572369,0,DB
2025-07-25 12:07:35.258,-0.000328392296698,5.168589650022804,0,DB
2025-07-25 12:07:35.266,-0.0002835560944263,5.3747305826245295,0,DB
2025-07-25 12:07:35.274,-0.0002409843104505,5.657181106571256,0,DB
2025-07-25 12:07:35.282,-0.0002015130898693,6.013537506259588,0,DB
2025-07-25 12:07:35.289,-0.0001658708711918,6.438277898956256,0,DB
2025-07-25 12:07:35.297,-0.0001346594260869,6.923160500181853,0,DB
2025-07-25 12:07:35.305,-0.000108340491931,7.45768131033175,0,DB
2025-07-25 12:07:35.313,-8.72284892198726e-05,8.029574327725546,0,DB
2025-07-25 12:07:35.321,-7.148937966915132e-05,8.625337532162394,0,DB
2025-07-25 12:07:35.328,-6.114525251033924e-05,9.230768470110768,0,DB
2025-07-25 12:07:35.336,-5.608384466112259e-05,9.831494225120554,0,DB
2025-07-25 12:07:35.344,-5.60720577098796e-05,10.413481785337275,0,DB
2025-07-25 12:07:35.352,-6.077266703581236e-05,10.963516236654316,0,DB
2025-07-25 12:07:35.360,-6.976363686535554e-05,11.469635739013466,0,DB
2025-07-25 12:07:35.367,-8.255948190818181e-05,11.921513826630363,0,DB
2025-07-25 12:07:35.375,-9.863386963699205e-05,12.31078117015372,0,DB
2025-07-25 12:07:35.383,-0.0001174423298805,12.631280520926415,0,DB
2025-07-25 12:07:35.391,-0.0001384437644167,12.87925010276067,0,DB
2025-07-25 12:07:35.399,-0.0001611194969299,13.053432213174831,0,DB
2025-07-25 12:07:35.407,-0.0001849888263197,13.155105245512436,0,DB
2025-07-25 12:07:35.414,-0.0002096203752885,13.188038757763366,0,DB
2025-07-25 12:07:35.422,-0.000234638841301,13.158372608742964,0,DB
2025-07-25 12:07:35.430,-0.000259726929035,13.074422572745371,0,DB
2025-07-25 12:07:35.438,-0.0002846222995467,12.94641624406126,0,DB
2025-07-25 12:07:35.446,-0.0003091095048505,12.786164463467264,0,DB
2025-07-25 12:07:35.453,-0.0003330072298369,12.606674941033615,0,DB
2025-07-25 12:07:35.461,-0.0003561516825504,12.421716200035473,0,DB
2025-07-25 12:07:35.469,-0.000378377496449,12.245341398862363,0,DB
2025-07-25 12:07:35.477,-0.000399497909076,12.09138296765196,0,DB
2025-07-25 12:07:35.485,-0.0004192862092817,11.972930286733492,0,DB
2025-07-25 12:07:35.492,-0.0004374604866344,11.90180379455776,0,DB
2025-07-25 12:07:35.500,-0.0004536735706599,11.88803990048429,0,DB
2025-07-25 12:07:35.508,-0.0004675097192012,11.939401849177075,0,DB
2025-07-25 12:07:35.516,-0.0004784891160201,12.060932194387169,0,DB
2025-07-25 12:07:35.524,-0.000486080585446,12.25456273930426,0,DB
2025-07-25 12:07:35.532,-0.000489722155257,12.518797624548448,0,DB
2025-07-25 12:07:35.539,-0.0004888482641633,12.848484621193588,0,DB
2025-07-25 12:07:35.547,-0.0004829216560708,13.234688546201015,0,DB
2025-07-25 12:07:35.555,-0.0004714675093598,13.664679005762414,0,DB
2025-07-25 12:07:35.563,-0.0004541072114996,14.122042351427217,0,DB
2025-07-25 12:07:35.571,-0.0004305893406519,14.58692478951772,0,DB
2025-07-25 12:07:35.578,-0.0004008157050704,15.036410026616975,0,DB
2025-07-25 12:07:35.586,-0.0003648606112222,15.445030703240754,0,DB
2025-07-25 12:07:35.594,-0.0003229818781028,15.785408239425724,0,DB
2025-07-25 12:07:35.602,-0.0002756225804118,16.029010703706472,0,DB
2025-07-25 12:07:35.610,-0.0002234031916204,16.147013073834806,0,DB
2025-07-25 12:07:35.617,-0.0001671046607528,16.11123897251382,0,DB
2025-07-25 12:07:35.625,-0.0001076437450406,15.895157853630712,0,DB
2025-07-25 12:07:35.633,-4.6042393241511786e-05,15.474906927971892,0,DB
2025-07-25 12:07:35.641,1.660687871143037e-05,14.830303115362618,0,DB
2025-07-25 12:07:35.649,7.917767330880245e-05,13.945807268258482,0,DB
2025-07-25 12:07:35.657,0.0001405464994846,12.811401108474058,0,DB
2025-07-25 12:07:35.664,0.0001996277190963,11.423337020849726,0,DB
2025-07-25 12:07:35.672,0.0002554048933174,9.784722292186604,0,DB
2025-07-25 12:07:35.680,0.0003069571951938,7.905902755568611,0,DB
2025-07-25 12:07:35.688,0.000353480156692,5.804616203398094,0,DB
2025-07-25 12:07:35.696,0.0003943006767838,3.505893356718762,0,DB
2025-07-25 12:07:35.703,0.0004288868039959,1.04169346844056,0,DB
2025-07-25 12:07:35.711,0.0004568532200517,-1.5497275246112208,0,DB
2025-07-25 12:07:35.719,0.0004779635493633,-4.224706484840805,0,DB
2025-07-25 12:07:35.727,0.0004921306016013,-6.935298039246956,0,DB
2025-07-25 12:07:35.735,0.0004994154292037,-9.630600828540178,0,DB
2025-07-25 12:07:35.743,0.000500025696456,-12.258239855237296,0,DB
2025-07-25 12:07:35.750,0.0004943134140135,-14.765950564774284,0,DB
2025-07-25 12:07:35.758,0.0004827716914553,-17.103203580990417,0,DB
2025-07-25 12:07:35.766,0.0004660298550443,-19.22280529424726,0,DB
2025-07-25 12:07:35.774,0.0004448460920547,-21.082409093378864,0,DB
2025-07-25 12:07:35.782,0.0004200967305231,-22.645875039840693,0,DB
2025-07-25 12:07:35.789,0.0003927613525438,-23.88442206550078,0,DB
2025-07-25 12:07:35.797,0.000363903173077,-24.777525972742268,0,DB
2025-07-25 12:07:35.805,0.0003346444915555,-25.31352806981797,0,DB
2025-07-25 12:07:35.813,0.0003061375258366,-25.4899324755723,0,DB
2025-07-25 12:07:35.821,0.0002795315147538,-25.31338417102165,0,DB
2025-07-25 12:07:35.828,0.0002559375004104,-24.799333930933862,0,DB
2025-07-25 12:07:35.836,0.0002363925058646,-23.971409548299388,0,DB
2025-07-25 12:07:35.844,0.0002218248215645,-22.8605245760535,0,DB
2025-07-25 12:07:35.852,0.0002130218788877,-21.503765597296344,0,DB
2025-07-25 12:07:35.860,0.000210601877991,-19.943106407212035,0,DB
2025-07-25 12:07:35.868,0.0002149900648566,-18.224002239740084,0,DB
2025-07-25 12:07:35.875,0.0002264003611415,-16.393919274777648,0,DB
2025-07-25 12:07:35.883,0.000244822940421,-14.500854254051418,0,DB
2025-07-25 12:07:35.891,0.0002700182795104,-12.591896379547228,0,DB
2025-07-25 12:07:35.899,0.0003015181175508,-10.711879117102072,0,DB
2025-07-25 12:07:35.907,0.0003386335798402,-8.902163475898456,0,DB
2025-07-25 12:07:35.914,0.000380470534952,-7.199587192984179,0,DB
2025-07-25 12:07:35.922,0.000425952162942,-5.635606419301894,0,DB
2025-07-25 12:07:35.930,0.0004738486814506,-4.235648346016784,0,DB
2025-07-25 12:07:35.938,0.0005228140045698,-3.0186850467069544,0,DB
2025-07-25 12:07:35.946,0.000571428650512,-1.9970309092123253,0,DB
2025-07-25 12:07:35.953,0.000618247528032,-1.1763586065405591,0,DB
2025-07-25 12:07:35.961,0.0006618505225485,-0.5559217820363882,0,DB
2025-07-25 12:07:35.969,0.0007008933049879,-0.1289666399957545,0,DB
2025-07-25 12:07:35.977,0.0007341556738703,0.1166904473489545,0,DB
2025-07-25 12:07:35.985,0.0007605850254997,0.1979462939406601,0,DB
2025-07-25 12:07:35.993,0.0007793330657083,0.1355852278923424,0,DB
2025-07-25 12:07:36.000,0.0007897844331818,-0.046623645228296,0,DB
2025-07-25 12:07:36.008,0.000791576378436,-0.3228734257349846,0,DB
2025-07-25 12:07:36.016,0.0007846089882252,-0.6662780434213661,0,DB
2025-07-25 12:07:36.024,0.0007690456875277,-1.049811145016242,0,DB
2025-07-25 12:07:36.032,0.0007453039738453,-1.4471960432542963,0,DB
2025-07-25 12:07:36.039,0.0007140366208774,-1.8337205459539248,0,DB
2025-07-25 12:07:36.047,0.0006761039649969,-2.1869542279806806,0,DB
2025-07-25 12:07:36.055,0.0006325383564281,-2.487350030957319,0,DB
2025-07-25 12:07:36.063,0.000584502373744,-2.718716807722429,0,DB
2025-07-25 12:07:36.071,0.0005332428485147,-2.868554386130436,0,DB
2025-07-25 12:07:36.078,0.0004800429681237,-2.9282477157677573,0,DB
2025-07-25 12:07:36.086,0.0004261746425049,-2.893121493044456,0,DB
2025-07-25 12:07:36.094,0.0003728530184898,-2.762361168708469,0,DB
2025-07-25 12:07:36.102,0.0003211946688088,-2.538810292567681,0,DB
2025-07-25 12:07:36.110,0.0002721806938953,-2.228657639045198,0,DB
2025-07-25 12:07:36.118,0.0002266257960398,-1.841030405116249,0,DB
2025-07-25 12:07:36.125,0.0001851542891425,-1.387511922884422,0,DB
2025-07-25 12:07:36.133,0.0001481838907334,-0.8816037512027421,0,DB
2025-07-25 12:07:36.141,0.0001159178868306,-0.338152700923241,0,DB
2025-07-25 12:07:36.149,8.834586240577378e-05,0.2272366696241974,0,DB
2025-07-25 12:07:36.157,6.525277671391778e-05,0.7987842326404891,0,DB
2025-07-25 12:07:36.164,4.62358167741711e-05,1.361092565700821,0,DB
2025-07-25 12:07:36.172,3.0728146366726866e-05,1.8996645458142656,0,DB
2025-07-25 12:07:36.180,1.802834904954526e-05,2.401365706575429,0,DB
2025-07-25 12:07:36.188,7.334095518206697e-06,2.854819338129955,0,DB
2025-07-25 12:07:36.196,-2.221577767803012e-06,3.2507250504416074,0,DB
2025-07-25 12:07:36.203,-1.153297751347095e-05,3.5820943618577195,0,DB
2025-07-25 12:07:36.211,-2.148488108797093e-05,3.844399720437151,0,DB
2025-07-25 12:07:36.219,-3.291723311868652e-05,4.035636127931097,0,DB
2025-07-25 12:07:36.227,-4.659225526572847e-05,4.156297142305557,0,DB
2025-07-25 12:07:36.235,-6.316457263827856e-05,4.209269425856582,0,DB
2025-07-25 12:07:36.243,-8.315482514309309e-05,4.199652136756015,0,DB
2025-07-25 12:07:36.250,-0.0001069272045446,4.134509298046685,0,DB
2025-07-25 12:07:36.258,-0.0001346714351681,4.02256479749589,0,DB
2025-07-25 12:07:36.266,-0.0001663898578361,3.873850863903334,0,DB
2025-07-25 12:07:36.274,-0.0002018903910626,3.6993217278886177,0,DB
2025-07-25 12:07:36.282,-0.0002407861447928,3.510444707918936,0,DB
2025-07-25 12:07:36.289,-0.0002825023109438,3.3187811676764487,0,DB
2025-07-25 12:07:36.297,-0.0003262906450625,3.135569681141308,0,DB
2025-07-25 12:07:36.305,-0.0003712513948061,2.971323348096949,0,DB
2025-07-25 12:07:36.313,-0.0004163619722531,2.835452572051979,0,DB
2025-07-25 12:07:36.321,-0.0004605111310991,2.7359237922675903,0,DB
2025-07-25 12:07:36.328,-0.0005025370624959,2.678963686530103,0,DB
2025-07-25 12:07:36.336,-0.0005412677493439,2.6688172522080884,0,DB
2025-07-25 12:07:36.344,-0.0005755620436107,2.707566940972114,0,DB
2025-07-25 12:07:36.352,-0.0006043500989056,2.795018671402736,0,DB
2025-07-25 12:07:36.360,-0.000626671888364,2.928659072404324,0,DB
2025-07-25 12:07:36.368,-0.0006417125328281,3.10368671603327,0,DB
2025-07-25 12:07:36.375,-0.0006488330935129,3.313118380564948,0,DB
2025-07-25 12:07:36.383,-0.000647595458,3.5479695469420154,0,DB
2025-07-25 12:07:36.391,-0.0006377800955384,3.7975063824291406,0,DB
2025-07-25 12:07:36.399,-0.0006193957862244,4.049564420624325,0,DB
2025-07-25 12:07:36.407,-0.000592680818282,4.290927037044522,0,DB
2025-07-25 12:07:36.414,-0.0005580955193073,4.507754692430633,0,DB
2025-07-25 12:07:36.422,-0.0005163063811191,4.686053837711704,0,DB
2025-07-25 12:07:36.430,-0.000468162487736,4.812172425703161,0,DB
2025-07-25 12:07:36.438,-0.0004146654075083,4.873307246246563,0,DB
2025-07-25 12:07:36.446,-0.0003569340867763,4.858006891963054,0,DB
2025-07-25 12:07:36.453,-0.0002961665460827,4.75665317089814,0,DB
2025-07-25 12:07:36.461,-0.0002336003231143,4.561903303509054,0,DB
2025-07-25 12:07:36.469,-0.0001704736296318,4.269075356206392,0,DB
2025-07-25 12:07:36.477,-0.0001079890957922,3.876460140629519,0,DB
2025-07-25 12:07:36.485,-4.728177008642811e-05,3.385544302502316,0,DB
2025-07-25 12:07:36.493,1.060726549785229e-05,2.8011315746198995,0,DB
2025-07-25 12:07:36.500,6.475070755727163e-05,2.131352187071101,0,DB
2025-07-25 12:07:36.508,0.0001143477967329,1.3875541849269155,0,DB
2025-07-25 12:07:36.516,0.0001587301143365,0.5840748123548246,0,DB
2025-07-25 12:07:36.524,0.0001973610870378,-0.2621049731955366,0,DB
2025-07-25 12:07:36.532,0.0002298304691893,-1.1318146160310898,0,DB
2025-07-25 12:07:36.539,0.0002558455355293,-2.0042432960972185,0,DB
2025-07-25 12:07:36.547,0.0002752208896535,-2.857566225498049,0,DB
2025-07-25 12:07:36.555,0.0002878686009467,-3.6696254559801504,0,DB
2025-07-25 12:07:36.563,0.0002937899138137,-4.418639504121699,0,DB
2025-07-25 12:07:36.571,0.0002930692026426,-5.083914061189274,0,DB
2025-07-25 12:07:36.578,0.0002858703091502,-5.646525385291044,0,DB
2025-07-25 12:07:36.586,0.000272434959367,-6.089948752123496,0,DB
2025-07-25 12:07:36.594,0.0002530826431262,-6.400606550097044,0,DB
2025-07-25 12:07:36.602,0.0002282111614942,-6.5683141342815325,0,DB
2025-07-25 12:07:36.610,0.0001982969870355,-6.586606199869973,0,DB
2025-07-25 12:07:36.618,0.0001638945761122,-6.452931920794308,0,DB
2025-07-25 12:07:36.625,0.0001256337790746,-6.168713087906849,0,DB
2025-07-25 12:07:36.633,8.421456158036201e-05,-5.7392656099672585,0,DB
2025-07-25 12:07:36.641,4.039845663468599e-05,-5.173590646034156,0,DB
2025-07-25 12:07:36.649,-5.003495509915924e-06,-4.484046986054954,0,DB
2025-07-25 12:07:36.657,-5.114617666127352e-05,-3.685920809739117,0,DB
2025-07-25 12:07:36.664,-9.716869221637924e-05,-2.7969124289496894,0,DB
2025-07-25 12:07:36.672,-0.0001422147675215,-1.8365619372044284,0,DB
2025-07-25 12:07:36.680,-0.0001854542412469,-0.8256368210074896,0,DB
2025-07-25 12:07:36.688,-0.0002261044611926,0.21449541367167,0,DB
2025-07-25 12:07:36.696,-0.0002634502540197,1.2624875537408269,0,DB
2025-07-25 12:07:36.703,-0.000296861193276,2.2976057217700974,0,DB
2025-07-25 12:07:36.711,-0.0003258051994668,3.3002774099619665,0,DB
2025-07-25 12:07:36.719,-0.0003498579878782,4.252579663877496,0,DB
2025-07-25 12:07:36.727,-0.0003687083696343,5.138655707236777,0,DB
2025-07-25 12:07:36.735,-0.0003821597877538,5.945051493122548,0,DB
2025-07-25 12:07:36.743,-0.000390128686189,6.660966780531669,0,DB
2025-07-25 12:07:36.750,-0.0003926403581616,7.278418266821696,0,DB
2025-07-25 12:07:36.758,-0.0003898228101381,7.792314992446292,0,DB
2025-07-25 12:07:36.766,-0.0003818989573961,8.200448637932613,0,DB
2025-07-25 12:07:36.774,-0.0003691772527892,8.503403435767407,0,DB
2025-07-25 12:07:36.782,-0.0003520407740984,8.704392218533503,0,DB
2025-07-25 12:07:36.789,-0.0003309348710391,8.809026630539343,0,DB
2025-07-25 12:07:36.797,-0.0003063535846696,8.82503076384217,0,DB
2025-07-25 12:07:36.805,-0.000278825124925,8.761908461701521,0,DB
2025-07-25 12:07:36.813,-0.0002488967706347,8.630575275743531,0,DB
2025-07-25 12:07:36.821,-0.0002171196789733,8.44296656810705,0,DB
2025-07-25 12:07:36.828,-0.0001840342078903,8.211633506152028,0,DB
2025-07-25 12:07:36.836,-0.0001501563938148,7.949338687661687,0,DB
2025-07-25 12:07:36.844,-0.0001159661611643,7.668662840320046,0,DB
2025-07-25 12:07:36.852,-8.189770022861013e-05,7.38163344730153,0,DB
2025-07-25 12:07:36.860,-4.833231661515477e-05,7.0993852608749775,0,DB
2025-07-25 12:07:36.868,-1.5594008401623723e-05,6.831861497400256,0,DB
2025-07-25 12:07:36.875,1.6051938303326075e-05,6.58756309979661,0,DB
2025-07-25 12:07:36.883,4.63970390234131e-05,6.373351862938687,0,DB
2025-07-25 12:07:36.891,7.528426004706314e-05,6.194311507850273,0,DB
2025-07-25 12:07:36.899,0.0001025995138499,6.053669028272132,0,DB
2025-07-25 12:07:36.907,0.0001282608268255,5.952776878817665,0,DB
2025-07-25 12:07:36.914,0.0001522064273902,5.891154876884468,0,DB
2025-07-25 12:07:36.922,0.0001743831430959,5.866589088434604,0,DB
2025-07-25 12:07:36.930,0.0001947363938856,5.875283489460117,0,DB
2025-07-25 12:07:36.938,0.000213202869956,5.912058861552866,0,DB
2025-07-25 12:07:36.946,0.0002297067652247,5.970592204878767,0,DB
2025-07-25 12:07:36.953,0.0002441601401759,6.043688942341876,0,DB
2025-07-25 12:07:36.961,0.0002564674829407,6.123579349427355,0,DB
2025-07-25 12:07:36.969,0.0002665338068794,6.202229980016329,0,DB
2025-07-25 12:07:36.977,0.0002742748777152,6.271660377463918,0,DB
2025-07-25 12:07:36.985,0.0002796277335158,6.324255077212924,0,DB
2025-07-25 12:07:36.993,0.0002825597415892,6.353060845297331,0,DB
2025-07-25 12:07:37.000,0.0002830749512869,6.3520592845170905,0,DB
2025-07-25 12:07:37.008,0.000281217181173,6.316405403602566,0,DB
2025-07-25 12:07:37.016,0.0002770698422341,6.242623504352532,0,DB
2025-07-25 12:07:37.024,0.0002707528148492,6.1287528079490725,0,DB
2025-07-25 12:07:37.032,0.0002624168274932,5.974436611641449,0,DB
2025-07-25 12:07:37.039,0.0002522358786658,5.78095042056965,0,DB
2025-07-25 12:07:37.047,0.0002403984022318,5.551166398265917,0,DB
2025-07-25 12:07:37.055,0.0002270980971502,5.289453569433956,0,DB
2025-07-25 12:07:37.063,0.0002125255173927,5.001515423806663,0,DB
2025-07-25 12:07:37.071,0.0001968614914927,4.694168835079361,0,DB
2025-07-25 12:07:37.078,0.0001802731407041,4.375070444007533,0,DB
2025-07-25 12:07:37.086,0.0001629127776607,4.0523987780677455,0,DB
2025-07-25 12:07:37.094,0.0001449194630838,3.73450230992552,0,DB
2025-07-25 12:07:37.102,0.0001264226033548,3.4295253134979022,0,DB
2025-07-25 12:07:37.110,0.0001075467393426,3.145024685774388,0,DB
2025-07-25 12:07:37.118,8.841662099762301e-05,2.88759180136315,0,DB
2025-07-25 12:07:37.125,6.916177968504691e-05,2.662493904762241,0,DB
2025-07-25 12:07:37.133,4.992005913734762e-05,2.473349488064418,0,DB
2025-07-25 12:07:37.141,3.083983505684039e-05,2.3218515333219165,0,DB
2025-07-25 12:07:37.149,1.2080814957924876e-05,2.207551423302956,0,DB
2025-07-25 12:07:37.157,-6.18664707214523e-06,2.127714764479293,0,DB
2025-07-25 12:07:37.164,-2.37837441911958e-05,2.0772583594167644,0,DB
2025-07-25 12:07:37.172,-4.052682789937985e-05,2.048775160285372,0,DB
2025-07-25 12:07:37.180,-5.623220416257652e-05,2.032651284499616,0,DB
2025-07-25 12:07:37.188,-7.07217579275037e-05,2.017276135834924,0,DB
2025-07-25 12:07:37.196,-8.382890352492894e-05,1.989343418486476,0,DB
2025-07-25 12:07:37.203,-9.540416503270396e-05,1.934237443645889,0,DB
2025-07-25 12:07:37.211,-0.0001053195332881,1.8364957123403531,0,DB
2025-07-25 12:07:37.219,-0.0001134707773724,1.680335429551564,0,DB
2025-07-25 12:07:37.227,-0.0001197771838966,1.4502284821803568,0,DB
2025-07-25 12:07:37.235,-0.0001241786730135,1.1315066197131052,0,DB
2025-07-25 12:07:37.243,-0.0001266307295919,0.71097623946955,0,DB
2025-07-25 12:07:37.250,-0.0001270979677301,0.1775204302903753,0,DB
2025-07-25 12:07:37.258,-0.0001255473670082,-0.4773350998929465,0,DB
2025-07-25 12:07:37.266,-0.0001219422679836,-1.2589157745499064,0,DB
2025-07-25 12:07:37.274,-0.0001162380978433,-2.1689743832746093,0,DB
2025-07-25 12:07:37.282,-0.0001083805530779,-3.205370838323313,0,DB
2025-07-25 12:07:37.289,-9.830667488037847e-05,-4.361873682752273,0,DB
2025-07-25 12:07:37.297,-8.594897503845446e-05,-5.628097752989448,0,DB
2025-07-25 12:07:37.305,-7.124247915400568e-05,-6.989587620699923,0,DB
2025-07-25 12:07:37.313,-5.413421894264808e-05,-8.428050836170874,0,DB
2025-07-25 12:07:37.321,-3.459441490329268e-05,-9.921738768321708,0,DB
2025-07-25 12:07:37.328,-1.2628474975770322e-05,-11.445966265433322,0,DB
2025-07-25 12:07:37.336,1.1711005755248891e-05,-12.97375479571257,0,DB
2025-07-25 12:07:37.344,3.831294349658152e-05,-14.476577562053665,0,DB
2025-07-25 12:07:37.352,6.699779390569423e-05,-15.925179727532068,0,DB
2025-07-25 12:07:37.360,9.75095545070883e-05,-17.2904427210713,0,DB
2025-07-25 12:07:37.368,0.0001295104492497,-18.54425893911017,0,DB
2025-07-25 12:07:37.375,0.000162579036099,-19.660382243495604,0,DB
2025-07-25 12:07:37.383,0.0001962123960822,-20.61522057571716,0,DB
2025-07-25 12:07:37.391,0.0002298328371618,-21.38853972085376,0,DB
2025-07-25 12:07:37.399,0.0002627992162307,-21.96405158568993,0,DB
2025-07-25 12:07:37.407,0.0002944226268202,-22.32986601546083,0,DB
2025-07-25 12:07:37.414,0.0003239859049418,-22.478791787060477,0,DB
2025-07-25 12:07:37.422,0.0003507661855044,-22.408479551474294,0,DB
2025-07-25 12:07:37.430,0.0003740595290178,-22.12140670098492,0,DB
2025-07-25 12:07:37.438,0.0003932063978064,-21.624710969171133,0,DB
2025-07-25 12:07:37.446,0.0004076165512234,-20.92988564653325,0,DB
2025-07-25 12:07:37.453,0.0004167918304297,-20.05235430287381,0,DB
2025-07-25 12:07:37.461,0.00042034535477,-19.010946636139582,0,DB
2025-07-25 12:07:37.469,0.0004180158617977,-17.827299406266885,0,DB
2025-07-25 12:07:37.477,0.0004096762894493,-16.52520735538251,0,DB
2025-07-25 12:07:37.485,0.0003953362091227,-15.129948653915276,0,DB
2025-07-25 12:07:37.493,0.0003751383227735,-13.667607920648203,0,DB
2025-07-25 12:07:37.500,0.0003493498128547,-12.164417480822722,0,DB
2025-07-25 12:07:37.508,0.0003183497164357,-10.646134526261816,0,DB
2025-07-25 12:07:37.516,0.0002826136019539,-9.137468514808116,0,DB
2025-07-25 12:07:37.524,0.000242696731601,-7.661569767881936,0,DB
2025-07-25 12:07:37.532,0.0001992167225394,-6.23958702556482,0,DB
2025-07-25 12:07:37.539,0.0001528365256892,-4.890298864560993,0,DB
2025-07-25 12:07:37.547,0.0001042483230983,-3.62982147012099,0,DB
2025-07-25 12:07:37.555,5.415875887680139e-05,-2.471393306050986,0,DB
2025-07-25 12:07:37.563,3.275817119443553e-06,-1.4252357192625156,0,DB
2025-07-25 12:07:37.571,-4.770242626801484e-05,-0.4984873781499439,0,DB
2025-07-25 12:07:37.578,-9.80971360820732e-05,0.304790414566385,0,DB
2025-07-25 12:07:37.586,-0.0001472563638609,0.9835411717456728,0,DB
2025-07-25 12:07:37.594,-0.0001945614650356,1.5395776597974395,0,DB
2025-07-25 12:07:37.602,-0.0002394328205574,1.9773881265054207,0,DB
2025-07-25 12:07:37.610,-0.0002813352856082,2.3038897462558428,0,DB
2025-07-25 12:07:37.618,-0.0003197835288977,2.5281354222867827,0,DB
2025-07-25 12:07:37.625,-0.0003543471381174,2.6609808889641324,0,DB
2025-07-25 12:07:37.633,-0.0003846552143455,2.714719920845516,0,DB
2025-07-25 12:07:37.641,-0.0004104002445895,2.702696315760903,0,DB
2025-07-25 12:07:37.649,-0.0004313412528321,2.638902090194291,0,DB
2025-07-25 12:07:37.657,-0.0004473064311214,2.53757191421394,0,DB
2025-07-25 12:07:37.664,-0.0004581955322838,2.412784138642877,0,DB
2025-07-25 12:07:37.672,-0.0004639822283057,2.278078772333164,0,DB
2025-07-25 12:07:37.680,-0.0004647164108772,2.146102425396151,0,DB
2025-07-25 12:07:37.688,-0.0004605260841347,2.028289545992779,0,DB
2025-07-25 12:07:37.696,-0.0004516181992397,1.93458826706922,0,DB
2025-07-25 12:07:37.703,-0.0004382776731321,1.873237885213952,0,DB
2025-07-25 12:07:37.711,-0.0004208640041598,1.8506034700180072,0,DB
2025-07-25 12:07:37.719,-0.0003998052688925,1.8710714143159344,0,DB
2025-07-25 12:07:37.727,-0.000375589697876,1.937007957185548,0,DB
2025-07-25 12:07:37.735,-0.0003487553650636,2.0487809165146427,0,DB
2025-07-25 12:07:37.743,-0.0003198787402421,2.204843121664286,0,DB
2025-07-25 12:07:37.750,-0.0002895629364164,2.401874391814064,0,DB
2025-07-25 12:07:37.758,-0.00025842643507,2.6349774012279625,0,DB
2025-07-25 12:07:37.766,-0.0002270928960279,2.897921433298826,0,DB
2025-07-25 12:07:37.774,-0.0001961823693614,3.183426856841149,0,DB
2025-07-25 12:07:37.782,-0.0001663038688834,3.483482149059936,0,DB
2025-07-25 12:07:37.789,-0.000138048929729,3.789684419502556,0,DB
2025-07-25 12:07:37.797,-0.0001119855497364,4.093593641928278,0,DB
2025-07-25 12:07:37.805,-8.865184614026887e-05,4.387090174084294,0,DB
2025-07-25 12:07:37.813,-6.854884718570353e-05,4.662724652905479,0,DB
2025-07-25 12:07:37.821,-5.213207805720896e-05,4.914049022382994,0,DB
2025-07-25 12:07:37.828,-3.980194893711912e-05,5.135917321072705,0,DB
2025-07-25 12:07:37.836,-3.189331416650015e-05,5.324744971484413,0,DB
2025-07-25 12:07:37.844,-2.8664853874943346e-05,5.478715724480951,0,DB
2025-07-25 12:07:37.852,-3.028908704881686e-05,5.597926166163154,0,DB
2025-07-25 12:07:37.860,-3.684384288090453e-05,5.684458829893073,0,DB
2025-07-25 12:07:37.868,-4.830589065502909e-05,5.742376494033351,0,DB
2025-07-25 12:07:37.875,-6.454716308506092e-05,5.777632192745554,0,DB
2025-07-25 12:07:37.883,-8.533364685982374e-05,5.79789181398,0,DB
2025-07-25 12:07:37.891,-0.0001103266733099,5.812268880801441,0,DB
2025-07-25 12:07:37.899,-0.0001390861798502,5.830974166144176,0,DB
2025-07-25 12:07:37.907,-0.0001710756054248,5.86488611271558,0,DB
2025-07-25 12:07:37.914,-0.0002056683469164,5.925051529903004,0,DB
2025-07-25 12:07:37.922,-0.0002421559732424,6.022129599655687,0,DB
2025-07-25 12:07:37.930,-0.0002797585476126,6.165795697160787,0,DB
2025-07-25 12:07:37.938,-0.0003176374042265,6.364124756741294,0,DB
2025-07-25 12:07:37.946,-0.0003549105926372,6.622976722975722,0,DB
2025-07-25 12:07:37.953,-0.000390671045501,6.945408861672271,0,DB
2025-07-25 12:07:37.961,-0.0004240074600551,7.331141213945296,0,DB
2025-07-25 12:07:37.969,-0.0004540278845444,7.776102118245917,0,DB
2025-07-25 12:07:37.977,-0.0004798858792198,8.272080370949139,0,DB
2025-07-25 12:07:37.985,-0.0005008087641377,8.806509133499675,0,DB
2025-07-25 12:07:37.993,-0.0005161270057413,9.362404035319516,0,DB
2025-07-25 12:07:38.000,-0.0005253034389401,9.918474015967432,0,DB
2025-07-25 12:07:38.008,-0.000527960815116,10.449418298036276,0,DB
2025-07-25 12:07:38.016,-0.0005239060145171,10.92641654941252,0,DB
2025-07-25 12:07:38.024,-0.0005131491114267,11.317811920554083,0,DB
2025-07-25 12:07:38.032,-0.0004959154153115,11.589978449792136,0,DB
2025-07-25 12:07:38.039,-0.0004726487870102,11.708355613141077,0,DB
2025-07-25 12:07:38.047,-0.0004440050239409,11.638623914712216,0,DB
2025-07-25 12:07:38.055,-0.0004108348383802,11.347986781224344,0,DB
2025-07-25 12:07:38.063,-0.0003741567501971,10.80651609053525,0,DB
2025-07-25 12:07:38.071,-0.0003351209522662,9.988511902915242,0,DB
2025-07-25 12:07:38.078,-0.0002949658268052,8.873821843469313,0,DB
2025-07-25 12:07:38.086,-0.0002549692732934,7.449062538823268,0,DB
2025-07-25 12:07:38.094,-0.0002163973416808,5.708684915840802,0,DB
2025-07-25 12:07:38.102,-0.0001804528402609,3.655827316704044,0,DB
2025-07-25 12:07:38.110,-0.0001482266016198,1.302905452702059,0,DB
2025-07-25 12:07:38.118,-0.0001206539420342,-1.328103757258675,0,DB
2025-07-25 12:07:38.125,-9.847854296311384e-05,-4.205716576612876,0,DB
2025-07-25 12:07:38.133,-8.222552507121451e-05,-7.289353852242709,0,DB
2025-07-25 12:07:38.141,-7.218488657752713e-05,-10.53011290967756,0,DB
2025-07-25 12:07:38.149,-6.84057588547782e-05,-13.87188686218698,0,DB
2025-07-25 12:07:38.157,-7.070114900734098e-05,-17.25280129541072,0,DB
2025-07-25 12:07:38.164,-7.86621191523642e-05,-20.60692192475561,0,DB
2025-07-25 12:07:38.172,-9.167986317401024e-05,-23.86617209576252,0,DB
2025-07-25 12:07:38.180,-0.0001089739679117,-26.962386919585256,0,DB
2025-07-25 12:07:38.188,-0.0001296252094443,-29.829422288969308,0,DB
2025-07-25 12:07:38.196,-0.0001526113754639,-32.40523266741677,0,DB
2025-07-25 12:07:38.203,-0.0001768447075307,-34.63383175929075,0,DB
2025-07-25 12:07:38.211,-0.0002012096077025,-36.467054996428885,0,DB
2025-07-25 12:07:38.219,-0.0002245993115336,-37.86605192835088,0,DB
2025-07-25 12:07:38.227,-0.0002459503379237,-38.80244948360616,0,DB
2025-07-25 12:07:38.235,-0.000264273643785,-39.259142834245885,0,DB
2025-07-25 12:07:38.243,-0.0002786814919339,-39.23068822412992,0,DB
2025-07-25 12:07:38.250,-0.0002884091589738,-38.72329051025404,0,DB
2025-07-25 12:07:38.258,-0.0002928308840578,-37.75439622000721,0,DB
2025-07-25 12:07:38.266,-0.0002914698788859,-36.35191964671254,0,DB
2025-07-25 12:07:38.274,-0.0002840026562951,-34.553144049227875,0,DB
2025-07-25 12:07:38.282,-0.0002702582776789,-32.40335174348107,0,DB
2025-07-25 12:07:38.289,-0.0002502133250564,-29.954245345692627,0,DB
2025-07-25 12:07:38.297,-0.0002239834664657,-27.26222744341992,0,DB
2025-07-25 12:07:38.305,-0.0001918124143159,-24.386607545919528,0,DB
2025-07-25 12:07:38.313,-0.0001540589179526,-21.38780351648293,0,DB
2025-07-25 12:07:38.321,-0.0001111822725758,-18.32560020307869,0,DB
2025-07-25 12:07:38.328,-6.37267549553685e-05,-15.257521172774004,0,DB
2025-07-25 12:07:38.336,-1.230542117496996e-05,-12.237360911301632,0,DB
2025-07-25 12:07:38.344,4.241624752936271e-05,-9.313915194080804,0,DB
2025-07-25 12:07:38.352,9.97363600060718e-05,-6.529937176167907,0,DB
2025-07-25 12:07:38.360,0.0001589318700791,-3.921336634717067,0,DB
2025-07-25 12:07:38.368,0.0002192727923491,-1.5166301849057005,0,DB
2025-07-25 12:07:38.375,0.0002800353023253,0.6633584750514882,0,DB
2025-07-25 12:07:38.383,0.0003405138637177,2.605556920414729,0,DB
2025-07-25 12:07:38.391,0.0004000326771689,4.304476074045388,0,DB
2025-07-25 12:07:38.399,0.0004579567462399,5.761836374788038,0,DB
2025-07-25 12:07:38.407,0.0005137027076731,6.986012501482614,0,DB
2025-07-25 12:07:38.414,0.0005667493549459,7.991324114982154,0,DB
2025-07-25 12:07:38.422,0.0006166475812866,8.797202107970385,0,DB
2025-07-25 12:07:38.430,0.0006630293220865,9.427261018541708,0,DB
2025-07-25 12:07:38.438,0.0007056150000231,9.908308670703995,0,DB
2025-07-25 12:07:38.446,0.0007442189747604,10.269323833644757,0,DB
2025-07-25 12:07:38.453,0.000778752570666,10.54043179387809,0,DB
2025-07-25 12:07:38.461,0.0008092243693332,10.751906238533506,0,DB
2025-07-25 12:07:38.469,0.000835737538836,10.933223772718849,0,DB
2025-07-25 12:07:38.477,0.0008584839869713,11.112194764813376,0,DB
2025-07-25 12:07:38.485,0.000877735150627,11.314191075983338,0,DB
2025-07-25 12:07:38.493,0.0008938294167684,11.56148765531088,0,DB
2025-07-25 12:07:38.500,0.0009071565476327,11.872731067465876,0,DB
2025-07-25 12:07:38.508,0.0009181398932243,12.26254388550404,0,DB
2025-07-25 12:07:38.516,0.0009272173916365,12.74126965974451,0,DB
2025-07-25 12:07:38.524,0.0009348223020594,13.314859000446134,0,DB
2025-07-25 12:07:38.532,0.0009413644311536,13.984893317935557,0,DB
2025-07-25 12:07:38.539,0.0009472125032265,14.74873906906863,0,DB
2025-07-25 12:07:38.547,0.0009526783261194,15.599822068313976,0,DB
2025-07-25 12:07:38.555,0.0009580034056257,16.528008619977097,0,DB
2025-07-25 12:07:38.563,0.0009633485915331,17.520077974732757,0,DB
2025-07-25 12:07:38.571,0.000968787242694,18.560268941694787,0,DB
2025-07-25 12:07:38.579,0.0009743023434355,19.63088240487148,0,DB
2025-07-25 12:07:38.586,0.0009797879838278,20.712920984541707,0,DB
2025-07-25 12:07:38.594,0.0009850555281686,21.786747111312582,0,DB
2025-07-25 12:07:38.602,0.0009898444953745,22.83274128637921,0,DB
2025-07-25 12:07:38.610,0.0009938376332654,23.83194321937187,0,DB
2025-07-25 12:07:38.618,0.0009966790817584,24.76665979707708,0,DB
2025-07-25 12:07:38.625,0.0009979941769521,25.62102537430328,0,DB
2025-07-25 12:07:38.633,0.000997409468377,26.38150162136803,0,DB
2025-07-25 12:07:38.641,0.0009945717859609,27.03730603492832,0,DB
2025-07-25 12:07:38.649,0.0009891655145094,27.580760141508435,0,DB
2025-07-25 12:07:38.657,0.000980927493153,28.00755032328498,0,DB
2025-07-25 12:07:38.664,0.0009696591097093,28.31689601552313,0,DB
2025-07-25 12:07:38.672,0.0009552352289993,28.51162172702413,0,DB
2025-07-25 12:07:38.680,0.00093760966107,28.598130905559174,0,DB
2025-07-25 12:07:38.688,0.0009168170110481,28.586281124336125,0,DB
2025-07-25 12:07:38.696,0.0008929709558041,28.48916144742959,0,DB
2025-07-25 12:07:38.704,0.0008662591957168,28.322774207407985,0,DB
2025-07-25 12:07:38.711,0.0008369354806181,28.105624866313416,0,DB
2025-07-25 12:07:38.719,0.0008053092432336,27.85822518575464,0,DB
2025-07-25 12:07:38.727,0.0007717335325395,27.602516631281425,0,DB
2025-07-25 12:07:38.735,0.0007365920453832,27.361222782429817,0,DB
2025-07-25 12:07:38.743,0.0007002859880022,27.15714149506852,0,DB
2025-07-25 12:07:38.750,0.0006632212698136,27.01238963656792,0,DB
2025-07-25 12:07:38.758,0.0006257962685409,26.947615349546066,0,DB
2025-07-25 12:07:38.766,0.0005883902215678,26.98119495483005,0,DB
2025-07-25 12:07:38.774,0.000551352238514,27.128433729206787,0,DB
2025-07-25 12:07:38.782,0.0005149910020309,27.4007918212428,0,DB
2025-07-25 12:07:38.789,0.0004795654189579,27.80515840417487,0,DB
2025-07-25 12:07:38.797,0.0004452767560233,28.343198683415466,0,DB
2025-07-25 12:07:38.805,0.0004122630237014,29.01079942606671,0,DB
2025-07-25 12:07:38.813,0.0003805963973467,29.79763909023611,0,DB
2025-07-25 12:07:38.821,0.0003502842076176,30.686908222542144,0,DB
2025-07-25 12:07:38.829,0.0003212735746376,31.655204388721167,0,DB
2025-07-25 12:07:38.836,0.0002934592671727,32.67262335635487,0,DB
2025-07-25 12:07:38.844,0.0002666939626075,33.70306445453004,0,DB
2025-07-25 12:07:38.852,0.0002407998159268,34.704762939338984,0,DB
2025-07-25 12:07:38.860,0.00021558012935,35.6310558032521,0,DB
2025-07-25 12:07:38.868,0.0001908299510963,36.43137985719768,0,DB
2025-07-25 12:07:38.875,0.0001663446191096,37.05249224556757,0,DB
2025-07-25 12:07:38.883,0.0001419255953289,37.43989407696348,0,DB
2025-07-25 12:07:38.891,0.0001173833898792,37.53942790931479,0,DB
2025-07-25 12:07:38.899,9.25378973574366e-05,37.299009838958135,0,DB
2025-07-25 12:07:38.907,6.72169319960773e-05,36.67044739392297,0,DB
2025-07-25 12:07:38.914,4.125398708751393e-05,35.61128584998421,0,DB
2025-07-25 12:07:38.922,1.448617266657305e-05,34.08661852276636,0,DB
2025-07-25 12:07:38.930,-1.3247017740860197e-05,32.07079158305237,0,DB
2025-07-25 12:07:38.938,-4.210383336198475e-05,29.54893150444481,0,DB
2025-07-25 12:07:38.946,-7.22393282418245e-05,26.51822382966672,0,DB
2025-07-25 12:07:38.954,-0.0001038036207101,22.988875884573726,0,DB
2025-07-25 12:07:38.961,-0.0001369397147692,18.984703585910815,0,DB
2025-07-25 12:07:38.969,-0.0001717812309634,14.54329359666587,0,DB
2025-07-25 12:07:38.977,-0.0002084502578142,9.71570656624274,0,DB
2025-07-25 12:07:38.985,-0.0002470552891221,4.565704584143056,0,DB
2025-07-25 12:07:38.993,-0.0002876889038748,-0.8314944410491171,0,DB
2025-07-25 12:07:39.000,-0.0003304245928657,-6.390911928054173,0,DB
2025-07-25 12:07:39.008,-0.0003753120988919,-12.0199087577442,0,DB
2025-07-25 12:07:39.016,-0.0004223708915771,-17.62062591945211,0,DB
2025-07-25 12:07:39.024,-0.0004715818579304,-23.092683504626724,0,DB
2025-07-25 12:07:39.032,-0.0005228777869749,-28.336041574316667,0,DB
2025-07-25 12:07:39.039,-0.0005761336338046,-33.253916452266566,0,DB
2025-07-25 12:07:39.047,-0.0006311578108647,-37.75564106543022,0,DB
2025-07-25 12:07:39.055,-0.0006876858551316,-41.75935846992103,0,DB
2025-07-25 12:07:39.063,-0.0007453777534009,-45.19444372080533,0,DB
2025-07-25 12:07:39.071,-0.0008038199742446,-48.00356047785563,0,DB
2025-07-25 12:07:39.079,-0.0008625328606786,-50.144274568297845,0,DB
2025-07-25 12:07:39.086,-0.000920983494488,-51.59016625080554,0,DB
2025-07-25 12:07:39.094,-0.0009786034750544,-52.33140502330547,0,DB
2025-07-25 12:07:39.102,-0.0010348103234493,-52.37477423341618,0,DB
2025-07-25 12:07:39.110,-0.0010890305659754,-51.74315617891181,0,DB
2025-07-25 12:07:39.118,-0.0011407221776623,-50.47451056189606,0,DB
2025-07-25 12:07:39.125,-0.001189394135649,-48.62039894214918,0,DB
2025-07-25 12:07:39.133,-0.0012346213176061,-46.24412427250223,0,DB
2025-07-25 12:07:39.141,-0.00127605367834,-43.4185669938269,0,DB
2025-07-25 12:07:39.149,-0.0013134193706477,-40.22380711536201,0,DB
2025-07-25 12:07:39.157,-0.0013465222217063,-36.744625111948736,0,DB
2025-07-25 12:07:39.164,-0.0013752347166162,-33.067973526711526,0,DB
2025-07-25 12:07:39.172,-0.00139948819831,-29.28050631547192,0,DB
2025-07-25 12:07:39.180,-0.0014192621593881,-25.466244837207217,0,DB
2025-07-25 12:07:39.188,-0.0014345742491135,-21.70444873508068,0,DB
2025-07-25 12:07:39.196,-0.001445472080968,-18.067747565919635,0,DB
2025-07-25 12:07:39.204,-0.0014520272680088,-14.620575704544912,0,DB
2025-07-25 12:07:39.211,-0.0014543315094877,-11.417939483222645,0,DB
2025-07-25 12:07:39.219,-0.0014524941858014,-8.504532328917222,0,DB
2025-07-25 12:07:39.227,-0.0014466408775161,-5.914201309719695,0,DB
2025-07-25 12:07:39.235,-0.0014369124058916,-3.669757343314558,0,DB
2025-07-25 12:07:39.243,-0.0014234641736476,-1.7831115736409158,0,DB
2025-07-25 12:07:39.250,-0.0014064656122182,-0.2557121931146994,0,DB
2025-07-25 12:07:39.258,-0.0013860994559244,0.9207507035232584,0,DB
2025-07-25 12:07:39.266,-0.0013625605166977,1.763409837085559,0,DB
2025-07-25 12:07:39.274,-0.0013360537062961,2.297096389085917,0,DB
2025-07-25 12:07:39.282,-0.0013067912047181,2.5530703223562616,0,DB
2025-07-25 12:07:39.289,-0.0012749888320818,2.567650241315764,0,DB
2025-07-25 12:07:39.297,-0.0012408618121246,2.380787579511253,0,DB
2025-07-25 12:07:39.305,-0.0012046202119052,2.034628716534782,0,DB
2025-07-25 12:07:39.313,-0.0011664644039349,1.5721064159066611,0,DB
2025-07-25 12:07:39.321,-0.0011265809245135,1.035598827522341,0,DB
2025-07-25 12:07:39.329,-0.0010851390971626,0.4656903088815055,0,DB
2025-07-25 12:07:39.336,-0.0010422887552507,-0.0999363996269238,0,DB
2025-07-25 12:07:39.344,-0.0009981593365144,-0.6274524245997769,0,DB
2025-07-25 12:07:39.352,-0.0009528605381819,-1.087660967690207,0,DB
2025-07-25 12:07:39.360,-0.000906484619375,-1.4565890257204293,0,DB
2025-07-25 12:07:39.368,-0.0008591103224059,-1.7158862819511465,0,DB
2025-07-25 12:07:39.375,-0.0008108082618655,-1.8530308283801495,0,DB
2025-07-25 12:07:39.383,-0.0007616475055627,-1.8613470856446808,0,DB
2025-07-25 12:07:39.391,-0.0007117029500448,-1.739846520466508,0,DB
2025-07-25 12:07:39.399,-0.0006610629811712,-1.4929063646833356,0,DB
2025-07-25 12:07:39.407,-0.0006098368123746,-1.1298053922674094,0,DB
2025-07-25 12:07:39.414,-0.0005581608148214,-0.6641388265054096,0,DB
2025-07-25 12:07:39.422,-0.0005062031045715,-0.1131365814576905,0,DB
2025-07-25 12:07:39.430,-0.0004541656678574,0.5030897209222607,0,DB
2025-07-25 12:07:39.438,-0.0004022834578844,1.1623451499452004,0,DB
2025-07-25 12:07:39.446,-0.0003508202241967,1.8411699211544783,0,DB
2025-07-25 12:07:39.454,-0.0003000612529468,2.5156537247272395,0,DB
2025-07-25 12:07:39.461,-0.0002503035388798,3.162223547942605,0,DB
2025-07-25 12:07:39.469,-0.000201844090828,3.758384917901634,0,DB
2025-07-25 12:07:39.477,-0.0001549671292638,4.283399163806225,0,DB
2025-07-25 12:07:39.485,-0.0001099309353553,4.718882197492743,0,DB
2025-07-25 12:07:39.493,-6.69550884092008e-05,5.049313299864509,0,DB
2025-07-25 12:07:39.500,-2.62087883245552e-05,5.262445361108911,0,DB
2025-07-25 12:07:39.508,1.2199097831261953e-05,5.349610864179371,0,DB
2025-07-25 12:07:39.516,4.822770031240936e-05,5.3059205633580495,0,DB
2025-07-25 12:07:39.524,8.190904794453859e-05,5.130354255727859,0,DB
2025-07-25 12:07:39.532,0.0001133498378132,4.825745251574956,0,DB
2025-07-25 12:07:39.539,0.0001427298255562,4.398662106718012,0,DB
2025-07-25 12:07:39.547,0.0001702967221266,3.859192876023737,0,DB
2025-07-25 12:07:39.555,0.0001963576281266,3.2206385794355947,0,DB
2025-07-25 12:07:39.563,0.0002212671914137,2.4991237496381897,0,DB
2025-07-25 12:07:39.571,0.0002454128349726,1.7131328835950563,0,DB
2025-07-25 12:07:39.579,0.0002691975667668,0.8829823968288829,0,DB
2025-07-25 12:07:39.586,0.0002930210475895,0.0302383384074911,0,DB
2025-07-25 12:07:39.594,0.0003172597524232,-0.8229092730748939,0,DB
2025-07-25 12:07:39.602,0.0003422472105398,-1.6543040304535517,0,DB
2025-07-25 12:07:39.610,0.0003682554388156,-2.4425005257492503,0,DB
2025-07-25 12:07:39.618,0.0003954787538345,-3.1674487078896845,0,DB
2025-07-25 12:07:39.625,0.0004240210875037,-3.811171556010503,0,DB
2025-07-25 12:07:39.633,0.0004538876900443,-4.3584215184600685,0,DB
2025-07-25 12:07:39.641,0.0004849817328284,-4.797300234519151,0,DB
2025-07-25 12:07:39.649,0.0005171059131735,-5.119825151412819,0,DB
2025-07-25 12:07:39.657,0.0005499687583887,-5.322425863625909,0,DB
2025-07-25 12:07:39.664,0.0005831949713233,-5.406352448500408,0,DB
2025-07-25 12:07:39.672,0.0006163389451763,-5.377977886492178,0,DB
2025-07-25 12:07:39.680,0.0006489005495607,-5.248976983250592,0,DB
2025-07-25 12:07:39.688,0.0006803424029929,-5.036365197771434,0,DB
2025-07-25 12:07:39.696,0.0007101080177559,-4.762382552741829,0,DB
2025-07-25 12:07:39.704,0.0007376403594239,-4.454210459330065,0,DB
2025-07-25 12:07:39.711,0.0007624004238319,-4.143512894468293,0,DB
2025-07-25 12:07:39.719,0.0007838853542941,-3.865797947513438,0,DB
2025-07-25 12:07:39.727,0.0008016454811483,-3.659601278006995,0,DB
2025-07-25 12:07:39.735,0.0008152996222022,-3.565499411984879,0,DB
2025-07-25 12:07:39.743,0.0008245481162134,-3.624967901252508,0,DB
2025-07-25 12:07:39.750,0.0008291833222848,-3.879106959774148,0,DB
2025-07-25 12:07:39.758,0.0008290975980741,-4.367264985034842,0,DB
2025-07-25 12:07:39.766,0.0008242889554114,-5.12559801090898,0,DB
2025-07-25 12:07:39.774,0.0008148646005196,-6.185610197564115,0,DB
2025-07-25 12:07:39.782,0.0008010424077603,-7.572726469313709,0,DB
2025-07-25 12:07:39.789,0.0007831501640889,-9.304952869892338,0,DB
2025-07-25 12:07:39.797,0.0007616222878162,-11.391682639859589,0,DB
2025-07-25 12:07:39.805,0.0007369937178576,-13.832706007103264,0,DB
2025-07-25 12:07:39.813,0.0007098907509073,-16.6174788760758,0,DB
2025-07-25 12:07:39.821,0.0006810187381082,-19.724699780104533,0,DB
2025-07-25 12:07:39.829,0.0006511467123713,-23.12223555747799,0,DB
2025-07-25 12:07:39.836,0.0006210891308224,-26.767424354252544,0,DB
2025-07-25 12:07:39.844,0.0005916849617638,-30.60777009152158,0,DB
2025-07-25 12:07:39.852,0.0005637744414157,-34.582026033434346,0,DB
2025-07-25 12:07:39.860,0.0005381740622534,-38.62164733569368,0,DB
2025-07-25 12:07:39.868,0.0005156506328759,-42.65257439475164,0,DB
2025-07-25 12:07:39.875,0.0004968954403605,-46.59729151557626,0,DB
2025-07-25 12:07:39.883,0.0004824996577159,-50.37708996024704,0,DB
2025-07-25 12:07:39.891,0.0004729322024038,-53.91445186733712,0,DB
2025-07-25 12:07:39.899,0.0004685212128501,-57.135462747364606,0,DB
2025-07-25 12:07:39.907,0.0004694401278294,-59.97215596122594,0,DB
2025-07-25 12:07:39.914,0.0004756990783756,-62.36469320495932,0,DB
2025-07-25 12:07:39.922,0.0004871420074485,-64.26329066339022,0,DB
2025-07-25 12:07:39.930,0.0005034496555152,-65.62981091867816,0,DB
2025-07-25 12:07:39.938,0.0005241482991226,-66.43895533257255,0,DB
2025-07-25 12:07:39.946,0.0005486239065885,-66.6790095996931,0,DB
2025-07-25 12:07:39.954,0.000576141181351,-66.35211541443773,0,DB
2025-07-25 12:07:39.961,0.0006058667997999,-65.4740624970006,0,DB
2025-07-25 12:07:39.969,0.0006368960166324,-64.07361633672416,0,DB
2025-07-25 12:07:39.977,0.0006682817066991,-62.191416742345176,0,DB
2025-07-25 12:07:39.985,0.0006990648376496,-59.87849959175054,0,DB
2025-07-25 12:07:39.993,0.0007283053222375,-57.19450821536297,0,DB
2025-07-25 12:07:40.000,0.0007551121828907,-54.20567105276076,0,DB
2025-07-25 12:07:40.008,0.0007786719743161,-50.98262829705513,0,DB
2025-07-25 12:07:40.016,0.0007982744530104,-47.59819217007237,0,DB
2025-07-25 12:07:40.024,0.0008133345562945,-44.1251234940807,0,DB
2025-07-25 12:07:40.032,0.0008234098587534,-40.63400179710597,0,DB
2025-07-25 12:07:40.039,0.0008282128115632,-37.19125791876571,0,DB
2025-07-25 12:07:40.047,0.0008276172407951,-33.85742767222231,0,DB
2025-07-25 12:07:40.055,0.0008216587846253,-30.68567329220689,0,DB
2025-07-25 12:07:40.063,0.0008105291860814,-27.720606856944897,0,DB
2025-07-25 12:07:40.071,0.0007945646262458,-24.997437238382613,0,DB
2025-07-25 12:07:40.079,0.0007742285750203,-22.541449933378253,0,DB
2025-07-25 12:07:40.086,0.0007500899170117,-20.36781776423342,0,DB
2025-07-25 12:07:40.094,0.000722797305741,-18.481730197231304,0,DB
2025-07-25 12:07:40.102,0.0006930507666229,-16.878820092042176,0,DB
2025-07-25 12:07:40.110,0.0006615715812958,-15.54585915486123,0,DB
2025-07-25 12:07:40.118,0.00062907156559,-14.461687254353794,0,DB
2025-07-25 12:07:40.125,0.0005962230069286,-13.598336064706489,0,DB
2025-07-25 12:07:40.133,0.0005636306597288,-12.922304194054158,0,DB
2025-07-25 12:07:40.141,0.0005318072733626,-12.395938991644112,0,DB
2025-07-25 12:07:40.149,0.0005011541541256,-11.978879542815124,0,DB
2025-07-25 12:07:40.157,0.0004719481575056,-11.629515890544528,0,DB
2025-07-25 12:07:40.164,0.0004443361532247,-11.30642119644978,0,DB
2025-07-25 12:07:40.172,0.0004183374185095,-10.969716294576308,0,DB
2025-07-25 12:07:40.180,0.0003938537313159,-10.58232979963496,0,DB
2025-07-25 12:07:40.188,0.000370686278551,-10.111121480075193,0,DB
2025-07-25 12:07:40.196,0.000348557928407,-9.527841837914847,0,DB
2025-07-25 12:07:40.204,0.0003271389959408,-8.80990656907655,0,DB
2025-07-25 12:07:40.211,0.000306074439464,-7.9409706095109,0,DB
2025-07-25 12:07:40.219,0.0002850105099201,-6.91129259222773,0,DB
2025-07-25 12:07:40.227,0.0002636191563656,-5.71788653707701,0,DB
2025-07-25 12:07:40.235,0.0002416188066059,-4.364463273400231,0,DB
2025-07-25 12:07:40.243,0.0002187904066262,-2.8611692941917988,0,DB
2025-07-25 12:07:40.250,0.0001949878505556,-1.2241353444557763,0,DB
2025-07-25 12:07:40.258,0.000170142227806,0.525149009452881,0,DB
2025-07-25 12:07:40.266,0.0001442596803709,2.360615320040417,0,DB
2025-07-25 12:07:40.274,0.0001174130965213,4.252528601553377,0,DB
2025-07-25 12:07:40.282,8.972834961209099e-05,6.168507987072899,0,DB
2025-07-25 12:07:40.289,6.13662758193761e-05,8.074630169849337,0,DB
2025-07-25 12:07:40.297,3.250198236186997e-05,9.936589106191152,0,DB
2025-07-25 12:07:40.305,3.303295447710184e-06,11.720884817123007,0,DB
2025-07-25 12:07:40.313,-2.608983801639484e-05,13.396013745462271,0,DB
2025-07-25 12:07:40.321,-5.558335554929965e-05,14.933632925108782,0,DB
2025-07-25 12:07:40.329,-8.514312872890867e-05,16.309670151961562,0,DB
2025-07-25 12:07:40.336,-0.0001148039892184,17.505352407066365,0,DB
2025-07-25 12:07:40.344,-0.0001446729590594,18.50812501537983,0,DB
2025-07-25 12:07:40.352,-0.000174926276638,19.312434511423987,0,DB
2025-07-25 12:07:40.360,-0.0002058002721581,19.92034904282233,0,DB
2025-07-25 12:07:40.368,-0.0002375766442144,20.341991516609983,0,DB
2025-07-25 12:07:40.375,-0.0002705631355493,20.59576273606715,0,DB
2025-07-25 12:07:40.383,-0.0003050709538626,20.708334636438327,0,DB
2025-07-25 12:07:40.391,-0.0003413905151111,20.714397530549878,0,DB
2025-07-25 12:07:40.399,-0.0003797671935943,20.65615010319629,0,DB
2025-07-25 12:07:40.407,-0.0004203787405674,20.5825267744607,0,DB
2025-07-25 12:07:40.414,-0.0004633158803564,20.5481639510304,0,DB
2025-07-25 12:07:40.422,-0.0005085673131969,20.61211449697181,0,DB
2025-07-25 12:07:40.430,-0.0005560099598352,20.836328308451748,0,DB
2025-07-25 12:07:40.438,-0.0006054048174365,21.283925932061543,0,DB
2025-07-25 12:07:40.446,-0.0006563983478702,22.0173014259295,0,DB
2025-07-25 12:07:40.454,-0.0007085289808065,23.09609977528744,0,DB
2025-07-25 12:07:40.461,-0.0007612381255838,24.5751227379598,0,DB
2025-07-25 12:07:40.469,-0.0008138850447084,26.502224563791486,0,DB
2025-07-25 12:07:40.477,-0.0008657650132916,28.916265127616867,0,DB
2025-07-25 12:07:40.485,-0.0009161302644232,31.845192154531475,0,DB
2025-07-25 12:07:40.493,-0.0009642131713588,35.3043259434185,0,DB
2025-07-25 12:07:40.500,-0.0010092509436029,39.2949189203897,0,DB
2025-07-25 12:07:40.508,-0.0010505109395787,43.80305819701394,0,DB
2025-07-25 12:07:40.516,-0.0010873156004771,48.79897193927648,0,DB
2025-07-25 12:07:40.524,-0.0011190659558303,54.23678982584168,0,DB
2025-07-25 12:07:40.532,-0.0011452626139342,60.05479443913632,0,DB
2025-07-25 12:07:40.539,-0.0011655232045,66.17618453406445,0,DB
2025-07-25 12:07:40.547,-0.0011795954969667,72.51035338394742,0,DB
2025-07-25 12:07:40.555,-0.001187365844798,78.95466656427095,0,DB
2025-07-25 12:07:40.563,-0.0011888630006213,85.39670443697554,0,DB
2025-07-25 12:07:40.571,-0.0011842575453876,91.71691609592716,0,DB
2025-07-25 12:07:40.579,-0.0011738571927048,97.79161444305856,0,DB
2025-07-25 12:07:40.586,-0.0011580981491373,103.496227119678,0,DB
2025-07-25 12:07:40.594,-0.0011375326023055,108.70870585449558,0,DB
2025-07-25 12:07:40.602,-0.001112812395304,113.31298793454742,0,DB
2025-07-25 12:07:40.610,-0.001084669153729,117.20239835613998,0,DB
2025-07-25 12:07:40.618,-0.0010538915157367,120.2828800216448,0,DB
2025-07-25 12:07:40.625,-0.0010213004466045,122.47594220635582,0,DB
2025-07-25 12:07:40.633,-0.0009877236743883,123.72122436318362,0,DB
2025-07-25 12:07:40.641,-0.0009539700586665,123.9785829544501,0,DB
2025-07-25 12:07:40.649,-0.0009208044314765,123.22962306483232,0,DB
2025-07-25 12:07:40.657,-0.0008889233606126,121.47861361146283,0,DB
2025-07-25 12:07:40.664,-0.0008589323843897,118.75274448947305,0,DB
2025-07-25 12:07:40.672,-0.000831325366904,115.10170537000614,0,DB
2025-07-25 12:07:40.680,-0.0008064665733929,110.59658844778538,0,DB
2025-07-25 12:07:40.688,-0.0007845759035774,105.32814051212064,0,DB
2025-07-25 12:07:40.696,-0.0007657175948645,99.40441253044452,0,DB
2025-07-25 12:07:40.704,-0.0007497926931993,92.94787667488616,0,DB
2025-07-25 12:07:40.711,-0.000736535640424,86.09210053427354,0,DB
2025-07-25 12:07:40.719,-0.0007255153666841,78.97808526427781,0,DB
2025-07-25 12:07:40.727,-0.0007161412659287,71.75038779612576,0,DB
2025-07-25 12:07:40.735,-0.0007076743617665,64.55315619871797,0,DB
2025-07-25 12:07:40.743,-0.0006992438375588,57.52621126972829,0,DB
2025-07-25 12:07:40.750,-0.0006898689090136,50.80130602441169,0,DB
2025-07-25 12:07:40.758,-0.0006784857629575,44.498687820524026,0,DB
2025-07-25 12:07:40.766,-0.0006639789786489,38.72407556764292,0,DB
2025-07-25 12:07:40.774,-0.000645216502589,33.56614730387785,0,DB
2025-07-25 12:07:40.782,-0.00062108691378,29.09461218033684,0,DB
2025-07-25 12:07:40.789,-0.0005905375086169,25.358916644503807,0,DB
2025-07-25 12:07:40.797,-0.0005526117752443,22.387608631947117,0,DB
2025-07-25 12:07:40.805,-0.0005064850854452,20.188357250717274,0,DB
2025-07-25 12:07:40.813,-0.0004514976824673,18.74860018405273,0,DB
2025-07-25 12:07:40.821,-0.0003871840941887,18.03676817985349,0,DB
2025-07-25 12:07:40.829,-0.0003132980280263,18.004016704115415,0,DB
2025-07-25 12:07:40.836,-0.0002298318440213,18.58638000560885,0,DB
2025-07-25 12:07:40.844,-0.0001370299390001,19.70725301135672,0,DB
2025-07-25 12:07:40.852,-3.539565338402757e-05,21.280101783386677,0,DB
2025-07-25 12:07:40.860,7.43085115240698e-05,23.2113034538101,0,DB
2025-07-25 12:07:40.868,0.0001910674567495,25.403021014530346,0,DB
2025-07-25 12:07:40.875,0.0003136267403572,27.756026224915438,0,DB
2025-07-25 12:07:40.883,0.0004405121975248,30.17239424524711,0,DB
2025-07-25 12:07:40.891,0.0005700554174048,32.55800542566699,0,DB
2025-07-25 12:07:40.899,0.0007004245405459,34.82480208775803,0,DB
2025-07-25 12:07:40.907,0.0008296599610794,36.89276039216891,0,DB
2025-07-25 12:07:40.914,0.0009557146681093,38.69154894227747,0,DB
2025-07-25 12:07:40.922,0.0010764989853756,40.161856273653264,0,DB
2025-07-25 12:07:40.930,0.0011899292883956,41.2563786387751,0,DB
2025-07-25 12:07:40.938,0.0012939799644485,41.94046747626056,0,DB
2025-07-25 12:07:40.946,0.001386737564482,42.19244271958376,0,DB
2025-07-25 12:07:40.954,0.0014664557984505,42.00358378462328,0,DB
2025-07-25 12:07:40.961,0.0015316096783519,41.37781484540667,0,DB
2025-07-25 12:07:40.969,0.0015809467435986,40.33110504049407,0,DB
2025-07-25 12:07:40.977,0.001613533054753,38.89060771742516,0,DB
2025-07-25 12:07:40.985,0.001628791607076,37.09356586188599,0,DB
2025-07-25 12:07:40.993,0.0016265309692361,34.98601357220396,0,DB
2025-07-25 12:07:41.000,0.0016069622374255,32.62130587901035,0,DB
2025-07-25 12:07:41.008,0.0015707027879705,30.058511375304164,0,DB
2025-07-25 12:07:41.016,0.0015187658133679,27.360703970243243,0,DB
2025-07-25 12:07:41.024,0.0014525352406676,24.593191532745266,0,DB
2025-07-25 12:07:41.032,0.0013737263563576,21.821720152487018,0,DB
2025-07-25 12:07:41.039,0.001284333287376,19.11069312341117,0,DB
2025-07-25 12:07:41.047,0.0011865653653207,16.521443475738135,0,DB
2025-07-25 12:07:41.055,0.0010827752084144,14.110597901244596,0,DB
2025-07-25 12:07:41.063,0.0009753819286297,11.928568213331936,0,DB
2025-07-25 12:07:41.071,0.0008667931206252,10.018204058911042,0,DB
2025-07-25 12:07:41.079,0.0007593292529173,8.413637471767887,0,DB
2025-07-25 12:07:41.086,0.0006551538107578,7.139346064189039,0,DB
2025-07-25 12:07:41.094,0.000556212010002,6.209457254570941,0,DB
2025-07-25 12:07:41.102,0.0004641801258843,5.627311005183658,0,DB
2025-07-25 12:07:41.110,0.0003804266358119,5.385293194784001,0,DB
2025-07-25 12:07:41.118,0.0003059856794396,5.464946080413731,0,DB
2025-07-25 12:07:41.125,0.0002415428415455,5.837356411139777,0,DB
2025-07-25 12:07:41.133,0.0001874328582411,6.463815727857174,0,DB
2025-07-25 12:07:41.141,0.0001436484675218,7.296741281517415,0,DB
2025-07-25 12:07:41.149,0.0001098593147236,8.280839878102478,0,DB
2025-07-25 12:07:41.157,8.543964970200138e-05,9.354490868526772,0,DB
2025-07-25 12:07:41.164,6.950353499309686e-05,10.4513185230485,0,DB
2025-07-25 12:07:41.172,6.0946377854222326e-05,11.501918266658556,0,DB
2025-07-25 12:07:41.180,5.849168568789693e-05,12.435695836191648,0,DB
2025-07-25 12:07:41.188,6.074189109902044e-05,13.182773516404811,0,DB
2025-07-25 12:07:41.196,6.623189183559502e-05,13.675913420078286,0,DB
2025-07-25 12:07:41.204,7.348375189027571e-05,13.852404520656084,0,DB
2025-07-25 12:07:41.211,8.106095922648028e-05,13.655858058979966,0,DB
2025-07-25 12:07:41.219,8.762073033744385e-05,13.037855256197645,0,DB
2025-07-25 12:07:41.227,9.19629731841107e-05,11.95939218133007,0,DB
2025-07-25 12:07:41.235,9.307456075539294e-05,10.392069319017144,0,DB
2025-07-25 12:07:41.243,9.016752207852316e-05,8.318977985750658,0,DB
2025-07-25 12:07:41.250,8.270970630503685e-05,5.735242314011401,0,DB
2025-07-25 12:07:41.258,7.044650088176487e-05,2.6481840593061627,0,DB
2025-07-25 12:07:41.266,5.341232487307715e-05,-0.9229120830877277,0,DB
2025-07-25 12:07:41.274,3.193088139833757e-05,-4.947442772251732,0,DB
2025-07-25 12:07:41.282,6.603537975701827e-06,-9.38453631009504,0,DB
2025-07-25 12:07:41.289,-2.171429464838754e-05,-14.184490344097592,0,DB
2025-07-25 12:07:41.297,-5.194830514676725e-05,-19.290562653441235,0,DB
2025-07-25 12:07:41.305,-8.28507677178663e-05,-24.64106471879409,0,DB
2025-07-25 12:07:41.313,-0.000113054462776,-30.171692283519715,0,DB
2025-07-25 12:07:41.321,-0.0001411324877054,-35.8180128970206,0,DB
2025-07-25 12:07:41.329,-0.0001656610418978,-41.51801835475212,0,DB
2025-07-25 12:07:41.336,-0.0001852822494338,-47.21464088852024,0,DB
2025-07-25 12:07:41.344,-0.0001987643369128,-52.85812672636591,0,DB
2025-07-25 12:07:41.352,-0.0002050568544985,-58.40815990686593,0,DB
2025-07-25 12:07:41.360,-0.000203338997607,-63.835633468142014,0,DB
2025-07-25 12:07:41.368,-0.0001930594094707,-69.12397455947585,0,DB
2025-07-25 12:07:41.375,-0.0001739661119272,-74.26994459478009,0,DB
2025-07-25 12:07:41.383,-0.0001461254288331,-79.28385495103477,0,DB
2025-07-25 12:07:41.391,-0.000109928969435,-84.1891622793311,0,DB
2025-07-25 12:07:41.399,-6.608800834115827e-05,-89.02143429068872,0,DB
2025-07-25 12:07:41.407,-1.5615018395398545e-05,-93.82670564644052,0,DB
2025-07-25 12:07:41.414,4.020729265145541e-05,-98.65927282898896,0,DB
2025-07-25 12:07:41.422,9.98683628644934e-05,-103.5790049762284,0,DB
2025-07-25 12:07:41.430,0.0001616817249252,-108.64827302595504,0,DB
2025-07-25 12:07:41.438,0.0002238439920681,-113.92862066537327,0,DB
2025-07-25 12:07:41.446,0.000284497887582,-119.4773162862922,0,DB
2025-07-25 12:07:41.454,0.0003417961672456,-125.34393449805889,0,DB
2025-07-25 12:07:41.461,0.0003939634671746,-131.56711820035392,0,DB
2025-07-25 12:07:41.469,0.0004393535981854,-138.1716675926487,0,DB
2025-07-25 12:07:41.477,0.0004765004993302,-145.16609097654123,0,DB
2025-07-25 12:07:41.485,0.0005041618231737,-152.5407342910829,0,DB
2025-07-25 12:07:41.493,0.0005213547920894,-160.26658279288236,0,DB
2025-07-25 12:07:41.500,0.0005273843663689,-168.29480018878405,0,DB
2025-07-25 12:07:41.508,0.0005218638218161,-176.5570391090292,0,DB
2025-07-25 12:07:41.516,0.0005047276322581,-184.96652351154623,0,DB
2025-07-25 12:07:41.524,0.0004762362628092,-193.41986998524067,0,DB
2025-07-25 12:07:41.532,0.0004369722357526,-201.7995825602162,0,DB
2025-07-25 12:07:41.540,0.0003878266945344,-209.97712608620947,0,DB
2025-07-25 12:07:41.547,0.0003299756938933,-217.81645795118544,0,DB
2025-07-25 12:07:41.555,0.0002648456330169,-225.1778781500733,0,DB
2025-07-25 12:07:41.563,0.0001940677013563,-231.9220445077638,0,DB
2025-07-25 12:07:41.571,0.0001194219631014,-237.91399393775453,0,DB
2025-07-25 12:07:41.579,4.277266969962551e-05,-243.02701235575427,0,DB
2025-07-25 12:07:41.586,-3.400265355734554e-05,-247.14620525808533,0,DB
2025-07-25 12:07:41.594,-0.0001090870613212,-250.1716375981705,0,DB
2025-07-25 12:07:41.602,-0.0001807973039188,-252.02093460672265,0,DB
2025-07-25 12:07:41.610,-0.0002476525029693,-252.63126333929935,0,DB
2025-07-25 12:07:41.618,-0.0003084349561568,-251.96064634053283,0,DB
2025-07-25 12:07:41.625,-0.0003622401135683,-249.9885918835973,0,DB
2025-07-25 12:07:41.633,-0.0004085133720135,-246.7160575316985,0,DB
2025-07-25 12:07:41.641,-0.000447071979341,-242.16479301102788,0,DB
2025-07-25 12:07:41.649,-0.000478110966272,-236.37613264420168,0,DB
2025-07-25 12:07:41.657,-0.0005021926876146,-229.4093255968276,0,DB
2025-07-25 12:07:41.665,-0.0005202203324363,-221.33950345098137,0,DB
2025-07-25 12:07:41.672,-0.00053339656341,-212.2553893001476,0,DB
2025-07-25 12:07:41.680,-0.0005431690915333,-202.25685124137425,0,DB
2025-07-25 12:07:41.688,-0.0005511654453419,-191.45239665949572,0,DB
2025-07-25 12:07:41.696,-0.0005591195605733,-179.95669306800218,0,DB
2025-07-25 12:07:41.704,-0.0005687931621904,-167.88818762162109,0,DB
2025-07-25 12:07:41.711,-0.0005818951864175,-155.3668819291802,0,DB
2025-07-25 12:07:41.719,-0.0006000026195632,-142.51230263412015,0,DB
2025-07-25 12:07:41.727,-0.0006244860765431,-129.4416924691534,0,DB
2025-07-25 12:07:41.735,-0.0006564431995886,-116.26843206531956,0,DB
2025-07-25 12:07:41.743,-0.0006966425305802,-103.1006904595562,0,DB
2025-07-25 12:07:41.750,-0.0007454799124618,-90.04029254920768,0,DB
2025-07-25 12:07:41.758,-0.0008029487563161,-77.18178501421883,0,DB
2025-07-25 12:07:41.766,-0.0008686247934707,-64.61167856502922,0,DB
2025-07-25 12:07:41.774,-0.0009416653804982,-52.40784364679864,0,DB
2025-07-25 12:07:41.782,-0.0010208231208054,-40.63903859844234,0,DB
2025-07-25 12:07:41.790,-0.0011044734312556,-29.36455320085305,0,DB
2025-07-25 12:07:41.797,-0.0011906555561501,-18.633955867048527,0,DB
2025-07-25 12:07:41.805,-0.0012771262976599,-8.486938626700084,0,DB
2025-07-25 12:07:41.813,-0.0013614253505511,1.046740301076503,0,DB
2025-07-25 12:07:41.821,-0.0014409506042317,9.947211926609226,0,DB
2025-07-25 12:07:41.829,-0.0015130411567914,18.204342409194297,0,DB
2025-07-25 12:07:41.836,-0.0015750652001974,25.81746071421084,0,DB
2025-07-25 12:07:41.844,-0.0016245095544834,32.79495973933617,0,DB
2025-07-25 12:07:41.852,-0.0016590675435185,39.153764684630765,0,DB
2025-07-25 12:07:41.860,-0.001676722049744,44.91866572669526,0,DB
2025-07-25 12:07:41.868,-0.0016758208138754,50.121516253349846,0,DB
2025-07-25 12:07:41.875,-0.0016551412552948,54.800302695908606,0,DB
2025-07-25 12:07:41.883,-0.0016139422564894,58.99809704998134,0,DB
2025-07-25 12:07:41.891,-0.0015520005266081,62.76190821260583,0,DB
2025-07-25 12:07:41.899,-0.0014696294589928,66.14145302208841,0,DB
2025-07-25 12:07:41.907,-0.0013676789895783,69.18787214473909,0,DB
2025-07-25 12:07:41.915,-0.001247515921196,71.95241953487762,0,DB
2025-07-25 12:07:41.922,-0.0011109853808821,74.48515697773972,0,DB
2025-07-25 12:07:41.930,-0.0009603552465449,76.83368713208667,0,DB
2025-07-25 12:07:41.938,-0.0007982462445902,79.04195947537767,0,DB
2025-07-25 12:07:41.946,-0.0006275508917089,81.1491835914536,0,DB
2025-07-25 12:07:41.954,-0.0004513446748804,83.1888833082699,0,DB
2025-07-25 12:07:41.961,-0.0002727930311249,85.1881232715198,0,DB
2025-07-25 12:07:41.969,-9.505781018807416e-05,87.16693660691676,0,DB
2025-07-25 12:07:41.977,7.879319841031327e-05,89.13797835937879,0,DB
2025-07-25 12:07:41.985,0.0002458705213639,91.10642439289376,0,DB
2025-07-25 12:07:41.993,0.0004035385086973,93.07012940264356,0,DB
2025-07-25 12:07:42.000,0.0005494801323562,95.02005067304688,0,DB
2025-07-25 12:07:42.008,0.000681749518839,96.94093629701732,0,DB
2025-07-25 12:07:42.016,0.0007988109296637,98.81226789885518,0,DB
2025-07-25 12:07:42.024,0.0008995631555408,100.6094386967548,0,DB
2025-07-25 12:07:42.032,0.0009833486652348,102.30513829986596,0,DB
2025-07-25 12:07:42.040,0.0010499474716682,103.87090632472209,0,DB
2025-07-25 12:07:42.047,0.0010995565109289,105.2788081470174,0,DB
2025-07-25 12:07:42.055,0.0011327561389719,106.50317830672071,0,DB
2025-07-25 12:07:42.063,0.001150465901526,107.52237068122028,0,DB
2025-07-25 12:07:42.071,0.0011538919933388,108.32044992976166,0,DB
2025-07-25 12:07:42.079,0.0011444689167717,108.88875624678484,0,DB
2025-07-25 12:07:42.086,0.0011237978889853,109.22727543759402,0,DB
2025-07-25 12:07:42.094,0.0010935845470365,109.34574896742942,0,DB
2025-07-25 12:07:42.102,0.0010555783791836,109.26446406021672,0,DB
2025-07-25 12:07:42.110,0.0010115159726931,109.01467215010489,0,DB
2025-07-25 12:07:42.118,0.0009630696629948,108.63859490836568,0,DB
2025-07-25 12:07:42.125,0.0009118027106529,108.18899044488984,0,DB
2025-07-25 12:07:42.133,0.0008591318618228,107.72826775930191,0,DB
2025-07-25 12:07:42.141,0.0008062979595407,107.3271546165023,0,DB
2025-07-25 12:07:42.149,0.0007543449873157,107.06294215594752,0,DB
2025-07-25 12:07:42.157,0.0007041075261493,107.01734800953678,0,DB
2025-07-25 12:07:42.165,0.0006562062170214,107.27405767753407,0,DB
2025-07-25 12:07:42.172,0.0006110505512193,107.91602045664642,0,DB
2025-07-25 12:07:42.180,0.0005688481721995,109.02259031811352,0,DB
2025-07-25 12:07:42.188,0.0005296198012037,110.666612831468,0,DB
2025-07-25 12:07:42.196,0.000493218844191,112.9115657544938,0,DB
2025-07-25 12:07:42.204,0.0004593547346496,115.80886279229898,0,DB
2025-07-25 12:07:42.211,0.000427619154001,119.39542710621885,0,DB
2025-07-25 12:07:42.219,0.0003975143659949,123.69163352720618,0,DB
2025-07-25 12:07:42.227,0.0003684828784505,128.69970641209886,0,DB
2025-07-25 12:07:42.235,0.0003399375084144,134.40264416944336,0,DB
2025-07-25 12:07:42.243,0.0003112907967182,140.76372233303778,0,DB
2025-07-25 12:07:42.250,0.0002819827010236,147.72660547767006,0,DB
2025-07-25 12:07:42.258,0.0002515056308434,155.2160751608344,0,DB
2025-07-25 12:07:42.266,0.0002194261693018,163.13935740809433,0,DB
2025-07-25 12:07:42.274,0.0001854032076359,171.38801003835917,0,DB
2025-07-25 12:07:42.282,0.0001492025798197,179.84030835017825,0,DB
2025-07-25 12:07:42.290,0.0001107084648043,188.3640483326465,0,DB
2025-07-25 12:07:42.297,6.993174393792246e-05,196.81967052382691,0,DB
2025-07-25 12:07:42.305,2.7015243096243213e-05,205.0635956925572,0,DB
2025-07-25 12:07:42.313,-1.7764482865846338e-05,212.9516562679241,0,DB
2025-07-25 12:07:42.321,-6.399932954704344e-05,220.3425052630506,0,DB
2025-07-25 12:07:42.329,-0.0001111563001298,227.10088745635497,0,DB
2025-07-25 12:07:42.336,-0.0001585889956143,233.10066565055297,0,DB
2025-07-25 12:07:42.344,-0.0002055539766496,238.22750750679305,0,DB
2025-07-25 12:07:42.352,-0.0002512316062402,242.38115509005397,0,DB
2025-07-25 12:07:42.360,-0.0002947505619239,245.47721901226603,0,DB
2025-07-25 12:07:42.368,-0.0003352149580549,247.44846093095617,0,DB
2025-07-25 12:07:42.375,-0.0003717330268165,248.2455510671332,0,DB
2025-07-25 12:07:42.383,-0.0004034464946241,247.8373101996127,0,DB
2025-07-25 12:07:42.391,-0.0004295600017766,246.21046709713764,0,DB
2025-07-25 12:07:42.399,-0.000449370033889,243.3689813909319,0,DB
2025-07-25 12:07:42.407,-0.0004622928246026,239.33299734014972,0,DB
2025-07-25 12:07:42.415,-0.0004678905495216,234.1375047849861,0,DB
2025-07-25 12:07:42.422,-0.0004658948774162,227.83078904943096,0,DB
2025-07-25 12:07:42.430,-0.0004562266303603,220.47275134589395,0,DB
2025-07-25 12:07:42.438,-0.0004390100567267,212.13317569761904,0,DB
2025-07-25 12:07:42.446,-0.0004145802082525,202.8900085139444,0,DB
2025-07-25 12:07:42.454,-0.000383482219723,192.827704090052,0,DB
2025-07-25 12:07:42.461,-0.0003464618401309,182.03567489148676,0,DB
2025-07-25 12:07:42.469,-0.0003044471961742,170.60687083003697,0,DB
2025-07-25 12:07:42.477,-0.0002585223610922,158.63649793620175,0,DB
2025-07-25 12:07:42.485,-0.0002098938034467,146.2208747483601,0,DB
2025-07-25 12:07:42.493,-0.0001598511856992,133.45641500426433,0,DB
2025-07-25 12:07:42.500,-0.0001097242637306,120.43871824494153,0,DB
2025-07-25 12:07:42.508,-6.083780093790061e-05,107.26174590896228,0,DB
2025-07-25 12:07:42.516,-1.4466452125094625e-05,94.01705937637011,0,DB
2025-07-25 12:07:42.524,2.8208506457186388e-05,80.79309799748214,0,DB
2025-07-25 12:07:42.532,6.613892081672285e-05,67.67447904327368,0,DB
2025-07-25 12:07:42.540,9.844459932713924e-05,54.74130726260763,0,DB
2025-07-25 12:07:42.547,0.0001244422412535,42.06848877203529,0,DB
2025-07-25 12:07:42.555,0.0001436678033344,29.725051729411383,0,DB
2025-07-25 12:07:42.563,0.0001558919449961,17.77348401617024,0,DB
2025-07-25 12:07:42.571,0.000161128451665,6.269105329082702,0,DB
2025-07-25 12:07:42.579,0.0001596358045186,-4.740502972925824,0,DB
2025-07-25 12:07:42.586,0.0001519122679392,-15.215982803059449,0,DB
2025-07-25 12:07:42.594,0.0001386848867712,-25.126569814240657,0,DB
2025-07-25 12:07:42.602,0.0001208926385077,-34.45032103595454,0,DB
2025-07-25 12:07:42.610,9.96638039298894e-05,-43.17417492611536,0,DB
2025-07-25 12:07:42.618,7.62875214169303e-05,-51.29382515440346,0,DB
2025-07-25 12:07:42.625,5.217952471058015e-05,-58.81339742498097,0,DB
2025-07-25 12:07:42.633,2.884224267785265e-05,-65.74492786043261,0,DB
2025-07-25 12:07:42.641,7.819761799907316e-06,-72.10765116561637,0,DB
2025-07-25 12:07:42.649,-9.351395321128908e-06,-77.9271162672831,0,DB
2025-07-25 12:07:42.657,-2.119419112560757e-05,-83.23415576022691,0,DB
2025-07-25 12:07:42.665,-2.63437267408878e-05,-88.0637427659309,0,DB
2025-07-25 12:07:42.672,-2.3598395905130924e-05,-92.45377433026206,0,DB
2025-07-25 12:07:42.680,-1.1967348141574531e-05,-96.44382398947153,0,DB
2025-07-25 12:07:42.688,9.287654088844312e-06,-100.07390748758996,0,DB
2025-07-25 12:07:42.696,4.061754286903214e-05,-103.38330483141073,0,DB
2025-07-25 12:07:42.704,8.215964988456708e-05,-106.4094790433243,0,DB
2025-07-25 12:07:42.711,0.0001337207865014,-109.18712734858462,0,DB
2025-07-25 12:07:42.719,0.0001947704938029,-111.74739442801808,0,DB
2025-07-25 12:07:42.727,0.0002644451362379,-114.11727015112052,0,DB
2025-07-25 12:07:42.735,0.0003415634054506,-116.31918627802902,0,DB
2025-07-25 12:07:42.743,0.0004246535957946,-118.3708183855402,0,DB
2025-07-25 12:07:42.750,0.0005119925857671,-120.28509111422964,0,DB
2025-07-25 12:07:42.758,0.0006016558079433,-122.07037708976408,0,DB
2025-07-25 12:07:42.766,0.0006915767505424,-123.73087282276607,0,DB
2025-07-25 12:07:42.774,0.0007796138321749,-125.26712875587071,0,DB
2025-07-25 12:07:42.782,0.0008636218790063,-126.67670556202472,0,DB
2025-07-25 12:07:42.790,0.0009415249719351,-127.95492491188392,0,DB
2025-07-25 12:07:42.797,0.0010113872113941,-129.09568028566753,0,DB
2025-07-25 12:07:42.805,0.0010714780164659,-130.09227203600145,0,DB
2025-07-25 12:07:42.813,0.0011203288978194,-130.93823081132587,0,DB
2025-07-25 12:07:42.821,0.0011567791465554,-131.62809459133166,0,DB
2025-07-25 12:07:42.829,0.0011800085447216,-132.15810690080923,0,DB
2025-07-25 12:07:42.836,0.001189556054101,-132.52680715634753,0,DB
2025-07-25 12:07:42.844,0.0011853243969419,-132.73548843116234,0,DB
2025-07-25 12:07:42.852,0.0011675712878811,-132.78850304753712,0,DB
2025-07-25 12:07:42.860,0.0011368886515459,-132.69340216956348,0,DB
2025-07-25 12:07:42.868,0.0010941715048384,-132.46090181919934,0,DB
2025-07-25 12:07:42.875,0.0010405784413887,-132.10467432452012,0,DB
2025-07-25 12:07:42.883,0.0009774859053059,-131.6409709732554,0,DB
2025-07-25 12:07:42.891,0.0009064386185348,-131.08808842002088,0,DB
2025-07-25 12:07:42.899,0.0008290984929932,-130.46569800113184,0,DB
2025-07-25 12:07:42.907,0.0007471940531154,-129.7940633490008,0,DB
2025-07-25 12:07:42.915,0.0006624719129232,-129.0931773537594,0,DB
2025-07-25 12:07:42.922,0.0005766513703962,-128.38185435961407,0,DB
2025-07-25 12:07:42.930,0.0004913828316013,-127.67681725499288,0,DB
2025-07-25 12:07:42.938,0.0004082106062106,-126.99182154491253,0,DB
2025-07-25 12:07:42.946,0.0003285405996696,-126.33685928338195,0,DB
2025-07-25 12:07:42.954,0.00025361345729,-125.71748458295204,0,DB
2025-07-25 12:07:42.961,0.0001844836373925,-125.13429904371688,0,DB
2025-07-25 12:07:42.969,0.0001220046275768,-124.58262974702484,0,DB
2025-07-25 12:07:42.977,6.682014964501009e-05,-124.05242458643852,0,DB
2025-07-25 12:07:42.985,1.936088218949292e-05,-123.52838007258896,0,DB
2025-07-25 12:07:42.993,-2.015392287298338e-05,-122.99030594710216,0,DB
2025-07-25 12:07:43.000,-5.171051289453368e-05,-122.41371964484232,0,DB
2025-07-25 12:07:43.008,-7.549078797886594e-05,-121.77065250907776,0,DB
2025-07-25 12:07:43.016,-9.185870907393988e-05,-121.03063927985704,0,DB
2025-07-25 12:07:43.024,-0.0001013430574974,-120.16185324331714,0,DB
2025-07-25 12:07:43.032,-0.0001046167940352,-119.13234195943129,0,DB
2025-07-25 12:07:43.040,-0.0001024735728318,-117.91131299919228,0,DB
2025-07-25 12:07:43.047,-9.580227391498324e-05,-116.47041585207916,0,DB
2025-07-25 12:07:43.055,-8.556061622601902e-05,-114.78496525495606,0,DB
2025-07-25 12:07:43.063,-7.274896145516912e-05,-112.83505269980608,0,DB
2025-07-25 12:07:43.071,-5.838531567408957e-05,-110.60649676555178,0,DB
2025-07-25 12:07:43.079,-4.348228868432683e-05,-108.09158906414422,0,DB
2025-07-25 12:07:43.086,-2.90263978446192e-05,-105.28960078108229,0,DB
2025-07-25 12:07:43.094,-1.595965757355231e-05,-102.20702472871194,0,DB
2025-07-25 12:07:43.102,-5.163002973105912e-06,-98.85753913513588,0,DB
2025-07-25 12:07:43.110,2.5590787023833847e-06,-95.26169159501303,0,DB
2025-07-25 12:07:43.118,6.493210870041008e-06,-91.44631416422504,0,DB
2025-07-25 12:07:43.125,6.0312456255017575e-06,-87.44369287930293,0,DB
2025-07-25 12:07:43.133,6.836054469596458e-07,-83.29052638311197,0,DB
2025-07-25 12:07:43.141,-9.908700695577589e-06,-79.02671820849599,0,DB
2025-07-25 12:07:43.149,-2.5964125639418195e-05,-74.6940550386135,0,DB
2025-07-25 12:07:43.157,-4.755347957208109e-05,-70.33482846184248,0,DB
2025-07-25 12:07:43.165,-7.45963473108268e-05,-65.99046005109636,0,DB
2025-07-25 12:07:43.172,-0.0001068614449494,-61.70018887080957,0,DB
2025-07-25 12:07:43.180,-0.0001439709695208,-57.49987677836726,0,DB
2025-07-25 12:07:43.188,-0.0001854086393352,-53.42098035438935,0,DB
2025-07-25 12:07:43.196,-0.0002305309323849,-49.48972936067656,0,DB
2025-07-25 12:07:43.204,-0.0002785810820171,-45.72654083013118,0,DB
2025-07-25 12:07:43.211,-0.0003287056000327,-42.14568588994476,0,DB
2025-07-25 12:07:43.219,-0.0003799733037607,-38.75521391135456,0,DB
2025-07-25 12:07:43.227,-0.000431396905535,-35.557126272763625,0,DB
2025-07-25 12:07:43.235,-0.0004819571357925,-32.54778058167422,0,DB
2025-07-25 12:07:43.243,-0.0005306291151713,-29.718496206047103,0,DB
2025-07-25 12:07:43.250,-0.000576410312092,-27.05632388728367,0,DB
2025-07-25 12:07:43.258,-0.0006183490416042,-24.54493638667748,0,DB
2025-07-25 12:07:43.266,-0.0006555722442442,-22.16559376020909,0,DB
2025-07-25 12:07:43.274,-0.0006873113155846,-19.89813602696143,0,DB
2025-07-25 12:07:43.282,-0.0007129249647916,-17.721957613059274,0,DB
2025-07-25 12:07:43.290,-0.0007319183099713,-15.616921792632995,0,DB
2025-07-25 12:07:43.297,-0.0007439575642725,-13.564179061479722,0,DB
2025-07-25 12:07:43.305,-0.0007488797255237,-11.546860524298546,0,DB
2025-07-25 12:07:43.313,-0.0007466967290946,-9.550625451003103,0,DB
2025-07-25 12:07:43.321,-0.000737593646126,-7.564050642331218,0,DB
2025-07-25 12:07:43.329,-0.000721920744058,-5.578857643049735,0,DB
2025-07-25 12:07:43.336,-0.0007001795686143,-3.589981712508684,0,DB
2025-07-25 12:07:43.344,-0.0006730036201692,-1.5954934459218186,0,DB
2025-07-25 12:07:43.352,-0.0006411345739933,0.4036102379211744,0,DB
2025-07-25 12:07:43.360,-0.000605395203931,2.4037245510931102,0,DB
2025-07-25 12:07:43.368,-0.0005666602123553,4.3990405115903926,0,DB
2025-07-25 12:07:43.375,-0.000525826168995,6.382008047317961,0,DB
2025-07-25 12:07:43.383,-0.0004837817928019,8.343832561739978,0,DB
2025-07-25 12:07:43.391,-0.0004413798344586,10.274980079066625,0,DB
2025-07-25 12:07:43.399,-0.0003994117645013,12.165668245085126,0,DB
2025-07-25 12:07:43.407,-0.000358586319866,14.006323465476694,0,DB
2025-07-25 12:07:43.415,-0.0003195127426282,15.787988069442235,0,DB
2025-07-25 12:07:43.422,-0.0002826893357188,17.502665341267935,0,DB
2025-07-25 12:07:43.430,-0.0002484978099376,19.143594325796887,0,DB
2025-07-25 12:07:43.438,-0.0002172037318259,20.705450267361627,0,DB
2025-07-25 12:07:43.446,-0.0001889630600924,22.184470198177937,0,DB
2025-07-25 12:07:43.454,-0.0001638342494466,23.578506403444827,0,DB
2025-07-25 12:07:43.461,-0.0001417948645685,24.88701315380656,0,DB
2025-07-25 12:07:43.469,-0.0001227612872582,26.11097415662839,0,DB
2025-07-25 12:07:43.477,-0.0001066099635312,27.25277962771905,0,DB
2025-07-25 12:07:43.485,-9.319861317117804e-05,28.316062757081895,0,DB
2025-07-25 12:07:43.493,-8.238583458298793e-05,29.30550569579538,0,DB
2025-07-25 12:07:43.500,-7.404762291886099e-05,30.226625099514816,0,DB
2025-07-25 12:07:43.508,-6.808951760472913e-05,31.08554680655358,0,DB
2025-07-25 12:07:43.516,-6.445338230623267e-05,31.8887784868662,0,DB
2025-07-25 12:07:43.524,-6.311819054463868e-05,32.64298815120546,0,DB
2025-07-25 12:07:43.532,-6.409467837503881e-05,33.35479532631562,0,DB
2025-07-25 12:07:43.540,-6.741433543826697e-05,34.03058054087773,0,DB
2025-07-25 12:07:43.547,-7.311387719841777e-05,34.67631757919453,0,DB
2025-07-25 12:07:43.555,-8.121694170681175e-05,35.29743178908048,0,DB
2025-07-25 12:07:43.563,-9.171508364430083e-05,35.89868661145303,0,DB
2025-07-25 12:07:43.571,-0.0001045500653515,36.48409945738279,0,DB
2025-07-25 12:07:43.579,-0.0001195990778651,37.05688711418546,0,DB
2025-07-25 12:07:43.586,-0.0001366641395312,37.61944003177411,0,DB
2025-07-25 12:07:43.594,-0.0001554666722405,38.1733241331962,0,DB
2025-07-25 12:07:43.602,-0.000175648044051,38.719308207250776,0,DB
2025-07-25 12:07:43.610,-0.0001967765078724,39.25741446333312,0,DB
2025-07-25 12:07:43.618,-0.0002183604360565,39.786989439999,0,DB
2025-07-25 12:07:43.625,-0.0002398671789112,40.30679213978012,0,DB
2025-07-25 12:07:43.633,-0.0002607463545967,40.81509599732363,0,DB
2025-07-25 12:07:43.641,-0.000280455920123,41.3098010644386,0,DB
2025-07-25 12:07:43.649,-0.0002984890313307,41.7885526093205,0,DB
2025-07-25 12:07:43.657,-0.0003143996041326,42.24886218306256,0,DB
2025-07-25 12:07:43.665,-0.000327824713773,42.688227120320825,0,DB
2025-07-25 12:07:43.672,-0.0003385024313401,43.10424443576104,0,DB
2025-07-25 12:07:43.680,-0.000346284232053,43.49471517784036,0,DB
2025-07-25 12:07:43.688,-0.000351141593982,43.85773552658523,0,DB
2025-07-25 12:07:43.696,-0.0003531667874537,44.19177128448386,0,DB
2025-07-25 12:07:43.704,-0.0003525681252178,44.49571291014957,0,DB
2025-07-25 12:07:43.711,-0.0003496601290095,44.768908871142266,0,DB
2025-07-25 12:07:43.719,-0.0003448492377674,45.01117582484007,0,DB
2025-07-25 12:07:43.727,-0.0003386158781935,45.2227849516022,0,DB
2025-07-25 12:07:43.735,-0.0003314938671202,45.404424639915305,0,DB
2025-07-25 12:07:43.743,-0.000324048097642,45.55714063581164,0,DB
2025-07-25 12:07:43.750,-0.0003168512813131,45.68225569533151,0,DB
2025-07-25 12:07:43.758,-0.0003104603099441,45.781271695256855,0,DB
2025-07-25 12:07:43.766,-0.0003053926745189,45.855758034285,0,DB
2025-07-25 12:07:43.774,-0.0003021033735343,45.90723095146703,0,DB
2025-07-25 12:07:43.782,-0.0003009628642906,45.93702904461176,0,DB
2025-07-25 12:07:43.790,-0.0003022368206473,45.94619072946229,0,DB
2025-07-25 12:07:43.797,-0.0003060686692577,45.93533959282803,0,DB
2025-07-25 12:07:43.805,-0.0003124659976553,45.90458352900095,0,DB
2025-07-25 12:07:43.813,-0.0003212919216605,45.85343319585478,0,DB
2025-07-25 12:07:43.821,-0.0003322623573532,45.78074468883955,0,DB
2025-07-25 12:07:43.829,-0.0003449498653041,45.68469042824408,0,DB
2025-07-25 12:07:43.836,-0.0003587943277588,45.562761125809885,0,DB
2025-07-25 12:07:43.844,-0.0003731201991521,45.411800395011845,0,DB
2025-07-25 12:07:43.852,-0.0003871594896643,45.22807215683464,0,DB
2025-07-25 12:07:43.860,-0.0004000791261352,45.00735952852023,0,DB
2025-07-25 12:07:43.868,-0.0004110110514039,44.74509241867733,0,DB
2025-07-25 12:07:43.875,-0.0004190834558976,44.4364996406194,0,DB
2025-07-25 12:07:43.883,-0.0004234518066398,44.07678005884523,0,DB
2025-07-25 12:07:43.891,-0.0004233286883772,43.66128617456672,0,DB
2025-07-25 12:07:43.899,-0.0004180117800979,43.185712712114174,0,DB
2025-07-25 12:07:43.907,-0.0004069095113413,42.64628225890665,0,DB
2025-07-25 12:07:43.915,-0.0003895640667073,42.039919891412325,0,DB
2025-07-25 12:07:43.922,-0.0003656714343063,41.36440901909507,0,DB
2025-07-25 12:07:43.930,-0.0003350981296515,40.618521401694416,0,DB
2025-07-25 12:07:43.938,-0.0002978940800854,39.80211541804248,0,DB
2025-07-25 12:07:43.946,-0.0002543009448893,38.91619813403145,0,DB
2025-07-25 12:07:43.954,-0.0002047549266671,37.96294845144358,0,DB
2025-07-25 12:07:43.961,-0.0001498830249691,36.94570050994727,0,DB
2025-07-25 12:07:43.969,-9.049185678092328e-05,35.86888843541194,0,DB
2025-07-25 12:07:43.977,-2.7548692585675067e-05,34.737955348720405,0,DB
2025-07-25 12:07:43.985,3.784489293523094e-05,33.559231152596915,0,DB
2025-07-25 12:07:43.993,0.0001044856528661,32.339784905970994,0,DB
2025-07-25 12:07:44.000,0.0001711060629334,31.08725851133975,0,DB
2025-07-25 12:07:44.008,0.0002364148443586,29.809688943642165,0,DB
2025-07-25 12:07:44.016,0.0002991389515482,28.51532632772559,0,DB
2025-07-25 12:07:44.024,0.0003580652307076,27.212454839856942,0,DB
2025-07-25 12:07:44.032,0.0004120797962189,25.909222711708217,0,DB
2025-07-25 12:07:44.040,0.0004602032222154,24.61348662907716,0,DB
2025-07-25 12:07:44.047,0.0005016200106674,23.332674639869456,0,DB
2025-07-25 12:07:44.055,0.0005357013475918,22.073670418904804,0,DB
2025-07-25 12:07:44.063,0.0005620207042181,20.84272047563071,0,DB
2025-07-25 12:07:44.071,0.0005803622599456,19.64536471695328,0,DB
2025-07-25 12:07:44.079,0.000590722374269,18.486389757957767,0,DB
2025-07-25 12:07:44.086,0.0005933044428318,17.36980355519972,0,DB
2025-07-25 12:07:44.094,0.0005885075252589,16.29882934263769,0,DB
2025-07-25 12:07:44.102,0.0005769092131505,15.275916475655384,0,DB
2025-07-25 12:07:44.110,0.0005592433550315,14.302765610029049,0,DB
2025-07-25 12:07:44.118,0.0005363734752642,13.380365625350883,0,DB
2025-07-25 12:07:44.125,0.000509262984266,12.509039809970709,0,DB
2025-07-25 12:07:44.133,0.0004789435006793,11.68849902311711,0,DB
2025-07-25 12:07:44.141,0.0004464827100976,10.917899806914008,0,DB
2025-07-25 12:07:44.149,0.0004129531388211,10.195905702973931,0,DB
2025-07-25 12:07:44.157,0.0003794030306799,9.52075030112132,0,DB
2025-07-25 12:07:44.165,0.0003468301901655,8.890300780552414,0,DB
2025-07-25 12:07:44.172,0.0003161592418365,8.302120873988704,0,DB
2025-07-25 12:07:44.180,0.0002882223505436,7.753532286533754,0,DB
2025-07-25 12:07:44.188,0.0002637431389836,7.241673647028096,0,DB
2025-07-25 12:07:44.196,0.0002433233702815,6.763556092664644,0,DB
2025-07-25 12:07:44.204,0.0002274319426121,6.316114627495136,0,DB
2025-07-25 12:07:44.211,0.0002163958674152,5.896254489935715,0,DB
2025-07-25 12:07:44.219,0.0002103931581907,5.500891942248611,0,DB
2025-07-25 12:07:44.227,0.0002094478910581,5.126989171061877,0,DB
2025-07-25 12:07:44.235,0.0002134279912885,4.771583357545638,0,DB
2025-07-25 12:07:44.243,0.0002220464170337,4.431810410744259,0,DB
2025-07-25 12:07:44.250,0.0002348663368876,4.1049243074147554,0,DB
2025-07-25 12:07:44.258,0.0002513107467195,3.7883133812483663,0,DB
2025-07-25 12:07:44.266,0.0002706768183329,3.479515185680483,0,DB
2025-07-25 12:07:44.274,0.0002921550748553,3.1762316614929635,0,DB
2025-07-25 12:07:44.282,0.0003148532096199,2.876346240528102,0,DB
2025-07-25 12:07:44.290,0.0003378240549905,2.5779442068658027,0,DB
2025-07-25 12:07:44.297,0.0003600969100529,2.279337141995354,0,DB
2025-07-25 12:07:44.305,0.000380711121665,1.9790916493593385,0,DB
2025-07-25 12:07:44.313,0.0003987504542415,1.676061850725214,0,DB
2025-07-25 12:07:44.321,0.0004133764679521,1.369424443629498,0,DB
2025-07-25 12:07:44.329,0.0004238590158776,1.0587144746465376,0,DB
2025-07-25 12:07:44.336,0.0004296021497522,0.7438594766919931,0,DB
2025-07-25 12:07:44.344,0.0004301641398502,0.4252092832434857,0,DB
2025-07-25 12:07:44.352,0.0004252708545686,0.1035586896910464,0,DB
2025-07-25 12:07:44.360,0.0004148222875901,-0.2198398198689705,0,DB
2025-07-25 12:07:44.368,0.0003988924657609,-0.5432758426832045,0,DB
2025-07-25 12:07:44.375,0.0003777232776171,-0.8645955237230547,0,DB
2025-07-25 12:07:44.383,0.0003517129273017,-1.18123244111304,0,DB
2025-07-25 12:07:44.391,0.0003213997433505,-1.4902560704381105,0,DB
2025-07-25 12:07:44.399,0.0002874419957572,-1.7884383643252075,0,DB
2025-07-25 12:07:44.407,0.0002505942887802,-2.072338322666957,0,DB
2025-07-25 12:07:44.415,0.0002116810863921,-2.338403750162969,0,DB
2025-07-25 12:07:44.422,0.0001715680306302,-2.5830887175989425,0,DB
2025-07-25 12:07:44.430,0.0001311319313034,-2.802984572501574,0,DB
2025-07-25 12:07:44.438,9.123059626691676e-05,-2.994961689669308,0,DB
2025-07-25 12:07:44.446,5.267391869749006e-05,-3.156318518511877,0,DB
2025-07-25 12:07:44.454,1.6197682798232218e-05,-3.2849338851823324,0,DB
2025-07-25 12:07:44.461,-1.755868489737276e-05,-3.3794179668706104,0,DB
2025-07-25 12:07:44.469,-4.806962219188303e-05,-3.4392569033711955,0,DB
2025-07-25 12:07:44.477,-7.493586230631403e-05,-3.4649456744322213,0,DB
2025-07-25 12:07:44.485,-9.789182917925988e-05,-3.458103668957701,0,DB
2025-07-25 12:07:44.493,-0.0001168082730178,-3.421567315186237,0,DB
2025-07-25 12:07:44.501,-0.000131690511751,-3.359454240230481,0,DB
2025-07-25 12:07:44.508,-0.0001426725943269,-3.2771936985939103,0,DB
2025-07-25 12:07:44.516,-0.0001500075578356,-3.181518474651192,0,DB
2025-07-25 12:07:44.524,-0.0001540538307509,-3.08041414984678,0,DB
2025-07-25 12:07:44.532,-0.0001552578941373,-2.983022557834159,0,DB
2025-07-25 12:07:44.540,-0.0001541335972046,-2.899497450764991,0,DB
2025-07-25 12:07:44.547,-0.0001512388818536,-2.840811873673763,0,DB
2025-07-25 12:07:44.555,-0.0001471508998082,-2.81851847125932,0,DB
2025-07-25 12:07:44.563,-0.0001424405678659,-2.844465879830953,0,DB
2025-07-25 12:07:44.571,-0.0001376476145054,-2.9304764084189983,0,DB
2025-07-25 12:07:44.579,-0.0001332571955622,-3.087992297032584,0,DB
2025-07-25 12:07:44.586,-0.0001296791545334,-3.3276998665257365,0,DB
2025-07-25 12:07:44.594,-0.0001272309093791,-3.659142756275088,0,DB
2025-07-25 12:07:44.602,-0.0001261247645011,-4.090337094647932,0,DB
2025-07-25 12:07:44.610,-0.0001264602428904,-4.627402767883057,0,DB
2025-07-25 12:07:44.618,-0.000128221856788,-5.274225841474041,0,DB
2025-07-25 12:07:44.626,-0.0001312825188001,-6.032167534886883,0,DB
2025-07-25 12:07:44.633,-0.0001354124307201,-6.899834847069664,0,DB
2025-07-25 12:07:44.641,-0.0001402928163694,-7.872926879383828,0,DB
2025-07-25 12:07:44.649,-0.0001455334948734,-8.944169032723426,0,DB
2025-07-25 12:07:44.657,-0.0001506931773906,-10.10334453903154,0,DB
2025-07-25 12:07:44.665,-0.0001553014716416,-11.33742925810876,0,DB
2025-07-25 12:07:44.672,-0.0001588817432296,-12.630831438164169,0,DB
2025-07-25 12:07:44.680,-0.000160974095252,-13.965733395183316,0,DB
2025-07-25 12:07:44.688,-0.0001611577452539,-15.32252707959233,0,DB
2025-07-25 12:07:44.696,-0.0001590720005847,-16.68033058714715,0,DB
2025-07-25 12:07:44.704,-0.0001544348958887,-18.017568167610666,0,DB
2025-07-25 12:07:44.711,-0.0001470584421934,-19.312592504575825,0,DB
2025-07-25 12:07:44.719,-0.000136859433537,-20.54432525496559,0,DB
2025-07-25 12:07:44.727,-0.0001238649002383,-21.69289025752546,0,DB
2025-07-25 12:07:44.735,-0.0001082115864724,-22.740213577962788,0,DB
2025-07-25 12:07:44.743,-9.013925732947458e-05,-23.67056569559619,0,DB
2025-07-25 12:07:44.751,-6.997816328869053e-05,-24.47102359706326,0,DB
2025-07-25 12:07:44.758,-4.813151225875493e-05,-25.131834177384786,0,DB
2025-07-25 12:07:44.766,-2.5054230377008148e-05,-25.64666492718956,0,DB
2025-07-25 12:07:44.774,-1.2295877791757408e-06,-26.01273311820346,0,DB
2025-07-25 12:07:44.782,2.2854589038045477e-05,-26.2308102665056,0,DB
2025-07-25 12:07:44.790,4.672840436983965e-05,-26.305104228308384,0,DB
2025-07-25 12:07:44.797,6.995952576148415e-05,-26.243026556864407,0,DB
2025-07-25 12:07:44.805,9.216871335714696e-05,-26.05485744856178,0,DB
2025-07-25 12:07:44.813,0.0001130404392835,-25.75332451084756,0,DB
2025-07-25 12:07:44.821,0.000132328347517,-25.353114536393893,0,DB
2025-07-25 12:07:44.829,0.0001498559217217,-24.870339373739835,0,DB
2025-07-25 12:07:44.836,0.0001655132776503,-24.32197781425704,0,DB
2025-07-25 12:07:44.844,0.0001792513100343,-23.72531519914024,0,DB
2025-07-25 12:07:44.852,0.0001910744178405,-23.097401274936104,0,DB
2025-07-25 12:07:44.860,0.0002010327850921,-22.45454482611543,0,DB
2025-07-25 12:07:44.868,0.0002092148700003,-21.811860957882605,0,DB
2025-07-25 12:07:44.876,0.0002157404754435,-21.18288378163004,0,DB
2025-07-25 12:07:44.883,0.0002207545894366,-20.579253862079906,0,DB
2025-07-25 12:07:44.891,0.0002244221040794,-20.01048630030066,0,DB
2025-07-25 12:07:44.899,0.0002269235125515,-19.48382191313009,0,DB
2025-07-25 12:07:44.907,0.0002284516456564,-19.00416077113984,0,DB
2025-07-25 12:07:44.915,0.0002292093267292,-18.574074496386157,0,DB
2025-07-25 12:07:44.922,0.0002294075046235,-18.193891288810768,0,DB
2025-07-25 12:07:44.930,0.0002292631381108,-17.86184569839987,0,DB
2025-07-25 12:07:44.938,0.0002289960408014,-17.574283703934128,0,DB
2025-07-25 12:07:44.946,0.000228824132482,-17.32591268471954,0,DB
2025-07-25 12:07:44.954,0.0002289570296673,-17.110085346697453,0,DB
2025-07-25 12:07:44.961,0.0002295884824501,-16.919106545764283,0,DB
2025-07-25 12:07:44.969,0.0002308885903118,-16.744552191398363,0,DB
2025-07-25 12:07:44.977,0.000232996802638,-16.57758996403195,0,DB
2025-07-25 12:07:44.985,0.0002360164222502,-16.40929239023531,0,DB
2025-07-25 12:07:44.993,0.0002400109132673,-16.230933837977368,0,DB
2025-07-25 12:07:45.001,0.0002450020143438,-16.0342641636419,0,DB
2025-07-25 12:07:45.008,0.0002509695122907,-15.811753006255524,0,DB
2025-07-25 12:07:45.016,0.0002578524363706,-15.5568000302068,0,DB
2025-07-25 12:07:45.024,0.0002655513281782,-15.263907719880953,0,DB
2025-07-25 12:07:45.032,0.0002739311610302,-14.928814586602853,0,DB
2025-07-25 12:07:45.040,0.0002828244981022,-14.548587820405038,0,DB
2025-07-25 12:07:45.047,0.000292034594124,-14.121675471256513,0,DB
2025-07-25 12:07:45.055,0.0003013382811464,-13.64791915264006,0,DB
2025-07-25 12:07:45.063,0.0003104885862265,-13.128529017312989,0,DB
2025-07-25 12:07:45.071,0.0003192171519296,-12.566023369196463,0,DB
2025-07-25 12:07:45.079,0.0003272367290347,-11.964135765476035,0,DB
2025-07-25 12:07:45.086,0.0003342442718581,-11.32769285211251,0,DB
2025-07-25 12:07:45.094,0.0003399253782484,-10.662466488227274,0,DB
2025-07-25 12:07:45.102,0.0003439608202289,-9.975003975310184,0,DB
2025-07-25 12:07:45.110,0.0003460356323413,-9.27244043997692,0,DB
2025-07-25 12:07:45.118,0.0003458507491636,-8.562297643740001,0,DB
2025-07-25 12:07:45.126,0.0003431366803868,-7.852273723064209,0,DB
2025-07-25 12:07:45.133,0.0003376683088279,-7.150028602406732,0,DB
2025-07-25 12:07:45.141,0.0003292796482445,-6.462970064038403,0,DB
2025-07-25 12:07:45.149,0.0003178773152538,-5.7980456777656775,0,DB
2025-07-25 12:07:45.157,0.0003034515265639,-5.161545954546978,0,DB
2025-07-25 12:07:45.165,0.0002860835604394,-4.558924147921696,0,DB
2025-07-25 12:07:45.172,0.000265948776013,-3.994638047077886,0,DB
2025-07-25 12:07:45.180,0.0002433145341768,-3.4720188566790715,0,DB
2025-07-25 12:07:45.188,0.0002185328174065,-2.993171824818514,0,DB
2025-07-25 12:07:45.196,0.0001920279530416,-2.5589126541319427,0,DB
2025-07-25 12:07:45.204,0.0001642803614189,-2.168742910312263,0,DB
2025-07-25 12:07:45.211,0.0001358074468522,-1.8208666328185812,0,DB
2025-07-25 12:07:45.219,0.0001071426223563,-1.5122491732524344,0,DB
2025-07-25 12:07:45.227,7.881323133012666e-05,-1.238717970738914,0,DB
2025-07-25 12:07:45.235,5.1318037985087615e-05,-0.995103562962442,0,DB
2025-07-25 12:07:45.243,2.5105045937517053e-05,-0.7754176730378258,0,DB
2025-07-25 12:07:45.251,5.505502539416543e-07,-0.5730637578899129,0,DB
2025-07-25 12:07:45.258,-2.205957559161077e-05,-0.3810740115097439,0,DB
2025-07-25 12:07:45.266,-4.2545347124203744e-05,-0.1923655491793155,0,DB
2025-07-25 12:07:45.274,-6.084396540045308e-05,-7.421838482457588e-06,0,DB
2025-07-25 12:07:45.282,-7.701616509073571e-05,0.2025107093381258,0,DB
2025-07-25 12:07:45.290,-9.124696919975942e-05,0.4210179054945972,0,DB
2025-07-25 12:07:45.297,-0.0001038402847972,0.6604190859718453,0,DB
2025-07-25 12:07:45.305,-0.0001152068768909,0.9244795039253124,0,DB
2025-07-25 12:07:45.313,-0.0001258455297719,1.2156454529791738,0,DB
2025-07-25 12:07:45.321,-0.0001363177163826,1.534909082385412,0,DB
2025-07-25 12:07:45.329,-0.0001472167562042,1.8817238410402568,0,DB
2025-07-25 12:07:45.336,-0.0001591330789693,2.253975407244856,0,DB
2025-07-25 12:07:45.344,-0.000172617696153,2.648011042129273,0,DB
2025-07-25 12:07:45.352,-0.0001881462600989,3.058728192547183,0,DB
2025-07-25 12:07:45.360,-0.0002060861459243,3.479720934525147,0,DB
2025-07-25 12:07:45.368,-0.0002266688205758,3.903480570379247,0,DB
2025-07-25 12:07:45.376,-0.00024996937028,4.321644461497507,0,DB
2025-07-25 12:07:45.383,-0.0002758944584022,4.725285090930764,0,DB
2025-07-25 12:07:45.391,-0.0003041792357098,5.105229497026455,0,DB
2025-07-25 12:07:45.399,-0.0003343929543761,5.452397680609547,0,DB
2025-07-25 12:07:45.407,-0.0003659524192992,5.758147432445579,0,DB
2025-07-25 12:07:45.415,-0.0003981420433795,6.014612319115672,0,DB
2025-07-25 12:07:45.422,-0.0004301391225737,6.21501936408073,0,DB
2025-07-25 12:07:45.430,-0.0004610429373837,6.353973316635677,0,DB
2025-07-25 12:07:45.438,-0.0004899063840405,6.427695346735853,0,DB
2025-07-25 12:07:45.446,-0.0005157689969807,6.434205544389401,0,DB
2025-07-25 12:07:45.454,-0.0005376903617003,6.373440710286503,0,DB
2025-07-25 12:07:45.461,-0.000554782985599,6.247301531416859,0,DB
2025-07-25 12:07:45.469,-0.0005662437358423,6.059626232700186,0,DB
2025-07-25 12:07:45.477,-0.0005713830386674,5.816091037218492,0,DB
2025-07-25 12:07:45.485,-0.0005696511648514,5.524041078267968,0,DB
2025-07-25 12:07:45.493,-0.0005606610264385,5.192258593363896,0,DB
2025-07-25 12:07:45.501,-0.000544206913117,4.830678098041916,0,DB
2025-07-25 12:07:45.508,-0.0005202785101735,4.450060605303836,0,DB
2025-07-25 12:07:45.516,-0.0004890694451681,4.06164067992465,0,DB
2025-07-25 12:07:45.524,-0.0004509796005928,3.6767611037264873,0,DB
2025-07-25 12:07:45.532,-0.0004066105469207,3.3065101450044,0,DB
2025-07-25 12:07:45.540,-0.0003567536999512,2.9613758902921967,0,DB
2025-07-25 12:07:45.547,-0.0003023711884146,2.650930867312016,0,DB
2025-07-25 12:07:45.555,-0.0002445698950307,2.3835583558270743,0,DB
2025-07-25 12:07:45.563,-0.0001845696166298,2.166229471417264,0,DB
2025-07-25 12:07:45.571,-0.0001236666907753,2.004337465229766,0,DB
2025-07-25 12:07:45.579,-6.319471655067389e-05,1.9015928740849612,0,DB
2025-07-25 12:07:45.586,-4.484144738110538e-06,1.85998034439744,0,DB
2025-07-25 12:07:45.594,5.117747486663292e-05,1.879775295385325,0,DB
2025-07-25 12:07:45.602,0.0001025829229121,1.9596162191794844,0,DB
2025-07-25 12:07:45.610,0.0001486390023971,2.0966264460078072,0,DB
2025-07-25 12:07:45.618,0.0001883954480532,2.2865777002360965,0,DB
2025-07-25 12:07:45.626,0.0002210684476802,2.524086762701252,0,DB
2025-07-25 12:07:45.633,0.000246058566406,2.80283602357862,0,DB
2025-07-25 12:07:45.641,0.0002629630922839,3.115808618260958,0,DB
2025-07-25 12:07:45.649,0.0002715828742317,3.455529129718724,0,DB
2025-07-25 12:07:45.657,0.0002719237263003,3.814301447020673,0,DB
2025-07-25 12:07:45.665,0.0002641925104079,4.184436217856573,0,DB
2025-07-25 12:07:45.672,0.0002487880486558,4.558461351331658,0,DB
2025-07-25 12:07:45.680,0.0002262870272488,4.92931015368731,0,DB
2025-07-25 12:07:45.688,0.0001974250948184,5.290482864450524,0,DB
2025-07-25 12:07:45.696,0.000163073501163,5.6361785640765785,0,DB
2025-07-25 12:07:45.704,0.0001242118717306,5.961395611706609,0,DB
2025-07-25 12:07:45.711,8.189799757112741e-05,6.261999913193495,0,DB
2025-07-25 12:07:45.719,3.723575585883669e-05,6.53476139144558,0,DB
2025-07-25 12:07:45.727,-8.657572683272657e-06,6.777360014140704,0,DB
2025-07-25 12:07:45.735,-5.468325710376634e-05,6.988363608861376,0,DB
2025-07-25 12:07:45.743,-9.979103175210758e-05,7.167180442808269,0,DB
2025-07-25 12:07:45.751,-0.0001430057819217,7.313990145348779,0,DB
2025-07-25 12:07:45.758,-0.0001834500388029,7.429656993082833,0,DB
2025-07-25 12:07:45.766,-0.0002203617312495,7.515629851329506,0,DB
2025-07-25 12:07:45.774,-0.0002531072193299,7.573833172917805,0,DB
2025-07-25 12:07:45.782,-0.000281190180034,7.606553402923845,0,DB
2025-07-25 12:07:45.790,-0.0003042571491767,7.616324941412185,0,DB
2025-07-25 12:07:45.797,-0.0003221003663452,7.605819494699011,0,DB
2025-07-25 12:07:45.805,-0.0003346582210857,7.577742221370784,0,DB
2025-07-25 12:07:45.813,-0.0003420133030926,7.534737576820391,0,DB
2025-07-25 12:07:45.821,-0.0003443878987097,7.479307205749285,0,DB
2025-07-25 12:07:45.829,-0.0003421367198149,7.413741652848355,0,DB
2025-07-25 12:07:45.836,-0.0003357366536223,7.340067084002825,0,DB
2025-07-25 12:07:45.844,-0.0003257733138629,7.260007657957368,0,DB
2025-07-25 12:07:45.852,-0.0003129241131756,7.174963680211752,0,DB
2025-07-25 12:07:45.860,-0.0002979375520764,7.086005216254051,0,DB
2025-07-25 12:07:45.868,-0.0002816085883417,6.993880437307073,0,DB
2025-07-25 12:07:45.876,-0.0002647503750187,6.899037606246517,0,DB
2025-07-25 12:07:45.883,-0.0002481632483327,6.801659269154465,0,DB
2025-07-25 12:07:45.891,-0.0002326024118247,6.701706887832301,0,DB
2025-07-25 12:07:45.899,-0.0002187460980385,6.598973827732744,0,DB
2025-07-25 12:07:45.907,-0.0002071660336935,6.493144313352365,0,DB
2025-07-25 12:07:45.915,-0.0001983018990669,6.383855700150163,0,DB
2025-07-25 12:07:45.922,-0.0001924412786501,6.27076121581969,0,DB
2025-07-25 12:07:45.930,-0.0001897063468477,6.153590221646255,0,DB
2025-07-25 12:07:45.938,-0.0001900481817809,6.032203061714117,0,DB
2025-07-25 12:07:45.946,-0.0001932492029886,5.906637724170857,0,DB
2025-07-25 12:07:45.954,-0.0001989338422273,5.777145844763582,0,DB
2025-07-25 12:07:45.961,-0.0002065871405488,5.644216034079452,0,DB
2025-07-25 12:07:45.969,-0.000215580485751,5.508583087995463,0,DB
2025-07-25 12:07:45.977,-0.0002252032279568,5.371222315702294,0,DB
2025-07-25 12:07:45.985,-0.0002346985200192,5.233328949990312,0,DB
2025-07-25 12:07:45.993,-0.0002433014610858,5.096283338977429,0,DB
2025-07-25 12:07:46.001,-0.000250277493848,4.961603302728139,0,DB
