Timestamp,GSR_Filtered,PPG_Filtered
2025-03-06 15:14:00.635,2.6584703104419973e-05,-22.980517875880945
2025-03-06 15:14:00.643,3.226977081347554e-05,-23.016141100367605
2025-03-06 15:14:00.651,3.793812413426636e-05,-23.037957912793637
2025-03-06 15:14:00.659,4.34582608421667e-05,-23.04206205790141
2025-03-06 15:14:00.666,4.870020049798236e-05,-23.024632822032313
2025-03-06 15:14:00.674,5.3537598437972624e-05,-22.98201846036351
2025-03-06 15:14:00.682,5.7849824403682264e-05,-22.91081622410019
2025-03-06 15:14:00.690,6.152400672441123e-05,-22.80794746433346
2025-03-06 15:14:00.698,6.445702525764061e-05,-22.670726183811524
2025-03-06 15:14:00.706,6.65574139367761e-05,-22.496919329304816
2025-03-06 15:14:00.713,6.774710812444881e-05,-22.284797106995224
2025-03-06 15:14:00.721,6.796294463088629e-05,-22.03317170786844
2025-03-06 15:14:00.729,6.715779666181129e-05,-21.741423078900134
2025-03-06 15:14:00.737,6.530121373404533e-05,-21.409510766334527
2025-03-06 15:14:00.745,6.237946034459439e-05,-21.03797135939185
2025-03-06 15:14:00.752,5.8394920068352815e-05,-20.627901633309452
2025-03-06 15:14:00.760,5.3364929336100526e-05,-20.180928082272327
2025-03-06 15:14:00.768,4.7320179257344267e-05,-19.69916409531671
2025-03-06 15:14:00.776,4.030285002119177e-05,-19.185156515428883
2025-03-06 15:14:00.784,3.236463374921016e-05,-18.64182370270433
2025-03-06 15:14:00.791,2.3564780716092188e-05,-18.072387483057412
2025-03-06 15:14:00.799,1.3968282122580467e-05,-17.480301499564824
2025-03-06 15:14:00.807,3.64428341045626e-06,-16.869178490621316
2025-03-06 15:14:00.815,-7.3351930825174946e-06,-16.242718899602462
2025-03-06 15:14:00.823,-1.8896147326103004e-05,-15.604642988375549
2025-03-06 15:14:00.831,-3.0963057783631776e-05,-14.958628305769464
2025-03-06 15:14:00.838,-4.345882866232239e-05,-14.308253979130415
2025-03-06 15:14:00.846,-5.630416583724661e-05,-13.65695287863727
2025-03-06 15:14:00.854,-6.941634799900058e-05,-13.007972276932191
2025-03-06 15:14:00.862,-8.270742573687427e-05,-12.36434321854578
2025-03-06 15:14:00.870,-9.608196093379311e-05,-11.728858447521919
2025-03-06 15:14:00.877,-0.00010943447319100673,-11.104058428731044
2025-03-06 15:14:00.885,-0.00012264678698200546,-10.492224738675658
2025-03-06 15:14:00.893,-0.00013558550765949484,-9.895379893388537
2025-03-06 15:14:00.901,-0.00014809991453379064,-9.315292528548019
2025-03-06 15:14:00.909,-0.00016002061990655865,-8.753486758407721
2025-03-06 15:14:00.916,-0.00017115935948830874,-8.211254519284722
2025-03-06 15:14:00.924,-0.0001813102285423485,-7.689669744563118
2025-03-06 15:14:00.932,-0.0001902525807556579,-7.189603309969212
2025-03-06 15:14:00.940,-0.00019775570267638494,-6.711737820312881
2025-03-06 15:14:00.948,-0.00020358526956319462,-6.256581477886559
2025-03-06 15:14:00.956,-0.00020751144873718902,-5.824480478753206
2025-03-06 15:14:00.963,-0.0002093183383355329,-5.415629626624025
2025-03-06 15:14:00.971,-0.00020881425600876728,-5.030081128948945
2025-03-06 15:14:00.979,-0.0002058422751688622,-4.6677518270972795
2025-03-06 15:14:00.987,-0.0002002903615586819,-4.328429378132281
2025-03-06 15:14:00.995,-0.00019210047261886593,-4.011778109594741
2025-03-06 15:14:01.002,-0.00018127602555116062,-3.7173453786337314
2025-03-06 15:14:01.010,-0.00016788720845693664,-3.4445692666951193
2025-03-06 15:14:01.018,-0.00015207370137774323,-3.1927883311006595
2025-03-06 15:14:01.026,-0.00013404449042182781,-2.9612539293232385
2025-03-06 15:14:01.034,-0.00011407459766475974,-2.725472550708698
2025-03-06 15:14:01.041,-9.24987106027266e-05,-2.4840097849332134
2025-03-06 15:14:01.049,-6.970187354781098e-05,-2.2364320824365107
2025-03-06 15:14:01.057,-4.6107586421703736e-05,-1.9824043147846313
2025-03-06 15:14:01.065,-2.216381735312921e-05,-1.7217213435878764
2025-03-06 15:14:01.073,1.6724518608129822e-06,-1.454340107765742
2025-03-06 15:14:01.081,2.4951466119205854e-05,-1.1804104886881042
2025-03-06 15:14:01.088,4.7247008115016414e-05,-0.9003031128855378
2025-03-06 15:14:01.096,6.81720390906189e-05,-0.6146322721665672
2025-03-06 15:14:01.104,8.739291095864407e-05,-0.3242722705433523
2025-03-06 15:14:01.112,0.00010464140561395927,-0.03036573610113276
2025-03-06 15:14:01.120,0.00011972392809780915,0.2656772451342896
2025-03-06 15:14:01.127,0.0001325273170812947,0.5621899167296582
2025-03-06 15:14:01.135,0.00014302093482857197,0.8572698381833339
2025-03-06 15:14:01.143,0.00015125494523499585,1.148809837738994
2025-03-06 15:14:01.151,0.00015735494589093034,1.434538177486649
2025-03-06 15:14:01.159,0.00016151334316723127,1.7120666790367298
2025-03-06 15:14:01.166,0.00016397803175846273,1.978945120966758
2025-03-06 15:14:01.174,0.0001650390636721883,2.2327198764253255
2025-03-06 15:14:01.182,0.00016501405005901154,2.4709945421297292
2025-03-06 15:14:01.190,0.0001642330199549505,2.691490243024262
2025-03-06 15:14:01.198,0.00016302339184904498,2.892103387808204
2025-03-06 15:14:01.206,0.00016169564505491273,3.0709588823772025
2025-03-06 15:14:01.213,0.00016053023283886693,3.226457141173563
2025-03-06 15:14:01.221,0.0001597662487334519,3.357313620162039
2025-03-06 15:14:01.229,0.00015959231135825167,3.4625899826127795
2025-03-06 15:14:01.237,0.00016014004785968087,3.541716363173527
2025-03-06 15:14:01.245,0.00016148043368887638,3.594504491310482
2025-03-06 15:14:01.252,0.00016362310285462337,3.621151661709772
2025-03-06 15:14:01.260,0.00016651858967585135,3.6222357069834614
2025-03-06 15:14:01.268,0.00017006330740477096,3.598701265787997
2025-03-06 15:14:01.276,0.00017410692445223863,3.551837782180044
2025-03-06 15:14:01.284,0.0001784616899157843,3.483249846533256
2025-03-06 15:14:01.291,0.00018291320196583573,3.3948207034287243
2025-03-06 15:14:01.299,0.00018723208484298215,3.2886699948160345
2025-03-06 15:14:01.307,0.00019118600679520498,3.1671070471344493
2025-03-06 15:14:01.315,0.00019455143272943933,3.032581211179153
2025-03-06 15:14:01.323,0.0001971244986339805,2.8876308883839665
2025-03-06 15:14:01.331,0.0001987304415615639,2.734832902659246
2025-03-06 15:14:01.338,0.00019923110504449637,2.5767537946456347
2025-03-06 15:14:01.346,0.00019853014358221942,2.415904434234057
2025-03-06 15:14:01.354,0.00019657566888605402,2.2546990897178483
2025-03-06 15:14:01.362,0.00019336023173271573,2.0954197850769396
2025-03-06 15:14:01.370,0.0001889182258905129,1.9401864450765713
2025-03-06 15:14:01.377,0.00018332100668461715,1.7909329911733536
2025-03-06 15:14:01.385,0.00017667018509843428,1.6493892289671093
2025-03-06 15:14:01.393,0.00016908966170156868,1.5170680828074228
2025-03-06 15:14:01.401,0.0001607170124142089,1.39525751204787
2025-03-06 15:14:01.409,0.00015169484126093167,1.285016312949813
2025-03-06 15:14:01.416,0.00014216266351526794,1.1871729874701544
2025-03-06 15:14:01.424,0.00013224976740240947,1.102326944536005
2025-03-06 15:14:01.432,0.00012206935144962121,1.030851473002486
2025-03-06 15:14:01.440,0.00011171409909630809,0.9728981613627782
2025-03-06 15:14:01.448,0.0001012532600704218,0.928402708551218
2025-03-06 15:14:01.456,9.07312493779607e-05,0.8970923416884866
2025-03-06 15:14:01.463,8.01677300070597e-05,0.8784952932370078
2025-03-06 15:14:01.471,6.955910419832108e-05,0.8719529501621074
2025-03-06 15:14:01.479,5.888128978623565e-05,0.8766353343100022
2025-03-06 15:14:01.487,4.809358262898476e-05,0.8915604857186297
2025-03-06 15:14:01.495,3.7143294378586706e-05,0.9156181034623623
2025-03-06 15:14:01.502,2.5970743129455098e-05,0.9475974818340237
2025-03-06 15:14:01.510,1.4514133486732796e-05,0.9862194079705623
2025-03-06 15:14:01.518,2.713929550284051e-06,1.0301713046193732
2025-03-06 15:14:01.526,-9.483539074117968e-06,1.078144543807372
2025-03-06 15:14:01.534,-2.2123363529044444e-05,1.1288725513354887
2025-03-06 15:14:01.541,-3.524026420577861e-05,1.1811680912907574
2025-03-06 15:14:01.549,-4.885768712400172e-05,1.2339579829267047
2025-03-06 15:14:01.557,-6.298770106483292e-05,1.2863134755300671
2025-03-06 15:14:01.565,-7.763155868295377e-05,1.3374746060148381
2025-03-06 15:14:01.573,-9.278073784179907e-05,1.3868670996471963
2025-03-06 15:14:01.581,-0.00010841823624792712,1.4341107412254916
2025-03-06 15:14:01.588,-0.00012451985583853754,1.479018614703634
2025-03-06 15:14:01.596,-0.00014105519404249983,1.5215871391037181
2025-03-06 15:14:01.604,-0.00015798807859224964,1.5619773661506358
2025-03-06 15:14:01.612,-0.00017527625312111148,1.6004884990050223
2025-03-06 15:14:01.620,-0.00019287021846162402,1.637524996977212
2025-03-06 15:14:01.627,-0.00021071121992871994,1.6735589203997723
2025-03-06 15:14:01.635,-0.0002287284408412559,1.7090893411593189
2025-03-06 15:14:01.643,-0.0002468355504476409,1.744600719897544
2025-03-06 15:14:01.651,-0.0002649268766610118,1.780522161502243
2025-03-06 15:14:01.659,-0.00028287360329524796,1.8171894262344352
2025-03-06 15:14:01.666,-0.0003005204790357257,1.8548114923879038
2025-03-06 15:14:01.674,-0.0003176835352803803,1.8934433174408527
2025-03-06 15:14:01.682,-0.00033414924015017704,1.932966205909677
2025-03-06 15:14:01.690,-0.0003496753916935662,1.9730768546206532
2025-03-06 15:14:01.698,-0.00036399390358856124,2.013285719397616
2025-03-06 15:14:01.706,-0.00037681548659353843,2.0529248548244357
2025-03-06 15:14:01.713,-0.0003878361070809299,2.0911648524972444
2025-03-06 15:14:01.721,-0.0003967450279943297,2.127039980402331
2025-03-06 15:14:01.729,-0.0004032341879858838,2.159480149295635
2025-03-06 15:14:01.737,-0.00040700860997848086,2.187347946610284
2025-03-06 15:14:01.745,-0.00040779744150059823,2.209478727013489
2025-03-06 15:14:01.752,-0.00040536515496227796,2.2247216619398116
2025-03-06 15:14:01.760,-0.0003995224155844989,2.231979736069322
2025-03-06 15:14:01.768,-0.00039013614820477394,2.2302469154802456
2025-03-06 15:14:01.776,-0.0003771383597746507,2.2186410558126237
2025-03-06 15:14:01.784,-0.00036053328167225,2.196431518017368
2025-03-06 15:14:01.791,-0.00034040240151656106,2.1630608695737474
2025-03-06 15:14:01.799,-0.0003169069830975056,2.1181604362492874
2025-03-06 15:14:01.807,-0.00029028773843085506,2.0615598077428294
2025-03-06 15:14:01.815,-0.00026086142155548023,1.9932906721456245
2025-03-06 15:14:01.823,-0.000229014260145142,1.913585551299208
2025-03-06 15:14:01.831,-0.00019519232567259714,1.8228721332770546
2025-03-06 15:14:01.838,-0.00015988915328578524,1.7217639549905375
2025-03-06 15:14:01.846,-0.00012363113190991436,1.611048181834295
2025-03-06 15:14:01.854,-8.696136444806625e-05,1.4916711648327152
2025-03-06 15:14:01.862,-5.0422831895927984e-05,1.3647223333999718
2025-03-06 15:14:01.870,-1.4541770893166761e-05,1.2314168152662048
2025-03-06 15:14:01.877,2.0187832735541884e-05,1.0930769853145441
2025-03-06 15:14:01.885,5.3317833929534414e-05,0.951112961037722
2025-03-06 15:14:01.893,8.44569706117091e-05,0.8070019187077264
2025-03-06 15:14:01.901,0.00011327891447020325,0.6622660363227948
2025-03-06 15:14:01.909,0.00013952706446724753,0.5184489027184924
2025-03-06 15:14:01.916,0.00016301599280646266,0.3770903717151245
2025-03-06 15:14:01.924,0.00018362964402852418,0.23970006388338136
2025-03-06 15:14:01.932,0.00020131659049310306,0.10772998379328678
2025-03-06 15:14:01.940,0.00021608283496449534,-0.01745302063524001
2025-03-06 15:14:01.948,0.00022798279716182228,-0.1345940192734013
2025-03-06 15:14:01.956,0.00023710921424663313,-0.24257491506626713
2025-03-06 15:14:01.963,0.0002435827235098402,-0.34043642878497116
2025-03-06 15:14:01.971,0.00024754188058401027,-0.427396178327455
2025-03-06 15:14:01.979,0.00024913430157784823,-0.5028621096091034
2025-03-06 15:14:01.987,0.0002485095073180118,-0.5664408569728814
2025-03-06 15:14:01.995,0.0002458138984042723,-0.6179409693394194
2025-03-06 15:14:02.002,0.0002411881081659152,-0.65737127953817
2025-03-06 15:14:02.010,0.00023476677651292711,-0.6849349733588218
2025-03-06 15:14:02.018,0.00022668057952161206,-0.7010201017634485
2025-03-06 15:14:02.026,0.00021706016718555423,-0.7061873593925191
2025-03-06 15:14:02.034,0.000206041525721525,-0.7011559239260831
2025-03-06 15:14:02.041,0.000193772175870743,-0.6867880268317035
2025-03-06 15:14:02.049,0.00018041751543469578,-0.6640727314842403
2025-03-06 15:14:02.057,0.00016616652754247372,-0.6341091608903829
2025-03-06 15:14:02.065,0.0001512360689702156,-0.5980891748033216
2025-03-06 15:14:02.073,0.0001358730692235004,-0.5572792703500592
2025-03-06 15:14:02.081,0.00012035418540834244,-0.513001292416843
2025-03-06 15:14:02.088,0.0001049826969386065,-0.46661141053151894
2025-03-06 15:14:02.096,9.008262511311735e-05,-0.4194767708770712
2025-03-06 15:14:02.104,7.599020975802591e-05,-0.3729492880680415
2025-03-06 15:14:02.112,6.30429952541889e-05,-0.3283362172344594
2025-03-06 15:14:02.120,5.156691189464057e-05,-0.2868674462732873
2025-03-06 15:14:02.127,4.1861904086903335e-05,-0.24965985829264895
2025-03-06 15:14:02.135,3.418682719196056e-05,-0.21767960338622502
2025-03-06 15:14:02.143,2.874445735731213e-05,-0.1917036347922957
2025-03-06 15:14:02.151,2.5667505101092293e-05,-0.1722823396703145
2025-03-06 15:14:02.159,2.5006503242649844e-05,-0.15970545759024113
2025-03-06 15:14:02.167,2.6720374335048813e-05,-0.15397367053408523
2025-03-06 15:14:02.174,3.0670391196915223e-05,-0.15477823340187463
2025-03-06 15:14:02.182,3.6618149326097366e-05,-0.1614907930660844
2025-03-06 15:14:02.190,4.422808304169766e-05,-0.17316514307549924
2025-03-06 15:14:02.198,5.3074944735850504e-05,-0.18855211959429433
2025-03-06 15:14:02.206,6.265646027254491e-05,-0.20612820328227854
2025-03-06 15:14:02.213,7.241103308799573e-05,-0.22413769133314893
2025-03-06 15:14:02.221,8.173992683635866e-05,-0.2406475846852768
2025-03-06 15:14:02.229,9.003289344096244e-05,-0.2536136406897936
2025-03-06 15:14:02.237,9.669581206386103e-05,-0.2609554134121471
2025-03-06 15:14:02.245,0.00010117862257073106,-0.26063757898481255
2025-03-06 15:14:02.252,0.00010300171101596844,-0.25075445119627676
2025-03-06 15:14:02.260,0.00010177895164254218,-0.2296143531124159
2025-03-06 15:14:02.268,9.72358303151749e-05,-0.1958204330609535
2025-03-06 15:14:02.276,8.92214599531757e-05,-0.1483445949430175
2025-03-06 15:14:02.284,7.771381964173574e-05,-0.08659144226205802
2025-03-06 15:14:02.292,6.281813251929094e-05,-0.010449495888990724
2025-03-06 15:14:02.299,4.475884548521081e-05,0.07967258544547427
2025-03-06 15:14:02.307,2.3866106322371705e-05,0.18282650554236354
2025-03-06 15:14:02.315,5.579079366368094e-07,0.29752268168510404
2025-03-06 15:14:02.323,-2.4680811603130948e-05,0.42174696083178886
2025-03-06 15:14:02.331,-5.132080653278483e-05,0.5529955947668727
2025-03-06 15:14:02.338,-7.88116109987522e-05,0.6883277492192929
2025-03-06 15:14:02.346,-0.00010660383247414021,0.8244342138157282
2025-03-06 15:14:02.354,-0.00013416950392930194,0.9577203960410884
2025-03-06 15:14:02.362,-0.0001610195157373839,1.0844011456484375
2025-03-06 15:14:02.370,-0.00018671736781641088,1.2006044978768728
2025-03-06 15:14:02.377,-0.00021088872509581431,1.302481081146193
2025-03-06 15:14:02.385,-0.00023322650960770587,1.3863157409333002
2025-03-06 15:14:02.393,-0.00025349152157554285,1.448637906053468
2025-03-06 15:14:02.401,-0.0002715088642155122,1.48632736338852
2025-03-06 15:14:02.409,-0.0002871607566231432,1.4967123819762924
2025-03-06 15:14:02.417,-0.0003003766152487313,1.477657486355565
2025-03-06 15:14:02.424,-0.0003111214908693152,1.4276385653871428
2025-03-06 15:14:02.432,-0.0003193840127935354,1.3458033695472533
2025-03-06 15:14:02.440,-0.0003251649205840106,1.2320157723828677
2025-03-06 15:14:02.448,-0.00032846709199728315,1.0868824558428858
2025-03-06 15:14:02.456,-0.00032928774530623035,0.9117609569186836
2025-03-06 15:14:02.463,-0.00032761324932862094,0.708748327216229
2025-03-06 15:14:02.471,-0.0003234167504037123,0.480650039695206
2025-03-06 15:14:02.479,-0.0003166586318346236,0.23092923732140253
2025-03-06 15:14:02.487,-0.00030728965320939866,-0.03636305308482326
2025-03-06 15:14:02.495,-0.00029525647364628493,-0.3166755400039222
2025-03-06 15:14:02.502,-0.0002805091474998476,-0.6050603061992598
2025-03-06 15:14:02.510,-0.0002630100891313256,-0.8962900248548542
2025-03-06 15:14:02.518,-0.00024274391867460716,-1.1849856810661852
2025-03-06 15:14:02.526,-0.0002197275151859815,-1.465751130577775
2025-03-06 15:14:02.534,-0.00019401954357473863,-1.733310317878022
2025-03-06 15:14:02.542,-0.00016572872772505876,-1.9826426220794557
2025-03-06 15:14:02.549,-0.00013502021672826594,-2.2091116668440454
2025-03-06 15:14:02.557,-0.00010211949854553793,-2.408583058614864
2025-03-06 15:14:02.565,-6.731343374809867e-05,-2.577526908729567
2025-03-06 15:14:02.573,-3.094812318308428e-05,-2.713101625679157
2025-03-06 15:14:02.581,6.576494875396632e-06,-2.8132162957969586
2025-03-06 15:14:02.588,4.481520383486666e-05,-2.876569956486404
2025-03-06 15:14:02.596,8.328888055195217e-05,-2.9026671458387687
2025-03-06 15:14:02.604,0.00012149812655236275,-2.8918102131022136
2025-03-06 15:14:02.612,0.0001589384327889085,-2.8450699161897894
2025-03-06 15:14:02.620,0.00019511603098798066,-2.7642367396503946
2025-03-06 15:14:02.627,0.00022956354183064801,-2.6517560765030423
2025-03-06 15:14:02.635,0.00026185458025101136,-2.5106508836341854
2025-03-06 15:14:02.643,0.0002916165954888471,-2.3444356147339453
2025-03-06 15:14:02.651,0.0003185413614132681,-2.157025150883082
2025-03-06 15:14:02.659,0.00034239266539328145,-1.952642108991705
2025-03-06 15:14:02.667,0.0003630108810441316,-1.7357253658418217
2025-03-06 15:14:02.674,0.0003803142711163688,-1.5108419710510035
2025-03-06 15:14:02.682,0.0003942970495806933,-1.2826039301455925
2025-03-06 15:14:02.690,0.0004050244112278555,-1.0555907085549223
2025-03-06 15:14:02.698,0.00041262488774723754,-0.834277805337072
2025-03-06 15:14:02.706,0.0004172805002719595,-0.6229714036689582
2025-03-06 15:14:02.713,0.00041921524830135855,-0.4257489190936893
2025-03-06 15:14:02.721,0.00041868250520284275,-0.24640520409229374
2025-03-06 15:14:02.729,0.00041595188542079925,-0.08840418147936267
2025-03-06 15:14:02.737,0.00041129612141023865,0.045164281890563755
2025-03-06 15:14:02.745,0.00040497846424192974,0.15162243002276912
2025-03-06 15:14:02.752,0.00039724111709431883,0.22873779587966406
2025-03-06 15:14:02.760,0.0003882952063245162,0.2747517679920597
2025-03-06 15:14:02.768,0.00037831275620364653,0.2884039023572474
2025-03-06 15:14:02.776,0.0003674210613973866,0.2689524101502154
2025-03-06 15:14:02.784,0.00035569977504451046,0.21619126677452513
2025-03-06 15:14:02.792,0.00034318095113389257,0.13046430950680046
2025-03-06 15:14:02.799,0.0003298521647494257,0.01267649882429776
2025-03-06 15:14:02.807,0.0003156626653994477,-0.13569778822486178
2025-03-06 15:14:02.815,0.0003005323159429046,-0.31260996349312414
2025-03-06 15:14:02.823,0.00028436286093227477,-0.5154369124375574
2025-03-06 15:14:02.831,0.000267050872511795,-0.7409865835298991
2025-03-06 15:14:02.838,0.0002485015581165771,-0.9855112918427394
2025-03-06 15:14:02.846,0.00022864251143472696,-1.2447308189535866
2025-03-06 15:14:02.854,0.0002074364738443282,-1.5138675113760727
2025-03-06 15:14:02.862,0.00018489224955916113,-1.7876955139179898
2025-03-06 15:14:02.870,0.0001610730599974175,-2.0606059990280587
2025-03-06 15:14:02.877,0.00013610180531266718,-2.3266897589958067
2025-03-06 15:14:02.885,0.00011016290931787538,-2.5798378217643574
2025-03-06 15:14:02.893,8.350064967274264e-05,-2.8138598532361616
2025-03-06 15:14:02.901,5.641410260129209e-05,-3.0226190502264063
2025-03-06 15:14:02.909,2.9249031837089816e-05,-3.2001810540429405
2025-03-06 15:14:02.917,2.3871970697279554e-06,-3.3409731906611233
2025-03-06 15:14:02.924,-2.3766355461053806e-05,-3.4399491558371538
2025-03-06 15:14:02.932,-4.8797407216113444e-05,-3.4927532133877564
2025-03-06 15:14:02.940,-7.229743968185812e-05,-3.4958771698269744
2025-03-06 15:14:02.948,-9.387860157878387e-05,-3.4468029307534396
2025-03-06 15:14:02.956,-0.00011318812897102121,-3.344123412861025
2025-03-06 15:14:02.963,-0.00012992164814932918,-3.1876350168384446
2025-03-06 15:14:02.971,-0.0001438348896183182,-2.9783957460382493
2025-03-06 15:14:02.979,-0.00015475341938003248,-2.7187443268181077
2025-03-06 15:14:02.987,-0.00016258002955182846,-2.412277269562654
2025-03-06 15:14:02.995,-0.00016729944882630632,-2.063782616461707
2025-03-06 15:14:03.002,-0.00016898008125774302,-1.679131058291689
2025-03-06 15:14:03.010,-0.00016777259400981384,-1.2651270655385936
2025-03-06 15:14:03.018,-0.00016390535085814337,-0.8293245643705398
2025-03-06 15:14:03.026,-0.0001576768932816971,-0.37981339448274826
2025-03-06 15:14:03.034,-0.0001494458555504144,0.0750157794809595
2025-03-06 15:14:03.042,-0.00013961882854770906,0.5267193515649243
2025-03-06 15:14:03.049,-0.00012863675609306962,0.9670520428544453
2025-03-06 15:14:03.057,-0.00011696048038701881,1.3882119424314323
2025-03-06 15:14:03.065,-0.00010505607219371655,1.7830699652947228
2025-03-06 15:14:03.073,-9.338058752092257e-05,2.1453750570522088
2025-03-06 15:14:03.081,-8.23688654968169e-05,2.4699275415462085
2025-03-06 15:14:03.088,-7.242190045215047e-05,2.7527143960825247
2025-03-06 15:14:03.096,-6.389718765043165e-05,2.9910018818151287
2025-03-06 15:14:03.104,-5.710128355401481e-05,3.1833827770398027
2025-03-06 15:14:03.112,-5.228466525244008e-05,3.3297773736282226
2025-03-06 15:14:03.120,-4.9638833416727525e-05,3.431389310285166
2025-03-06 15:14:03.127,-4.929548346431812e-05,3.49061913515537
2025-03-06 15:14:03.135,-5.132747243348955e-05,3.510940119403454
2025-03-06 15:14:03.143,-5.575123527752615e-05,3.496742196017242
2025-03-06 15:14:03.151,-6.25302538703525e-05,3.4531509047980102
2025-03-06 15:14:03.159,-7.157915573057859e-05,3.3858288407410497
2025-03-06 15:14:03.167,-8.276802542532209e-05,3.3007673145985184
2025-03-06 15:14:03.174,-9.59265682423723e-05,3.204075761128398
2025-03-06 15:14:03.182,-0.00011084788157776487,3.1017759275716
2025-03-06 15:14:03.190,-0.00012729173691928826,2.999607128945866
2025-03-06 15:14:03.198,-0.0001449874093992154,2.9028479722150307
2025-03-06 15:14:03.206,-0.00016363619609509577,2.816159028621805
2025-03-06 15:14:03.213,-0.00018291384613727932,2.743450047458625
2025-03-06 15:14:03.221,-0.00020247317918803927,2.687774492315804
2025-03-06 15:14:03.229,-0.00022194717780056063,2.6512534405308594
2025-03-06 15:14:03.237,-0.0002409528038599549,2.635030187768854
2025-03-06 15:14:03.245,-0.00025909572332307503,2.6392562011958525
2025-03-06 15:14:03.252,-0.0002759760368815874,2.6631083323313165
2025-03-06 15:14:03.260,-0.0002911950132008071,2.7048364185284894
2025-03-06 15:14:03.268,-0.0003043627196098855,2.7618395763575343
2025-03-06 15:14:03.276,-0.0003151063678592418,2.830768646361191
2025-03-06 15:14:03.284,-0.0003230791564342484,2.9076514234791775
2025-03-06 15:14:03.292,-0.0003279693772048783,2.9880365400339715
2025-03-06 15:14:03.299,-0.000329509529121828,3.0671511954142003
2025-03-06 15:14:03.307,-0.0003274851481300869,3.1400673855422707
2025-03-06 15:14:03.315,-0.0003217430582663347,3.2018709183959464
2025-03-06 15:14:03.323,-0.00031219878834512683,3.247827356094203
2025-03-06 15:14:03.331,-0.00029884294754105615,3.27353913801872
2025-03-06 15:14:03.338,-0.00028174636917966073,3.2750885265272354
2025-03-06 15:14:03.346,-0.0002610638084929904,3.249161656002488
2025-03-06 15:14:03.354,-0.0002370359429556288,3.193149806504406
2025-03-06 15:14:03.362,-0.00020998940137100338,3.105224998306576
2025-03-06 15:14:03.370,-0.00018033455326747747,2.984388044779542
2025-03-06 15:14:03.377,-0.0001485608191853977,2.8304882494975816
2025-03-06 15:14:03.385,-0.00011522929688982695,2.644214944994293
2025-03-06 15:14:03.393,-8.096252800696895e-05,2.427062016511425
2025-03-06 15:14:03.401,-4.6431279370277844e-05,2.181267417696496
2025-03-06 15:14:03.409,-1.2338330425966153e-05,1.9097304549863185
2025-03-06 15:14:03.417,2.0600538132250613e-05,1.6159102788219835
2025-03-06 15:14:03.424,5.1677897150122746e-05,1.3037095522461757
2025-03-06 15:14:03.432,8.021763787966887e-05,0.9773476484402824
2025-03-06 15:14:03.440,0.00010559860166618965,0.6412279415049114
2025-03-06 15:14:03.448,0.00012727774561900712,0.2998037947399096
2025-03-06 15:14:03.456,0.00014481162795196956,-0.0425522699091254
2025-03-06 15:14:03.463,0.00015787501216828732,-0.3816719914143689
2025-03-06 15:14:03.471,0.00016627552779149534,-0.7137035022338415
2025-03-06 15:14:03.479,0.0001699635618411945,-1.0352087233703016
2025-03-06 15:14:03.487,0.0001690368405992475,-1.343243052237005
2025-03-06 15:14:03.495,0.0001637394580991343,-1.6354149071928048
2025-03-06 15:14:03.502,0.00015445539841279178,-1.9099232881959
2025-03-06 15:14:03.510,0.00014169686748231956,-2.16557218706654
2025-03-06 15:14:03.518,0.0001260879722430633,-2.401761447206285
2025-03-06 15:14:03.526,0.0001083444433811194,-2.618454529348191
2025-03-06 15:14:03.534,8.925020443302987e-05,-2.816124559760417
2025-03-06 15:14:03.542,6.963165973648075e-05,-2.9956809692563415
2025-03-06 15:14:03.549,5.033059710749028e-05,-3.1583799119104845
2025-03-06 15:14:03.557,3.217657705112854e-05,-3.3057224188650274
2025-03-06 15:14:03.565,1.5959657276505464e-05,-3.4393448415014474
2025-03-06 15:14:03.573,2.404328119584348e-06,-3.560906527871727
2025-03-06 15:14:03.581,-7.854414706885624e-06,-3.671979827921313
2025-03-06 15:14:03.588,-1.4291942140214652e-05,-3.7739474244105202
2025-03-06 15:14:03.596,-1.6511013057661928e-05,-3.8679116458707274
2025-03-06 15:14:03.604,-1.4254363517441988e-05,-3.954619862660016
2025-03-06 15:14:03.612,-7.412518426150603e-06,-4.034409334342731
2025-03-06 15:14:03.620,3.973321461280702e-06,-4.107174004733603
2025-03-06 15:14:03.627,1.971331625008012e-05,-4.172354768778696
2025-03-06 15:14:03.635,3.947582687648446e-05,-4.2289537050651695
2025-03-06 15:14:03.643,6.279882229502031e-05,-4.275571724433461
2025-03-06 15:14:03.651,8.910549439513455e-05,-4.310468071814409
2025-03-06 15:14:03.659,0.00011772358688839705,-4.331639170162032
2025-03-06 15:14:03.667,0.00014790780049167579,-4.336913441140364
2025-03-06 15:14:03.674,0.00017886449354969963,-4.324058006600638
2025-03-06 15:14:03.682,0.0002097777790010956,-4.290892601898055
2025-03-06 15:14:03.690,0.0002398360495259539,-4.235405653191193
2025-03-06 15:14:03.698,0.00026825794348001416,-4.155867319763277
2025-03-06 15:14:03.706,0.00029431677196823015,-4.0509344033527865
2025-03-06 15:14:03.713,0.00031736244110525813,-3.919742385997552
2025-03-06 15:14:03.721,0.00033683992590828154,-3.7619804585804557
2025-03-06 15:14:03.729,0.0003523034178998975,-3.577946204242184
2025-03-06 15:14:03.737,0.00036342543247496785,-3.3685775520212395
2025-03-06 15:14:03.745,0.00037000045714413634,-3.1354606642530785
2025-03-06 15:14:03.752,0.0003719431096527806,-2.8808135172619007
2025-03-06 15:14:03.760,0.0003692811558349512,-2.6074460250961278
2025-03-06 15:14:03.768,0.0003621440262635516,-2.318698575833314
2025-03-06 15:14:03.776,0.0003507476620875437,-2.0183617312854008
2025-03-06 15:14:03.784,0.0003353766682069715,-1.7105805314284155
2025-03-06 15:14:03.792,0.0003163648986641848,-1.3997473210277414
2025-03-06 15:14:03.799,0.00029407572332622306,-1.090387279881563
2025-03-06 15:14:03.807,0.00026888325964175117,-0.7870409064166847
2025-03-06 15:14:03.815,0.00024115575525052329,-0.49414760042938666
2025-03-06 15:14:03.823,0.00021124209606341752,-0.21593424084711493
2025-03-06 15:14:03.831,0.00017946214407948882,0.04368771796271481
2025-03-06 15:14:03.838,0.00014610132209530848,0.2812135872753092
2025-03-06 15:14:03.846,0.00011140957169920979,0.4936227567303378
2025-03-06 15:14:03.854,7.560450810072269e-05,0.678440179152347
2025-03-06 15:14:03.862,3.8878278626382724e-05,0.8337809561790012
2025-03-06 15:14:03.870,1.4073354879445677e-06,0.9583776973257097
2025-03-06 15:14:03.877,-3.663588592710354e-05,1.0515910233466856
2025-03-06 15:14:03.885,-7.507050366698672e-05,1.1134041744393657
2025-03-06 15:14:03.893,-0.0001136950739832482,1.1444031164454014
2025-03-06 15:14:03.901,-0.00015227689192152632,1.145743793674237
2025-03-06 15:14:03.909,-0.00019054364308156513,1.1191082717005185
2025-03-06 15:14:03.917,-0.00022817814860627005,1.066651496245672
2025-03-06 15:14:03.924,-0.0002648166990559862,0.9909403293805734
2025-03-06 15:14:03.932,-0.00030005119118721473,0.8948864700817374
2025-03-06 15:14:03.940,-0.0003334349970455417,0.7816748596891867
2025-03-06 15:14:03.948,-0.00036449224137399046,0.6546892257399896
2025-03-06 15:14:03.956,-0.0003927299598018216,0.5174365186864499
2025-03-06 15:14:03.963,-0.0004176524640979867,0.37347211350210413
2025-03-06 15:14:03.971,-0.0004387771578449303,0.2263277335937284
2025-03-06 15:14:03.979,-0.00045565102064516787,0.07944405058704103
2025-03-06 15:14:03.987,-0.0004678669897934032,-0.06389023157772489
2025-03-06 15:14:03.995,-0.0004750794946888302,-0.20059131600549968
2025-03-06 15:14:04.002,-0.0004770184354688481,-0.32782426320933317
2025-03-06 15:14:04.010,-0.00047350095445256566,-0.4430375337305438
2025-03-06 15:14:04.018,-0.00046444045095817666,-0.5439883302598187
2025-03-06 15:14:04.026,-0.00044985245162010784,-0.6287595118480405
2025-03-06 15:14:04.034,-0.00042985714659885953,-0.695769274362863
2025-03-06 15:14:04.042,-0.0004046785903169985,-0.7437750114830121
2025-03-06 15:14:04.049,-0.00037464072016613574,-0.7718727674331224
2025-03-06 15:14:04.057,-0.000340160480053195,-0.7794934847411125
2025-03-06 15:14:04.065,-0.00030173845875372513,-0.766396891433518
2025-03-06 15:14:04.073,-0.00025994754440977123,-0.7326634381691641
2025-03-06 15:14:04.081,-0.00021542011435407343,-0.6786842672125374
2025-03-06 15:14:04.088,-0.000168834207004526,-0.6051488407113669
2025-03-06 15:14:04.096,-0.00012089899960925574,-0.5130296230673523
2025-03-06 15:14:04.104,-7.233981728690506e-05,-0.4035631262473385
2025-03-06 15:14:04.112,-2.388287739714048e-05,-0.27822669377323445
2025-03-06 15:14:04.120,2.375997959818298e-05,-0.13871060932634866
2025-03-06 15:14:04.127,6.990625196594285e-05,0.01311455527726654
2025-03-06 15:14:04.135,0.00011391705289692012,0.1752350315474384
2025-03-06 15:14:04.143,0.00015521028962134736,0.3455346367719729
2025-03-06 15:14:04.151,0.00019327233088082654,0.5218381162041512
2025-03-06 15:14:04.159,0.00022766777704642216,0.7019556339191597
2025-03-06 15:14:04.167,0.00025804700786864054,0.8837268608028147
2025-03-06 15:14:04.174,0.00028415127633261354,1.0650631145671676
2025-03-06 15:14:04.182,0.000305815233894631,1.2439861432565826
2025-03-06 15:14:04.190,0.000322966887975635,1.4186623792402417
2025-03-06 15:14:04.198,0.00033562508451750274,1.5874317889524432
2025-03-06 15:14:04.206,0.00034389466838947574,1.7488307698914218
2025-03-06 15:14:04.213,0.0003479595053215801,1.9016088711826205
2025-03-06 15:14:04.221,0.0003480735646024743,2.0447394149179696
2025-03-06 15:14:04.229,0.0003445502892810493,2.1774243568429426
2025-03-06 15:14:04.237,0.00033775054665014024,2.2990939364352725
2025-03-06 15:14:04.245,0.0003280695567567455,2.4094018221617937
2025-03-06 15:14:04.252,0.00031592330814307325,2.5082165562322105
2025-03-06 15:14:04.260,0.0003017350417866352,2.5956101451004963
2025-03-06 15:14:04.268,0.0002859223840805878,2.6718446258808273
2025-03-06 15:14:04.276,0.0002688856385752237,2.7373573603136765
2025-03-06 15:14:04.284,0.0002509976315217001,2.792745663570234
2025-03-06 15:14:04.292,0.00023259537654385333,2.8387511674708117
2025-03-06 15:14:04.299,0.00021397369455165364,2.8762440570483068
2025-03-06 15:14:04.307,0.00019538080319595342,2.9062070256902337
2025-03-06 15:14:04.315,0.00017701578195136454,2.9297184982285525
2025-03-06 15:14:04.323,0.00015902773779217992,2.9479344137336327
2025-03-06 15:14:04.331,0.0001415164659785051,2.9620676842248614
2025-03-06 15:14:04.338,0.00012453443400745322,2.9733643905075473
2025-03-06 15:14:04.346,0.00010808998924036981,2.983075866498357
2025-03-06 15:14:04.354,9.215175267362662e-05,2.9924260640553637
2025-03-06 15:14:04.362,7.665418649310828e-05,3.0025739681620105
2025-03-06 15:14:04.370,6.150432072111907e-05,3.014571321791704
2025-03-06 15:14:04.377,4.658960479027267e-05,3.0293164898204474
2025-03-06 15:14:04.385,3.1786799942251244e-05,3.047505905797791
2025-03-06 15:14:04.393,1.6971727775898818e-05,3.0695851584097404
2025-03-06 15:14:04.401,2.0295437739926003e-06,3.095702328842181
2025-03-06 15:14:04.409,-1.3134950158154972e-05,3.125666622662534
2025-03-06 15:14:04.417,-2.858755196941006e-05,3.158915590400409
2025-03-06 15:14:04.424,-4.4356094419337786e-05,3.194494253130656
2025-03-06 15:14:04.432,-6.042364755357875e-05,3.2310492169732354
2025-03-06 15:14:04.440,-7.672395747967243e-05,3.2668403694913417
2025-03-06 15:14:04.448,-9.313944714561275e-05,3.2997720157252
2025-03-06 15:14:04.456,-0.0001095019443856458,3.3274443609333315
2025-03-06 15:14:04.463,-0.00012559614088615225,3.3472251257307026
2025-03-06 15:14:04.471,-0.0001411656488809466,3.3563398517858234
2025-03-06 15:14:04.479,-0.0001559214272287735,3.3519782068242767
2025-03-06 15:14:04.487,-0.00016955227639360747,3.3314124212005107
2025-03-06 15:14:04.495,-0.00018173701884469554,3.2921229756935704
2025-03-06 15:14:04.502,-0.00019215788858166635,3.2319258874526144
2025-03-06 15:14:04.510,-0.00020051458042553657,3.1490954663910946
2025-03-06 15:14:04.518,-0.00020653835970161564,3.0424762802587786
2025-03-06 15:14:04.526,-0.00021000558294386856,2.9115782990809205
2025-03-06 15:14:04.534,-0.00021074993548895714,2.756649791714216
2025-03-06 15:14:04.542,-0.00020867269369826194,2.578723490565317
2025-03-06 15:14:04.549,-0.0002037504017056068,2.379632760990283
2025-03-06 15:14:04.557,-0.00019603952330939637,2.1619959159567235
2025-03-06 15:14:04.565,-0.00018567787623772404,1.9291682987330279
2025-03-06 15:14:04.573,-0.00017288293061803935,1.685163220315375
2025-03-06 15:14:04.581,-0.00015794727792481814,1.434544210109185
2025-03-06 15:14:04.588,-0.00014123169096059935,1.182292267954127
2025-03-06 15:14:04.596,-0.0001231561907932065,0.9336528592528288
2025-03-06 15:14:04.604,-0.00010418944760812784,0.6939682459380936
2025-03-06 15:14:04.612,-8.483673098529442e-05,0.4685013689480527
2025-03-06 15:14:04.620,-6.562655666595831e-05,0.2622578690269562
2025-03-06 15:14:04.628,-4.7096188711237234e-05,0.07981293189254451
2025-03-06 15:14:04.635,-2.9776247502415783e-05,-0.07485054221781624
2025-03-06 15:14:04.643,-1.4174811751560305e-05,-0.19848641409766024
2025-03-06 15:14:04.651,-7.615262151394597e-07,-0.28870712113308417
2025-03-06 15:14:04.659,1.0047714584683444e-05,-0.34407845383549224
2025-03-06 15:14:04.667,1.790493784939625e-05,-0.3641839682292083
2025-03-06 15:14:04.674,2.254256664590526e-05,-0.34965681713581953
2025-03-06 15:14:04.682,2.3783655777294808e-05,-0.3021778872362784
2025-03-06 15:14:04.690,2.1549390711266888e-05,-0.2244401972189315
2025-03-06 15:14:04.698,1.5863459982088003e-05,-0.12008054498238031
2025-03-06 15:14:04.706,6.853066204466821e-06,0.0064195921741723085
2025-03-06 15:14:04.713,-5.253509083379587e-06,0.1498608859345843
2025-03-06 15:14:04.721,-2.0132736977843037e-05,0.3044766945444309
2025-03-06 15:14:04.729,-3.7374876474000235e-05,0.464102352469299
2025-03-06 15:14:04.737,-5.6495872018217645e-05,0.6223574577118277
2025-03-06 15:14:04.745,-7.695165465958089e-05,0.772834825864293
2025-03-06 15:14:04.753,-9.815432412245551e-05,0.9092894839810677
2025-03-06 15:14:04.760,-0.00011948966460266338,1.0258210906655523
2025-03-06 15:14:04.768,-0.00014033543922833627,1.117043492241261
2025-03-06 15:14:04.776,-0.00016007990560366393,1.1782357365237175
2025-03-06 15:14:04.784,-0.0001781399950859498,1.205469721932328
2025-03-06 15:14:04.792,-0.00019397860121258975,1.1957106988155024
2025-03-06 15:14:04.799,-0.00020712042852617685,1.1468879921552337
2025-03-06 15:14:04.807,-0.00021716586482056085,1.0579345119583852
2025-03-06 15:14:04.815,-0.0002238023675054597,0.9287947958667
2025-03-06 15:14:04.823,-0.00022681291332883225,0.7604024297034998
2025-03-06 15:14:04.831,-0.0002260811531616438,0.5546286683204716
2025-03-06 15:14:04.838,-0.00022159302761686094,0.3142049010176579
2025-03-06 15:14:04.846,-0.00021343473361254482,0.042622262240086625
2025-03-06 15:14:04.854,-0.0002017870994133143,-0.25598781672416776
2025-03-06 15:14:04.862,-0.00018691661509977252,-0.5769879745939979
2025-03-06 15:14:04.870,-0.00016916353719984787,-0.9153798572918396
2025-03-06 15:14:04.878,-0.0001489276174937979,-1.2659551902874986
2025-03-06 15:14:04.885,-0.0001266521076338532,-1.6234485634530222
2025-03-06 15:14:04.893,-0.00010280677470005696,-1.982687593964745
2025-03-06 15:14:04.901,-7.787071532287907e-05,-2.3387362760540107
2025-03-06 15:14:04.909,-5.231575705946264e-05,-2.6870275132809893
2025-03-06 15:14:04.917,-2.65911855553585e-05,-3.0234810598016604
2025-03-06 15:14:04.924,-1.1104490872248399e-06,-3.3446033843650627
2025-03-06 15:14:04.932,2.375963607758887e-05,-3.6475663371660807
2025-03-06 15:14:04.940,4.770684527629411e-05,-3.930261972524066
2025-03-06 15:14:04.948,7.047856996335365e-05,-4.191331483144557
2025-03-06 15:14:04.956,9.188402019895659e-05,-4.430166944161041
2025-03-06 15:14:04.963,0.00011179385831247756,-4.646885436162714
2025-03-06 15:14:04.971,0.0001301375939003782,-4.842276083671424
2025-03-06 15:14:04.979,0.00014689911760161557,-5.017721560771421
2025-03-06 15:14:04.987,0.00016211077736023025,-5.175096623003968
2025-03-06 15:14:04.995,0.00017584639602274434,-5.316647170285177
2025-03-06 15:14:05.003,0.00018821358896618264,-5.444854184624669
2025-03-06 15:14:05.010,0.00019934567668055376,-5.562287584725787
2025-03-06 15:14:05.018,0.0002093934268552218,-5.6714555703910605
2025-03-06 15:14:05.026,0.00021851683020007446,-5.774655368728614
2025-03-06 15:14:05.034,0.00022687711645386004,-5.873831417541515
2025-03-06 15:14:05.042,0.0002346292300009134,-5.9704469086599214
2025-03-06 15:14:05.049,0.00024191498577691,-6.065374255538643
2025-03-06 15:14:05.057,0.00024885710646197645,-6.158809451563876
2025-03-06 15:14:05.065,0.0002555543008212474,-6.250214470043686
2025-03-06 15:14:05.073,0.000262077482198747,-6.33829085415068
2025-03-06 15:14:05.081,0.00026846714955921255,-6.420986487757185
2025-03-06 15:14:05.088,0.0002747318736751612,-6.495536261935663
2025-03-06 15:14:05.096,0.00028084777369086135,-6.558536001179999
2025-03-06 15:14:05.104,0.0002867588590634438,-6.606047642837452
2025-03-06 15:14:05.112,0.00029237814888429024,-6.633732333398203
2025-03-06 15:14:05.120,0.00029758954034521374,-6.6370068749755635
2025-03-06 15:14:05.128,0.0003022504553202146,-6.61121787595033
2025-03-06 15:14:05.135,0.0003061953365402992,-6.551827075185371
2025-03-06 15:14:05.143,0.0003092400876462447,-6.454600659560074
2025-03-06 15:14:05.151,0.00031118754385238477,-6.31579501889836
2025-03-06 15:14:05.159,0.0003118339996583492,-6.132331316482992
2025-03-06 15:14:05.167,0.00031097668844604526,-5.9019515233742155
2025-03-06 15:14:05.174,0.000308421922840744,-5.623349179489029
2025-03-06 15:14:05.182,0.0003039934276330584,-5.296269090176948
2025-03-06 15:14:05.190,0.00029754030507594985,-4.921571407691618
2025-03-06 15:14:05.198,0.0002889441029848938,-4.501257028584308
2025-03-06 15:14:05.206,0.0002781245870892998,-4.0384528939413675
2025-03-06 15:14:05.213,0.0002650439922422222,-3.5373575312033463
2025-03-06 15:14:05.221,0.0002497096827969555,-3.003148933208803
2025-03-06 15:14:05.229,0.0002321752531702125,-2.4418585319546144
2025-03-06 15:14:05.237,0.00021254014262060624,-1.8602164911546728
2025-03-06 15:14:05.245,0.00019094784757260573,-1.265474724022334
2025-03-06 15:14:05.253,0.00016758281570307632,-0.6652148713054733
2025-03-06 15:14:05.260,0.00014266611100810424,-0.06714890394537704
2025-03-06 15:14:05.268,0.00011644995227854531,0.5210799736557812
2025-03-06 15:14:05.276,8.921125079631722e-05,1.0920888383281648
2025-03-06 15:14:05.284,6.124430957961659e-05,1.6389324567875647
2025-03-06 15:14:05.292,3.285290482227345e-05,2.155261110972206
2025-03-06 15:14:05.299,4.342061017812627e-06,2.6354546013323232
2025-03-06 15:14:05.307,-2.3990057447986485e-05,3.0747295105211943
2025-03-06 15:14:05.315,-5.185963281125825e-05,3.4692181076951574
2025-03-06 15:14:05.323,-7.900354923192956e-05,3.8160184573936693
2025-03-06 15:14:05.331,-0.00010518419254030861,4.1132163006175855
2025-03-06 15:14:05.338,-0.00013019242667435492,4.359880065105729
2025-03-06 15:14:05.346,-0.0001538486843743038,4.556030938723078
2025-03-06 15:14:05.354,-0.0001760023230564934,4.702590337895615
2025-03-06 15:14:05.362,-0.00019652956440569227,4.801307374165648
2025-03-06 15:14:05.370,-0.0002153304306431567,4.85466911834284
2025-03-06 15:14:05.378,-0.00023232512284643614,4.865796620585286
2025-03-06 15:14:05.385,-0.0002474502788178106,4.838329784282073
2025-03-06 15:14:05.393,-0.0002606555116041495,4.776304318240617
2025-03-06 15:14:05.401,-0.00027190056948614443,4.684024108791458
2025-03-06 15:14:05.409,-0.0002811533778645481,4.565932462430429
2025-03-06 15:14:05.417,-0.0002883891274182188,4.426485763983968
2025-03-06 15:14:05.424,-0.0002935904661542849,4.27003315461301
2025-03-06 15:14:05.432,-0.00029674874084445983,4.100705824254608
2025-03-06 15:14:05.440,-0.00029786612301162463,3.9223193944643713
2025-03-06 15:14:05.448,-0.00029695836137755207,3.738292604606702
2025-03-06 15:14:05.456,-0.0002940578525928104,3.551585082031636
2025-03-06 15:14:05.463,-0.00028921673153260323,3.3646563634270823
2025-03-06 15:14:05.471,-0.00028250972988247625,3.179447545662661
2025-03-06 15:14:05.479,-0.00027403659146687663,2.9973860099903713
2025-03-06 15:14:05.487,-0.0002639238422870652,2.819412639079177
2025-03-06 15:14:05.495,-0.0002523257070776845,2.6460299051177003
2025-03-06 15:14:05.503,-0.00023942396571994607,2.477368223503465
2025-03-06 15:14:05.510,-0.00022542656377268135,2.313267100348707
2025-03-06 15:14:05.518,-0.00021056483451664524,2.153366892404053
2025-03-06 15:14:05.526,-0.0001950892555283244,1.997206469691683
2025-03-06 15:14:05.534,-0.0001792637502086618,1.8443217443115707
2025-03-06 15:14:05.542,-0.00016335865218386356,1.6943399223148747
2025-03-06 15:14:05.549,-0.0001476425753523494,1.5470644621100562
2025-03-06 15:14:05.557,-0.00013237356924595292,1.4025460854605323
2025-03-06 15:14:05.565,-0.00011779007236570239,1.261135778187643
2025-03-06 15:14:05.573,-0.00010410226949372798,1.1235165181142241
2025-03-06 15:14:05.581,-9.148447309799373e-05,0.9907114444963515
2025-03-06 15:14:05.588,-8.00690809803554e-05,0.8640672913080474
2025-03-06 15:14:05.596,-6.99425495065734e-05,0.7452130978044467
2025-03-06 15:14:05.604,-6.114368961390543e-05,0.6359954389562025
2025-03-06 15:14:05.612,-5.366443143224878e-05,0.5383926446213342
2025-03-06 15:14:05.620,-4.745300701017891e-05,0.45441165719286736
2025-03-06 15:14:05.628,-4.241929890495792e-05,0.3859722628085987
2025-03-06 15:14:05.635,-3.8441942958023486e-05,0.3347843603592878
2025-03-06 15:14:05.643,-3.537668306870901e-05,0.3022246373423264
2025-03-06 15:14:05.651,-3.306543609680548e-05,0.2892194348576853
2025-03-06 15:14:05.659,-3.134550015034704e-05,0.2961406476582182
2025-03-06 15:14:05.667,-3.005832901795485e-05,0.3227211757572114
2025-03-06 15:14:05.674,-2.9057334594287386e-05,0.3679957003306604
2025-03-06 15:14:05.682,-2.821428526840443e-05,0.43027141060970836
2025-03-06 15:14:05.690,-2.742401598041554e-05,0.507131814314521
2025-03-06 15:14:05.698,-2.660731530087414e-05,0.5954750170346634
2025-03-06 15:14:05.706,-2.5711989715788042e-05,0.691585980943218
2025-03-06 15:14:05.713,-2.4712232106463847e-05,0.7912404089112797
2025-03-06 15:14:05.721,-2.360653602643726e-05,0.8898361800198619
2025-03-06 15:14:05.729,-2.2414473349491066e-05,0.9825467993616921
2025-03-06 15:14:05.737,-2.117267494291359e-05,1.0644902012821145
2025-03-06 15:14:05.745,-1.9930336579169355e-05,1.1309055101397965
2025-03-06 15:14:05.753,-1.874453759215509e-05,1.1773300346408482
2025-03-06 15:14:05.760,-1.767561917395476e-05,1.1997688431262288
2025-03-06 15:14:05.768,-1.6782825966442973e-05,1.1948497100551632
2025-03-06 15:14:05.776,-1.612037029579366e-05,1.1599569956539943
2025-03-06 15:14:05.784,-1.573403447241954e-05,1.0933390663367701
2025-03-06 15:14:05.792,-1.5658384326435573e-05,0.9941851166691376
2025-03-06 15:14:05.799,-1.5914627685421035e-05,0.862668639910494
2025-03-06 15:14:05.807,-1.6509115752423872e-05,0.6999562369080639
2025-03-06 15:14:05.815,-1.7432454036667962e-05,0.508181877658093
2025-03-06 15:14:05.823,-1.8659163161512416e-05,0.29038806744172013
2025-03-06 15:14:05.831,-2.014780887214183e-05,0.050436566302244475
2025-03-06 15:14:05.838,-2.184150669082678e-05,-0.2071076617162127
2025-03-06 15:14:05.846,-2.366870962789569e-05,-0.47711473808187077
2025-03-06 15:14:05.854,-2.554422764363472e-05,-0.7540451767922246
2025-03-06 15:14:05.862,-2.737051450302591e-05,-1.0321164623693477
2025-03-06 15:14:05.870,-2.9039354928499955e-05,-1.3054748042455608
2025-03-06 15:14:05.878,-3.043412168855412e-05,-1.5683658252292374
2025-03-06 15:14:05.885,-3.1432710918113454e-05,-1.8152980209048812
2025-03-06 15:14:05.893,-3.191114243474811e-05,-2.0411931550675675
2025-03-06 15:14:05.901,-3.1747701299870646e-05,-2.2415183438831745
2025-03-06 15:14:05.909,-3.08274341137348e-05,-2.412395420415528
2025-03-06 15:14:05.917,-2.904678963837013e-05,-2.550684230345811
2025-03-06 15:14:05.924,-2.6318188322879953e-05,-2.6540377339856347
2025-03-06 15:14:05.932,-2.257431001422401e-05,-2.720928106648951
2025-03-06 15:14:05.940,-1.777190238787314e-05,-2.750644360044058
2025-03-06 15:14:05.948,-1.1894934736124865e-05,-2.7432632728107738
2025-03-06 15:14:05.956,-4.9569528522049775e-06,-2.6995965444048875
2025-03-06 15:14:05.963,2.9974692119360793e-06,-2.6211180101592464
2025-03-06 15:14:05.971,1.1892236054853059e-05,-2.5098754313744767
2025-03-06 15:14:05.979,2.1620196919422737e-05,-2.3683917768117144
2025-03-06 15:14:05.987,3.204452019243857e-05,-2.1995610322469847
2025-03-06 15:14:05.995,4.300090078257371e-05,-2.006543420900562
2025-03-06 15:14:06.003,5.4300538398648864e-05,-1.7926645149537124
2025-03-06 15:14:06.010,6.573385430285893e-05,-1.561322106886779
2025-03-06 15:14:06.018,7.707492166488994e-05,-1.3159039384398623
2025-03-06 15:14:06.026,8.808656745929385e-05,-1.0597185103335471
2025-03-06 15:14:06.034,9.852608799171271e-05,-0.7959402777770483
2025-03-06 15:14:06.042,0.0001081515058157865,-0.5275696372259656
2025-03-06 15:14:06.049,0.00011672825737618755,-0.25740728784792194
2025-03-06 15:14:06.057,0.0001240361397580207,0.011958143855167478
2025-03-06 15:14:06.065,0.0001298762918118352,0.2781508645966879
2025-03-06 15:14:06.073,0.00013407795051618342,0.5389990811379313
2025-03-06 15:14:06.081,0.00013650469704593567,0.7925188221591414
2025-03-06 15:14:06.088,0.00013705989258588368,1.0368927774185632
2025-03-06 15:14:06.096,0.00013569101664869058,1.2704465418941764
2025-03-06 15:14:06.104,0.00013239266031257887,1.4916246029628726
2025-03-06 15:14:06.112,0.0001272079810036783,1.698968288127569
2025-03-06 15:14:06.120,0.00012022848634713614,1.8910977016343749
2025-03-06 15:14:06.128,0.00011159208072891316,2.0666994218386123
2025-03-06 15:14:06.135,0.00010147937957595519,2.2245214058998
2025-03-06 15:14:06.143,9.010837279844602e-05,2.363376151741223
2025-03-06 15:14:06.151,7.772759988235856e-05,2.4821527014912403
2025-03-06 15:14:06.159,6.460808396038845e-05,2.579837549006157
2025-03-06 15:14:06.167,5.103435960659139e-05,2.6555439604793833
2025-03-06 15:14:06.174,3.7295015811011566e-05,2.7085486579733655
2025-03-06 15:14:06.182,2.3673249796989346e-05,2.7383342709963934
2025-03-06 15:14:06.190,1.043796425923359e-05,2.7446354443580945
2025-03-06 15:14:06.198,-2.1640836086680998e-06,2.7274860159565164
2025-03-06 15:14:06.206,-1.3914657460503809e-05,2.687264269544886
2025-03-06 15:14:06.213,-2.462863711078639e-05,2.6247329608472603
2025-03-06 15:14:06.221,-3.415665902810156e-05,2.541070655925395
2025-03-06 15:14:06.229,-4.238576344134943e-05,2.437890954715728
2025-03-06 15:14:06.237,-4.923816825702066e-05,2.3172464367797385
2025-03-06 15:14:06.245,-5.466847839153917e-05,2.1816146797030793
2025-03-06 15:14:06.253,-5.8659819247475965e-05,2.0338644622141464
2025-03-06 15:14:06.260,-6.121948147242292e-05,1.8772012524294386
2025-03-06 15:14:06.268,-6.237463320914307e-05,1.715092252404656
2025-03-06 15:14:06.276,-6.216851316670007e-05,1.5511725522014208
2025-03-06 15:14:06.284,-6.065732359309885e-05,1.3891352425090178
2025-03-06 15:14:06.292,-5.7907860627953865e-05,1.2326095332326232
2025-03-06 15:14:06.299,-5.399579278945301e-05,1.0850319223858111
2025-03-06 15:14:06.307,-4.9004433971236436e-05,0.9495161760472071
2025-03-06 15:14:06.315,-4.302383589118407e-05,0.8287282689623264
2025-03-06 15:14:06.323,-3.615002536659216e-05,0.7247724804218266
2025-03-06 15:14:06.331,-2.8484225187487872e-05,0.6390945512942463
2025-03-06 15:14:06.338,-2.0131922473823085e-05,0.5724072142390919
2025-03-06 15:14:06.346,-1.1201685171947694e-05,0.5246425491237201
2025-03-06 15:14:06.354,-1.8036752509864887e-06,0.49493453268391335
2025-03-06 15:14:06.362,7.952136412570392e-06,0.4816338909345608
2025-03-06 15:14:06.370,1.7957993034938704e-05,0.4823559721487545
2025-03-06 15:14:06.378,2.8110512373019128e-05,0.49406088597306336
2025-03-06 15:14:06.385,3.831286217731609e-05,0.5131636503852272
2025-03-06 15:14:06.393,4.847681158464285e-05,0.5356706068387133
2025-03-06 15:14:06.401,5.8524508481155616e-05,0.5573369678635283
2025-03-06 15:14:06.409,6.838984908534916e-05,0.5738391256480129
2025-03-06 15:14:06.417,7.801935358301268e-05,0.5809543605340041
2025-03-06 15:14:06.424,8.737251122750949e-05,0.5747399316482052
2025-03-06 15:14:06.432,9.642158707667756e-05,0.551703280881481
2025-03-06 15:14:06.440,0.00010515090269623466,0.5089552837869171
2025-03-06 15:14:06.448,0.00011355563546725586,0.4443391544312081
2025-03-06 15:14:06.456,0.00012164022475349307,0.3565287399067711
2025-03-06 15:14:06.463,0.0001294165138144562,0.24509146944076757
2025-03-06 15:14:06.471,0.00013690178464761057,0.1105130591368544
2025-03-06 15:14:06.479,0.00014411685648392216,-0.04581690630075173
2025-03-06 15:14:06.487,0.0001510844171385862,-0.22165732466874033
2025-03-06 15:14:06.495,0.00015782774001499875,-0.41400268761525927
2025-03-06 15:14:06.503,0.00016436990893326967,-0.6192000088833276
2025-03-06 15:14:06.510,0.00017073362921950913,-0.8330891758504264
2025-03-06 15:14:06.518,0.00017694164819158503,-1.0511592888907892
2025-03-06 15:14:06.526,0.00018301774324626293,-1.2687129813790423
2025-03-06 15:14:06.534,0.00018898816347592064,-1.4810306408051084
2025-03-06 15:14:06.542,0.0001948833337033014,-1.6835268688577265
2025-03-06 15:14:06.549,0.0002007395524690511,-1.8718923762930808
2025-03-06 15:14:06.557,0.00020660035052414327,-2.0422157241802084
2025-03-06 15:14:06.565,0.00021251714910059823,-2.191080790044518
2025-03-06 15:14:06.573,0.00021854889165701149,-2.3156374377941056
2025-03-06 15:14:06.581,0.00022476041787907966,-2.4136444912205564
2025-03-06 15:14:06.588,0.0002312194783952943,-2.4834856563927987
2025-03-06 15:14:06.596,0.00023799242559376031,-2.524160430488072
2025-03-06 15:14:06.604,0.0002451387454778514,-2.5352532080113424
2025-03-06 15:14:06.612,0.000252704713036458,-2.5168846962085922
2025-03-06 15:14:06.620,0.00026071656294733125,-2.4696503446818183
2025-03-06 15:14:06.628,0.00026917367575301826,-2.394550768266408
2025-03-06 15:14:06.635,0.00027804237274809746,-2.2929191056079214
2025-03-06 15:14:06.643,0.00028725094101059997,-2.1663499302720357
2025-03-06 15:14:06.651,0.0002966864274710497,-2.016633748728016
2025-03-06 15:14:06.659,0.0003061935595197608,-1.8457003215049925
2025-03-06 15:14:06.667,0.00031557593372164716,-1.6555730789398972
2025-03-06 15:14:06.674,0.00032459942441310775,-1.4483358291039783
2025-03-06 15:14:06.682,0.00033299761930572695,-1.2261118454256557
2025-03-06 15:14:06.690,0.00034047898269569697,-0.9910543632318786
2025-03-06 15:14:06.698,0.00034673537995929686,-0.7453466007500286
2025-03-06 15:14:06.706,0.000351451574853059,-0.4912087317275535
2025-03-06 15:14:06.713,0.00035431531153244655,-0.23090882658939577
2025-03-06 15:14:06.721,0.0003550275805334332,0.03322533668026037
2025-03-06 15:14:06.729,0.00035331264338224976,0.2987965312014331
2025-03-06 15:14:06.737,0.00034892739190580047,0.5633329602542425
2025-03-06 15:14:06.745,0.0003416696684525528,0.8242897528309052
2025-03-06 15:14:06.753,0.0003313852592605181,1.0790584185628103
2025-03-06 15:14:06.760,0.00031797337316582364,1.3249849167608156
2025-03-06 15:14:06.768,0.0003013905209573739,1.559396324510994
2025-03-06 15:14:06.776,0.00028165281282084385,1.7796354792076636
2025-03-06 15:14:06.784,0.0002588367820548079,1.9831024540944708
2025-03-06 15:14:06.792,0.00023307889967518513,2.167301325271456
2025-03-06 15:14:06.799,0.00020457394507849655,2.3298904186103204
2025-03-06 15:14:06.807,0.00017357234590784993,2.468734086928362
2025-03-06 15:14:06.815,0.0001403765236452234,2.5819540549105797
2025-03-06 15:14:06.823,0.00010533620902159528,2.667978470019634
2025-03-06 15:14:06.831,6.884263851135703e-05,2.725586994212646
2025-03-06 15:14:06.838,3.132151627030765e-05,2.7539505348109627
2025-03-06 15:14:06.846,-6.775370044596211e-06,2.752664501293761
2025-03-06 15:14:06.854,-4.497994434410692e-05,2.7217747377312294
2025-03-06 15:14:06.862,-8.281900220399042e-05,2.6617954703346256
2025-03-06 15:14:06.870,-0.00011982650717011455,2.5737186959175826
2025-03-06 15:14:06.878,-0.00015555657786515362,2.459014420750006
2025-03-06 15:14:06.885,-0.00018959654662437951,2.3196210763768343
2025-03-06 15:14:06.893,-0.0002215793917865094,2.157925351006424
2025-03-06 15:14:06.901,-0.00025119485341197715,1.9767306513319767
2025-03-06 15:14:06.909,-0.00027819859516514325,1.7792135104172664
2025-03-06 15:14:06.917,-0.0003024188509076162,1.568867521417223
2025-03-06 15:14:06.924,-0.0003237601046572095,1.349434814289168
2025-03-06 15:14:06.932,-0.00034220351741150575,1.1248256838081057
2025-03-06 15:14:06.940,-0.0003578040315232168,0.8990276800896672
2025-03-06 15:14:06.948,-0.0003706843243015762,0.6760062313396475
2025-03-06 15:14:06.956,-0.00038102600980479854,0.4595996182128384
2025-03-06 15:14:06.963,-0.0003890586643606352,0.253411792766197
2025-03-06 15:14:06.971,-0.0003950473500700047,0.060707072382428715
2025-03-06 15:14:06.979,-0.00039927933134246697,-0.11568890414622636
2025-03-06 15:14:06.987,-0.00040205064764421087,-0.27347742508636336
2025-03-06 15:14:06.995,-0.0004036531478825574,-0.4109597155443542
2025-03-06 15:14:07.003,-0.00040436252240117913,-0.5270906177054477
2025-03-06 15:14:07.010,-0.00040442779335549687,-0.6215094865954391
2025-03-06 15:14:07.018,-0.00040406264563070494,-0.6945457680876845
2025-03-06 15:14:07.026,-0.00040343889230285215,-0.747197903264656
2025-03-06 15:14:07.034,-0.00040268225332806205,-0.7810855705840328
2025-03-06 15:14:07.042,-0.00040187047654348287,-0.7983767416280485
2025-03-06 15:14:07.049,-0.00040103368239533476,-0.8016924814164752
2025-03-06 15:14:07.057,-0.0004001567316843153,-0.7939937617151847
2025-03-06 15:14:07.065,-0.0003991834242211509,-0.778455670916407
2025-03-06 15:14:07.073,-0.00039802239706854936,-0.7583352049640173
2025-03-06 15:14:07.081,-0.0003965546455649762,-0.736839243110716
2025-03-06 15:14:07.089,-0.0003946425934631408,-0.7169993172570854
2025-03-06 15:14:07.096,-0.00039214055542254885,-0.7015593788654182
2025-03-06 15:14:07.104,-0.0003889062539947285,-0.6928819899463137
2025-03-06 15:14:07.112,-0.00038481280710330016,-0.6928772743267873
2025-03-06 15:14:07.120,-0.0003797603576199172,-0.702957637231549
2025-03-06 15:14:07.128,-0.00037368634926419577,-0.7240197810696541
2025-03-06 15:14:07.135,-0.00036657342739501806,-0.756454006587597
2025-03-06 15:14:07.143,-0.0003584540865010897,-0.8001792836030315
2025-03-06 15:14:07.151,-0.00034941147231195777,-0.8547011834039655
2025-03-06 15:14:07.159,-0.0003395761214988737,-0.9191885437531817
2025-03-06 15:14:07.167,-0.0003291188385300891,-0.9925637298580031
2025-03-06 15:14:07.174,-0.00031824032168325725,-1.073600601094272
2025-03-06 15:14:07.182,-0.0003071584883908642,-1.1610238389109517
2025-03-06 15:14:07.190,-0.00029609463502009223,-1.2536031792013977
2025-03-06 15:14:07.198,-0.0002852595698232466,-1.3502363498162888
2025-03-06 15:14:07.206,-0.00027484072677706344,-1.4500151435565725
2025-03-06 15:14:07.214,-0.0002649910762818372,-1.5522700372460707
2025-03-06 15:14:07.221,-0.00025582044577145835,-1.6565900561218425
2025-03-06 15:14:07.229,-0.00024738966926675387,-1.7628161167613297
2025-03-06 15:14:07.237,-0.00023970780759148856,-1.8710077741600473
2025-03-06 15:14:07.245,-0.00023273252386000324,-1.9813850421529577
2025-03-06 15:14:07.253,-0.00022637355625720806,-2.094248637341554
2025-03-06 15:14:07.260,-0.00022049908269853463,-2.209883510935843
2025-03-06 15:14:07.268,-0.00021494460053698527,-2.328451795317792
2025-03-06 15:14:07.276,-0.00020952375543826176,-2.4498822361799024
2025-03-06 15:14:07.284,-0.00020404038512704888,-2.573763753038697
2025-03-06 15:14:07.292,-0.00019830094517141555,-2.6992509246916607
2025-03-06 15:14:07.299,-0.0001921264812148378,-2.8249888930489
2025-03-06 15:14:07.307,-0.00018536338553610927,-2.9490643930474247
2025-03-06 15:14:07.315,-0.0001778922856924558,-3.0689883483825935
2025-03-06 15:14:07.323,-0.000169634546241716,-3.1817137667349638
2025-03-06 15:14:07.331,-0.0001605560304620767,-3.283690623607855
2025-03-06 15:14:07.339,-0.00015066796140929465,-3.3709571896137773
2025-03-06 15:14:07.346,-0.00014002492225553153,-3.4392650066112718
2025-03-06 15:14:07.354,-0.00012872023915169912,-3.484232624275164
2025-03-06 15:14:07.362,-0.00011687919186842812,-3.5015214129639802
2025-03-06 15:14:07.370,-0.00010465066810331732,-3.487025371630152
2025-03-06 15:14:07.378,-9.219796793255825e-05,-3.43706590885324
2025-03-06 15:14:07.385,-7.968945065755853e-05,-3.348582116339459
2025-03-06 15:14:07.393,-6.7289621655085e-05,-3.2193070825858907
2025-03-06 15:14:07.401,-5.51511316219843e-05,-3.047921298340715
2025-03-06 15:14:07.409,-4.340804237635457e-05,-2.8341751528022496
2025-03-06 15:14:07.417,-3.2170616234338404e-05,-2.578973855936224
2025-03-06 15:14:07.424,-2.152180494294252e-05,-2.2844197778116766
2025-03-06 15:14:07.432,-1.1515528673806451e-05,-1.953809093694002
2025-03-06 15:14:07.440,-2.176725091945187e-06,-1.591581685259819
2025-03-06 15:14:07.448,6.496983956633403e-06,-1.2032253896612182
2025-03-06 15:14:07.456,1.4532286799533354e-05,-0.7951378088911362
2025-03-06 15:14:07.464,2.1976201392284896e-05,-0.3744508699005308
2025-03-06 15:14:07.471,2.889150521768159e-05,0.05117497011463083
2025-03-06 15:14:07.479,3.535192483897965e-05,0.47377866344475494
2025-03-06 15:14:07.487,4.143737874655977e-05,0.8853395954921166
2025-03-06 15:14:07.495,4.722951928397776e-05,1.2780222720082077
2025-03-06 15:14:07.503,5.280776853475855e-05,1.6444153652771465
2025-03-06 15:14:07.510,5.8245978246524905e-05,1.9777563496142778
2025-03-06 15:14:07.518,6.360978232278143e-05,2.272133831146493
2025-03-06 15:14:07.526,6.895466576436233e-05,2.5226608039470064
2025-03-06 15:14:07.534,7.432473467763573e-05,2.7256133631812234
2025-03-06 15:14:07.542,7.975212791310503e-05,2.8785308054630576
2025-03-06 15:14:07.549,8.525697641776272e-05,2.9802744864099533
2025-03-06 15:14:07.557,9.084781357791751e-05,3.0310442344470285
2025-03-06 15:14:07.565,9.652236842278846e-05,3.0323524985917425
2025-03-06 15:14:07.573,0.0001022687093010483,2.9869577080821923
2025-03-06 15:14:07.581,0.00010806672402089832,2.8987595241581756
2025-03-06 15:14:07.589,0.00011388991266220596,2.7726597555891437
2025-03-06 15:14:07.596,0.00011970743142677333,2.6143936783890513
2025-03-06 15:14:07.604,0.00012548627099665514,2.4303373338140037
2025-03-06 15:14:07.612,0.0001311934056705359,2.227297060949706
2025-03-06 15:14:07.620,0.00013679773457944046,2.0122880332360817
2025-03-06 15:14:07.628,0.0001422716541600323,1.7923088980301187
2025-03-06 15:14:07.635,0.00014759213009370284,1.5741197580416468
2025-03-06 15:14:07.643,0.00015274116321830158,1.3640306824210973
2025-03-06 15:14:07.651,0.00015770557982746692,1.1677076921406455
2025-03-06 15:14:07.659,0.00016247614246392726,0.9900027211611845
2025-03-06 15:14:07.667,0.00016704607070409518,0.8348133983579352
2025-03-06 15:14:07.674,0.00017140915659338209,0.7049776158060087
2025-03-06 15:14:07.682,0.00017555773028454322,0.6022067507752397
2025-03-06 15:14:07.690,0.00017948076588940304,0.5270601105807607
2025-03-06 15:14:07.698,0.0001831624128548378,0.4789617004785211
2025-03-06 15:14:07.706,0.00018658119462384306,0.45625881335379487
2025-03-06 15:14:07.714,0.00018971003726966928,0.45632025830400347
2025-03-06 15:14:07.721,0.0001925171889398493,0.4756703529217765
2025-03-06 15:14:07.729,0.00019496799289306423,0.5101531855241996
2025-03-06 15:14:07.737,0.00019702740905802867,0.5551202040995074
2025-03-06 15:14:07.745,0.00019866314387049575,0.6056330098702681
2025-03-06 15:14:07.753,0.00019984922415625854,0.6566724213913046
2025-03-06 15:14:07.760,0.0002005698161937658,0.7033445042009435
2025-03-06 15:14:07.768,0.00020082303916483504,0.7410743709012132
2025-03-06 15:14:07.776,0.00020062446343980004,0.7657791505375203
2025-03-06 15:14:07.784,0.00020000994407755324,0.7740125772069679
2025-03-06 15:14:07.792,0.0001990374435379129,0.7630751044798413
2025-03-06 15:14:07.799,0.00019778754722526347,0.7310852389408982
2025-03-06 15:14:07.807,0.0001963624571565675,0.6770098001568827
2025-03-06 15:14:07.815,0.00019488335906433713,0.6006529298080698
2025-03-06 15:14:07.823,0.00019348619672036985,0.502605757995532
2025-03-06 15:14:07.831,0.00019231602717077105,0.3841605723291672
2025-03-06 15:14:07.839,0.0001915202317229031,0.24719502964211018
2025-03-06 15:14:07.846,0.00019124091684907555,0.09403332411007119
2025-03-06 15:14:07.854,0.00019160689076027618,-0.07270778063920837
2025-03-06 15:14:07.862,0.00019272566471295548,-0.2502795724685675
2025-03-06 15:14:07.870,0.0001946759876466381,-0.43596003806165323
2025-03-06 15:14:07.878,0.00019750145464980914,-0.6272021886136132
2025-03-06 15:14:07.885,0.00020120572222730114,-0.821764390873096
2025-03-06 15:14:07.893,0.0002057498122732291,-1.0178160624075734
2025-03-06 15:14:07.901,0.00021105188277856292,-1.2140134237533329
2025-03-06 15:14:07.909,0.00021698966777949504,-1.4095415639002618
2025-03-06 15:14:07.917,0.00022340553544172517,-1.6041207858026343
2025-03-06 15:14:07.924,0.0002301138219697542,-1.7979769706900404
2025-03-06 15:14:07.932,0.00023690984971772277,-1.991777456635601
2025-03-06 15:14:07.940,0.00024357989395349,-2.186535600441526
2025-03-06 15:14:07.948,0.000249911338440253,-2.3834887214540275
2025-03-06 15:14:07.956,0.00025570233451895747,-2.583955453253409
2025-03-06 15:14:07.964,0.00026077041615896846,-2.789179599194182
2025-03-06 15:14:07.971,0.00026495968538585836,-3.0001683545512408
2025-03-06 15:14:07.979,0.000268146338781188,-3.2175331915946415
2025-03-06 15:14:07.987,0.00027024244182694067,-3.441341792149849
2025-03-06 15:14:07.995,0.0002711979684140642,-3.670989156575229
2025-03-06 15:14:08.003,0.0002710012053636056,-3.9050954260320725
2025-03-06 15:14:08.010,0.0002696776750487538,-4.14143703447473
2025-03-06 15:14:08.018,0.00026728775307191223,-4.376916568470935
2025-03-06 15:14:08.026,0.00026392315348597914,-4.607575177343966
2025-03-06 15:14:08.034,0.000259702424964756,-4.828649580426617
2025-03-06 15:14:08.042,0.0002547655603300945,-5.034673717557664
2025-03-06 15:14:08.049,0.0002492677949900287,-5.21962295459239
2025-03-06 15:14:08.057,0.00024337268249254666,-5.3770965755352425
2025-03-06 15:14:08.065,0.00023724458844087302,-5.500532174395227
2025-03-06 15:14:08.073,0.00023104081380302048,-5.583443628773857
2025-03-06 15:14:08.081,0.0002249036206629041,-5.619672727461781
2025-03-06 15:14:08.089,0.00021895247625045895,-5.603643362875789
2025-03-06 15:14:08.096,0.00021327685181488188,-5.530606591999425
2025-03-06 15:14:08.104,0.00020792991093460155,-5.396864889364634
2025-03-06 15:14:08.112,0.00020292339878515663,-5.199964589306904
2025-03-06 15:14:08.120,0.00019822400999023817,-4.9388468139623605
2025-03-06 15:14:08.128,0.00019375148979521522,-4.61394902775711
2025-03-06 15:14:08.135,0.00018937872448188472,-4.227251631558195
2025-03-06 15:14:08.143,0.00018493407835800847,-3.7822665770697284
2025-03-06 15:14:08.151,0.00018020618958370827,-3.2839677096953523
2025-03-06 15:14:08.159,0.00017495132334396563,-2.7386653034138413
2025-03-06 15:14:08.167,0.0001689032147321452,-2.153829899124558
2025-03-06 15:14:08.174,0.00016178514177040042,-1.5378729574809211
2025-03-06 15:14:08.182,0.00015332376934871182,-0.8998938497750726
2025-03-06 15:14:08.190,0.00014326411626345697,-0.24940421629489337
2025-03-06 15:14:08.198,0.0001313848501476494,0.40395836558693377
2025-03-06 15:14:08.206,0.00011751303803249229,1.0507151872901808
2025-03-06 15:14:08.214,0.0001015374778082163,1.6818178392045218
2025-03-06 15:14:08.221,8.341978718903121e-05,2.2888953799184337
2025-03-06 15:14:08.229,6.320250970669548e-05,2.8644678380140776
2025-03-06 15:14:08.237,4.101360353240754e-05,3.4021185194098256
2025-03-06 15:14:08.245,1.706681618522928e-05,3.8966197443486403
2025-03-06 15:14:08.253,-8.342362147158511e-06,4.344008932923197
2025-03-06 15:14:08.260,-3.4845212289333854e-05,4.741614282523122
2025-03-06 15:14:08.268,-6.201248633327842e-05,5.088031538890569
2025-03-06 15:14:08.276,-8.93706664764808e-05,5.383055472295235
2025-03-06 15:14:08.284,-0.0001164208506376429,5.62757155519395
2025-03-06 15:14:08.292,-0.00014265913718613556,5.823414921042922
2025-03-06 15:14:08.299,-0.00016759732313149673,5.9732048888261975
2025-03-06 15:14:08.307,-0.0001907827883204113,6.0801640951076035
2025-03-06 15:14:08.315,-0.00021181656461827345,6.147931538135406
2025-03-06 15:14:08.323,-0.00023036874873953812,6.180378596886214
2025-03-06 15:14:08.331,-0.00024619060267248285,6.181436375008624
2025-03-06 15:14:08.339,-0.0002591229017164366,6.154941605968229
2025-03-06 15:14:08.346,-0.0002691003238223979,6.104506937485898
2025-03-06 15:14:08.354,-0.00027615188421290996,6.033419799402839
2025-03-06 15:14:08.362,-0.000280397577809535,5.944572356689283
2025-03-06 15:14:08.370,-0.00028204151005606923,5.84042334977119
2025-03-06 15:14:08.378,-0.00028136188874071475,5.722990994804429
2025-03-06 15:14:08.385,-0.0002786983111921439,5.593874602962666
2025-03-06 15:14:08.393,-0.000274436825699007,5.454301217295466
2025-03-06 15:14:08.401,-0.0002689933123952127,5.305192400971141
2025-03-06 15:14:08.409,-0.00026279583710558946,5.147245398636764
2025-03-06 15:14:08.417,-0.0002562667555302623,4.981022300411624
2025-03-06 15:14:08.424,-0.000249805429466015,4.807040627366316
2025-03-06 15:14:08.432,-0.00024377241360590884,4.625858963626609
2025-03-06 15:14:08.440,-0.00023847587781184904,4.438151876502566
2025-03-06 15:14:08.448,-0.0002341608843817692,4.244769339429281
2025-03-06 15:14:08.456,-0.0002310019714084008,4.046777114090852
2025-03-06 15:14:08.464,-0.00022909930315020532,3.845475949213876
2025-03-06 15:14:08.471,-0.00022847845105078573,3.6423989025930568
2025-03-06 15:14:08.479,-0.000229093697091392,3.4392874902961963
2025-03-06 15:14:08.487,-0.0002308346065245616,3.2380486340733596
2025-03-06 15:14:08.495,-0.0002335354664518289,3.0406954585664874
2025-03-06 15:14:08.503,-0.00023698701353226849,2.849275846845059
2025-03-06 15:14:08.510,-0.000240949705143701,2.665793272654975
2025-03-06 15:14:08.518,-0.00024516767176667594,2.4921247748750606
2025-03-06 15:14:08.526,-0.0002493824595306521,2.329941013538667
2025-03-06 15:14:08.534,-0.00025334573235033357,2.1806331457919423
2025-03-06 15:14:08.542,-0.0002568302288809663,2.0452507982518973
2025-03-06 15:14:08.549,-0.00025963844121741614,1.924454722855312
2025-03-06 15:14:08.557,-0.00026160869548232454,1.8184868577889006
2025-03-06 15:14:08.565,-0.00026261855067942236,1.727159535505011
2025-03-06 15:14:08.573,-0.00026258563986783067,1.6498645493181072
2025-03-06 15:14:08.581,-0.0002614662147670356,1.5856017663754431
2025-03-06 15:14:08.589,-0.00025925173903086727,1.53302600917296
2025-03-06 15:14:08.596,-0.00025596395402746353,1.4905100646168896
2025-03-06 15:14:08.604,-0.0002516489208742979,1.4562209519654257
2025-03-06 15:14:08.612,-0.00024637058801421164,1.428206007200778
2025-03-06 15:14:08.620,-0.00024020442317209369,1.4044849291867376
2025-03-06 15:14:08.628,-0.00023323159489551152,1.3831436862041704
2025-03-06 15:14:08.635,-0.00022553410622194026,1.3624261017348944
2025-03-06 15:14:08.643,-0.000217191163566895,1.340819022982837
2025-03-06 15:14:08.651,-0.00020827690110549886,1.3171272173737065
2025-03-06 15:14:08.659,-0.00019885940377881015,1.290534529980372
2025-03-06 15:14:08.667,-0.00018900083284417217,1.2606483513585978
2025-03-06 15:14:08.674,-0.00017875838455447949,1.227525066126974
2025-03-06 15:14:08.682,-0.0001681857947061286,1.1916748496697105
2025-03-06 15:14:08.690,-0.00015733511880783289,1.154044929404625
2025-03-06 15:14:08.698,-0.00014625855733905161,1.115981212734476
2025-03-06 15:14:08.706,-0.00013501014504379406,1.0791689972282896
2025-03-06 15:14:08.714,-0.00012364715945670845,1.0455543096015611
2025-03-06 15:14:08.721,-0.00011223111262566841,1.0172482494510795
2025-03-06 15:14:08.729,-0.00010082819229976956,0.9964175115064836
2025-03-06 15:14:08.737,-8.950905063817491e-05,0.9851649916105081
2025-03-06 15:14:08.745,-7.83478988020456e-05,0.9854050151649713
2025-03-06 15:14:08.753,-6.742091676787588e-05,0.9987382371363799
2025-03-06 15:14:08.760,-5.680400809297146e-05,1.026331627798212
2025-03-06 15:14:08.768,-4.6569941341684e-05,1.0688091549038474
2025-03-06 15:14:08.776,-3.678496537643679e-05,1.126158775687286
2025-03-06 15:14:08.784,-2.7505084099410966e-05,1.1976611346542814
2025-03-06 15:14:08.792,-1.877229424456375e-05,1.2818448969272305
2025-03-06 15:14:08.799,-1.0611163995234699e-05,1.3764729011444132
2025-03-06 15:14:08.807,-3.0261327205865587e-06,1.4785622666426366
2025-03-06 15:14:08.815,4.000131850994661e-06,1.584440236639619
2025-03-06 15:14:08.823,1.0507049655053652e-05,1.6898359186348852
2025-03-06 15:14:08.831,1.655493986214739e-05,1.7900062683072704
2025-03-06 15:14:08.839,2.2222253174365155e-05,1.879892756750345
2025-03-06 15:14:08.846,2.760122558122132e-05,1.954303289166054
2025-03-06 15:14:08.854,3.2791991340741984e-05,2.008112245763302
2025-03-06 15:14:08.862,3.789523534451794e-05,2.0364701278600257
2025-03-06 15:14:08.870,4.300356937384296e-05,2.0350133262732606
2025-03-06 15:14:08.878,4.81919899156953e-05,2.0000640645443157
2025-03-06 15:14:08.885,5.350796583064553e-05,1.9288106515837404
2025-03-06 15:14:08.893,5.896185015151316e-05,1.819458816343135
2025-03-06 15:14:08.901,6.451837531377155e-05,1.6713460629246868
2025-03-06 15:14:08.909,7.008997088045517e-05,1.4850126155957042
2025-03-06 15:14:08.917,7.553256846329787e-05,1.2622245315460665
2025-03-06 15:14:08.924,8.06444775358913e-05,1.0059468398070488
2025-03-06 15:14:08.932,8.5168841414853e-05,0.7202669984082684
2025-03-06 15:14:08.940,8.880007064014287e-05,0.41027141641055676
2025-03-06 15:14:08.948,9.119443890964557e-05,0.0818801225549264
2025-03-06 15:14:08.956,9.198469839668316e-05,-0.2583532603183988
2025-03-06 15:14:08.964,9.079818187419097e-05,-0.6034673806975317
2025-03-06 15:14:08.971,8.727749254118535e-05,-0.9463347980014355
2025-03-06 15:14:08.979,8.110259479613422e-05,-1.2799086752092077
2025-03-06 15:14:08.987,7.201293321252971e-05,-1.597463738368615
2025-03-06 15:14:08.995,5.982813422965023e-05,-1.8928212329433567
2025-03-06 15:14:09.003,4.446589047484257e-05,-2.160548648013159
2025-03-06 15:14:09.010,2.595578921184976e-05,-2.396126448906453
2025-03-06 15:14:09.018,4.44811207350447e-06,-2.596075837446018
2025-03-06 15:14:09.026,-1.9783035151640835e-05,-2.758043525098458
2025-03-06 15:14:09.034,-4.6342561121408e-05,-2.8808415488645323
2025-03-06 15:14:09.042,-7.47231709030218e-05,-2.964442189744978
2025-03-06 15:14:09.049,-0.00010431975604106993,-3.0099299886832807
2025-03-06 15:14:09.057,-0.00013444874764318525,-3.0194146232141907
2025-03-06 15:14:09.065,-0.0001643714867827495,-2.9959099450025075
2025-03-06 15:14:09.073,-0.0001933204136623297,-2.94318572715024
2025-03-06 15:14:09.081,-0.00022052672260429505,-2.865599582778691
2025-03-06 15:14:09.089,-0.00024524809286034576,-2.767917055895255
2025-03-06 15:14:09.096,-0.0002667951522680425,-2.6551280284021614
2025-03-06 15:14:09.104,-0.00028455542523222815,-2.5322673287542528
2025-03-06 15:14:09.112,-0.0002980136699940272,-2.404246789273639
2025-03-06 15:14:09.120,-0.0003067677528085265,-2.2757050299189787
2025-03-06 15:14:09.128,-0.0003105395224070181,-2.1508800200032936
2025-03-06 15:14:09.135,-0.0003091804718594351,-2.033508073313677
2025-03-06 15:14:09.143,-0.0003026722468810857,-1.9267514541862232
2025-03-06 15:14:09.151,-0.00029112226475684866,-1.8331552906640907
2025-03-06 15:14:09.159,-0.0002747548667898685,-1.7546330723142634
2025-03-06 15:14:09.167,-0.0002538985633858166,-1.692478711365715
2025-03-06 15:14:09.174,-0.0002289700560925276,-1.6474020156013842
2025-03-06 15:14:09.182,-0.00020045583693059418,-1.6195835041966788
2025-03-06 15:14:09.190,-0.00016889226399834241,-1.6087438377720134
2025-03-06 15:14:09.198,-0.0001348450723852075,-1.6142227739135238
2025-03-06 15:14:09.206,-9.88892803194625e-05,-1.6350625259124367
2025-03-06 15:14:09.214,-6.159039579890302e-05,-1.6700906877455586
2025-03-06 15:14:09.221,-2.348774463185828e-05,-1.7179984438763796
2025-03-06 15:14:09.229,1.4919356803405652e-05,-1.777410531573947
2025-03-06 15:14:09.237,5.31819899184128e-05,-1.8469442843297323
2025-03-06 15:14:09.245,9.090818890500403e-05,-1.9252559897893229
2025-03-06 15:14:09.253,0.00012776555392476536,-2.0110736966309104
2025-03-06 15:14:09.260,0.00016348015241417246,-2.1032164682082013
2025-03-06 15:14:09.268,0.00019783226243594076,-2.200600876689583
2025-03-06 15:14:09.276,0.00023064975582665949,-2.302236229610499
2025-03-06 15:14:09.284,0.0002618000409565244,-2.407210593804725
2025-03-06 15:14:09.292,0.0002911814808198147,-2.51467010943748
2025-03-06 15:14:09.299,0.0003187150982140029,-2.623794357093482
2025-03-06 15:14:09.307,0.00034433721397769375,-2.7337706476077157
2025-03-06 15:14:09.315,0.0003679934767918892,-2.843770046467026
2025-03-06 15:14:09.323,0.0003896345665021575,-2.9529277267266694
2025-03-06 15:14:09.331,0.00040921369487129534,-3.0603298805957952
2025-03-06 15:14:09.339,0.00042668587372990234,-3.165008936486953
2025-03-06 15:14:09.346,0.0004420087642116153,-3.265948259025132
2025-03-06 15:14:09.354,0.0004551447818711714,-3.362096884449912
2025-03-06 15:14:09.362,0.00046606403993974967,-3.4523941839805787
2025-03-06 15:14:09.370,0.00047474768111207427,-3.5358036708265463
2025-03-06 15:14:09.378,0.00048119117953129414,-3.611354498296405
2025-03-06 15:14:09.385,0.00048540728925909686,-3.678188574590537
2025-03-06 15:14:09.393,0.00048742846006301013,-3.7356106879500652
2025-03-06 15:14:09.401,0.00048730869783971087,-3.783138633703091
2025-03-06 15:14:09.409,0.00048512496568616984,-3.820550093274838
2025-03-06 15:14:09.417,0.00048097826730148267,-3.8479229567989237
2025-03-06 15:14:09.424,0.0004749945255325151,-3.8656659197128262
2025-03-06 15:14:09.432,0.00046732529116869944,-3.8745365213167475
2025-03-06 15:14:09.440,0.00045814821805600643,-3.8756443129690457
2025-03-06 15:14:09.448,0.00044766713710110836,-3.8704375087353937
2025-03-06 15:14:09.456,0.0004361114707305469,-3.8606722327646996
2025-03-06 15:14:09.464,0.0004237346786440927,-3.8483642870270502
2025-03-06 15:14:09.471,0.0004108114414187605,-3.835724181838291
2025-03-06 15:14:09.479,0.0003976333714249619,-3.8250769707062307
2025-03-06 15:14:09.487,0.0003845031658779294,-3.8187691854260737
2025-03-06 15:14:09.495,0.00037172725813650693,-3.819065853294906
2025-03-06 15:14:09.503,0.00035960716622535365,-3.8280411738662887
2025-03-06 15:14:09.510,0.0003484298754217791,-3.847466918655992
2025-03-06 15:14:09.518,0.0003384577194851336,-3.878702978235783
2025-03-06 15:14:09.526,0.0003299183358953743,-3.9225947070024985
2025-03-06 15:14:09.534,0.0003229953494963511,-3.979381801118086
2025-03-06 15:14:09.542,0.00031782045906861506,-4.048623383882048
2025-03-06 15:14:09.550,0.0003144675371834956,-4.129143752480607
2025-03-06 15:14:09.557,0.00031294920534047187,-4.2190028411227996
2025-03-06 15:14:09.565,0.0003132161412148595,-4.315494858793361
2025-03-06 15:14:09.573,0.00031515915020348807,-4.415177752314273
2025-03-06 15:14:09.581,0.0003186138272684162,-4.513935121957554
2025-03-06 15:14:09.589,0.000323367476352319,-4.607070983573571
2025-03-06 15:14:09.596,0.0003291678462387564,-4.689436354304095
2025-03-06 15:14:09.604,0.00033573316366122374,-4.755585092807442
2025-03-06 15:14:09.612,0.0003427628856685009,-4.7999548329303945
2025-03-06 15:14:09.620,0.0003499485748937434,-4.817067318653269
2025-03-06 15:14:09.628,0.000356984354925258,-4.801741097448612
2025-03-06 15:14:09.635,0.00036357651698766096,-4.749308474424096
2025-03-06 15:14:09.643,0.00036945196155652665,-4.655827961465954
2025-03-06 15:14:09.651,0.0003743652289985302,-4.518283225205123
2025-03-06 15:14:09.659,0.0003781039335158071,-4.334759755472786
2025-03-06 15:14:09.667,0.00038049251004676124,-4.104591121702936
2025-03-06 15:14:09.675,0.00038139429697156584,-3.8284677194390735
2025-03-06 15:14:09.682,0.00038071205003624583,-3.5085022820274294
2025-03-06 15:14:09.690,0.00037838699231637255,-3.1482480825828167
2025-03-06 15:14:09.698,0.0003743964866485163,-2.75266760572756
2025-03-06 15:14:09.706,0.0003687504186733912,-2.3280514427947616
2025-03-06 15:14:09.714,0.0003614864215913908,-1.8818891619248022
2025-03-06 15:14:09.721,0.0003526641579008493,-1.42269582073472
2025-03-06 15:14:09.729,0.00034235898727841095,-0.9597995179423322
2025-03-06 15:14:09.737,0.0003306554577944226,-0.503096825762494
2025-03-06 15:14:09.745,0.0003176411096426291,-0.06278403311236232
2025-03-06 15:14:09.753,0.0003034010526311633,0.3509271819841647
2025-03-06 15:14:09.760,0.0002880136855698945,0.7281007502415113
2025-03-06 15:14:09.768,0.0002715477941605848,1.0593650750023555
2025-03-06 15:14:09.776,0.00025406111881236845,1.3361913787051924
2025-03-06 15:14:09.784,0.00023560035493471802,1.5511538206498108
2025-03-06 15:14:09.792,0.00021620246326584854,1.6981645136158159
2025-03-06 15:14:09.800,0.00019589712968265735,1.7726774862130497
2025-03-06 15:14:09.807,0.00017471020109729557,1.771856564663901
2025-03-06 15:14:09.815,0.00015266791389785097,1.6947030339344031
2025-03-06 15:14:09.823,0.0001298017143163745,1.5421397635262486
2025-03-06 15:14:09.831,0.00010615344496577597,1.3170492522310115
2025-03-06 15:14:09.839,8.178063947274438e-05,1.024263784248401
2025-03-06 15:14:09.846,5.67616289291452e-05,0.6705066395840591
2025-03-06 15:14:09.854,3.120012142257513e-05,0.2642841186289868
2025-03-06 15:14:09.862,5.228872747401056e-06,-0.18427092327379982
2025-03-06 15:14:09.870,-2.0987965601375243e-05,-0.6636022452955334
2025-03-06 15:14:09.878,-4.7254231321907015e-05,-1.1609770594814324
2025-03-06 15:14:09.885,-7.334321651906686e-05,-1.662772126635619
2025-03-06 15:14:09.893,-9.90014406280994e-05,-2.154793260374334
2025-03-06 15:14:09.901,-0.0001239548061613468,-2.622620978428378
2025-03-06 15:14:09.909,-0.00014791704614311338,-3.051973750899253
2025-03-06 15:14:09.917,-0.0001706001848477378,-3.4290792165540283
2025-03-06 15:14:09.925,-0.0001917265127855789,-3.741042944167098
2025-03-06 15:14:09.932,-0.0002110413429973093,-3.976203864239099
2025-03-06 15:14:09.940,-0.00022832563378420264,-4.1244654272083014
2025-03-06 15:14:09.948,-0.00024340750816508088,-4.1775918751219825
2025-03-06 15:14:09.956,-0.0002561717995555278,-4.129459737988724
2025-03-06 15:14:09.964,-0.0002665669613381418,-3.9762557582166416
2025-03-06 15:14:09.971,-0.0002746089220164124,-3.716613873505771
2025-03-06 15:14:09.979,-0.00028038170926152035,-3.3516856199259792
2025-03-06 15:14:09.987,-0.0002840349098133713,-2.885140325771347
2025-03-06 15:14:09.995,-0.00028577828238911935,-2.3230937169191113
2025-03-06 15:14:10.003,-0.00028587406915625275,-1.6739659836580223
2025-03-06 15:14:10.010,-0.00028462770908371674,-0.9482728728927426
2025-03-06 15:14:10.018,-0.00028237771659981605,-0.15835584868585598
2025-03-06 15:14:10.026,-0.0002794854651456443,0.6819403238684552
2025-03-06 15:14:10.034,-0.0002763255335239073,1.557632202765783
2025-03-06 15:14:10.042,-0.0002732771481076728,2.4529925333125346
2025-03-06 15:14:10.050,-0.0002707171017207501,3.3519622884331524
2025-03-06 15:14:10.057,-0.0002690143713866679,4.238566285194444
2025-03-06 15:14:10.065,-0.00026852649828441107,5.0973188297693595
2025-03-06 15:14:10.073,-0.00026959762680049405,5.913606480862615
2025-03-06 15:14:10.081,-0.0002725579327424789,6.674036207710061
2025-03-06 15:14:10.089,-0.0002777240316720711,7.366738876396633
2025-03-06 15:14:10.096,-0.00028539987375473646,7.981620014940961
2025-03-06 15:14:10.104,-0.0002958776130859201,8.510552049090359
2025-03-06 15:14:10.112,-0.0003094379863169217,8.947504532209473
2025-03-06 15:14:10.120,-0.00032634983276939346,9.288611198323327
2025-03-06 15:14:10.128,-0.00034686849815558407,9.532174859456543
2025-03-06 15:14:10.135,-0.0003712329350340342,9.67861318334641
2025-03-06 15:14:10.143,-0.0003996613196091632,9.73035017782915
2025-03-06 15:14:10.151,-0.0004323449769244708,9.691659735980126
2025-03-06 15:14:10.159,-0.0004694404124232245,9.568468829769062
2025-03-06 15:14:10.167,-0.0005110593403668822,9.368128851041119
2025-03-06 15:14:10.175,-0.0005572567844131991,9.099164160815896
2025-03-06 15:14:10.182,-0.0006080175705526861,8.771007100406822
2025-03-06 15:14:10.190,-0.000663241791430564,8.393728533165847
2025-03-06 15:14:10.198,-0.0007227300387479376,7.977772440081187
2025-03-06 15:14:10.206,-0.000786169319895247,7.533702233025854
2025-03-06 15:14:10.214,-0.0008531205752048438,7.071965349739608
2025-03-06 15:14:10.221,-0.0009230086350747082,6.602681439064972
2025-03-06 15:14:10.229,-0.0009951153690916238,6.135458109870154
2025-03-06 15:14:10.237,-0.0010685767139992544,5.679236860293664
2025-03-06 15:14:10.245,-0.0011423842109456643,5.24217046832531
2025-03-06 15:14:10.253,-0.0012153916119402098,4.831531848262614
2025-03-06 15:14:10.260,-0.0012863270200912688,4.453653198010483
2025-03-06 15:14:10.268,-0.001353810905147002,4.113893214580815
2025-03-06 15:14:10.276,-0.0014163801774915354,3.8166292695636974
2025-03-06 15:14:10.284,-0.001472518291623643,3.565270740739073
2025-03-06 15:14:10.292,-0.001520691068958836,3.3622892200609082
2025-03-06 15:14:10.300,-0.001559387590949891,3.209261090290637
2025-03-06 15:14:10.307,-0.0015871651548959307,3.1069179997758827
2025-03-06 15:14:10.315,-0.0016026969467327254,3.05520106690192
2025-03-06 15:14:10.323,-0.0016048207959403872,3.0533151972652512
2025-03-06 15:14:10.331,-0.001592587156177524,3.099780672365051
2025-03-06 15:14:10.339,-0.0015653043097581933,3.1924801321587126
2025-03-06 15:14:10.346,-0.001522578719178766,3.3287001705511683
2025-03-06 15:14:10.354,-0.0014643484384400586,3.505167914692304
2025-03-06 15:14:10.362,-0.0013909075669413212,3.7180840676881903
2025-03-06 15:14:10.370,-0.0013029199166197031,3.9631548536808157
2025-03-06 15:14:10.378,-0.0012014204029253087,4.23562601393484
2025-03-06 15:14:10.385,-0.0010878031766993702,4.530322381097738
2025-03-06 15:14:10.393,-0.0009637961776487173,4.841696556969757
2025-03-06 15:14:10.401,-0.000831422569149305,5.163889832632382
2025-03-06 15:14:10.409,-0.0006929503305949953,5.490807760405398
2025-03-06 15:14:10.417,-0.0005508320418376123,5.816211785820849
2025-03-06 15:14:10.425,-0.0004076375102817884,6.133827150963401
2025-03-06 15:14:10.432,-0.00026598229810646237,6.43746595847445
2025-03-06 15:14:10.440,-0.0001284553429298917,6.721162909867762
2025-03-06 15:14:10.448,2.4513038754691223e-06,6.979319888809991
2025-03-06 15:14:10.456,0.00012440802046736544,7.206854354164866
2025-03-06 15:14:10.464,0.00023530638656995588,7.399345550906791
2025-03-06 15:14:10.471,0.0003333096856512378,7.553171940943253
2025-03-06 15:14:10.479,0.000416894154076595,7.665633073895273
2025-03-06 15:14:10.487,0.00048488046254708715,7.735049391412154
2025-03-06 15:14:10.495,0.0005364553180881912,7.760834169296588
2025-03-06 15:14:10.503,0.0005711833998605232,7.7435328856152115
2025-03-06 15:14:10.510,0.0005890101055316502,7.684826666116899
2025-03-06 15:14:10.518,0.0005902557984869858,7.587497993376763
2025-03-06 15:14:10.526,0.000575602384763654,7.455358462687206
2025-03-06 15:14:10.534,0.0005460730902097158,7.293139920355823
2025-03-06 15:14:10.542,0.0005030062831367882,7.106351739840143
2025-03-06 15:14:10.550,0.00044802414879368483,6.901108217813832
2025-03-06 15:14:10.557,0.00038299698619845626,6.683931079143516
2025-03-06 15:14:10.565,0.0003100038464776995,6.4615328671580095
2025-03-06 15:14:10.573,0.00023129015003987412,6.240587576958759
2025-03-06 15:14:10.581,0.00014922281337737854,6.027495280804645
2025-03-06 15:14:10.589,6.624330769847391e-05,5.828147712637754
2025-03-06 15:14:10.596,-1.5181003762166262e-05,5.647701844178595
2025-03-06 15:14:10.604,-9.26069115516616e-05,5.49036842156089
2025-03-06 15:14:10.612,-0.0001636663786887705,5.359222260070525
2025-03-06 15:14:10.620,-0.00022611797216769855,5.256040824683013
2025-03-06 15:14:10.628,-0.0002778979343994248,5.181177247883821
2025-03-06 15:14:10.635,-0.00031716988027861775,5.133473426864043
2025-03-06 15:14:10.643,-0.00034237187669751933,5.110218157431441
2025-03-06 15:14:10.651,-0.00035225947195522794,5.107154354862074
2025-03-06 15:14:10.659,-0.0003459431204466702,5.118538245926715
2025-03-06 15:14:10.667,-0.0003229184337735156,5.13725197778838
2025-03-06 15:14:10.675,-0.0002830878003002281,5.154969391618419
2025-03-06 15:14:10.682,-0.00022677211506846775,5.162372790154585
2025-03-06 15:14:10.690,-0.000154711586822977,5.1494164515531216
2025-03-06 15:14:10.698,-6.805480408051015e-05,5.105630494811888
2025-03-06 15:14:10.706,3.166451917592398e-05,5.020456598676488
2025-03-06 15:14:10.714,0.0001425633559076431,4.883605148813288
2025-03-06 15:14:10.721,0.0002624574689995894,4.685421772959201
2025-03-06 15:14:10.729,0.0003889208705263937,4.417250042880953
2025-03-06 15:14:10.737,0.0005193549400885064,4.071776472250728
2025-03-06 15:14:10.745,0.0006510647594352505,3.6433438904472983
2025-03-06 15:14:10.753,0.0007813396243673382,3.1282198708505358
2025-03-06 15:14:10.760,0.0009075343515180807,2.5248081659002657
2025-03-06 15:14:10.768,0.0010271479491509809,1.8337930476965214
2025-03-06 15:14:10.776,0.0011378964452699839,1.0582090179899302
2025-03-06 15:14:10.784,0.001237777091964718,0.20343141299375894
2025-03-06 15:14:10.792,0.0013251217023149808,-0.7229131968810087
2025-03-06 15:14:10.800,0.0013986374561082613,-1.7111144428701044
2025-03-06 15:14:10.807,0.0014574341011781879,-2.749617716109952
2025-03-06 15:14:10.815,0.0015010370601092134,-3.825327111076325
2025-03-06 15:14:10.823,0.0015293864985113075,-4.923960461941382
2025-03-06 15:14:10.831,0.0015428228950587497,-6.03044319491696
2025-03-06 15:14:10.839,0.0015420600685247163,-7.12932636571696
2025-03-06 15:14:10.846,0.0015281469676477236,-8.205213555276012
2025-03-06 15:14:10.854,0.0015024198305848967,-9.243181257009542
2025-03-06 15:14:10.862,0.0014664466006535887,-10.229177977979738
2025-03-06 15:14:10.870,0.001421965754190725,-11.150388446328112
2025-03-06 15:14:10.878,0.0013708219129041426,-11.995551002081278
2025-03-06 15:14:10.885,0.0013149007138996702,-12.75521836334157
2025-03-06 15:14:10.893,0.001256065370195083,-13.421954402824243
2025-03-06 15:14:10.901,0.0011960971941796137,-13.990462227251658
2025-03-06 15:14:10.909,0.0011366421089466935,-14.457641608884105
2025-03-06 15:14:10.917,0.0010791648597277515,-14.822576563466013
2025-03-06 15:14:10.925,0.0010249122735301486,-15.086456496416902
2025-03-06 15:14:10.932,0.0009748865112096913,-15.252436747329373
2025-03-06 15:14:10.940,0.0009298288236809728,-15.32544645274871
2025-03-06 15:14:10.948,0.0008902138748653762,-15.311953324323214
2025-03-06 15:14:10.956,0.0008562542478128672,-15.219696120339988
2025-03-06 15:14:10.964,0.0008279143387231188,-15.05739621298593
2025-03-06 15:14:10.971,0.0008049324960582929,-14.834459698131312
2025-03-06 15:14:10.979,0.0007868499846642079,-14.560680984198273
2025-03-06 15:14:10.987,0.0007730451385419293,-14.245957807805214
2025-03-06 15:14:10.995,0.0007627709209162395,-13.90002627220733
2025-03-06 15:14:11.003,0.0007551940711225704,-13.532222922677756
2025-03-06 15:14:11.010,0.0007494341017152188,-13.151279184648349
2025-03-06 15:14:11.018,0.0007446005876079149,-12.765151793806233
2025-03-06 15:14:11.026,0.000739827416725398,-12.380891212521606
2025-03-06 15:14:11.034,0.0007343029289283933,-12.00454850312491
2025-03-06 15:14:11.042,0.000727295158672876,-11.641119750950063
2025-03-06 15:14:11.050,0.0007181717058718633,-11.294525923575575
2025-03-06 15:14:11.057,0.0007064140568613936,-10.96762503472461
2025-03-06 15:14:11.065,0.0006916264327516835,-10.662252665998622
2025-03-06 15:14:11.073,0.0006735394406782602,-10.379286300628792
2025-03-06 15:14:11.081,0.0006520089419792291,-10.118728551256659
2025-03-06 15:14:11.089,0.0006270106399465385,-9.879804219723463
2025-03-06 15:14:11.096,0.0005986309534476873,-9.661066200399961
2025-03-06 15:14:11.104,0.0005670548072333148,-9.460505511117331
2025-03-06 15:14:11.112,0.0005325510379770891,-9.27566118596266
2025-03-06 15:14:11.120,0.000495456166628601,-9.103726369890008
2025-03-06 15:14:11.128,0.0004561573022816884,-8.941647691519101
2025-03-06 15:14:11.135,0.00041507491415102477,-8.786215826358468
2025-03-06 15:14:11.143,0.0003726461392893429,-8.634146054511813
2025-03-06 15:14:11.151,0.00032930919141603695,-8.482148505347345
2025-03-06 15:14:11.159,0.0002854893164743219,-8.326988594946762
2025-03-06 15:14:11.167,0.00024158663212797262,-8.165538828250648
2025-03-06 15:14:11.175,0.00019796611748775354,-7.994823600197552
2025-03-06 15:14:11.182,0.00015494997911549084,-7.81205886112846
2025-03-06 15:14:11.190,0.00011281256548881933,-7.614688514014729
2025-03-06 15:14:11.198,7.177789040365768e-05,-7.400419206067445
2025-03-06 15:14:11.206,3.201965132685519e-05,-7.16725479113208
2025-03-06 15:14:11.214,-6.336570578481599e-06,-6.913531200064495
2025-03-06 15:14:11.221,-4.3209404623440906e-05,-6.637951801732431
2025-03-06 15:14:11.229,-7.855662229878099e-05,-6.339622620740673
2025-03-06 15:14:11.237,-0.00011236940647844797,-6.018086067112766
2025-03-06 15:14:11.245,-0.00014466635250778598,-5.67335120546393
2025-03-06 15:14:11.253,-0.00017548750146142747,-5.305918127815462
2025-03-06 15:14:11.260,-0.00020488866049404316,-4.916793767148634
2025-03-06 15:14:11.268,-0.0002329362598437615,-4.507496541895168
2025-03-06 15:14:11.276,-0.00025970300879286755,-4.080047557527194
2025-03-06 15:14:11.284,-0.00028526462257098465,-3.636946676067396
2025-03-06 15:14:11.292,-0.0003096978661777806,-3.181132542324332
2025-03-06 15:14:11.300,-0.00033308006475113786,-2.7159265627572076
2025-03-06 15:14:11.307,-0.0003554900671342478,-2.2449617990459876
2025-03-06 15:14:11.315,-0.00037701047145284735,-1.7720986875441156
2025-03-06 15:14:11.323,-0.0003977307810941913,-1.3013303491729895
2025-03-06 15:14:11.331,-0.0004177510715648861,-0.8366809390560167
2025-03-06 15:14:11.339,-0.0004371857052703305,-0.38210094317465104
2025-03-06 15:14:11.346,-0.00045616662592205023,0.05863647632273256
2025-03-06 15:14:11.354,-0.0004748457958302196,0.48203406709895036
2025-03-06 15:14:11.362,-0.0004933964069059291,0.8849603271006488
2025-03-06 15:14:11.370,-0.0005120125960017577,1.2647274870239902
2025-03-06 15:14:11.378,-0.0005309075141670032,1.6191552449492568
2025-03-06 15:14:11.385,-0.0005503097106537004,1.946618668556557
2025-03-06 15:14:11.393,-0.0005704578695028412,2.2460794891012577
2025-03-06 15:14:11.401,-0.0005915939766801457,2.5171007509679466
2025-03-06 15:14:11.409,-0.0006139550204666956,2.759845394464224
2025-03-06 15:14:11.417,-0.0006377633589793887,2.975059805177769
2025-03-06 15:14:11.425,-0.0006632159346266662,3.1640436554838796
2025-03-06 15:14:11.432,-0.0006904725753365152,3.3286075097697436
2025-03-06 15:14:11.440,-0.0007196436933885864,3.471019694942119
2025-03-06 15:14:11.448,-0.0007507777707571263,3.593943888476241
2025-03-06 15:14:11.456,-0.0007838491005360153,3.7003687887866845
2025-03-06 15:14:11.464,-0.0008187463323411649,3.7935311508683225
2025-03-06 15:14:11.471,-0.0008552624403901411,3.8768334336789576
2025-03-06 15:14:11.479,-0.0008930867894040831,3.953757341330477
2025-03-06 15:14:11.487,-0.000931800000853949,4.027774656739325
2025-03-06 15:14:11.495,-0.0009708722935569623,4.102256955245021
2025-03-06 15:14:11.503,-0.0010096658634215908,4.180386023153314
2025-03-06 15:14:11.510,-0.0010474416799457515,4.265067058792287
2025-03-06 15:14:11.518,-0.0010833708486484152,4.358846965645984
2025-03-06 15:14:11.526,-0.001116550470611219,4.463840224142273
2025-03-06 15:14:11.534,-0.0011460237614155109,4.5816649154410545
2025-03-06 15:14:11.542,-0.0011708040768647723,4.71339142811521
2025-03-06 15:14:11.550,-0.0011899024014077593,4.859506170218848
2025-03-06 15:14:11.557,-0.0012023577370742337,5.019892214785666
2025-03-06 15:14:11.565,-0.0012072696462158204,5.193828235026904
2025-03-06 15:14:11.573,-0.0012038319583308344,5.380006375124526
2025-03-06 15:14:11.581,-0.0011913664084144062,5.576568913991148
2025-03-06 15:14:11.589,-0.0011693547916648483,5.781162783481077
2025-03-06 15:14:11.596,-0.0011374681203511867,5.991010267580093
2025-03-06 15:14:11.604,-0.0010955912535865753,6.202993586792647
2025-03-06 15:14:11.612,-0.0010438415413803594,6.413750586946403
2025-03-06 15:14:11.620,-0.0009825801851558354,6.619778401003722
2025-03-06 15:14:11.628,-0.0009124152634403056,6.817541715921855
2025-03-06 15:14:11.635,-0.0008341956836058142,7.003582131845755
2025-03-06 15:14:11.643,-0.0007489956762051512,7.17462503647865
2025-03-06 15:14:11.651,-0.0006580898465979202,7.3276804380952605
2025-03-06 15:14:11.659,-0.0005629192589514223,7.460134324619199
2025-03-06 15:14:11.667,-0.0004650495636103812,7.569827367759098
2025-03-06 15:14:11.675,-0.00036612276680208356,7.655118191394386
2025-03-06 15:14:11.682,-0.00026780480243200063,7.714928979688995
2025-03-06 15:14:11.690,-0.00017173148160555407,7.748771897821094
2025-03-06 15:14:11.698,-7.945557470194141e-05,7.756755597840039
2025-03-06 15:14:11.706,7.602293638838835e-06,7.739571930252928
2025-03-06 15:14:11.714,8.819654709644236e-05,7.698463823626919
2025-03-06 15:14:11.721,0.00016129142605584315,7.63517608139689
2025-03-06 15:14:11.729,0.00022608625968226304,7.551891533603646
2025-03-06 15:14:11.737,0.00028203049908728583,7.45115552866479
2025-03-06 15:14:11.745,0.0003288283892406487,7.335792115882567
2025-03-06 15:14:11.753,0.00036643374505693,7.208815422041855
2025-03-06 15:14:11.760,0.00039503580822600014,7.073339652224603
2025-03-06 15:14:11.768,0.0004150375419660596,6.932490857815128
2025-03-06 15:14:11.776,0.0004270279463473622,6.789323152862302
2025-03-06 15:14:11.784,0.0004317500637632266,6.646741485686981
2025-03-06 15:14:11.792,0.00043006632169804906,6.507432457795326
2025-03-06 15:14:11.800,0.0004229227506524189,6.373804091594881
2025-03-06 15:14:11.807,0.0004113134434411766,6.247934930411211
2025-03-06 15:14:11.815,0.0003962464249363823,6.131532442877593
2025-03-06 15:14:11.823,0.0003787119150346837,6.025900423506693
2025-03-06 15:14:11.831,0.00035965380387171944,5.9319149450713295
2025-03-06 15:14:11.839,0.0003399450037049179,5.850008420095994
2025-03-06 15:14:11.846,0.00032036718137148164,5.780161439243256
2025-03-06 15:14:11.854,0.00030159520575508933,5.72190222713154
2025-03-06 15:14:11.862,0.00028418647061898933,5.674313739164518
2025-03-06 15:14:11.870,0.0002685750797219344,5.636048571006073
2025-03-06 15:14:11.878,0.0002550707127841482,5.605351933479565
2025-03-06 15:14:11.885,0.00024386183129943958,5.58009294219072
2025-03-06 15:14:11.893,0.00023502273535872995,5.557804378685157
2025-03-06 15:14:11.901,0.00022852385049938235,5.535730907182671
2025-03-06 15:14:11.909,0.00022424451857371318,5.51088549673494
2025-03-06 15:14:11.917,0.00022198751229175038,5.480113523438144
2025-03-06 15:14:11.925,0.00022149451130074822,5.44016372498915
2025-03-06 15:14:11.932,0.00022246186507636294,5.387764858916573
2025-03-06 15:14:11.940,0.00022455609454530835,5.319706587620064
2025-03-06 15:14:11.948,0.00022742871109999557,5.232922797494604
2025-03-06 15:14:11.956,0.00023073002150225745,5.124575282966334
2025-03-06 15:14:11.964,0.00023412162132107408,4.992135520554516
2025-03-06 15:14:11.971,0.0002372872792934258,4.8334621521337615
2025-03-06 15:14:11.979,0.0002399419278298877,4.64687180523955
2025-03-06 15:14:11.987,0.00024183853359646259,4.431200992468743
2025-03-06 15:14:11.995,0.00024277273369281466,4.1858570221629625
2025-03-06 15:14:12.003,0.00024258527642051855,3.9108560845751494
2025-03-06 15:14:12.010,0.00024116246423135565,3.6068469302889175
2025-03-06 15:14:12.018,0.00023843490874489936,3.2751188302796908
2025-03-06 15:14:12.026,0.0002343749485909271,2.9175928177079684
2025-03-06 15:14:12.034,0.0002289930636984598,2.5367955877907735
2025-03-06 15:14:12.042,0.00022233356829346943,2.135815897842918
2025-03-06 15:14:12.050,0.00021446979453963727,1.7182438719830448
2025-03-06 15:14:12.057,0.00020549890533874216,1.2880942575972183
2025-03-06 15:14:12.065,0.0001955364255468609,0.8497153667040973
2025-03-06 15:14:12.073,0.0001847105819226791,0.4076861167812802
2025-03-06 15:14:12.081,0.00017315659316032613,-0.0332957889239588
2025-03-06 15:14:12.089,0.00016101111901186663,-0.4685309801681044
2025-03-06 15:14:12.096,0.00014840711619684504,-0.893436898651596
2025-03-06 15:14:12.104,0.00013546933501719393,-1.3036634941145013
2025-03-06 15:14:12.112,0.0001223106449408896,-1.6952019825540705
2025-03-06 15:14:12.120,0.00010902933776153478,-2.064482697669858
2025-03-06 15:14:12.128,9.570752656243754e-05,-2.4084584414072343
2025-03-06 15:14:12.136,8.241071269249068e-05,-2.7246702776752425
2025-03-06 15:14:12.143,6.91885328344191e-05,-3.011293380289181
2025-03-06 15:14:12.151,5.607665198454815e-05,-3.267161307842014
2025-03-06 15:14:12.159,4.309973546653721e-05,-3.491767908405608
2025-03-06 15:14:12.167,3.0275378950021604e-05,-3.685246936550136
2025-03-06 15:14:12.175,1.7618780295621973e-05,-3.848330373324152
2025-03-06 15:14:12.182,5.147818792574556e-06,-3.9822873451048615
2025-03-06 15:14:12.190,-7.111898830215521e-06,-4.0888463955927055
2025-03-06 15:14:12.198,-1.9122523859148085e-05,-4.170104625807994
2025-03-06 15:14:12.206,-3.083046314859622e-05,-4.228427830294466
2025-03-06 15:14:12.214,-4.216427702693748e-05,-4.266346181816954
2025-03-06 15:14:12.221,-5.3034224622207615e-05,-4.286450219454337
2025-03-06 15:14:12.229,-6.333354139068384e-05,-4.291291854391211
2025-03-06 15:14:12.237,-7.294136572337165e-05,-4.283294814176664
2025-03-06 15:14:12.245,-8.172706718159076e-05,-4.264678405920042
2025-03-06 15:14:12.253,-8.955558387572753e-05,-4.237397719506241
2025-03-06 15:14:12.261,-9.629327892966121e-05,-4.203102465970303
2025-03-06 15:14:12.268,-0.00010181380248893982,-4.163115625668318
2025-03-06 15:14:12.276,-0.00010600349764213213,-4.118432041953905
2025-03-06 15:14:12.284,-0.00010876599189166748,-4.069736102914971
2025-03-06 15:14:12.292,-0.00011002574472750597,-4.017436752035817
2025-03-06 15:14:12.300,-0.00010973046139176371,-3.9617172883041487
2025-03-06 15:14:12.307,-0.00010785241785205948,-3.9025967754022317
2025-03-06 15:14:12.315,-0.00010438884604642624,-3.839999386649561
2025-03-06 15:14:12.323,-9.936157661814777e-05,-3.7738276702226883
2025-03-06 15:14:12.331,-9.281612856729734e-05,-3.7040355326525924
2025-03-06 15:14:12.339,-8.482039634845581e-05,-3.630696719102565
2025-03-06 15:14:12.346,-7.546304091386837e-05,-3.5540647331028867
2025-03-06 15:14:12.354,-6.485165509949103e-05,-3.4746205034258613
2025-03-06 15:14:12.362,-5.311075008519988e-05,-3.3931046836032452
2025-03-06 15:14:12.370,-4.037960070651135e-05,-3.310532259217068
2025-03-06 15:14:12.378,-2.6809994730798163e-05,-3.2281881154265095
2025-03-06 15:14:12.386,-1.2563954014829957e-05,-3.1476033268267525
2025-03-06 15:14:12.393,2.1884759743678903e-06,-3.0705130884619
2025-03-06 15:14:12.401,1.7271260570674627e-05,-2.998798310974852
2025-03-06 15:14:12.409,3.250415526530174e-05,-2.934413863196198
2025-03-06 15:14:12.417,4.7704218127184395e-05,-2.879307195893124
2025-03-06 15:14:12.425,6.268712324640653e-05,-2.835331582881121
2025-03-06 15:14:12.432,7.726840973032318e-05,-2.804158452860216
2025-03-06 15:14:12.440,9.126484172768347e-05,-2.787193252825004
2025-03-06 15:14:12.448,0.00010449606715345581,-2.7854989893857782
2025-03-06 15:14:12.456,0.00011678674431940593,-2.7997310619683957
2025-03-06 15:14:12.464,0.00012796924940107964,-2.8300862753525324
2025-03-06 15:14:12.471,0.00013788697477292708,-2.876268059071904
2025-03-06 15:14:12.479,0.00014639809299051563,-2.9374689992025367
2025-03-06 15:14:12.487,0.00015337954506140707,-3.012370879211058
2025-03-06 15:14:12.495,0.00015873096554438887,-3.099161602542953
2025-03-06 15:14:12.503,0.00016237828383030274,-3.195567690225148
2025-03-06 15:14:12.511,0.00016427680355129976,-3.298900552297293
2025-03-06 15:14:12.518,0.00016441362050333364,-3.4061144387189812
2025-03-06 15:14:12.526,0.0001628092704405974,-3.513873871967677
2025-03-06 15:14:12.534,0.00015951850880925524,-3.6186284087969973
2025-03-06 15:14:12.542,0.00015463015067544716,-3.716692709815868
2025-03-06 15:14:12.550,0.00014826595645649185,-3.804330046766412
2025-03-06 15:14:12.557,0.0001405786016622192,-3.877837499003674
2025-03-06 15:14:12.565,0.00013174878092368225,-3.933631158184014
2025-03-06 15:14:12.573,0.00012198148426559209,-3.9683296707516575
2025-03-06 15:14:12.581,0.00011150148335143806,-3.978834413938437
2025-03-06 15:14:12.589,0.00010054808714020542,-3.9624045490386925
2025-03-06 15:14:12.596,8.936925932413787e-05,-3.9167251663385634
2025-03-06 15:14:12.604,7.821522594066217e-05,-3.8399667760261393
2025-03-06 15:14:12.612,6.733173867235163e-05,-3.7308345442224082
2025-03-06 15:14:12.620,5.695319687339317e-05,-3.588605932743539
2025-03-06 15:14:12.628,4.7295868271258434e-05,-3.413155756845405
2025-03-06 15:14:12.636,3.855148325998744e-05,-3.204968088087463
2025-03-06 15:14:12.643,3.088150749646093e-05,-2.965134853212429
2025-03-06 15:14:12.651,2.4412410617499017e-05,-2.6953413742904733
2025-03-06 15:14:12.659,1.923222109739733e-05,-2.3978394355133195
2025-03-06 15:14:12.667,1.538856726010554e-05,-2.0754087409368607
2025-03-06 15:14:12.675,1.2888264011318938e-05,-1.7313078515663678
2025-03-06 15:14:12.682,1.1698363279494073e-05,-1.3692158705918678
2025-03-06 15:14:12.690,1.1748492700687363e-05,-0.993166288824965
2025-03-06 15:14:12.698,1.2934273318553627e-05,-0.6074745051326971
2025-03-06 15:14:12.706,1.5121611386169976e-05,-0.21666058905180322
2025-03-06 15:14:12.714,1.8151677134980943e-05,0.1746311513378672
2025-03-06 15:14:12.721,2.1846402644459316e-05,0.5617142881996332
2025-03-06 15:14:12.729,2.6014347996057137e-05,0.93994266010525
2025-03-06 15:14:12.737,3.045679794453945e-05,1.3047917046061355
2025-03-06 15:14:12.745,3.4973958987498894e-05,1.6519374968764426
2025-03-06 15:14:12.753,3.93711280023296e-05,1.9773322948066587
2025-03-06 15:14:12.761,4.346469808015935e-05,2.2772753858850665
2025-03-06 15:14:12.768,4.708785486187068e-05,2.548477997203728
2025-03-06 15:14:12.776,5.0095798132229e-05,2.7881209999095757
2025-03-06 15:14:12.784,5.237030133768477e-05,2.9939041470275565
2025-03-06 15:14:12.792,5.3823405639543876e-05,3.164085649528476
2025-03-06 15:14:12.800,5.4400049559728237e-05,3.29751102370074
2025-03-06 15:14:12.807,5.407946272957937e-05,3.3936303251407587
2025-03-06 15:14:12.815,5.287518989337775e-05,3.4525031079688495
2025-03-06 15:14:12.823,5.083365910163564e-05,3.4747907003405434
2025-03-06 15:14:12.831,4.803128838495074e-05,3.4617356623648736
2025-03-06 15:14:12.839,4.457024794540305e-05,3.415128589057336
2025-03-06 15:14:12.846,4.0573132394729815e-05,3.3372627384508204
2025-03-06 15:14:12.854,3.61769019604058e-05,3.230877298748417
2025-03-06 15:14:12.862,3.1526487518131946e-05,3.099090450736869
2025-03-06 15:14:12.870,2.6768419769973855e-05,2.945323725206233
2025-03-06 15:14:12.878,2.204476272398442e-05,2.7732194900103804
2025-03-06 15:14:12.886,1.7487533828914257e-05,2.586553708824594
2025-03-06 15:14:12.893,1.3213701210989108e-05,2.38914636412942
2025-03-06 15:14:12.901,9.320790394366612e-06,2.1847720953395036
2025-03-06 15:14:12.909,5.88313182945592e-06,1.9770736358294168
2025-03-06 15:14:12.917,2.948826376639203e-06,1.769480515963104
2025-03-06 15:14:12.925,5.375523471036535e-07,1.5651352274417996
2025-03-06 15:14:12.932,-1.3606534835411216e-06,1.3668286372142617
2025-03-06 15:14:12.940,-2.785527060167533e-06,1.1769459448589505
2025-03-06 15:14:12.948,-3.8055186170009333e-06,0.9974239666303651
2025-03-06 15:14:12.956,-4.515448763231719e-06,0.8297200795113701
2025-03-06 15:14:12.964,-5.032819660187082e-06,0.6747928293775156
2025-03-06 15:14:12.971,-5.492809542132076e-06,0.5330940237934132
2025-03-06 15:14:12.979,-6.042102281979321e-06,0.40457208226224695
2025-03-06 15:14:12.987,-6.831836179401421e-06,0.2886864719476578
2025-03-06 15:14:12.995,-8.010073607945815e-06,0.18443316894864936
2025-03-06 15:14:13.003,-9.714267003186278e-06,0.0903811998572871
2025-03-06 15:14:13.011,-1.2064201326360371e-05,0.0047203789462762205
2025-03-06 15:14:13.018,-1.5155828141580285e-05,-0.07467968567036082
2025-03-06 15:14:13.026,-1.905629811042865e-05,-0.15019941954011706
2025-03-06 15:14:13.034,-2.3800382851343634e-05,-0.224388367266982
2025-03-06 15:14:13.042,-2.9388387940784433e-05,-0.29987442181188173
2025-03-06 15:14:13.050,-3.578561303602507e-05,-0.37926466638576156
2025-03-06 15:14:13.057,-4.292339012317825e-05,-0.465039969578918
2025-03-06 15:14:13.065,-5.070168053671453e-05,-0.5594461917793798
2025-03-06 15:14:13.073,-5.899311483931227e-05,-0.6643855667481958
2025-03-06 15:14:13.081,-6.764824185694944e-05,-0.7813124467028879
2025-03-06 15:14:13.089,-7.650166120991552e-05,-0.9111380666356603
2025-03-06 15:14:13.096,-8.537868245310777e-05,-1.0541492247606297
2025-03-06 15:14:13.104,-9.410218368274837e-05,-1.209945740427961
2025-03-06 15:14:13.112,-0.00010249939880952712,-1.3774012120299453
2025-03-06 15:14:13.120,-0.00011040839915800651,-1.5546509513211952
2025-03-06 15:14:13.128,-0.00011768402738458399,-1.739110028977417
2025-03-06 15:14:13.136,-0.00012420301161230262,-1.9275231500574665
2025-03-06 15:14:13.143,-0.00012986798405727632,-2.116046619253553
2025-03-06 15:14:13.151,-0.00013461018314878811,-2.300361009056706
2025-03-06 15:14:13.159,-0.0001383907285394028,-2.4758113976200664
2025-03-06 15:14:13.167,-0.00014120049052148301,-2.637570318539872
2025-03-06 15:14:13.175,-0.00014305867179447836,-2.780817001500213
2025-03-06 15:14:13.182,-0.00014401024058121635,-2.9009252161720234
2025-03-06 15:14:13.190,-0.0001441223232176168,-2.9936511731250097
2025-03-06 15:14:13.198,-0.00014347964275684394,-3.0553125583603005
2025-03-06 15:14:13.206,-0.00014217911097859834,-3.082949912144124
2025-03-06 15:14:13.214,-0.00014032373357648792,-3.074462197374674
2025-03-06 15:14:13.221,-0.00013801605017806133,-3.02870949958326
2025-03-06 15:14:13.229,-0.00013535139103574783,-2.9455773074042617
2025-03-06 15:14:13.237,-0.0001324112875041717,-2.8259986724026644
2025-03-06 15:14:13.245,-0.00012925742215566828,-2.6719326482248924
2025-03-06 15:14:13.253,-0.000125926543299686,-2.486299636828534
2025-03-06 15:14:13.261,-0.0001224267864385194,-2.2728764800093764
2025-03-06 15:14:13.268,-0.00011873581800926407,-2.0361561872192326
2025-03-06 15:14:13.276,-0.00011480112231246048,-1.781178965526763
2025-03-06 15:14:13.284,-0.00011054259366382813,-1.513342617018579
2025-03-06 15:14:13.292,-0.00010585740051427657,-1.2382013162027192
2025-03-06 15:14:13.300,-0.00010062688593191893,-0.9612622228371993
2025-03-06 15:14:13.307,-9.47250777614859e-05,-0.687789304878547
2025-03-06 15:14:13.315,-8.802822005655305e-05,-0.42262316054765386
2025-03-06 15:14:13.323,-8.042463363985939e-05,-0.17002459174495396
2025-03-06 15:14:13.331,-7.182419462931327e-05,0.06645172393386975
2025-03-06 15:14:13.339,-6.216678657725992e-05,0.28404878459051264
2025-03-06 15:14:13.346,-5.142920994015329e-05,0.48086118048489185
2025-03-06 15:14:13.354,-3.963019374589826e-05,0.6558503781016007
2025-03-06 15:14:13.362,-2.683332430338388e-05,0.8088221856441177
2025-03-06 15:14:13.370,-1.3147855376116363e-05,0.9403689084866681
2025-03-06 15:14:13.378,1.272533240169837e-06,1.0517802320206722
2025-03-06 15:14:13.386,1.6232908357335208e-05,1.1449281885330551
2025-03-06 15:14:13.393,3.1502039912503814e-05,1.2221326277067726
2025-03-06 15:14:13.401,4.6818970048136074e-05,1.2860143705417173
2025-03-06 15:14:13.409,6.190099206268675e-05,1.3393436461691928
2025-03-06 15:14:13.417,7.645279607340702e-05,1.384891467169918
2025-03-06 15:14:13.425,9.017648929596954e-05,1.4252912837829832
2025-03-06 15:14:13.432,0.0001027821427647768,1.4629175757296091
2025-03-06 15:14:13.440,0.00011399845511889125,1.4997870098140786
2025-03-06 15:14:13.448,0.000123583062075174,1.537486447632389
2025-03-06 15:14:13.456,0.0001313319703709829,1.5771304917736806
2025-03-06 15:14:13.464,0.00013708758329221863,1.619349500105377
2025-03-06 15:14:13.471,0.00014074483642491793,1.6643071892216634
2025-03-06 15:14:13.479,0.00014225507722938756,1.711745217409998
2025-03-06 15:14:13.487,0.00014162747584453285,1.7610506120237068
2025-03-06 15:14:13.495,0.00013892792138842574,1.8113406957503013
2025-03-06 15:14:13.503,0.0001342755248245079,1.8615593484112731
2025-03-06 15:14:13.511,0.0001278370096763483,1.910578055528713
2025-03-06 15:14:13.518,0.00011981941264268693,1.9572952476197278
2025-03-06 15:14:13.526,0.00011046161218396777,2.000727900197515
2025-03-06 15:14:13.534,0.00010002523055582937,2.0400901881062623
2025-03-06 15:14:13.542,8.878541474072731e-05,2.0748550843157516
2025-03-06 15:14:13.550,7.702192041764861e-05,2.104796059836514
2025-03-06 15:14:13.557,6.501082780366313e-05,2.1300073746895714
2025-03-06 15:14:13.565,5.301712327445575e-05,2.150902760415244
2025-03-06 15:14:13.573,4.1288291926447684e-05,2.1681935123076297
2025-03-06 15:14:13.581,3.0048987233993154e-05,2.1828480824828436
2025-03-06 15:14:13.589,1.949677752691314e-05,2.1960361568435953
2025-03-06 15:14:13.596,9.798917248010046e-06,2.2090608872048207
2025-03-06 15:14:13.604,1.0900551368319376e-06,2.223283420066072
2025-03-06 15:14:13.612,-6.529227879155142e-06,2.2400441045442734
2025-03-06 15:14:13.620,-1.299316149554282e-05,2.260584766494421
2025-03-06 15:14:13.628,-1.8270907966782105e-05,2.2859762088361633
2025-03-06 15:14:13.636,-2.2366136077022957e-05,2.3170546634200533
2025-03-06 15:14:13.643,-2.5316083239658106e-05,2.3543703164288607
2025-03-06 15:14:13.651,-2.719009638905365e-05,2.3981503016059986
2025-03-06 15:14:13.659,-2.8087592956229304e-05,2.4482777463294827
2025-03-06 15:14:13.667,-2.813534287419269e-05,2.504287603638393
2025-03-06 15:14:13.675,-2.748396523194122e-05,2.565379142656097
2025-03-06 15:14:13.682,-2.6303573440688074e-05,2.630444131090778
2025-03-06 15:14:13.690,-2.4778569095360814e-05,2.6981089601870165
2025-03-06 15:14:13.698,-2.3101639884838263e-05,2.7667882756852147
2025-03-06 15:14:13.706,-2.146705978971408e-05,2.8347471337235164
2025-03-06 15:14:13.714,-2.0063455352938858e-05,2.9001683401549307
2025-03-06 15:14:13.721,-1.9066307594675042e-05,2.961221483739513
2025-03-06 15:14:13.729,-1.8630578618283345e-05,3.0161302431221264
2025-03-06 15:14:13.737,-1.8883936567792174e-05,3.063234812413937
2025-03-06 15:14:13.745,-1.9921066181491095e-05,3.1010467102429704
2025-03-06 15:14:13.753,-2.1799491874213976e-05,3.1282937689214463
2025-03-06 15:14:13.761,-2.453723012701538e-05,3.143953705121327
2025-03-06 15:14:13.768,-2.8112453656932025e-05,3.1472753145021652
2025-03-06 15:14:13.776,-3.24652047651765e-05,3.137786971971701
2025-03-06 15:14:13.784,-3.750104494773961e-05,3.11529271815484
2025-03-06 15:14:13.792,-4.309637799765506e-05,3.0798567365863305
2025-03-06 15:14:13.800,-4.9105048327866663e-05,3.0317774504620774
2025-03-06 15:14:13.807,-5.53657216284239e-05,2.971552784520781
2025-03-06 15:14:13.815,-6.17095264516272e-05,2.899838358018194
2025-03-06 15:14:13.823,-6.796747309930571e-05,2.817400522728607
2025-03-06 15:14:13.831,-7.397724549655908e-05,2.7250662605819502
2025-03-06 15:14:13.839,-7.958905656589658e-05,2.623672027778472
2025-03-06 15:14:13.846,-8.467035472067479e-05,2.514013686271177
2025-03-06 15:14:13.854,-8.910926359802664e-05,2.3967996970664496
2025-03-06 15:14:13.862,-9.28167261645806e-05,2.2726097429163237
2025-03-06 15:14:13.870,-9.57274053844349e-05,2.141860866325829
2025-03-06 15:14:13.878,-9.779946471467156e-05,2.0047830174501953
2025-03-06 15:14:13.886,-9.901340960035387e-05,1.8614055850831768
2025-03-06 15:14:13.893,-9.937020509067454e-05,1.7115560354800317
2025-03-06 15:14:13.901,-9.888887343563906e-05,1.5548712344853917
2025-03-06 15:14:13.909,-9.760370927104573e-05,1.3908214198694475
2025-03-06 15:14:13.917,-9.556116496998966e-05,1.2187461680190959
2025-03-06 15:14:13.925,-9.28164259473592e-05,1.0379011031925045
2025-03-06 15:14:13.932,-8.942975151875856e-05,0.8475135640224073
2025-03-06 15:14:13.940,-8.54627561002103e-05,0.6468450008053721
2025-03-06 15:14:13.948,-8.097486527784227e-05,0.43525754906061137
2025-03-06 15:14:13.956,-7.60201673368888e-05,0.2122820168540065
2025-03-06 15:14:13.964,-7.064482838602115e-05,-0.022315571174124714
2025-03-06 15:14:13.971,-6.488519453683251e-05,-0.268471725417415
2025-03-06 15:14:13.979,-5.8766679400319186e-05,-0.5257703014556278
2025-03-06 15:14:13.987,-5.230351748698574e-05,-0.7933969693299661
2025-03-06 15:14:13.995,-4.5499436711268066e-05,-1.0701057155206246
2025-03-06 15:14:14.003,-3.8349244306914497e-05,-1.3541994615822721
2025-03-06 15:14:14.011,-3.084121922694594e-05,-1.6435265248716637
2025-03-06 15:14:14.018,-2.2960087148381038e-05,-1.9354942088340363
2025-03-06 15:14:14.026,-1.4690273218966294e-05,-2.227100286578386
2025-03-06 15:14:14.034,-6.019116803724408e-06,-2.5149825341017173
2025-03-06 15:14:14.042,3.060209283506586e-06,-2.7954857865167027
2025-03-06 15:14:14.050,1.2546238071479886e-05,-3.0647452441085425
2025-03-06 15:14:14.057,2.24272953368446e-05,-3.3187839673474615
2025-03-06 15:14:14.065,3.2680209565767394e-05,-3.5536217138941155
2025-03-06 15:14:14.073,4.326974409730609e-05,-3.7653915511145657
2025-03-06 15:14:14.081,5.414885135219376e-05,-3.9504600976291098
2025-03-06 15:14:14.089,6.525979518728447e-05,-4.105546866299419
2025-03-06 15:14:14.096,7.653609158806511e-05,-4.227838031125432
2025-03-06 15:14:14.104,8.790510586778836e-05,-4.3150900267458
2025-03-06 15:14:14.112,9.92910395077069e-05,-4.365718695545239
2025-03-06 15:14:14.120,0.00011061796971941291,-4.378870194275313
2025-03-06 15:14:14.128,0.00012181259489914801,-4.354470524113183
2025-03-06 15:14:14.136,0.00013280638963795842,-4.293251318845509
2025-03-06 15:14:14.143,0.00014353695921372612,-4.19675037988236
2025-03-06 15:14:14.151,0.00015394847969742758,-4.067286350539983
2025-03-06 15:14:14.159,0.000163991202931123,-3.9079078459236003
2025-03-06 15:14:14.167,0.00017362009103826225,-3.7223182740141096
2025-03-06 15:14:14.175,0.00018279272017447345,-3.5147784758121854
2025-03-06 15:14:14.182,0.00019146665571478187,-3.2899901536653595
2025-03-06 15:14:14.190,0.00019959654926263005,-3.0529638197129545
2025-03-06 15:14:14.198,0.00020713124051121765,-2.8088756508918236
2025-03-06 15:14:14.206,0.00021401116172807156,-2.562918152522505
2025-03-06 15:14:14.214,0.0002201663295692769,-2.32014987681824
2025-03-06 15:14:14.221,0.0002255151477642814,-2.0853495815849556
2025-03-06 15:14:14.229,0.00022996412621191498,-1.8628801186797999
2025-03-06 15:14:14.237,0.00023340848454595075,-1.6565669987141929
2025-03-06 15:14:14.245,0.00023573352352909964,-1.469595998724526
2025-03-06 15:14:14.253,0.00023681665507431314,-1.3044333958298377
2025-03-06 15:14:14.261,0.00023653004556845728,-1.162771471207021
2025-03-06 15:14:14.268,0.00023474387879112438,-1.0455008924041629
2025-03-06 15:14:14.276,0.00023133025013165147,-0.9527105041174099
2025-03-06 15:14:14.284,0.00022616767489767032,-0.8837139854538643
2025-03-06 15:14:14.292,0.00021914615339439604,-0.8371018052987051
2025-03-06 15:14:14.300,0.00021017269643700884,-0.8108159668085152
2025-03-06 15:14:14.307,0.00019917718129999843,-0.8022442212743168
2025-03-06 15:14:14.315,0.00018611838237210347,-0.8083297921980467
2025-03-06 15:14:14.323,0.00017099000374760996,-0.8256922114979826
2025-03-06 15:14:14.331,0.00015382652509603276,-0.8507546440613174
2025-03-06 15:14:14.339,0.00013470863696176877,-0.8798730640898481
2025-03-06 15:14:14.346,0.00011376796761071724,-0.9094628372276591
2025-03-06 15:14:14.354,9.119069718593913e-05,-0.9361186368845986
2025-03-06 15:14:14.362,6.721955510134652e-05,-0.9567241489705998
2025-03-06 15:14:14.370,4.2153655041411555e-05,-0.9685486500320519
2025-03-06 15:14:14.378,1.6345675240542863e-05,-0.969328223896264
2025-03-06 15:14:14.386,-9.803958039523484e-06,-0.9573300541461769
2025-03-06 15:14:14.393,-3.5856004842289395e-05,-0.9313988418403842
2025-03-06 15:14:14.401,-6.134432339187007e-05,-0.890984909126703
2025-03-06 15:14:14.409,-8.5790345358792e-05,-0.8361539399403012
2025-03-06 15:14:14.417,-0.00010871944726396538,-0.7675785894586202
2025-03-06 15:14:14.425,-0.00012967835163654447,-0.6865124062973668
2025-03-06 15:14:14.432,-0.00014825256356543017,-0.5947467152900937
2025-03-06 15:14:14.440,-0.0001640827986013431,-0.4945513591735933
2025-03-06 15:14:14.448,-0.00017687939807716903,-0.3886005256419525
2025-03-06 15:14:14.456,-0.0001864338618570228,-0.2798852917820936
2025-03-06 15:14:14.464,-0.00019262683152991848,-0.17161497467968473
2025-03-06 15:14:14.471,-0.00019543208779927718,-0.06710984482335455
2025-03-06 15:14:14.479,-0.00019491636037057017,0.030311804274467242
2025-03-06 15:14:14.487,-0.00019123498288845233,0.11744886637473709
2025-03-06 15:14:14.495,-0.00018462365392082092,0.1913312689113807
2025-03-06 15:14:14.503,-0.00017538678074408926,0.24932863673153985
2025-03-06 15:14:14.511,-0.00016388307591329188,0.28924989648831045
2025-03-06 15:14:14.518,-0.000150509221701934,0.3094300195853319
2025-03-06 15:14:14.526,-0.00013568249832830793,0.30880032398284035
2025-03-06 15:14:14.534,-0.0001198233115180973,0.2869391317176612
2025-03-06 15:14:14.542,-0.00010333857889302235,0.24410010615688077
2025-03-06 15:14:14.550,-8.660691940047225e-05,0.18121626505986607
2025-03-06 15:14:14.557,-6.99664817512025e-05,0.09987847846393252
2025-03-06 15:14:14.565,-5.370602979077422e-05,0.002288207230424829
2025-03-06 15:14:14.573,-3.805962501867792e-05,-0.10881469951187989
2025-03-06 15:14:14.581,-2.32049771642388e-05,-0.23024718807673406
2025-03-06 15:14:14.589,-9.265292945443812e-06,-0.35849804093471127
2025-03-06 15:14:14.597,3.6857761997300053e-06,-0.48985853777131455
2025-03-06 15:14:14.604,1.5616696141919308e-05,-0.6205635219685437
2025-03-06 15:14:14.612,2.652887850030698e-05,-0.746936893141374
2025-03-06 15:14:14.620,3.644659351358311e-05,-0.865535062284798
2025-03-06 15:14:14.628,4.540677244762511e-05,-0.9732817478458398
2025-03-06 15:14:14.636,5.344944036724895e-05,-1.0675876772265003
2025-03-06 15:14:14.643,6.0609417581781425e-05,-1.1464492815070486
2025-03-06 15:14:14.651,6.690979501724052e-05,-1.20852130686049
2025-03-06 15:14:14.659,7.235753856484223e-05,-1.2531593799229983
2025-03-06 15:14:14.667,7.694142873269532e-05,-1.2804299123087481
2025-03-06 15:14:14.675,8.063240001451292e-05,-1.2910862544850914
2025-03-06 15:14:14.682,8.338619145466265e-05,-1.2865116419085394
2025-03-06 15:14:14.690,8.514804013524495e-05,-1.2686311385622553
2025-03-06 15:14:14.698,8.585895897037898e-05,-1.2397963913908305
2025-03-06 15:14:14.706,8.546298212319355e-05,-1.2026484786683624
2025-03-06 15:14:14.714,8.391467419606338e-05,-1.1599653857486296
2025-03-06 15:14:14.722,8.11861981665383e-05,-1.1145016021025325
2025-03-06 15:14:14.729,7.727332095299143e-05,-1.0688279421307523
2025-03-06 15:14:14.737,7.219989252565958e-05,-1.0251798939050025
2025-03-06 15:14:14.745,6.602052738254255e-05,-0.9853225518855175
2025-03-06 15:14:14.753,5.882139297163593e-05,-0.9504394750139419
2025-03-06 15:14:14.761,5.0719140477358675e-05,-0.9210516531354136
2025-03-06 15:14:14.768,4.185810910700414e-05,-0.896971228182538
2025-03-06 15:14:14.776,3.240601488188547e-05,-0.8772928024929046
2025-03-06 15:14:14.784,2.254840732526847e-05,-0.8604231956168087
2025-03-06 15:14:14.792,1.2482241024206764e-05,-0.8441485079276716
2025-03-06 15:14:14.800,2.4089528022560384e-06,-0.8257354308421627
2025-03-06 15:14:14.807,-7.472562786511389e-06,-0.8020620108644078
2025-03-06 15:14:14.815,-1.697273929766282e-05,-0.7697716125601076
2025-03-06 15:14:14.823,-2.5917626952803403e-05,-0.7254427000439604
