Timestamp,GSR_Filtered,PPG_Filtered,FMSQ
2025-03-06 15:18:41.939,0.0020421862464977,-1.0445262178980923,3
2025-03-06 15:18:41.947,0.0021224488494709,-2.0372587256551906,3
2025-03-06 15:18:41.955,0.0022027370638088,-3.080245238315669,3
2025-03-06 15:18:41.963,0.0022829840427909,-4.15938382591539,3
2025-03-06 15:18:41.970,0.0023631283148016,-5.259521050738697,3
2025-03-06 15:18:41.978,0.0024431133782601,-6.364820247135183,3
2025-03-06 15:18:41.986,0.0025228861330607,-7.459144563591585,3
2025-03-06 15:18:41.994,0.0026023942963329,-8.52644411569275,3
2025-03-06 15:18:42.002,0.0026815830755006,-9.551136831285982,3
2025-03-06 15:18:42.009,0.0027603914608833,-10.51847307663513,3
2025-03-06 15:18:42.017,0.0028387485275295,-11.414874892442462,3
2025-03-06 15:18:42.025,0.0029165701006765,-12.228241599998128,3
2025-03-06 15:18:42.033,0.0029937560653071,-12.948214625091683,3
2025-03-06 15:18:42.041,0.0030701885131869,-13.566395603026738,3
2025-03-06 15:18:42.049,0.0031457308349465,-14.07651314944784,3
2025-03-06 15:18:42.056,0.0032202277945327,-14.474535085606076,3
2025-03-06 15:18:42.064,0.0032935065920628,-14.758724364358232,3
2025-03-06 15:18:42.072,0.0033653789408794,-14.929638417777854,3
2025-03-06 15:18:42.080,0.0034356442216268,-14.990073093851304,3
2025-03-06 15:18:42.088,0.003504093761903,-14.944953715448928,3
2025-03-06 15:18:42.095,0.0035705161889372,-14.801177022104316,3
2025-03-06 15:18:42.103,0.0036347036543016,-14.567408794137355,3
2025-03-06 15:18:42.111,0.003696458606338,-14.2538427831156,3
2025-03-06 15:18:42.119,0.0037556007252956,-13.871927188359612,3
2025-03-06 15:18:42.127,0.003811973629581,-13.43406536044841,3
2025-03-06 15:18:42.134,0.0038654509888885,-12.953297732251226,3
2025-03-06 15:18:42.142,0.0039159417315176,-12.442972232614038,3
2025-03-06 15:18:42.150,0.0039633941065707,-11.916410668134487,3
2025-03-06 15:18:42.158,0.004007798454017,-11.386578770725318,3
2025-03-06 15:18:42.166,0.004049188635147,-10.865767769694273,3
2025-03-06 15:18:42.174,0.0040876421578845,-10.365295395369245,3
2025-03-06 15:18:42.181,0.0041232790716222,-9.895234085929044,3
2025-03-06 15:18:42.189,0.0041562597049109,-9.464173786462602,3
2025-03-06 15:18:42.197,0.0041867813009422,-9.07902605556593,3
2025-03-06 15:18:42.205,0.0042150735953079,-8.744875216002336,3
2025-03-06 15:18:42.213,0.0042413933894573,-8.464881023437833,3
2025-03-06 15:18:42.220,0.0042660182039361,-8.240235834089015,3
2025-03-06 15:18:42.228,0.0042892391458053,-8.070177601295233,3
2025-03-06 15:18:42.236,0.0043113531833245,-7.952058302299415,3
2025-03-06 15:18:42.244,0.0043326550630406,-7.881465666733562,3
2025-03-06 15:18:42.252,0.0043534291051267,-7.852394415405151,3
2025-03-06 15:18:42.259,0.0043739410713969,-7.857461678049482,3
2025-03-06 15:18:42.267,0.0043944302401199,-7.888159886959325,3
2025-03-06 15:18:42.275,0.0044151017661404,-7.935139279126557,3
2025-03-06 15:18:42.283,0.0044361193655325,-7.988511222311663,3
2025-03-06 15:18:42.291,0.0044575983517191,-8.038162953109385,3
2025-03-06 15:18:42.299,0.0044795990837536,-8.074074019139113,3
2025-03-06 15:18:42.306,0.0045021209761219,-8.086624781482108,3
2025-03-06 15:18:42.314,0.00452509733365,-8.06688776177402,3
2025-03-06 15:18:42.322,0.0045483913615493,-8.006893389319432,3
2025-03-06 15:18:42.330,0.0045717937295756,-7.899862775582156,3
2025-03-06 15:18:42.338,0.0045950220487867,-7.740401459122666,3
2025-03-06 15:18:42.345,0.0046177225674416,-7.524649550614431,3
2025-03-06 15:18:42.353,0.0046394743168984,-7.250385278723513,3
2025-03-06 15:18:42.361,0.0046597958394198,-6.917080502374302,3
2025-03-06 15:18:42.369,0.0046781545074257,-6.525908229479186,3
2025-03-06 15:18:42.377,0.0046939782988885,-6.079703500772748,3
2025-03-06 15:18:42.384,0.0047066697284078,-5.582880119753282,3
2025-03-06 15:18:42.392,0.00471562145307,-5.0413066251325525,3
2025-03-06 15:18:42.400,0.0047202328924873,-4.462145626427714,3
2025-03-06 15:18:42.408,0.0047199270612655,-3.853661186708319,3
2025-03-06 15:18:42.416,0.0047141667597127,-3.22499936790137,3
2025-03-06 15:18:42.424,0.0047024693296709,-2.5859473724983206,3
2025-03-06 15:18:42.431,0.0046844193326506,-1.94667693483516,3
2025-03-06 15:18:42.439,0.0046596786972764,-1.3174777548899772,3
2025-03-06 15:18:42.447,0.0046279940749524,-0.7084868592125271,3
2025-03-06 15:18:42.455,0.0045892013192128,-0.129419855340091,3
2025-03-06 15:18:42.463,0.0045432271507655,0.4106898533579354,3
2025-03-06 15:18:42.470,0.0044900881638271,0.903737706716383,3
2025-03-06 15:18:42.478,0.0044298873574696,1.3427742006811878,3
2025-03-06 15:18:42.486,0.0043628083642191,1.7222044025821264,3
2025-03-06 15:18:42.494,0.0042891075472219,2.0379546969483755,3
2025-03-06 15:18:42.502,0.0042091041737271,2.287601147531805,3
2025-03-06 15:18:42.509,0.0041231689358128,2.470454603124037,3
2025-03-06 15:18:42.517,0.0040317111590404,2.5875986890494374,3
2025-03-06 15:18:42.525,0.0039351651050317,2.6418780739583863,3
2025-03-06 15:18:42.533,0.0038339758234626,2.6378358283753163,3
2025-03-06 15:18:42.541,0.00372858502001,2.5816002346623868,3
2025-03-06 15:18:42.549,0.0036194173576372,2.4807230008701566,3
2025-03-06 15:18:42.556,0.0035068675036897,2.3439724069505776,3
2025-03-06 15:18:42.564,0.0033912881115099,2.181086410029172,3
2025-03-06 15:18:42.572,0.003272978832802,2.0024921045133426,3
2025-03-06 15:18:42.580,0.0031521764311937,1.81899913332494,3
2025-03-06 15:18:42.588,0.0030290461098177,1.6414756499401186,3
2025-03-06 15:18:42.595,0.0029036742486727,1.480516213334169,3
2025-03-06 15:18:42.603,0.0027760628333633,1.346111531763976,3
2025-03-06 15:18:42.611,0.0026461259090962,1.247330220980319,3
2025-03-06 15:18:42.619,0.0025136883933776,1.1920226672707022,3
2025-03-06 15:18:42.627,0.0023784875461782,1.1865566494293711,3
2025-03-06 15:18:42.634,0.0022401773616593,1.2355935583240438,3
2025-03-06 15:18:42.642,0.002098336109302,1.3419128706097052,3
2025-03-06 15:18:42.650,0.0019524771771465,1.5062910303567074,3
2025-03-06 15:18:42.658,0.0018020632348033,1.727439141532513,3
2025-03-06 15:18:42.666,0.0016465235546533,2.0020019636730866,3
2025-03-06 15:18:42.674,0.0014852741321503,2.324618727409208,3
2025-03-06 15:18:42.681,0.0013177400462047,2.6880443388802515,3
2025-03-06 15:18:42.689,0.0011433793083277,3.083327704906748,3
2025-03-06 15:18:42.697,0.0009617072816519,3.5000422484116576,3
2025-03-06 15:18:42.705,0.000772320638155,3.926562240544343,3
2025-03-06 15:18:42.713,0.0005749197932927,4.350377380321047,3
2025-03-06 15:18:42.720,0.0003693288156362,4.758437119332077,3
2025-03-06 15:18:42.728,0.0001555119336653,5.137515561434827,3
2025-03-06 15:18:42.736,-6.641407212937001e-05,5.474587357182583,3
2025-03-06 15:18:42.744,-0.0002961721185312,5.75720484159844,3
2025-03-06 15:18:42.752,-0.0005333220665633,5.973866706079008,3
2025-03-06 15:18:42.759,-0.000777263202933,6.114368721935357,3
2025-03-06 15:18:42.767,-0.0010272421224027,6.170127417932686,3
2025-03-06 15:18:42.775,-0.0012823661071302,6.134468141005219,3
2025-03-06 15:18:42.783,-0.0015416219796272,6.002869599393093,3
2025-03-06 15:18:42.791,-0.0018039002267617,5.773157817707662,3
2025-03-06 15:18:42.799,-0.0020680239681199,5.445643444240475,3
2025-03-06 15:18:42.806,-0.0023327820954639,5.023197553849477,3
2025-03-06 15:18:42.814,-0.0025969656718508,4.511262485193878,3
2025-03-06 15:18:42.822,-0.0028594064793718,3.9177958316551313,3
2025-03-06 15:18:42.830,-0.0031190164507583,3.253147456556431,3
2025-03-06 15:18:42.838,-0.0033748265966066,2.5298712944547037,3
2025-03-06 15:18:42.845,-0.0036260239314861,1.7624756716462529,3
2025-03-06 15:18:42.853,-0.0038719848092981,0.9671178397363904,3
2025-03-06 15:18:42.861,-0.0041123030204553,0.1612502553688269,3
2025-03-06 15:18:42.869,-0.004346811023365,-0.6367722581693913,3
2025-03-06 15:18:42.877,-0.0045755928343411,-1.4081140709972728,3
2025-03-06 15:18:42.884,-0.004798987410901,-2.133897793217761,3
2025-03-06 15:18:42.892,-0.0050175818100787,-2.795649197782871,3
2025-03-06 15:18:42.900,-0.0052321939335414,-3.3757364935381555,3
2025-03-06 15:18:42.908,-0.0054438452343408,-3.857792915718428,3
2025-03-06 15:18:42.916,-0.0056537243120542,-4.227112414654353,3
2025-03-06 15:18:42.924,-0.0058631428276341,-4.471009246161702,3
2025-03-06 15:18:42.931,-0.0060734856054639,-4.579133394179795,3
2025-03-06 15:18:42.939,-0.006286157139446,-4.543734914838038,3
2025-03-06 15:18:42.947,-0.0065025269522473,-4.3598714503638725,3
2025-03-06 15:18:42.955,-0.0067238763522216,-4.025554323938085,3
2025-03-06 15:18:42.963,-0.0069513491031382,-3.541829811988169,3
2025-03-06 15:18:42.970,-0.0071859083901523,-2.912793418130561,3
2025-03-06 15:18:42.978,-0.0074283022422185,-2.145536253625589,3
2025-03-06 15:18:42.986,-0.0076790392682284,-1.250023960956307,3
2025-03-06 15:18:42.994,-0.0079383761974122,-0.2389099855120571,3
2025-03-06 15:18:43.002,-0.0082063182759783,0.872713620251664,3
2025-03-06 15:18:43.009,-0.0084826330190204,2.067623318297075,3
2025-03-06 15:18:43.017,-0.0087668771036908,3.3268232880665223,3
2025-03-06 15:18:43.025,-0.009058435310732,4.629949646572202,3
2025-03-06 15:18:43.033,-0.0093565694424834,5.955711498269361,3
2025-03-06 15:18:43.041,-0.0096604742133722,7.282359613609199,3
2025-03-06 15:18:43.049,-0.0099693364075298,8.588172647602004,3
2025-03-06 15:18:43.056,-0.0102823932572057,9.85195008180488,3
2025-03-06 15:18:43.064,-0.0105989860321796,11.05350055366482,3
2025-03-06 15:18:43.072,-0.0109186051713049,12.174113979426092,3
2025-03-06 15:18:43.080,-0.0112409238291858,13.197005923931744,3
2025-03-06 15:18:43.088,-0.0115658173660897,14.107723043711172,3
2025-03-06 15:18:43.095,-0.011893367028297,14.894499124219204,3
2025-03-06 15:18:43.103,-0.0122238468365603,15.548552224749672,3
2025-03-06 15:18:43.111,-0.0125576935201651,16.064314705373505,3
2025-03-06 15:18:43.119,-0.012895460186883,16.439589407462826,3
2025-03-06 15:18:43.127,-0.0132377552774394,16.675626953810152,3
2025-03-06 15:18:43.134,-0.0135851691886517,16.77712097287472,3
2025-03-06 15:18:43.142,-0.0139381917253016,16.752119969458988,3
2025-03-06 15:18:43.150,-0.014297124214281,16.611856496525583,3
2025-03-06 15:18:43.158,-0.0146619906591387,16.37049617979579,3
2025-03-06 15:18:43.166,-0.0150324527194724,16.044810979723266,3
2025-03-06 15:18:43.174,-0.0154077335542885,15.653782832002516,3
2025-03-06 15:18:43.181,-0.0157865556514104,15.218145478536648,3
2025-03-06 15:18:43.189,-0.016167097651863,14.759873870200057,3
2025-03-06 15:18:43.197,-0.0165469748285037,14.301631968916702,3
2025-03-06 15:18:43.205,-0.0169232472521734,13.86619107427238,3
2025-03-06 15:18:43.213,-0.0172924587831949,13.475831920699829,3
2025-03-06 15:18:43.220,-0.017650708913553,13.151744702589616,3
2025-03-06 15:18:43.228,-0.0179937582036636,12.913441849784505,3
2025-03-06 15:18:43.236,-0.0183171666371498,12.778198755481906,3
2025-03-06 15:18:43.244,-0.0186164626984028,12.760537713220558,3
2025-03-06 15:18:43.252,-0.0188873394123185,12.87177001264482,3
2025-03-06 15:18:43.259,-0.0191258720052411,13.119610439712597,3
2025-03-06 15:18:43.267,-0.0193287502757122,13.507877283173496,3
2025-03-06 15:18:43.275,-0.0194935172682072,14.03628930625352,3
2025-03-06 15:18:43.283,-0.0196188045195854,14.700368931314376,3
2025-03-06 15:18:43.291,-0.0197045530666877,15.491458055617748,3
2025-03-06 15:18:43.299,-0.0197522085987928,16.396849474816126,3
2025-03-06 15:18:43.306,-0.0197648786564542,17.400032927178607,3
2025-03-06 15:18:43.314,-0.0197474396933304,18.481050464589195,3
2025-03-06 15:18:43.322,-0.0197065822054476,19.61695145989785,3
2025-03-06 15:18:43.330,-0.0196507830534749,20.782333374064347,3
2025-03-06 15:18:43.338,-0.0195901956144797,21.94995073891159,3
2025-03-06 15:18:43.345,-0.0195364505483331,23.091371941679014,3
2025-03-06 15:18:43.353,-0.0195023627599654,24.177661546184087,3
2025-03-06 15:18:43.361,-0.0195015435386202,25.180065191305715,3
2025-03-06 15:18:43.369,-0.0195479207762022,26.07067461631982,3
2025-03-06 15:18:43.377,-0.0196551744866396,26.823052025798024,3
2025-03-06 15:18:43.384,-0.0198360993926019,27.41279569197537,3
2025-03-06 15:18:43.392,-0.0201019109054782,27.818032201993457,3
2025-03-06 15:18:43.400,-0.0204615151959029,28.01982485054598,3
2025-03-06 15:18:43.408,-0.0209207680618119,28.002492093578397,3
2025-03-06 15:18:43.416,-0.0214817507910552,27.75383445172768,3
2025-03-06 15:18:43.424,-0.0221420940049963,27.26527252923329,3
2025-03-06 15:18:43.431,-0.022894382337141,26.531902657321037,3
2025-03-06 15:18:43.439,-0.0237256735178381,25.55247986088616,3
2025-03-06 15:18:43.447,-0.0246171648129686,24.329340187265664,3
2025-03-06 15:18:43.455,-0.0255440376701097,22.86827576670199,3
2025-03-06 15:18:43.463,-0.0264755077853821,21.178376194235053,3
2025-03-06 15:18:43.470,-0.0273751025992281,19.2718489072717,3
2025-03-06 15:18:43.478,-0.0282011814944305,17.16382924337439,3
2025-03-06 15:18:43.486,-0.0289077057882325,14.872187947492776,3
2025-03-06 15:18:43.494,-0.029445256128226,12.417340287645851,3
2025-03-06 15:18:43.502,-0.02976228436613,9.822056934577056,3
2025-03-06 15:18:43.509,-0.0298065757662724,7.111272718648794,3
2025-03-06 15:18:43.517,-0.029526885974346,4.311885680122938,3
2025-03-06 15:18:43.525,-0.0288747060457172,1.4525358627622296,3
2025-03-06 15:18:43.533,-0.0278060985589328,-1.436648579300294,3
2025-03-06 15:18:43.541,-0.0262835389856307,-4.324350897645075,3
2025-03-06 15:18:43.549,-0.024277689623834,-7.178422774835518,3
2025-03-06 15:18:43.556,-0.021769029096135,-9.966308091137073,3
2025-03-06 15:18:43.564,-0.0187492592272892,-12.6555385083168,3
2025-03-06 15:18:43.572,-0.0152224135663786,-15.214300536310946,3
2025-03-06 15:18:43.580,-0.0112055983390848,-17.61206746917995,3
2025-03-06 15:18:43.588,-0.0067293075059067,-19.82028292089396,3
2025-03-06 15:18:43.595,-0.0018372689565571,-21.81307622368744,3
2025-03-06 15:18:43.603,0.0034142015845955,-23.567984256248543,3
2025-03-06 15:18:43.611,0.008957339621359,-25.06664988806352,3
2025-03-06 15:18:43.619,0.0147145407607092,-26.295464597189625,3
2025-03-06 15:18:43.627,0.0206003940001806,-27.246122222597137,3
2025-03-06 15:18:43.634,0.0265240740286596,-27.916052345892037,3
2025-03-06 15:18:43.642,0.0323920058724297,-28.30870537401228,3
2025-03-06 15:18:43.650,0.0381106889776383,-28.4336667676064,3
2025-03-06 15:18:43.658,0.0435895410331905,-28.306584660888262,3
2025-03-06 15:18:43.666,0.0487436074057014,-27.948902903425225,3
2025-03-06 15:18:43.674,0.0534959899643624,-27.387399845203586,3
2025-03-06 15:18:43.681,0.0577798774662284,-26.653541509101327,3
2025-03-06 15:18:43.689,0.061540098621096,-25.7826657109227,3
2025-03-06 15:18:43.697,0.0647341590241893,-24.813020822779453,3
2025-03-06 15:18:43.705,0.0673327589279472,-23.7846889397083,3
2025-03-06 15:18:43.713,0.0693198179634685,-22.7384279944012,3
2025-03-06 15:18:43.720,0.0706920547167105,-21.71447073710228,3
2025-03-06 15:18:43.728,0.071458183822987,-20.751320385986887,3
2025-03-06 15:18:43.736,0.0716378018666527,-19.884583142463025,3
2025-03-06 15:18:43.744,0.0712600369584214,-19.145876694899087,3
2025-03-06 15:18:43.752,0.0703620364590362,-18.56185139490496,3
2025-03-06 15:18:43.759,0.0689873638719937,-18.15335712014912,3
2025-03-06 15:18:43.767,0.0671843703149401,-17.934784109826346,3
2025-03-06 15:18:43.775,0.0650045990298824,-17.91360046856403,3
2025-03-06 15:18:43.783,0.0625012739095954,-18.09010278389741,3
2025-03-06 15:18:43.791,0.059727915761401,-18.457389585866505,3
2025-03-06 15:18:43.799,0.0567371235479721,-19.00156037494412,3
2025-03-06 15:18:43.806,0.0535795519661452,-19.702135828582467,3
2025-03-06 15:18:43.814,0.0503031099632997,-20.532687746818706,3
2025-03-06 15:18:43.822,0.0469523947658693,-21.46166051508037,3
2025-03-06 15:18:43.830,0.0435683613863155,-22.45335957505328,3
2025-03-06 15:18:43.838,0.0401882098348692,-23.46907684639653,3
2025-03-06 15:18:43.845,0.0368454549107812,-24.4683184722176,3
2025-03-06 15:18:43.853,0.0335701297662216,-25.410096873062443,3
2025-03-06 15:18:43.861,0.0303890661898857,-26.2542470261978,3
2025-03-06 15:18:43.869,0.0273261924860418,-26.962726195534486,3
2025-03-06 15:18:43.877,0.0244027944305154,-27.50085699990192,3
2025-03-06 15:18:43.884,0.0216376962440496,-27.8384756415236,3
2025-03-06 15:18:43.892,0.0190473359452764,-27.950950204262373,3
2025-03-06 15:18:43.900,0.0166457303307479,-27.820038031109096,3
2025-03-06 15:18:43.908,0.0144443453549291,-27.43455613985911,3
2025-03-06 15:18:43.916,0.0124519038718964,-26.790844251695365,3
2025-03-06 15:18:43.924,0.0106741718505402,-25.893006094073776,3
2025-03-06 15:18:43.931,0.0091137656731798,-24.75292100671142,3
2025-03-06 15:18:43.939,0.0077700182513597,-23.39002436118012,3
2025-03-06 15:18:43.947,0.0066389327012243,-21.83086176602012,3
2025-03-06 15:18:43.955,0.0057132415080752,-20.108428358448524,3
2025-03-06 15:18:43.963,0.004982578284725,-18.26131057090514,3
2025-03-06 15:18:43.970,0.0044337595763029,-16.3326534831102,3
2025-03-06 15:18:43.978,0.0040511662800871,-14.36898209149593,3
2025-03-06 15:18:43.986,0.0038172082863929,-12.418909405192322,3
2025-03-06 15:18:43.994,0.0037128518291854,-10.5317680692067,3
2025-03-06 15:18:44.002,0.0037181866104283,-8.75620508298946,3
2025-03-06 15:18:44.009,0.0038130088449704,-7.138780993970093,3
2025-03-06 15:18:44.017,0.0039773967344473,-5.72261558056081,3
2025-03-06 15:18:44.025,0.0041922562681591,-4.546121404968116,3
2025-03-06 15:18:44.033,0.004439817451906,-3.6418646670226407,3
2025-03-06 15:18:44.041,0.0047040639324103,-3.0355895331617444,3
2025-03-06 15:18:44.049,0.0049710823902151,-2.745437596948061,3
2025-03-06 15:18:44.056,0.0052293218634716,-2.781388418445589,3
2025-03-06 15:18:44.064,0.0054697571483577,-3.1449402791730074,3
2025-03-06 15:18:44.072,0.0056859544105713,-3.82904250947492,3
2025-03-06 15:18:44.080,0.0058740409809942,-4.818282199808338,3
2025-03-06 15:18:44.088,0.0060325848637824,-6.089319087521698,3
2025-03-06 15:18:44.095,0.0061623926202744,-7.611553292486793,3
2025-03-06 15:18:44.103,0.006266236899709,-9.34800180494032,3
2025-03-06 15:18:44.111,0.0063485269806636,-11.256351692556912,3
2025-03-06 15:18:44.119,0.0064149374236866,-13.290151367298764,3
2025-03-06 15:18:44.127,0.0064720114735948,-15.40009634885429,3
2025-03-06 15:18:44.135,0.006526757101895,-17.53536308502806,3
2025-03-06 15:18:44.142,0.0065862540858807,-19.64494370764399,3
2025-03-06 15:18:44.150,0.0066572896459159,-21.678936133768904,3
2025-03-06 15:18:44.158,0.0067460375621931,-23.58974753999992,3
2025-03-06 15:18:44.166,0.0068577916416192,-25.333174688691948,3
2025-03-06 15:18:44.174,0.006996759658476,-26.86933151554094,3
2025-03-06 15:18:44.181,0.0071659192549932,-28.16340237532009,3
2025-03-06 15:18:44.189,0.0073669333042412,-29.186207927791028,3
2025-03-06 15:18:44.197,0.0076001191282421,-29.914579364114225,3
2025-03-06 15:18:44.205,0.0078644637175322,-30.33154508035368,3
2025-03-06 15:18:44.213,0.008157675617754,-30.426341588761765,3
2025-03-06 15:18:44.220,0.0084762633688435,-30.194267050713545,3
2025-03-06 15:18:44.228,0.0088156303045859,-29.63640099903142,3
2025-03-06 15:18:44.236,0.0091701762083121,-28.75921734477468,3
2025-03-06 15:18:44.244,0.0095333978804669,-27.57411948521198,3
2025-03-06 15:18:44.252,0.0098979831564956,-26.096926212306997,3
2025-03-06 15:18:44.260,0.0102558961513575,-24.3473352491352,3
2025-03-06 15:18:44.267,0.010598455064744,-22.34838780937822,3
2025-03-06 15:18:44.275,0.0109164072329785,-20.1259528735275,3
2025-03-06 15:18:44.283,0.0112000088822665,-17.70824427576696,3
2025-03-06 15:18:44.291,0.0114391190358553,-15.1253776269304,3
2025-03-06 15:18:44.299,0.0116233181055063,-12.40896802368752,3
2025-03-06 15:18:44.306,0.0117420616230406,-9.591763880719974,3
2025-03-06 15:18:44.314,0.0117848780095537,-6.707307516784945,3
2025-03-06 15:18:44.322,0.0117416158856276,-3.789609716606529,3
2025-03-06 15:18:44.330,0.0116027410951279,-0.8728236759259027,3
2025-03-06 15:18:44.338,0.0113596768505598,2.009096308790154,3
2025-03-06 15:18:44.345,0.0110051733093937,4.822764291743252,3
2025-03-06 15:18:44.353,0.0105336867170458,7.5357697305403,3
2025-03-06 15:18:44.361,0.009941743959714,10.117126782006496,3
2025-03-06 15:18:44.369,0.0092282663875176,12.53776468816701,3
2025-03-06 15:18:44.377,0.0083948270030096,14.77105184932739,3
2025-03-06 15:18:44.385,0.0074458172093199,16.79334005142446,3
2025-03-06 15:18:44.392,0.0063885030520788,18.584509876941663,3
2025-03-06 15:18:44.400,0.005232956343246,20.128494087289237,3
2025-03-06 15:18:44.408,0.003991853376511,21.41375310478098,3
2025-03-06 15:18:44.416,0.0026801429679471,22.43367587710649,3
2025-03-06 15:18:44.424,0.0013145955202153,23.18688044604677,3
2025-03-06 15:18:44.431,-8.674560746676687e-05,23.677391377245332,3
2025-03-06 15:18:44.439,-0.0015051814246309,23.914675613306382,3
2025-03-06 15:18:44.447,-0.0029220095660311,23.91352395671497,3
2025-03-06 15:18:44.455,-0.0043191762070357,23.69377187551144,3
2025-03-06 15:18:44.463,-0.0056798937154943,23.2798602336736,3
2025-03-06 15:18:44.470,-0.0069891936440653,22.70024347427904,3
2025-03-06 15:18:44.478,-0.0082343897857062,21.986659365976376,3
2025-03-06 15:18:44.486,-0.0094054323049333,21.173280366617032,3
2025-03-06 15:18:44.494,-0.0104951410108751,20.29577173750271,3
2025-03-06 15:18:44.502,-0.0114993131434137,19.390285594782057,3
2025-03-06 15:18:44.510,-0.0124167080173531,18.49242299547985,3
2025-03-06 15:18:44.517,-0.0132489169933298,17.636197848069756,3
2025-03-06 15:18:44.525,-0.0140001321865287,16.853036876247998,3
2025-03-06 15:18:44.533,-0.0146768309587822,16.170849060388534,3
2025-03-06 15:18:44.541,-0.0152873955813363,15.613195990506089,3
2025-03-06 15:18:44.549,-0.0158416885890973,15.198591483760303,3
2025-03-06 15:18:44.556,-0.0163506043808247,14.939954775736004,3
2025-03-06 15:18:44.564,-0.0168256166671822,14.844236735312087,3
2025-03-06 15:18:44.572,-0.0172783395638223,14.91223303673002,3
2025-03-06 15:18:44.580,-0.0177201176522825,15.138592216313857,3
2025-03-06 15:18:44.588,-0.0181616574210781,15.512020221814248,3
2025-03-06 15:18:44.595,-0.0186127094083139,16.015676619569373,3
2025-03-06 15:18:44.603,-0.0190818073296396,16.627751263386994,3
2025-03-06 15:18:44.611,-0.0195760676744809,17.322204166051524,3
2025-03-06 15:18:44.619,-0.0201010508143774,18.06964577106762,3
2025-03-06 15:18:44.627,-0.020660682648204,18.83833001196344,3
2025-03-06 15:18:44.635,-0.0212572341884212,19.595228656675605,3
2025-03-06 15:18:44.642,-0.0218913551996391,20.307152609857344,3
2025-03-06 15:18:44.650,-0.0225621569844253,20.94188418023881,3
2025-03-06 15:18:44.658,-0.023267338663141,21.46928385950757,3
2025-03-06 15:18:44.666,-0.0240033507980136,21.862335907891943,3
2025-03-06 15:18:44.674,-0.0247655898968329,22.09809896387177,3
2025-03-06 15:18:44.681,-0.0255486171125219,22.158530915058087,3
2025-03-06 15:18:44.689,-0.0263463942954924,22.031161271606365,3
2025-03-06 15:18:44.697,-0.0271525304682154,21.709589129411277,3
2025-03-06 15:18:44.705,-0.0279605317793406,21.193790329422097,3
2025-03-06 15:18:44.713,-0.028764048034129,20.49022342559291,3
2025-03-06 15:18:44.720,-0.0295571089715685,19.61173037514892,3
2025-03-06 15:18:44.728,-0.0303343435809047,18.577234274616696,3
2025-03-06 15:18:44.736,-0.0310911759527443,17.411242807737917,3
2025-03-06 15:18:44.744,-0.0318239914679072,16.143172178747413,3
2025-03-06 15:18:44.752,-0.0325302675704834,14.806512009624171,3
2025-03-06 15:18:44.760,-0.0332086640064788,13.43785681506575,3
2025-03-06 15:18:44.767,-0.0338590683126983,12.075834070005824,3
2025-03-06 15:18:44.775,-0.0344825935821261,10.75996239971814,3
2025-03-06 15:18:44.783,-0.0350815271532869,9.5294759208698,3
2025-03-06 15:18:44.791,-0.035659230874524,8.422152138343257,3
2025-03-06 15:18:44.799,-0.0362199959400834,7.4731809817970145,3
2025-03-06 15:18:44.806,-0.036768857864899,6.714111504735127,3
2025-03-06 15:18:44.814,-0.0373113796959623,6.171910457840443,3
2025-03-06 15:18:44.822,-0.0378534136651702,5.868163412353045,3
2025-03-06 15:18:44.830,-0.038400852832329,5.818444413754954,3
2025-03-06 15:18:44.838,-0.0389593847200578,6.031874410482553,3
2025-03-06 15:18:44.845,-0.0395342585993765,6.510882113236997,3
2025-03-06 15:18:44.853,-0.0401300771379815,7.251173751258966,3
2025-03-06 15:18:44.861,-0.040750621726391,8.241910706447529,3
2025-03-06 15:18:44.869,-0.0413987190227696,9.466086551802604,3
2025-03-06 15:18:44.877,-0.0420761541565858,10.901087925061343,3
2025-03-06 15:18:44.885,-0.0427836336972246,12.519417243976052,3
2025-03-06 15:18:44.892,-0.0435207990444603,14.28954979945578,3
2025-03-06 15:18:44.900,-0.0442862884335077,16.176893484533714,3
2025-03-06 15:18:44.908,-0.0450778433585732,18.144816508782363,3
2025-03-06 15:18:44.916,-0.0458924530073453,20.155707015189467,3
2025-03-06 15:18:44.924,-0.0467265283602237,22.17202858219127,3
2025-03-06 15:18:44.931,-0.047576096016702,24.15733709177585,3
2025-03-06 15:18:44.939,-0.0484370006373032,26.07722722889152,3
2025-03-06 15:18:44.947,-0.04930510420558,27.90018073929931,3
2025-03-06 15:18:44.955,-0.0501764701783142,29.59829326375149,3
2025-03-06 15:18:44.963,-0.0510475210193436,31.14786181883509,3
2025-03-06 15:18:44.970,-0.0519151585633112,32.52982054537135,3
2025-03-06 15:18:44.978,-0.0527768380644069,33.73001795291023,3
2025-03-06 15:18:44.986,-0.0536305886194665,34.7393343467549,3
2025-03-06 15:18:44.994,-0.0544749749124939,35.553643260608375,3
2025-03-06 15:18:45.002,-0.0553089978624943,36.17362539071511,3
2025-03-06 15:18:45.010,-0.0561319346504977,36.60444761767327,3
2025-03-06 15:18:45.017,-0.0569431216297411,36.85532312042029,3
2025-03-06 15:18:45.025,-0.057741686683569,36.93897128260599,3
2025-03-06 15:18:45.033,-0.0585262405410474,36.87099805375873,3
2025-03-06 15:18:45.041,-0.0592945391716282,36.66921867384452,3
2025-03-06 15:18:45.049,-0.0600431314798987,36.35294523296651,3
2025-03-06 15:18:45.056,-0.0607670080637298,35.942261460460216,3
2025-03-06 15:18:45.064,-0.0614592677865411,35.45730646932376,3
2025-03-06 15:18:45.072,-0.0621108192627317,34.91758797547414,3
2025-03-06 15:18:45.080,-0.0627101339136779,34.34134381731844,3
2025-03-06 15:18:45.088,-0.0632430659625348,33.74496846885099,3
2025-03-06 15:18:45.095,-0.0636927527319732,33.142518723128525,3
2025-03-06 15:18:45.103,-0.0640396061352257,32.54530988829412,3
2025-03-06 15:18:45.111,-0.0642614035140886,31.961610767640977,3
2025-03-06 15:18:45.119,-0.064333483061633,31.39644248961123,3
2025-03-06 15:18:45.127,-0.0642290459434624,30.85148302931647,3
2025-03-06 15:18:45.135,-0.0639195638475279,30.325076142063185,3
2025-03-06 15:18:45.142,-0.0633752871213225,29.81234052836951,3
2025-03-06 15:18:45.150,-0.0625658451889198,29.305372471414262,3
2025-03-06 15:18:45.158,-0.0614609280128331,28.793533010660877,3
2025-03-06 15:18:45.166,-0.0600310353273817,28.26380898852676,3
2025-03-06 15:18:45.174,-0.0582482792471544,27.70123604862118,3
2025-03-06 15:18:45.181,-0.0560872252247271,27.089370865260392,3
2025-03-06 15:18:45.189,-0.0535257554353184,26.410799512662724,3
2025-03-06 15:18:45.197,-0.0505459367463178,25.647668886297723,3
2025-03-06 15:18:45.205,-0.0471348721185128,24.78222839962489,3
2025-03-06 15:18:45.213,-0.0432855098023985,23.797369719212185,3
2025-03-06 15:18:45.220,-0.038997379789714,22.677152994576826,3
2025-03-06 15:18:45.228,-0.0342772226830845,21.40730882237017,3
2025-03-06 15:18:45.236,-0.0291394734403805,19.975706009377035,3
2025-03-06 15:18:45.244,-0.0236065621157137,18.372776031803504,3
2025-03-06 15:18:45.252,-0.0177089963064888,16.591885909577176,3
2025-03-06 15:18:45.260,-0.011485195790819,14.629652015760104,3
2025-03-06 15:18:45.267,-0.004981058727271,12.486188126015486,3
2025-03-06 15:18:45.275,0.0017507495525418,10.165281799508682,3
2025-03-06 15:18:45.283,0.0086517802135082,7.674494007045809,3
2025-03-06 15:18:45.291,0.0156590366467656,5.025177834793907,3
2025-03-06 15:18:45.299,0.0227064257711348,2.2324131430087366,3
2025-03-06 15:18:45.306,0.0297263727417498,-0.6851447133003764,3
2025-03-06 15:18:45.314,0.036651533072347,-3.705502569596931,3
2025-03-06 15:18:45.322,0.0434165264712485,-6.803652381262691,3
2025-03-06 15:18:45.330,0.0499596135762502,-9.951976410655757,3
2025-03-06 15:18:45.338,0.0562242411319802,-13.12072969267261,3
2025-03-06 15:18:45.345,0.0621603915562102,-16.278592687082792,3
2025-03-06 15:18:45.353,0.0677256869082946,-19.393284854245675,3
2025-03-06 15:18:45.361,0.0728862131901067,-22.43222772569133,3
2025-03-06 15:18:45.369,0.0776170475062863,-25.363243945991908,3
2025-03-06 15:18:45.377,0.0819024867663723,-28.15527679881721,3
2025-03-06 15:18:45.385,0.085735991122029,-30.779112961822,3
2025-03-06 15:18:45.392,0.0891198671549754,-33.20808973191303,3
2025-03-06 15:18:45.400,0.0920647243187155,-35.41876680380252,3
2025-03-06 15:18:45.408,0.0945887431919184,-37.39154196658788,3
2025-03-06 15:18:45.416,0.096716796184882,-39.11118992710497,3
2025-03-06 15:18:45.424,0.0984794612432845,-40.56730402250668,3
2025-03-06 15:18:45.431,0.0999119675435132,-41.7546220038999,3
2025-03-06 15:18:45.439,0.1010531095642498,-42.67321948862028,3
2025-03-06 15:18:45.447,0.1019441623618978,-43.328558156683,3
2025-03-06 15:18:45.455,0.1026278264321693,-43.73138027763494,3
2025-03-06 15:18:45.463,0.1031472253227587,-43.89744656224693,3
2025-03-06 15:18:45.470,0.1035449733598129,-43.84712040793757,3
2025-03-06 15:18:45.478,0.1038623248150243,-43.60480803980845,3
2025-03-06 15:18:45.486,0.1041384101501246,-43.19827047586716,3
2025-03-06 15:18:45.494,0.1044095602679837,-42.65782926014782,3
2025-03-06 15:18:45.502,0.1047087163684129,-42.01549308702768,3
2025-03-06 15:18:45.510,0.1050649210664602,-41.304036380136566,3
2025-03-06 15:18:45.517,0.1055028856150897,-40.55606326400255,3
2025-03-06 15:18:45.525,0.1060426280204659,-39.803090986626295,3
2025-03-06 15:18:45.533,0.1066991772429385,-39.07468569423187,3
2025-03-06 15:18:45.541,0.1074823393788884,-38.39768066150078,3
2025-03-06 15:18:45.549,0.1083965226761587,-37.795502899668506,3
2025-03-06 15:18:45.556,0.109440619436192,-37.2876288351929,3
2025-03-06 15:18:45.564,0.1106079442547647,-36.88918384054375,3
2025-03-06 15:18:45.572,0.1118862295536188,-36.61069417129706,3
2025-03-06 15:18:45.580,0.1132576807981689,-36.45799365772105,3
2025-03-06 15:18:45.588,0.1146990949964784,-36.43228160609079,3
2025-03-06 15:18:45.595,0.1161820468983995,-36.53032301899388,3
2025-03-06 15:18:45.603,0.1176731477069465,-36.74477761529867,3
2025-03-06 15:18:45.611,0.1191343810528761,-37.06464032613358,3
2025-03-06 15:18:45.619,0.1205235204330704,-37.4757730133041,3
2025-03-06 15:18:45.627,0.1217946312479397,-37.96150510853582,3
2025-03-06 15:18:45.635,0.1228986590160545,-38.50327968731757,3
2025-03-06 15:18:45.642,0.1237841033667924,-39.081321137696655,3
2025-03-06 15:18:45.650,0.1243977751037992,-39.675301021853805,3
2025-03-06 15:18:45.658,0.1246856310913207,-40.264979909809405,3
2025-03-06 15:18:45.666,0.1245936790591235,-40.83080483512954,3
2025-03-06 15:18:45.674,0.1240689417948891,-41.35444451497162,3
2025-03-06 15:18:45.681,0.123060467757539,-41.81924750947231,3
2025-03-06 15:18:45.689,0.1215203730639383,-42.21061197119477,3
2025-03-06 15:18:45.697,0.1194048982643829,-42.51625943979912,3
2025-03-06 15:18:45.705,0.116675462606051,-42.72640913518874,3
2025-03-06 15:18:45.713,0.1132996989399945,-42.83385323783934,3
2025-03-06 15:18:45.720,0.1092524542435993,-42.83393754693963,3
2025-03-06 15:18:45.728,0.1045167434172295,-42.724455501655065,3
2025-03-06 15:18:45.736,0.0990846459926047,-42.505466674714434,3
2025-03-06 15:18:45.744,0.0929581343963941,-42.17905335897366,3
2025-03-06 15:18:45.752,0.0861498168224574,-41.74903065656144,3
2025-03-06 15:18:45.760,0.0786835678440489,-41.220626474826695,3
2025-03-06 15:18:45.767,0.0705950078944812,-40.60014800397762,3
2025-03-06 15:18:45.775,0.0619317819247079,-39.89465061297619,3
2025-03-06 15:18:45.783,0.0527535809970296,-39.11162371125602,3
2025-03-06 15:18:45.791,0.0431318504327982,-38.25870607900743,3
2025-03-06 15:18:45.799,0.0331491352835483,-37.343440591273605,3
2025-03-06 15:18:45.806,0.0228980280015804,-36.373075299167255,3
2025-03-06 15:18:45.814,0.0124797030016321,-35.35441465797571,3
2025-03-06 15:18:45.822,0.0020020467258083,-34.2937214980914,3
2025-03-06 15:18:45.830,-0.0084225817006564,-33.19666731639448,3
2025-03-06 15:18:45.838,-0.0186798968494933,-32.068325805918384,3
2025-03-06 15:18:45.845,-0.028656452499405,-30.913202393348843,3
2025-03-06 15:18:45.853,-0.0382425177508264,-29.735291025068136,3
2025-03-06 15:18:45.861,-0.0473349418850723,-28.53814858636903,3
2025-03-06 15:18:45.869,-0.0558398806444342,-27.32497715198221,3
2025-03-06 15:18:45.877,-0.0636752585040908,-26.098704694749344,3
2025-03-06 15:18:45.885,-0.070772850660085,-24.86205582993398,3
2025-03-06 15:18:45.892,-0.077079885772258,-23.61760553251981,3
2025-03-06 15:18:45.900,-0.0825600967050603,-22.367810420855804,3
2025-03-06 15:18:45.908,-0.087194180228048,-21.11501405105477,3
2025-03-06 15:18:45.916,-0.0909796638075099,-19.86142462810856,3
2025-03-06 15:18:45.924,-0.0939302130276101,-18.609065543273303,3
2025-03-06 15:18:45.931,-0.0960744426279771,-17.35970113358454,3
2025-03-06 15:18:45.939,-0.0974543154930886,-16.114741964954074,3
2025-03-06 15:18:45.947,-0.0981232267629878,-14.875135685265167,3
2025-03-06 15:18:45.955,-0.098143875065088,-13.641250980094924,3
2025-03-06 15:18:45.963,-0.0975860206691304,-12.412763287710057,3
2025-03-06 15:18:45.970,-0.0965242225560828,-11.188551604826005,3
2025-03-06 15:18:45.978,-0.0950356347886101,-9.96661588615512,3
2025-03-06 15:18:45.986,-0.0931979290846891,-8.744024187519956,3
2025-03-06 15:18:45.994,-0.0910873966608722,-7.516897823854163,3
2025-03-06 15:18:46.002,-0.0887772691208563,-6.280441422290535,3
2025-03-06 15:18:46.010,-0.0863362857581557,-5.0290228749729655,3
2025-03-06 15:18:46.017,-0.083827523189869,-3.756305889717648,3
2025-03-06 15:18:46.025,-0.0813074927934437,-2.455435185423452,3
2025-03-06 15:18:46.033,-0.0788255021185552,-1.119271500763234,3
2025-03-06 15:18:46.041,-0.076423268472623,0.2593293800464948,3
2025-03-06 15:18:46.049,-0.0741347663448903,1.6872022736732897,3
2025-03-06 15:18:46.056,-0.0719862852535174,3.1705342534921503,3
2025-03-06 15:18:46.064,-0.0699966709480039,4.714515873270716,3
2025-03-06 15:18:46.072,-0.0681777206635511,6.32299714265235,3
2025-03-06 15:18:46.080,-0.0665347022935195,7.998164336939578,3
2025-03-06 15:18:46.088,-0.0650669678730315,9.740253819739424,3
2025-03-06 15:18:46.095,-0.0637686335262052,11.547318334881531,3
2025-03-06 15:18:46.103,-0.0626293007864284,13.415059722085742,3
2025-03-06 15:18:46.111,-0.061634797610698,15.336739808976803,3
2025-03-06 15:18:46.119,-0.060767921074413,17.30317843553818,3
2025-03-06 15:18:46.127,-0.0600091672701183,19.30284429363172,3
2025-03-06 15:18:46.135,-0.0593374370485236,21.322040637181686,3
2025-03-06 15:18:46.142,-0.0587307087559244,23.34518406422413,3
2025-03-06 15:18:46.150,-0.0581666709744027,25.35517061609496,3
2025-03-06 15:18:46.158,-0.0576233094962264,27.333819505739797,3
2025-03-06 15:18:46.166,-0.0570794434816121,29.262381003455577,3
2025-03-06 15:18:46.174,-0.0565152061210981,31.12209151254571,3
2025-03-06 15:18:46.181,-0.0559124652999645,32.89475581493887,3
2025-03-06 15:18:46.189,-0.0552551798562452,34.563334030056104,3
2025-03-06 15:18:46.197,-0.0545296871314095,36.112509191745154,3
2025-03-06 15:18:46.205,-0.0537249177565336,37.52921069076943,3
2025-03-06 15:18:46.213,-0.0528325341958548,38.803069320138,3
2025-03-06 15:18:46.220,-0.0518469907399308,39.92678141925041,3
2025-03-06 15:18:46.228,-0.0507655145805908,40.89636268598464,3
2025-03-06 15:18:46.236,-0.0495880102540222,41.71127655918603,3
2025-03-06 15:18:46.244,-0.0483168927854137,42.37442750571664,3
2025-03-06 15:18:46.252,-0.0469568578506864,42.892015814108426,3
2025-03-06 15:18:46.260,-0.0455145997783908,43.2732572555392,3
2025-03-06 15:18:46.267,-0.0439984899883178,43.52997781690954,3
2025-03-06 15:18:46.275,-0.0424182293951823,43.67610020052118,3
2025-03-06 15:18:46.283,-0.0407844884155797,43.7270444748166,3
2025-03-06 15:18:46.291,-0.0391085476155938,43.69906973820466,3
2025-03-06 15:18:46.299,-0.0374019508731326,43.60858659547066,3
2025-03-06 15:18:46.306,-0.0356761813474579,43.47147145310318,3
2025-03-06 15:18:46.314,-0.03394236867612,43.30241308994392,3
2025-03-06 15:18:46.322,-0.0322110337776887,43.1143197813475,3
2025-03-06 15:18:46.330,-0.0304918755621164,42.91781169386903,3
2025-03-06 15:18:46.338,-0.028793601877183,42.72081863708922,3
2025-03-06 15:18:46.345,-0.0271238052471459,42.528297896548935,3
2025-03-06 15:18:46.353,-0.0254888824343229,42.342081105768,3
2025-03-06 15:18:46.361,-0.0238939956020104,42.16085325161577,3
2025-03-06 15:18:46.369,-0.0223430718995989,41.98026122356389,3
2025-03-06 15:18:46.377,-0.0208388376118735,41.79314405957164,3
2025-03-06 15:18:46.385,-0.0193828825364984,41.589872416122304,3
2025-03-06 15:18:46.392,-0.0179757498887788,41.35878095446273,3
2025-03-06 15:18:46.400,-0.0166170467562127,41.0866743901645,3
2025-03-06 15:18:46.408,-0.0153055699677946,40.75938594236757,3
2025-03-06 15:18:46.416,-0.0140394422287999,40.3623658353938,3
2025-03-06 15:18:46.424,-0.0128162534991771,39.88127730341146,3
2025-03-06 15:18:46.431,-0.0116332028619342,39.30257815952738,3
2025-03-06 15:18:46.439,-0.0104872365458928,38.61406733320652,3
2025-03-06 15:18:46.447,-0.0093751783291196,37.80537776675761,3
2025-03-06 15:18:46.455,-0.0082938492238234,36.868399599292,3
2025-03-06 15:18:46.463,-0.007240174089432,35.797620555551724,3
2025-03-06 15:18:46.470,-0.0062112735885969,34.59037379206025,3
2025-03-06 15:18:46.478,-0.0052045406220924,33.24698702178313,3
2025-03-06 15:18:46.486,-0.0042177009863375,31.77083041796179,3
2025-03-06 15:18:46.494,-0.0032488584699696,30.168264453641005,3
2025-03-06 15:18:46.502,-0.0022965249738932,28.44849232733455,3
2025-03-06 15:18:46.510,-0.0013596365473103,26.623324830998467,3
2025-03-06 15:18:46.517,-0.0004375564983901,24.70686833490665,3
2025-03-06 15:18:46.525,0.0004699330605982,22.715148925947545,3
2025-03-06 15:18:46.533,0.0013626497802139,20.66568759201368,3
2025-03-06 15:18:46.541,0.00224003833006,18.57704265457448,3
2025-03-06 15:18:46.549,0.0031012050447439,16.468336377158206,3
2025-03-06 15:18:46.556,0.0039449588261089,14.35878278866952,3
2025-03-06 15:18:46.564,0.0047698573509058,12.267233237898788,3
2025-03-06 15:18:46.572,0.0055742578193208,10.211755035967084,3
2025-03-06 15:18:46.580,0.0063563716316495,8.209256765377921,3
2025-03-06 15:18:46.588,0.0071143224414409,6.275171486938217,3
2025-03-06 15:18:46.596,0.0078462069749815,4.423206247135126,3
2025-03-06 15:18:46.603,0.0085501578424606,2.6651631074729405,3
2025-03-06 15:18:46.611,0.0092244073230746,1.0108335472303664,3
2025-03-06 15:18:46.619,0.009867350807487,-0.5320352812072957,3
2025-03-06 15:18:46.627,0.010477608255206,-1.9577071451532737,3
2025-03-06 15:18:46.635,0.0110540817231444,-3.262363677364566,3
2025-03-06 15:18:46.642,0.0115960068108395,-4.443961456107879,3
2025-03-06 15:18:46.650,0.0121029957895579,-5.502050644591347,3
2025-03-06 15:18:46.658,0.0125750702320051,-6.437567571283613,3
2025-03-06 15:18:46.666,0.0130126811159328,-7.252613895022793,3
2025-03-06 15:18:46.674,0.0134167146497098,-7.950234601005187,3
2025-03-06 15:18:46.681,0.0137884825029598,-8.534206084367737,3
2025-03-06 15:18:46.689,0.0141296957443918,-9.00884409170843,3
2025-03-06 15:18:46.697,0.0144424225648628,-9.378839413692418,3
2025-03-06 15:18:46.705,0.0147290307385105,-9.649127057789148,3
2025-03-06 15:18:46.713,0.0149921166870321,-9.824792277371465,3
2025-03-06 15:18:46.721,0.0152344238872664,-9.911014392235929,3
2025-03-06 15:18:46.728,0.015458754098261,-9.913046919184143,3
2025-03-06 15:18:46.736,0.0156678753827877,-9.836230270088368,3
2025-03-06 15:18:46.744,0.0158644311140723,-9.686031310107486,3
2025-03-06 15:18:46.752,0.0160508541060432,-9.468102533751122,3
2025-03-06 15:18:46.760,0.0162292897281384,-9.188352612881918,3
2025-03-06 15:18:46.767,0.0164015314016783,-8.85301965179398,3
2025-03-06 15:18:46.775,0.0165689712423958,-8.468738652797267,3
2025-03-06 15:18:46.783,0.0167325678243259,-8.042595411454677,3
2025-03-06 15:18:46.791,0.0168928321196843,-7.582160251428961,3
2025-03-06 15:18:46.799,0.0170498316688714,-7.095496574790219,3
2025-03-06 15:18:46.806,0.0172032120380297,-6.591141019961584,3
2025-03-06 15:18:46.814,0.0173522337359482,-6.078053947178711,3
2025-03-06 15:18:46.822,0.0174958220809107,-5.565540875375898,3
2025-03-06 15:18:46.830,0.0176326270787197,-5.063147259614708,3
2025-03-06 15:18:46.838,0.0177610901942239,-4.580530532123413,3
2025-03-06 15:18:46.846,0.0178795149272458,-4.127314556221547,3
2025-03-06 15:18:46.853,0.0179861382671232,-3.712932497318795,3
2025-03-06 15:18:46.861,0.0180792003248178,-3.3464645567209685,3
2025-03-06 15:18:46.869,0.0181570096876777,-3.0364770349946637,3
2025-03-06 15:18:46.877,0.0182180023157195,-2.7908688275993785,3
2025-03-06 15:18:46.885,0.0182607921324059,-2.6167307814818046,3
2025-03-06 15:18:46.892,0.0182842118775735,-2.5202224574412075,3
2025-03-06 15:18:46.900,0.0182873432726871,-2.506469851538722,3
2025-03-06 15:18:46.908,0.0182695360631306,-2.579486614317821,3
2025-03-06 15:18:46.916,0.0182304160039131,-2.7421203300419443,3
2025-03-06 15:18:46.924,0.0181698823010967,-2.996024520483017,3
2025-03-06 15:18:46.931,0.0180880953896941,-3.341656243626959,3
2025-03-06 15:18:46.939,0.0179854562292329,-3.778298475599671,3
2025-03-06 15:18:46.947,0.0178625785510915,-4.304105887866887,3
2025-03-06 15:18:46.955,0.0177202556979552,-4.916172145512226,3
2025-03-06 15:18:46.963,0.0175594238346704,-5.610616438199721,3
2025-03-06 15:18:46.971,0.0173811233623849,-6.382686597018232,3
2025-03-06 15:18:46.978,0.0171864603304144,-7.226875832732534,3
2025-03-06 15:18:46.986,0.0169765695192741,-8.137049840750347,3
2025-03-06 15:18:46.994,0.0167525806737632,-9.106580747977342,3
2025-03-06 15:18:47.002,0.0165155891082596,-10.1284841301136,3
2025-03-06 15:18:47.010,0.0162666315998773,-11.195555122676938,3
2025-03-06 15:18:47.017,0.0160066681435152,-12.300499517516348,3
2025-03-06 15:18:47.025,0.0157365697891181,-13.436055718588085,3
2025-03-06 15:18:47.033,0.0154571124512428,-14.595103559774833,3
2025-03-06 15:18:47.041,0.0151689763082283,-15.770756279003006,3
2025-03-06 15:18:47.049,0.0148727501997299,-16.956432392667505,3
2025-03-06 15:18:47.056,0.0145689402619075,-18.14590480637404,3
2025-03-06 15:18:47.064,0.0142579818791465,-19.33332521440824,3
2025-03-06 15:18:47.072,0.0139402538837923,-20.513222667312725,3
2025-03-06 15:18:47.080,0.0136160938486574,-21.680476114414173,3
2025-03-06 15:18:47.088,0.013285813338385,-22.83026174408568,3
2025-03-06 15:18:47.096,0.0129497121132562,-23.95797702645887,3
2025-03-06 15:18:47.103,0.0126080904714836,-25.05914447176641,3
2025-03-06 15:18:47.111,0.0122612591350677,-26.129299196922428,3
2025-03-06 15:18:47.119,0.0119095463104967,-27.16386538006537,3
2025-03-06 15:18:47.127,0.011553301779376,-28.158027517222557,3
2025-03-06 15:18:47.135,0.01119289808788,-29.106603026699567,3
2025-03-06 15:18:47.142,0.0108287290990288,-30.0039231380036,3
2025-03-06 15:18:47.150,0.0104612063320613,-30.84372912967749,3
2025-03-06 15:18:47.158,0.010090753612355,-31.61909083362869,3
2025-03-06 15:18:47.166,0.0097178005774394,-32.3223539005596,3
2025-03-06 15:18:47.174,0.0093427755522011,-32.94512162499639,3
2025-03-06 15:18:47.181,0.0089660982664622,-33.47827616666875,3
2025-03-06 15:18:47.189,0.008588172864991,-33.91204279238042,3
2025-03-06 15:18:47.197,0.008209381641161,-34.2360993237155,3
2025-03-06 15:18:47.205,0.0078300798897533,-34.439731346188246,3
2025-03-06 15:18:47.213,0.0074505922124019,-34.51203195903035,3
2025-03-06 15:18:47.221,0.0070712105203963,-34.442142972475665,3
2025-03-06 15:18:47.228,0.0066921938659705,-34.21953254798211,3
2025-03-06 15:18:47.236,0.0063137700976436,-33.834302392947315,3
2025-03-06 15:18:47.244,0.0059361391829229,-33.27751584670684,3
2025-03-06 15:18:47.252,0.0055594778885067,-32.54153662569804,3
2025-03-06 15:18:47.260,0.0051839453894928,-31.620366735161188,3
2025-03-06 15:18:47.267,0.004809689334282,-30.509971194982043,3
2025-03-06 15:18:47.275,0.004436851923381,-29.208576837382285,3
2025-03-06 15:18:47.283,0.0040655756306869,-27.716932557064183,3
2025-03-06 15:18:47.291,0.0036960082778042,-26.03851905233149,3
2025-03-06 15:18:47.299,0.0033283072657999,-24.17969729615273,3
2025-03-06 15:18:47.306,0.0029626428616649,-22.14978671119566,3
2025-03-06 15:18:47.314,0.0025992004981895,-19.961066260755747,3
2025-03-06 15:18:47.322,0.0022381820762591,-17.628694341607783,3
2025-03-06 15:18:47.330,0.0018798062935351,-15.170546366430916,3
2025-03-06 15:18:47.338,0.0015243080842271,-12.60697210258826,3
2025-03-06 15:18:47.346,0.0011719373271994,-9.960478010997631,3
2025-03-06 15:18:47.353,0.0008229570414338,-7.255342815664516,3
2025-03-06 15:18:47.361,0.0004776413280954,-4.517177158969552,3
2025-03-06 15:18:47.369,0.0001362733352251,-1.7724403210056032,3
2025-03-06 15:18:47.377,-0.0002008564850705,0.9520714955234784,3
2025-03-06 15:18:47.385,-0.0005334515848539,3.629749946929344,3
2025-03-06 15:18:47.392,-0.000861209799406,6.234696832503371,3
2025-03-06 15:18:47.400,-0.0011838229670469,8.742228759610263,3
2025-03-06 15:18:47.408,-0.0015009756382341,11.12935008089732,3
2025-03-06 15:18:47.416,-0.0018123429114519,13.375181478070049,3
2025-03-06 15:18:47.424,-0.0021175875273848,15.46133340973378,3
2025-03-06 15:18:47.431,-0.0024163564380705,17.372215731054922,3
2025-03-06 15:18:47.439,-0.002708277119389,19.09527702629829,3
2025-03-06 15:18:47.447,-0.0029929538980588,20.62116948006834,3
2025-03-06 15:18:47.455,-0.0032699645406481,21.943837371510984,3
2025-03-06 15:18:47.463,-0.0035388573465133,23.060529442602743,3
2025-03-06 15:18:47.471,-0.0037991490120046,23.97173741121307,3
2025-03-06 15:18:47.478,-0.0040503235543629,24.681064722539148,3
2025-03-06 15:18:47.486,-0.0042918325653298,25.195031215294588,3
2025-03-06 15:18:47.494,-0.0045230970202673,25.52282068642848,3
2025-03-06 15:18:47.502,-0.004743510842606,25.675979348175773,3
2025-03-06 15:18:47.510,-0.0049524464299649,25.668073882799867,3
2025-03-06 15:18:47.517,-0.0051492623517262,25.51431823976869,3
2025-03-06 15:18:47.525,-0.0053333133832417,25.231178538870555,3
2025-03-06 15:18:47.533,-0.0055039629324107,24.835965503881752,3
2025-03-06 15:18:47.541,-0.0056605977441338,24.34642381022044,3
2025-03-06 15:18:47.549,-0.0058026445455998,23.780327620248958,3
2025-03-06 15:18:47.556,-0.0059295880429795,23.1550914080736,3
2025-03-06 15:18:47.564,-0.006040989444936,22.48740492245063,3
2025-03-06 15:18:47.572,-0.0061365045273224,21.79290076168711,3
2025-03-06 15:18:47.580,-0.0062159002001916,21.085862485813404,3
2025-03-06 15:18:47.588,-0.0062790685791969,20.378980415003248,3
2025-03-06 15:18:47.596,-0.0063260376577926,19.68316121602654,3
2025-03-06 15:18:47.603,-0.0063569778049228,19.00739603819064,3
2025-03-06 15:18:47.611,-0.0063722034907928,18.35869033264144,3
2025-03-06 15:18:47.619,-0.0063721698915071,17.742056610367793,3
2025-03-06 15:18:47.627,-0.0063574643388235,17.160569327587027,3
2025-03-06 15:18:47.635,-0.0063287929274395,16.615478915125372,3
2025-03-06 15:18:47.642,-0.0062869629065995,16.106379789888862,3
2025-03-06 15:18:47.650,-0.0062328617051953,15.63142511388424,3
2025-03-06 15:18:47.658,-0.0061674335450088,15.18757921872508,3
2025-03-06 15:18:47.666,-0.0060916546078453,14.770897109388793,3
2025-03-06 15:18:47.674,-0.0060065076884362,14.37681940979474,3
2025-03-06 15:18:47.681,-0.0059129572246596,14.000470602022183,3
2025-03-06 15:18:47.689,-0.0058119255628218,13.636948487155117,3
2025-03-06 15:18:47.697,-0.0057042712900944,13.281593453928403,3
2025-03-06 15:18:47.705,-0.0055907704388999,12.93022733213585,3
2025-03-06 15:18:47.713,-0.0054721013052693,12.57935325369641,3
2025-03-06 15:18:47.721,-0.0053488334880901,12.22630995302648,3
2025-03-06 15:18:47.728,-0.0052214215509564,11.869376207076696,3
2025-03-06 15:18:47.736,-0.0050902034793541,11.507823530090011,3
2025-03-06 15:18:47.744,-0.0049554038996324,11.141917674766326,3
2025-03-06 15:18:47.752,-0.0048171418453834,10.77287182152249,3
2025-03-06 15:18:47.760,-0.0046754426671049,10.402756437419043,3
2025-03-06 15:18:47.767,-0.0045302534612347,10.034372549512469,3
2025-03-06 15:18:47.775,-0.0043814611688695,9.67109652461614,3
2025-03-06 15:18:47.783,-0.0042289123100928,9.31670533101794,3
2025-03-06 15:18:47.791,-0.0040724332100869,8.975191659630049,3
2025-03-06 15:18:47.799,-0.0039118495479615,8.65057821001686,3
2025-03-06 15:18:47.806,-0.0037470041160461,8.346739930332816,3
2025-03-06 15:18:47.814,-0.0035777718082268,8.06724208831557,3
2025-03-06 15:18:47.822,-0.0034040710424779,7.81520080971821,3
2025-03-06 15:18:47.830,-0.003225871034032,7.593171231464965,3
2025-03-06 15:18:47.838,-0.0030431945484747,7.403066766565368,3
2025-03-06 15:18:47.846,-0.0028561159915399,7.246111253441244,3
2025-03-06 15:18:47.853,-0.0026647549685893,7.122824048049409,3
2025-03-06 15:18:47.861,-0.0024692657715347,7.033036493167108,3
2025-03-06 15:18:47.869,-0.0022698235653775,6.975936736196712,3
2025-03-06 15:18:47.877,-0.0020666082723961,6.950138618411708,3
2025-03-06 15:18:47.885,-0.0018597872565285,6.953769358670266,3
2025-03-06 15:18:47.892,-0.0016494979302245,6.984570024446224,3
2025-03-06 15:18:47.900,-0.0014358313965521,7.040002341798413,3
2025-03-06 15:18:47.908,-0.0012188182079922,7.117355266865404,3
2025-03-06 15:18:47.916,-0.0009984172338848,7.213844948296622,3
2025-03-06 15:18:47.924,-0.0007745084610138,7.326702265741205,3
2025-03-06 15:18:47.931,-0.0005468903313982,7.453243024282963,3
2025-03-06 15:18:47.939,-0.0003152819943421,7.590917078400522,3
2025-03-06 15:18:47.947,-7.933064319313286e-05,7.737334081911116,3
2025-03-06 15:18:47.955,0.0001613760965616,7.890265121832248,3
2025-03-06 15:18:47.963,0.0004072930024641,8.047621094921618,3
2025-03-06 15:18:47.971,0.0006588958741511,8.207410227595341,3
2025-03-06 15:18:47.978,0.0009166567838895,8.367678531437733,3
2025-03-06 15:18:47.986,0.0011810170411091,8.526438146333973,3
2025-03-06 15:18:47.994,0.0014523591186113,8.681589381424041,3
2025-03-06 15:18:48.002,0.0017309788964961,8.830842760592978,3
2025-03-06 15:18:48.010,0.0020170596388295,8.971647465728257,3
2025-03-06 15:18:48.017,0.0023106491113212,9.101132219850724,3
2025-03-06 15:18:48.025,0.0026116411606629,9.216063868724772,3
2025-03-06 15:18:48.033,0.0029197629270128,9.312827749392078,3
2025-03-06 15:18:48.041,0.0032345686856511,9.38743246330742,3
2025-03-06 15:18:48.049,0.0035554411116125,9.435540020074953,3
2025-03-06 15:18:48.056,0.0038816004962805,9.452520625596971,3
2025-03-06 15:18:48.064,0.0042121220982573,9.433529798271673,3
2025-03-06 15:18:48.072,0.0045459614003,9.373604133420466,3
2025-03-06 15:18:48.080,0.0048819866001973,9.267770991402369,3
2025-03-06 15:18:48.088,0.0052190172168351,9.111166711429766,3
2025-03-06 15:18:48.096,0.0055558672880853,8.899157664585463,3
2025-03-06 15:18:48.103,0.005891391330211,8.62745853640983,3
2025-03-06 15:18:48.111,0.0062245310497798,8.292242627636933,3
2025-03-06 15:18:48.119,0.0065543607303295,7.890239622214991,3
2025-03-06 15:18:48.127,0.0068801292136924,7.418817129316949,3
2025-03-06 15:18:48.135,0.0072012964302821,6.876043296177227,3
2025-03-06 15:18:48.142,0.0075175625037647,6.260728852957106,3
2025-03-06 15:18:48.150,0.0078288875863317,5.572448038636421,3
2025-03-06 15:18:48.158,0.0081355007966567,4.81153892282934,3
2025-03-06 15:18:48.166,0.008437896942168,3.9790846408034017,3
2025-03-06 15:18:48.174,0.0087368201066191,3.0768779591198,3
2025-03-06 15:18:48.181,0.0090332336677811,2.107372349200824,3
2025-03-06 15:18:48.189,0.0093282768682619,1.0736233265104778,3
2025-03-06 15:18:48.197,0.0096232086782137,-0.0207758242853209,3
2025-03-06 15:18:48.205,0.0099193403355745,-1.171759704599765,3
2025-03-06 15:18:48.213,0.0102179585772579,-2.3748537615227256,3
2025-03-06 15:18:48.221,0.0105202421270728,-3.625230910844973,3
2025-03-06 15:18:48.228,0.0108271744713363,-4.9177588822476,3
2025-03-06 15:18:48.236,0.0111394563607397,-6.247036268081916,3
2025-03-06 15:18:48.244,0.0114574218282738,-7.6074163322359505,3
2025-03-06 15:18:48.252,0.0117809617513933,-8.993018770569018,3
2025-03-06 15:18:48.260,0.0121094590503695,-10.397730707044234,3
2025-03-06 15:18:48.267,0.0124417394883615,-11.815199160495249,3
2025-03-06 15:18:48.275,0.012776041745439,-13.238817942852217,3
2025-03-06 15:18:48.283,0.0131100100029429,-14.661712398762887,3
2025-03-06 15:18:48.291,0.0134407116950964,-16.07672555854802,3
2025-03-06 15:18:48.299,0.0137646823424679,-17.47640918034719,3
2025-03-06 15:18:48.306,0.0140779984734598,-18.853022855922845,3
2025-03-06 15:18:48.314,0.0143763786035316,-20.19854390601711,3
2025-03-06 15:18:48.322,0.0146553111432519,-21.504690249819408,3
2025-03-06 15:18:48.330,0.0149102069953355,-22.76295785089837,3
2025-03-06 15:18:48.338,0.0151365734859351,-23.96467377072601,3
2025-03-06 15:18:48.346,0.0153302051468958,-25.101065349803637,3
2025-03-06 15:18:48.353,0.0154873857325765,-26.163345623623574,3
2025-03-06 15:18:48.361,0.0156050947536713,-27.1428147805855,3
2025-03-06 15:18:48.369,0.0156812107927562,-28.030977257124515,3
2025-03-06 15:18:48.377,0.015714702988876,-28.81967387123857,3
2025-03-06 15:18:48.385,0.0157058014013711,-29.501228113344546,3
2025-03-06 15:18:48.392,0.0156561365552294,-30.068605232798504,3
2025-03-06 15:18:48.400,0.0155688384175731,-30.51558200743274,3
2025-03-06 15:18:48.408,0.0154485854484683,-30.83692406089905,3
2025-03-06 15:18:48.416,0.0153015952646597,-31.028566375474487,3
2025-03-06 15:18:48.424,0.0151355498459367,-31.08779137375852,3
2025-03-06 15:18:48.431,0.0149594500540475,-31.013397777413083,3
2025-03-06 15:18:48.439,0.0147833964719665,-30.8058525556929,3
2025-03-06 15:18:48.447,0.014618296158558,-30.467417782503617,3
2025-03-06 15:18:48.455,0.0144754977931192,-30.00224421921779,3
2025-03-06 15:18:48.463,0.0143663607816607,-29.41642397743637,3
2025-03-06 15:18:48.471,0.0143017671194912,-28.7179956873744,3
2025-03-06 15:18:48.478,0.0142915880447919,-27.91689714927288,3
2025-03-06 15:18:48.486,0.0143441206623806,-27.024862383363164,3
2025-03-06 15:18:48.494,0.0144655126617931,-26.05526220574699,3
2025-03-06 15:18:48.502,0.0146591958988507,-25.022889832055007,3
2025-03-06 15:18:48.510,0.0149253518258488,-23.943695447039623,3
2025-03-06 15:18:48.517,0.0152604333665438,-22.83447607737953,3
2025-03-06 15:18:48.525,0.0156567686460511,-21.71252935275197,3
2025-03-06 15:18:48.533,0.0161022718388047,-20.595281697838416,3
2025-03-06 15:18:48.541,0.0165802851714357,-19.49990301318562,3
2025-03-06 15:18:48.549,0.0170695737351677,-18.44292084066896,3
2025-03-06 15:18:48.556,0.0175444911883382,-17.439847284308637,3
2025-03-06 15:18:48.564,0.0179753296738086,-16.504831549568,3
2025-03-06 15:18:48.572,0.0183288613992422,-15.650349914278916,3
2025-03-06 15:18:48.580,0.0185690724464925,-14.886943334577683,3
2025-03-06 15:18:48.588,0.018658081663086,-14.223010827084517,3
2025-03-06 15:18:48.596,0.0185572291751809,-13.66466437684665,3
2025-03-06 15:18:48.603,0.0182283104344498,-13.215648536400195,3
2025-03-06 15:18:48.611,0.0176349231094929,-12.87732525554832,3
2025-03-06 15:18:48.619,0.0167438859384164,-12.648721970409357,3
2025-03-06 15:18:48.627,0.0155266812888804,-12.526638727732609,3
2025-03-06 15:18:48.635,0.0139608670536001,-12.505808235296309,3
2025-03-06 15:18:48.642,0.0120313990565167,-12.57910126857728,3
2025-03-06 15:18:48.650,0.0097318027407343,-12.737768832331424,3
2025-03-06 15:18:48.658,0.0070651329142226,-12.971711841744511,3
2025-03-06 15:18:48.666,0.0040446630920955,-13.269768806841087,3
2025-03-06 15:18:48.674,0.000694251815507,-13.62001203331134,3
2025-03-06 15:18:48.681,-0.0029516575166856,-14.010043156371744,3
2025-03-06 15:18:48.689,-0.0068484342119756,-14.427279372128796,3
2025-03-06 15:18:48.697,-0.0109420703120282,-14.859222502851337,3
2025-03-06 15:18:48.705,-0.0151703994050295,-15.293704016721763,3
2025-03-06 15:18:48.713,-0.0194646996790316,-15.71910030577246,3
2025-03-06 15:18:48.721,-0.0237516350046221,-16.124513879547422,3
2025-03-06 15:18:48.728,-0.0279554670014773,-16.499917608771376,3
2025-03-06 15:18:48.736,-0.0320004524819649,-16.83626069296745,3
2025-03-06 15:18:48.744,-0.0358133253108508,-17.125536563839,3
2025-03-06 15:18:48.752,-0.0393257505954445,-17.36081440326667,3
2025-03-06 15:18:48.760,-0.0424766343546696,-17.53623727780113,3
2025-03-06 15:18:48.767,-0.0452141762560744,-17.64699100009317,3
2025-03-06 15:18:48.775,-0.0474975678332687,-17.689248662138244,3
2025-03-06 15:18:48.783,-0.04929826153144,-17.6600962990948,3
2025-03-06 15:18:48.791,-0.050600762546587,-17.557445303899023,3
2025-03-06 15:18:48.799,-0.0514029219405247,-17.37993701335208,3
2025-03-06 15:18:48.806,-0.0517157339766538,-17.126844352429124,3
2025-03-06 15:18:48.814,-0.0515626621852091,-16.797974620482908,3
2025-03-06 15:18:48.822,-0.0509785368846491,-16.39357652779202,3
2025-03-06 15:18:48.830,-0.0500080817709414,-15.914253561946406,3
2025-03-06 15:18:48.838,-0.0487041390763971,-15.360884807317452,3
2025-03-06 15:18:48.846,-0.0471256717290606,-14.734553571405376,3
2025-03-06 15:18:48.853,-0.0453356265351362,-14.036483666922146,3
2025-03-06 15:18:48.861,-0.0433987446138012,-13.267982982231338,3
2025-03-06 15:18:48.869,-0.0413794049219247,-12.43039401354282,3
2025-03-06 15:18:48.877,-0.0393395846671262,-11.525051256857028,3
2025-03-06 15:18:48.885,-0.0373370165827155,-10.553245675914033,3
2025-03-06 15:18:48.892,-0.0354236159163183,-9.516196789202928,3
2025-03-06 15:18:48.900,-0.0336442379557343,-8.415033185494137,3
2025-03-06 15:18:48.908,-0.0320358097719115,-7.250782433789705,3
2025-03-06 15:18:48.916,-0.0306268590040911,-6.024371371946731,3
2025-03-06 15:18:48.924,-0.0294374400413505,-4.736637633904789,3
2025-03-06 15:18:48.931,-0.0284794357559438,-3.388353024454202,3
2025-03-06 15:18:48.939,-0.0277571924438541,-1.9802590014455796,3
2025-03-06 15:18:48.947,-0.0272684279976161,-0.5131141124273719,3
2025-03-06 15:18:48.955,-0.027005339703546,1.01224720830935,3
2025-03-06 15:18:48.963,-0.0269558294119959,2.5948455125535643,3
2025-03-06 15:18:48.971,-0.0271047606826889,4.233478318785099,3
2025-03-06 15:18:48.978,-0.0274351646290583,5.926635005915895,3
2025-03-06 15:18:48.986,-0.0279293177782604,7.672406750644302,3
2025-03-06 15:18:48.994,-0.0285696255298657,9.468393923149064,3
2025-03-06 15:18:49.002,-0.0293392584217639,11.311613599790864,3
2025-03-06 15:18:49.010,-0.0302225054058784,13.198410054172394,3
2025-03-06 15:18:49.017,-0.0312048283935768,15.124371246154666,3
2025-03-06 15:18:49.025,-0.0322726244303302,17.08425443382694,3
2025-03-06 15:18:49.033,-0.033412724338778,19.071924069750334,3
2025-03-06 15:18:49.041,-0.0346116774856592,21.0803050890737,3
2025-03-06 15:18:49.049,-0.0358548894612307,23.101354537896768,3
2025-03-06 15:18:49.056,-0.0371256915030612,25.12605422641368,3
2025-03-06 15:18:49.064,-0.0384044270104962,27.144426741404363,3
2025-03-06 15:18:49.072,-0.0396676417107368,29.1455767417644,3
2025-03-06 15:18:49.080,-0.0408874601758434,31.11775900556122,3
2025-03-06 15:18:49.088,-0.0420312223450818,33.04847419473868,3
2025-03-06 15:18:49.096,-0.0430614393788028,34.92459272953536,3
2025-03-06 15:18:49.103,-0.0439361090126573,36.73250648051226,3
2025-03-06 15:18:49.111,-0.0446094077756696,38.45830715808481,3
2025-03-06 15:18:49.119,-0.0450327527012281,40.08798930451577,3
2025-03-06 15:18:49.127,-0.0451562005305209,41.60767472024525,3
2025-03-06 15:18:49.135,-0.0449301299842938,43.00385408496744,3
2025-03-06 15:18:49.142,-0.0443071341998516,44.26364058336728,3
2025-03-06 15:18:49.150,-0.0432440368460932,45.37502960897522,3
2025-03-06 15:18:49.158,-0.0417039368380323,46.32715813297542,3
2025-03-06 15:18:49.166,-0.0396581825888668,47.11055706670641,3
2025-03-06 15:18:49.174,-0.0370881770071661,47.71738986415984,3
2025-03-06 15:18:49.182,-0.0339869189053942,48.14167065391565,3
2025-03-06 15:18:49.189,-0.0303601952265948,48.37945533717627,3
2025-03-06 15:18:49.197,-0.026227351479773,48.42899935335339,3
2025-03-06 15:18:49.205,-0.0216215847242226,48.29087623345167,3
2025-03-06 15:18:49.213,-0.0165897239912414,47.968051674390175,3
2025-03-06 15:18:49.221,-0.0111914867514373,47.465908703019466,3
2025-03-06 15:18:49.228,-0.0054982258800266,46.79222056791727,3
2025-03-06 15:18:49.236,0.0004087927650158,45.95706929334352,3
2025-03-06 15:18:49.244,0.0064405194463622,44.97270932840124,3
2025-03-06 15:18:49.252,0.0125025756828154,43.85337738129802,3
2025-03-06 15:18:49.260,0.0184979409024072,42.6150512803441,3
2025-03-06 15:18:49.267,0.024329765203764,41.27516247328185,3
2025-03-06 15:18:49.275,0.0299041954465783,39.85226848508712,3
2025-03-06 15:18:49.283,0.0351331003180839,38.36569322985611,3
2025-03-06 15:18:49.291,0.0399365860074607,36.83514445573908,3
2025-03-06 15:18:49.299,0.0442452071103121,35.28031874024178,3
2025-03-06 15:18:49.307,0.0480017951289619,33.72050528651089,3
2025-03-06 15:18:49.314,0.05116284734039,32.17420022328076,3
2025-03-06 15:18:49.322,0.0536994406747904,30.658743096179865,3
2025-03-06 15:18:49.330,0.0555976576065501,29.189986683821235,3
2025-03-06 15:18:49.338,0.0568585325432829,27.78201014862891,3
2025-03-06 15:18:49.346,0.0574975462906855,26.44688387011736,3
2025-03-06 15:18:49.353,0.0575437117466664,25.194492196313355,3
2025-03-06 15:18:49.361,0.0570383055288505,24.032417916139977,3
2025-03-06 15:18:49.369,0.0560333077250879,22.9658896464313,3
2025-03-06 15:18:49.377,0.054589615615701,21.99779068437275,3
2025-03-06 15:18:49.385,0.0527750975573186,21.128725336014394,3
2025-03-06 15:18:49.392,0.0506625510743378,20.357136430052574,3
2025-03-06 15:18:49.400,0.0483276256596206,19.67946580266933,3
2025-03-06 15:18:49.408,0.0458467669170549,19.09034812822107,3
2025-03-06 15:18:49.416,0.0432952350818833,18.58282767979936,3
2025-03-06 15:18:49.424,0.0407452472960148,18.14858749060198,3
2025-03-06 15:18:49.432,0.038264288226544,17.77818094679264,3
2025-03-06 15:18:49.439,0.0359136268711081,17.461257011964996,3
2025-03-06 15:18:49.447,0.0337470689347507,17.18677195390711,3
2025-03-06 15:18:49.455,0.0318099651104837,16.943182477523695,3
2025-03-06 15:18:49.463,0.0301384870087349,16.71861741219285,3
2025-03-06 15:18:49.471,0.0287591745134083,16.501027409830584,3
2025-03-06 15:18:49.478,0.0276887502291246,16.27831434665389,3
2025-03-06 15:18:49.486,0.0269341877358083,16.038444163870953,3
2025-03-06 15:18:49.494,0.0264930110708026,15.76954861151379,3
2025-03-06 15:18:49.502,0.0263537947959324,15.460022656523574,3
2025-03-06 15:18:49.510,0.0264968286867693,15.098625066056456,3
2025-03-06 15:18:49.517,0.0268949091010505,14.674589779357175,3
2025-03-06 15:18:49.525,0.0275142202662447,14.17775506362235,3
2025-03-06 15:18:49.533,0.0283152725623514,13.598716080941552,3
2025-03-06 15:18:49.541,0.029253870658505,12.929004403034629,3
2025-03-06 15:18:49.549,0.0302820911876803,12.161295293767589,3
2025-03-06 15:18:49.557,0.0313492565588294,11.289640393512585,3
2025-03-06 15:18:49.564,0.0324028977539891,10.309719984509076,3
2025-03-06 15:18:49.572,0.033389704108653,9.219105516653253,3
2025-03-06 15:18:49.580,0.0342564618938439,8.01751976844157,3
2025-03-06 15:18:49.588,0.0349509857694584,6.707079163077131,3
2025-03-06 15:18:49.596,0.0354230476224582,5.2925006190900445,3
2025-03-06 15:18:49.603,0.0356253058658027,3.781254143874352,3
2025-03-06 15:18:49.611,0.0355142351161976,2.183642398900476,3
2025-03-06 15:18:49.619,0.0350510516250622,0.5127898342774903,3
2025-03-06 15:18:49.627,0.0342026243429298,-1.2154732300355255,3
2025-03-06 15:18:49.635,0.032942355570363,-2.9828420626139915,3
2025-03-06 15:18:49.642,0.0312510093772477,-4.76888968336581,3
2025-03-06 15:18:49.650,0.0291174609670572,-6.551538662911362,3
2025-03-06 15:18:49.658,0.0265393364767524,-8.307644696594709,3
2025-03-06 15:18:49.666,0.0235235107726316,-10.013677134418351,3
2025-03-06 15:18:49.674,0.020086430938206,-11.646474953048983,3
2025-03-06 15:18:49.682,0.0162542355722615,-13.18405064891647,3
2025-03-06 15:18:49.689,0.012062644885991,-14.60640961417315,3
2025-03-06 15:18:49.697,0.0075566040007293,-15.896349079973287,3
2025-03-06 15:18:49.705,0.002789671714315,-17.040198951161663,3
2025-03-06 15:18:49.713,-0.0021768412615404,-18.02846700430311,3
2025-03-06 15:18:49.721,-0.0072749684624946,-18.856353076413285,3
2025-03-06 15:18:49.728,-0.012431391798411,-19.52410103729837,3
2025-03-06 15:18:49.736,-0.0175689206023999,-20.037163412800226,3
2025-03-06 15:18:49.744,-0.0226081098562386,-20.40616129616268,3
2025-03-06 15:18:49.752,-0.0274689814497722,-20.646631318836643,3
2025-03-06 15:18:49.760,-0.0320728119936379,-20.778561503674155,3
2025-03-06 15:18:49.767,-0.0363439489516781,-20.825728248975715,3
2025-03-06 15:18:49.775,-0.04021161367186,-20.81485688572121,3
2025-03-06 15:18:49.783,-0.0436116463910234,-20.7746375932698,3
2025-03-06 15:18:49.791,-0.0464881457215809,-20.73463637258621,3
2025-03-06 15:18:49.799,-0.0487949539970504,-20.72414677304068,3
2025-03-06 15:18:49.807,-0.0504969398515118,-20.771031784133733,3
2025-03-06 15:18:49.814,-0.0515710300904554,-20.900606508285136,3
2025-03-06 15:18:49.822,-0.052006944472825,-21.134610838599016,3
2025-03-06 15:18:49.830,-0.0518075905842955,-21.490317438944945,3
2025-03-06 15:18:49.838,-0.0509890829611421,-21.97981407744384,3
2025-03-06 15:18:49.846,-0.049580361676501,-22.609491157858223,3
2025-03-06 15:18:49.853,-0.0476224002145977,-23.37975561273723,3
2025-03-06 15:18:49.861,-0.0451670095342798,-24.284981750175618,3
2025-03-06 15:18:49.869,-0.042275263790641,-25.313698812625507,3
2025-03-06 15:18:49.877,-0.0390155926127242,-26.449004524266325,3
2025-03-06 15:18:49.885,-0.0354616046226759,-27.66918430877385,3
2025-03-06 15:18:49.892,-0.0316897261161287,-28.948507574269616,3
2025-03-06 15:18:49.900,-0.0277767554324417,-30.2581657890714,3
2025-03-06 15:18:49.908,-0.0237974441305178,-31.56731220707325,3
2025-03-06 15:18:49.916,-0.0198222172786149,-32.844160154226806,3
2025-03-06 15:18:49.924,-0.0159151357512983,-34.057095788176824,3
2025-03-06 15:18:49.932,-0.0121321852155289,-35.175762142188475,3
2025-03-06 15:18:49.939,-0.0085199531122162,-36.17207393228966,3
2025-03-06 15:18:49.947,-0.0051147299438875,-37.02112684237565,3
2025-03-06 15:18:49.955,-0.0019420470219916,-37.70197055077856,3
2025-03-06 15:18:49.963,0.0009833590265093,-38.198221327665806,3
2025-03-06 15:18:49.971,0.0036571833562433,-38.498497287338665,3
2025-03-06 15:18:49.978,0.0060848349104534,-38.59666697250349,3
2025-03-06 15:18:49.986,0.0082804176404734,-38.49190952535523,3
2025-03-06 15:18:49.994,0.0102654722904417,-38.18859193334291,3
2025-03-06 15:18:50.002,0.0120675433614777,-37.69597544584362,3
2025-03-06 15:18:50.010,0.0137186356730013,-37.027769024591215,3
2025-03-06 15:18:50.017,0.0152536218753758,-36.20155245778113,3
2025-03-06 15:18:50.025,0.0167086571867971,-35.23809542254655,3
2025-03-06 15:18:50.033,0.0181196514344295,-34.16060124378816,3
2025-03-06 15:18:50.041,0.0195208418866868,-32.993905323836046,3
2025-03-06 15:18:50.049,0.0209435038030578,-31.763658205761104,3
2025-03-06 15:18:50.057,0.0224148293077668,-30.49552203730197,3
2025-03-06 15:18:50.064,0.0239569991655129,-29.21440693768785,3
2025-03-06 15:18:50.072,0.0255864662552551,-27.94377061050563,3
2025-03-06 15:18:50.080,0.0273134638747798,-26.70500071273977,3
2025-03-06 15:18:50.088,0.0291417462463615,-25.51689522612284,3
2025-03-06 15:18:50.096,0.031068562471057,-24.395251617936665,3
2025-03-06 15:18:50.103,0.0330848584965891,-23.35257112977164,3
2025-03-06 15:18:50.111,0.0351756943912302,-22.39788026043389,3
2025-03-06 15:18:50.119,0.0373208566088779,-21.536667544581498,3
2025-03-06 15:18:50.127,0.0394956375936461,-20.770930176438902,3
2025-03-06 15:18:50.135,0.0416717488500953,-20.09932196772013,3
2025-03-06 15:18:50.142,0.0438183293208642,-19.517391611863857,3
2025-03-06 15:18:50.150,0.0459030091082945,-19.01789827280018,3
2025-03-06 15:18:50.158,0.0478929893288855,-18.591190115698165,3
2025-03-06 15:18:50.166,0.0497561017679205,-18.22563051648548,3
2025-03-06 15:18:50.174,0.0514618162375292,-17.90805628335272,3
2025-03-06 15:18:50.182,0.0529821683414668,-17.62425225820201,3
2025-03-06 15:18:50.189,0.0542925851289355,-17.359427113025628,3
2025-03-06 15:18:50.197,0.055372590555288,-17.098676000653246,3
2025-03-06 15:18:50.205,0.0562063766365196,-16.827416947844707,3
2025-03-06 15:18:50.213,0.0567832296664776,-16.531789467060364,3
2025-03-06 15:18:50.221,0.0570978038779354,-16.199005766443175,3
2025-03-06 15:18:50.228,0.0571502375233046,-15.817647086445042,3
2025-03-06 15:18:50.236,0.0569461086463593,-15.37789999777678,3
2025-03-06 15:18:50.244,0.0564962300199156,-14.871729864973853,3
2025-03-06 15:18:50.252,0.0558162850995235,-14.292991030083034,3
2025-03-06 15:18:50.260,0.0549263096222595,-13.637475538839876,3
2025-03-06 15:18:50.267,0.0538500267934355,-12.902904365689,3
2025-03-06 15:18:50.275,0.0526140478738347,-12.088867034980566,3
2025-03-06 15:18:50.283,0.0512469543517658,-11.196717205370442,3
2025-03-06 15:18:50.291,0.0497782827105579,-10.229433091034434,3
2025-03-06 15:18:50.299,0.0482374381544658,-9.19145244722157,3
2025-03-06 15:18:50.307,0.0466525696835636,-8.088492176786168,3
2025-03-06 15:18:50.314,0.0450494454632325,-6.927362375440756,3
2025-03-06 15:18:50.322,0.0434503736014473,-5.715783821861631,3
2025-03-06 15:18:50.330,0.0418732176383249,-4.4622165757505705,3
2025-03-06 15:18:50.338,0.0403305568812042,-3.1757055601568114,3
2025-03-06 15:18:50.346,0.0388290388414969,-1.8657468957988104,3
2025-03-06 15:18:50.353,0.0373689650433662,-0.5421764609951515,3
2025-03-06 15:18:50.361,0.0359441431070333,0.784920193299683,3
2025-03-06 15:18:50.369,0.0345420275190256,2.1052797044163287,3
2025-03-06 15:18:50.377,0.0331441587659814,3.408519705710398,3
2025-03-06 15:18:50.385,0.0317268956469347,4.684191428469349,3
2025-03-06 15:18:50.392,0.0302624194734671,5.92183411875828,3
2025-03-06 15:18:50.400,0.0287199730099812,7.111039841010478,3
2025-03-06 15:18:50.408,0.0270672828824397,8.24153708970059,3
2025-03-06 15:18:50.416,0.0252721028429432,9.3033007509907,3
2025-03-06 15:18:50.424,0.0233038072940811,10.28669437132804,3
2025-03-06 15:18:50.432,0.0211349600944597,11.182648466672012,3
2025-03-06 15:18:50.439,0.0187427829789728,11.982875847985747,3
2025-03-06 15:18:50.447,0.0161104510268071,12.680121783933464,3
2025-03-06 15:18:50.455,0.013228149643785,13.268443443594904,3
2025-03-06 15:18:50.463,0.0100938386175545,13.74350966358806,3
2025-03-06 15:18:50.471,0.0067136838280295,14.102908881785565,3
2025-03-06 15:18:50.478,0.0031021355046351,14.346450281688266,3
2025-03-06 15:18:50.486,-0.0007183477519433,14.47644098138698,3
2025-03-06 15:18:50.494,-0.0047179093848806,14.497920637880116,3
2025-03-06 15:18:50.502,-0.0088602011115899,14.418834265926384,3
2025-03-06 15:18:50.510,-0.0131035312309343,14.250124530224276,3
2025-03-06 15:18:50.517,-0.0174021913630695,14.005726390011034,3
2025-03-06 15:18:50.525,-0.0217078940181281,13.702449850834933,3
2025-03-06 15:18:50.533,-0.0259712551205183,13.359740731151684,3
2025-03-06 15:18:50.541,-0.0301432616923648,12.999314694805951,3
2025-03-06 15:18:50.549,-0.0341766731597235,12.644666120318323,3
2025-03-06 15:18:50.557,-0.0380273129634632,12.320460335102824,3
2025-03-06 15:18:50.564,-0.0416552139271141,12.051824894798834,3
2025-03-06 15:18:50.572,-0.0450255861019878,11.863562429813566,3
2025-03-06 15:18:50.580,-0.0481095807339486,11.779313599453394,3
2025-03-06 15:18:50.588,-0.0508848300358356,11.820703418922855,3
2025-03-06 15:18:50.596,-0.0533357502420004,12.006507269449614,3
2025-03-06 15:18:50.603,-0.0554536044558496,12.35187399082632,3
2025-03-06 15:18:50.611,-0.0572363311251669,12.867642442262325,3
2025-03-06 15:18:50.619,-0.0586881530572542,13.559784795563614,3
2025-03-06 15:18:50.627,-0.0598189907015039,14.429004731903513,3
2025-03-06 15:18:50.635,-0.0606437118814531,15.470511929039164,3
2025-03-06 15:18:50.642,-0.0611812575489867,16.673986160089893,3
2025-03-06 15:18:50.650,-0.0614536883118426,18.02373549133233,3
2025-03-06 15:18:50.658,-0.0614851985123934,19.49904403452812,3
2025-03-06 15:18:50.666,-0.0613011433209147,21.07469604951874,3
2025-03-06 15:18:50.674,-0.0609271202126983,22.72165542417835,3
2025-03-06 15:18:50.682,-0.0603881402031185,24.40787310651525,3
2025-03-06 15:18:50.689,-0.0597079170909928,26.099190231218223,3
2025-03-06 15:18:50.697,-0.0589082952406502,27.760301640899986,3
2025-03-06 15:18:50.705,-0.0580088284433551,29.35574329084759,3
2025-03-06 15:18:50.713,-0.0570265143440673,30.85086756454264,3
2025-03-06 15:18:50.721,-0.0559756810272523,32.212772631427995,3
2025-03-06 15:18:50.728,-0.0548680149911071,33.41115539043894,3
2025-03-06 15:18:50.736,-0.0537127133661604,34.419061968946856,3
2025-03-06 15:18:50.744,-0.0525167382814838,35.21351489076102,3
2025-03-06 15:18:50.752,-0.0512851480697791,35.77600160988098,3
2025-03-06 15:18:50.760,-0.0500214787225587,36.09281487636835,3
2025-03-06 15:18:50.767,-0.0487281497202286,36.15524113430087,3
2025-03-06 15:18:50.775,-0.0474068710435556,35.959598655015114,3
2025-03-06 15:18:50.783,-0.046059032750921,35.50713221155851,3
2025-03-06 15:18:50.791,-0.0446860647600743,34.80377565377941,3
2025-03-06 15:18:50.799,-0.0432897617501565,33.85979762324288,3
2025-03-06 15:18:50.807,-0.0418725751318008,32.68934875906141,3
2025-03-06 15:18:50.814,-0.04043787933596,31.30993103056773,3
2025-03-06 15:18:50.822,-0.0389902223852478,29.74181126344743,3
2025-03-06 15:18:50.830,-0.0375355709216573,28.007401498958487,3
2025-03-06 15:18:50.838,-0.0360815580030438,26.130628556947595,3
2025-03-06 15:18:50.846,-0.034637738228886,24.13631410462557,3
2025-03-06 15:18:50.853,-0.0332158492143361,22.049584744229083,3
2025-03-06 15:18:50.861,-0.0318300715258644,19.89532924375619,3
2025-03-06 15:18:50.869,-0.0304972716813827,17.697717195948005,3
2025-03-06 15:18:50.877,-0.0292372055880295,15.479790262985034,3
2025-03-06 15:18:50.885,-0.0280726537035681,13.263133897856624,3
2025-03-06 15:18:50.892,-0.027029454992307,11.067634145096063,3
2025-03-06 15:18:50.900,-0.0261364049558794,8.911320888847934,3
2025-03-06 15:18:50.908,-0.0254249840599392,6.810295779020262,3
2025-03-06 15:18:50.916,-0.0249288870100929,4.778740062535951,3
2025-03-06 15:18:50.924,-0.0246833305994302,2.8289947262797592,3
2025-03-06 15:18:50.932,-0.0247241280179393,0.971702794320808,3
2025-03-06 15:18:50.939,-0.0250865300259242,-0.7839985946640979,3
2025-03-06 15:18:50.947,-0.0258038474228081,-2.4302504780222964,3
2025-03-06 15:18:50.955,-0.0269058838967552,-3.9602241223826296,3
2025-03-06 15:18:50.963,-0.0284172229299255,-5.367868887124832,3
2025-03-06 15:18:50.971,-0.0303554265216668,-6.647671966297471,3
2025-03-06 15:18:50.978,-0.0327292166382513,-7.794445454235966,3
2025-03-06 15:18:50.986,-0.0355367217618313,-8.803154924295757,3
2025-03-06 15:18:50.994,-0.0387638796002918,-9.668801844208476,3
2025-03-06 15:18:51.002,-0.0423830917968374,-10.386369705700613,3
2025-03-06 15:18:51.010,-0.0463522265990198,-10.95084076506732,3
2025-03-06 15:18:51.017,-0.0506140606292077,-11.35728684983326,3
2025-03-06 15:18:51.025,-0.0550962408867372,-11.601033898703502,3
2025-03-06 15:18:51.033,-0.0597118323083696,-11.677895919468376,3
2025-03-06 15:18:51.041,-0.0643604940191635,-11.584470050238464,3
2025-03-06 15:18:51.049,-0.0689302990835053,-11.318480586268096,3
2025-03-06 15:18:51.057,-0.0733001796755312,-10.8791563885476,3
2025-03-06 15:18:51.064,-0.0773429445524284,-10.26762322134222,3
2025-03-06 15:18:51.072,-0.0809287812487833,-9.487290457964136,3
2025-03-06 15:18:51.080,-0.0839291243622579,-8.54421039736369,3
2025-03-06 15:18:51.088,-0.0862207463592726,-7.447388250181794,3
2025-03-06 15:18:51.096,-0.0876899103634031,-6.209021726668578,3
2025-03-06 15:18:51.103,-0.0882364160784696,-4.844651078537826,3
2025-03-06 15:18:51.111,-0.0877773700223616,-3.373203351034694,3
2025-03-06 15:18:51.119,-0.0862505186957091,-1.8169183892718723,3
2025-03-06 15:18:51.127,-0.0836169971607228,-0.2011486808357489,3
2025-03-06 15:18:51.135,-0.0798633650570086,1.4459697589881346,3
2025-03-06 15:18:51.142,-0.0750028270702456,3.093972737886511,3
2025-03-06 15:18:51.150,-0.0690755652422428,4.7106410745323375,3
2025-03-06 15:18:51.158,-0.0621481459436612,6.262677646509238,3
2025-03-06 15:18:51.166,-0.0543120037441516,7.716469122963833,3
2025-03-06 15:18:51.174,-0.0456810458510423,9.03890867733704,3
2025-03-06 15:18:51.182,-0.0363884617242186,10.198252377003394,3
2025-03-06 15:18:51.189,-0.0265828601801924,11.16497948656398,3
2025-03-06 15:18:51.197,-0.0164238879115618,11.91262573235758,3
2025-03-06 15:18:51.205,-0.0060775060346634,12.418558712184277,3
2025-03-06 15:18:51.213,0.0042888869255003,12.6646660822282,3
2025-03-06 15:18:51.221,0.0145112963393166,12.63792984038034,3
2025-03-06 15:18:51.228,0.024433756063856,12.330863828154127,3
2025-03-06 15:18:51.236,0.0339125704460974,11.741796324660095,3
2025-03-06 15:18:51.244,0.0428200282541975,10.874985104721429,3
2025-03-06 15:18:51.252,0.051047467897183,9.740558357064703,3
2025-03-06 15:18:51.260,0.0585076020541016,8.354281174778533,3
2025-03-06 15:18:51.267,0.0651360418237254,6.7371537045418926,3
2025-03-06 15:18:51.275,0.0708919945190829,4.914853247480635,3
2025-03-06 15:18:51.283,0.0757581433228181,2.917038433401124,3
2025-03-06 15:18:51.291,0.0797397488684853,0.77653884816571,3
2025-03-06 15:18:51.299,0.0828630404873407,-1.4715420088323066,3
2025-03-06 15:18:51.307,0.0851729872817873,-3.790779026845016,3
2025-03-06 15:18:51.314,0.0867305560765513,-6.1443992848054325,3
2025-03-06 15:18:51.322,0.0876095748801931,-8.496242634025766,3
2025-03-06 15:18:51.330,0.0878933271850383,-10.811674943173925,3
2025-03-06 15:18:51.338,0.0876710047274532,-13.058422100368432,3
2025-03-06 15:18:51.346,0.0870341448313849,-15.20729663109702,3
2025-03-06 15:18:51.353,0.0860731738806471,-17.232793902516907,3
2025-03-06 15:18:51.361,0.0848741713304635,-19.113541027366377,3
2025-03-06 15:18:51.369,0.0835159590413988,-20.832588359970583,3
2025-03-06 15:18:51.377,0.0820676083767071,-22.377540469380587,3
2025-03-06 15:18:51.385,0.0805864423525599,-23.74053027513717,3
2025-03-06 15:18:51.392,0.0791165923873325,-24.918046287696157,3
2025-03-06 15:18:51.400,0.0776881492834275,-25.91062832723908,3
2025-03-06 15:18:51.408,0.0763169265430135,-26.72245149092071,3
2025-03-06 15:18:51.416,0.075004831769391,-27.3608213534237,3
2025-03-06 15:18:51.424,0.0737408198985781,-27.83560533752218,3
2025-03-06 15:18:51.432,0.0725023816114179,-28.1586258693076,3
2025-03-06 15:18:51.439,0.0712575023240543,-28.343040399641108,3
2025-03-06 15:18:51.447,0.0699670117096691,-28.40273176250588,3
2025-03-06 15:18:51.455,0.0685872303461262,-28.351729846190047,3
2025-03-06 15:18:51.463,0.0670728084982443,-28.20368241167013,3
2025-03-06 15:18:51.471,0.0653796424256415,-27.971389359083425,3
2025-03-06 15:18:51.478,0.063467746712301,-27.666411064251307,3
2025-03-06 15:18:51.486,0.0613039580207695,-27.29875780026587,3
2025-03-06 15:18:51.494,0.0588643473746583,-26.87666389818303,3
2025-03-06 15:18:51.502,0.056136225154227,-26.40644730585732,3
2025-03-06 15:18:51.510,0.053119635668951,-25.892452633864423,3
2025-03-06 15:18:51.517,0.0498282565437061,-25.33707363148775,3
2025-03-06 15:18:51.525,0.0462896421991487,-24.74084926964804,3
2025-03-06 15:18:51.533,0.0425447799148193,-24.1026261631808,3
2025-03-06 15:18:51.541,0.0386469600579513,-23.419778896531867,3
2025-03-06 15:18:51.549,0.0346599972623413,-22.688478899902584,3
2025-03-06 15:18:51.557,0.0306558749415519,-21.904001842109373,3
2025-03-06 15:18:51.564,0.0267119199947564,-21.06106304243164,3
2025-03-06 15:18:51.572,0.022907645966983,-20.1541701286429,3
2025-03-06 15:18:51.580,0.0193214282138394,-19.1779820546584,3
2025-03-06 15:18:51.588,0.0160271898209863,-18.12766362597985,3
2025-03-06 15:18:51.596,0.0130912786761362,-16.999224876802742,3
2025-03-06 15:18:51.603,0.010569703183484,-15.78983503426958,3
2025-03-06 15:18:51.611,0.0085058688666596,-14.49810143431889,3
2025-03-06 15:18:51.619,0.0069289246211412,-13.12430464924819,3
2025-03-06 15:18:51.627,0.0058527894102422,-11.670582257648082,3
2025-03-06 15:18:51.635,0.0052758900972324,-10.141055121326437,3
2025-03-06 15:18:51.643,0.005181600309112,-8.541891706328101,3
2025-03-06 15:18:51.650,0.0055393303324147,-6.88130786361201,3
2025-03-06 15:18:51.658,0.0063061814468171,-5.169501531023314,3
2025-03-06 15:18:51.666,0.0074290479051589,-3.418523981804512,3
2025-03-06 15:18:51.674,0.0088470291069559,-1.6420914520019878,3
2025-03-06 15:18:51.682,0.0104940056605355,0.1446568766035313,3
2025-03-06 15:18:51.689,0.0123012364562668,1.9254466136708248,3
2025-03-06 15:18:51.697,0.014199847817817,3.683192084649276,3
2025-03-06 15:18:51.705,0.0161231069681959,5.400345766840571,3
2025-03-06 15:18:51.713,0.0180083970250959,7.059261972272451,3
2025-03-06 15:18:51.721,0.0197988369247824,8.642563506906042,3
2025-03-06 15:18:51.728,0.0214445153510696,10.133500585102125,3
2025-03-06 15:18:51.736,0.0229033317567467,11.516292306038736,3
2025-03-06 15:18:51.744,0.0241414589951162,12.776442401010993,3
2025-03-06 15:18:51.752,0.0251334600822368,13.901022624649782,3
2025-03-06 15:18:51.760,0.0258621053924397,14.878918977652608,3
2025-03-06 15:18:51.768,0.0263179455242016,15.701037803790406,3
2025-03-06 15:18:51.775,0.0264986988461175,16.360470586618895,3
2025-03-06 15:18:51.783,0.0264085114685735,16.852617863493066,3
2025-03-06 15:18:51.791,0.0260571417615669,17.17527396182421,3
2025-03-06 15:18:51.799,0.0254591128216795,17.328675151416004,3
2025-03-06 15:18:51.807,0.0246328661695709,17.315514241948048,3
2025-03-06 15:18:51.814,0.0235999401059637,17.14092463069577,3
2025-03-06 15:18:51.822,0.0223841877651844,16.812436368527653,3
2025-03-06 15:18:51.830,0.021011043495663,16.339906052711516,3
2025-03-06 15:18:51.838,0.0195068417059291,15.735421394061415,3
2025-03-06 15:18:51.846,0.0178981894274559,15.013180278564755,3
2025-03-06 15:18:51.853,0.0162113923080237,14.18934318507068,3
2025-03-06 15:18:51.861,0.0144719334302284,13.281857054513264,3
2025-03-06 15:18:51.869,0.0127040050909266,12.31024823234558,3
2025-03-06 15:18:51.877,0.0109300951768759,11.295381990448194,3
2025-03-06 15:18:51.885,0.009170631586016,10.259186411627224,3
2025-03-06 15:18:51.893,0.0074436897681408,9.224339106259087,3
2025-03-06 15:18:51.900,0.0057647694953335,8.213916342058303,3
2025-03-06 15:18:51.908,0.0041466472684684,7.2510057132721295,3
2025-03-06 15:18:51.916,0.002599310281973,6.358285434695425,3
2025-03-06 15:18:51.924,0.00112997638168,5.557575647680478,3
2025-03-06 15:18:51.932,-0.0002567984260462,4.8693696415308025,3
2025-03-06 15:18:51.939,-0.0015589277114454,4.3123554473842844,3
2025-03-06 15:18:51.947,-0.0027765256817247,3.9029406447127055,3
2025-03-06 15:18:51.955,-0.0039115748581984,3.6547952175361216,3
2025-03-06 15:18:51.963,-0.0049675479296435,3.57842871217532,3
2025-03-06 15:18:51.971,-0.0059490041756517,3.680818623332297,3
2025-03-06 15:18:51.978,-0.0068611821097488,3.965106759616911,3
2025-03-06 15:18:51.986,-0.007709609662796,4.430379249594934,3
2025-03-06 15:18:51.994,-0.0084997513642313,5.071543830636539,3
2025-03-06 15:18:52.002,-0.0092367087070235,5.879315159792759,3
2025-03-06 15:18:52.010,-0.0099249854509491,6.840315213305204,3
2025-03-06 15:18:52.018,-0.0105683244807036,7.937291583875492,3
2025-03-06 15:18:52.025,-0.0111696176328691,9.149451879754904,3
2025-03-06 15:18:52.033,-0.011730885234051,10.452907740500205,3
2025-03-06 15:18:52.041,-0.0122533182207357,11.821217475878278,3
2025-03-06 15:18:52.049,-0.0127373725965188,13.226012250920723,3
2025-03-06 15:18:52.057,-0.0131829035824877,14.637687279989333,3
2025-03-06 15:18:52.064,-0.013589325332686,16.026136787808824,3
2025-03-06 15:18:52.072,-0.0139557818313532,17.361509608266143,3
2025-03-06 15:18:52.080,-0.0142813156420077,18.614961237268304,3
2025-03-06 15:18:52.088,-0.0145650232502106,19.75937793620936,3
2025-03-06 15:18:52.096,-0.0148061883601061,20.770049114077334,3
2025-03-06 15:18:52.103,-0.015004387264609,21.62526573300076,3
2025-03-06 15:18:52.111,-0.0151595630634773,22.30682491202543,3
2025-03-06 15:18:52.119,-0.0152720679262896,22.80042423139102,3
2025-03-06 15:18:52.127,-0.0153426747213157,23.09593337489295,3
2025-03-06 15:18:52.135,-0.0153725611069144,23.187535517253504,3
2025-03-06 15:18:52.143,-0.0153632705633579,23.073736018695985,3
2025-03-06 15:18:52.150,-0.0153166558039689,22.757241233485946,3
2025-03-06 15:18:52.158,-0.0152348105604284,22.244715263714447,3
2025-03-06 15:18:52.166,-0.0151199959251087,21.54642700866461,3
2025-03-06 15:18:52.174,-0.0149745672775226,20.67580364059213,3
2025-03-06 15:18:52.182,-0.0148009073438937,19.648909514653248,3
2025-03-06 15:18:52.189,-0.0146013701903002,18.483871402068235,3
2025-03-06 15:18:52.197,-0.0143782400127936,17.20027180047094,3
2025-03-06 15:18:52.205,-0.0141337075406282,15.818531967743628,3
2025-03-06 15:18:52.213,-0.0138698657523951,14.359305344606891,3
2025-03-06 15:18:52.221,-0.0135887254223952,12.842900318258735,3
2025-03-06 15:18:52.228,-0.0132922497687994,11.28874900315028,3
2025-03-06 15:18:52.236,-0.0129824062066858,9.714936053814537,3
2025-03-06 15:18:52.244,-0.0126612319988685,8.137798647598245,3
2025-03-06 15:18:52.252,-0.0123309095464785,6.5716058286699175,3
2025-03-06 15:18:52.260,-0.0119938462644036,5.028322508127231,3
2025-03-06 15:18:52.268,-0.0116527534986468,3.5174606611931565,3
2025-03-06 15:18:52.275,-0.0113107187599654,2.04601771922749,3
2025-03-06 15:18:52.283,-0.0109712656338235,0.6184998663360336,3
2025-03-06 15:18:52.291,-0.0106383960474211,-0.7629740594166268,3
2025-03-06 15:18:52.299,-0.0103166101114997,-2.0984940910866285,3
2025-03-06 15:18:52.307,-0.0100108995003792,-3.3901135870081647,3
2025-03-06 15:18:52.314,-0.0097267112952255,-4.641545361790929,3
2025-03-06 15:18:52.322,-0.0094698804033382,-5.857809290770952,3
2025-03-06 15:18:52.330,-0.0092465300587376,-7.0448420567540095,3
2025-03-06 15:18:52.338,-0.0090629414348467,-8.209080411961967,3
2025-03-06 15:18:52.346,-0.008925394958044,-9.357029868583709,3
2025-03-06 15:18:52.353,-0.0088399873860545,-10.49483111358933,3
2025-03-06 15:18:52.361,-0.0088124299778993,-11.627836670981337,3
2025-03-06 15:18:52.369,-0.0088478340365062,-12.76021040182088,3
2025-03-06 15:18:52.377,-0.0089504907732982,-13.894562318293747,3
2025-03-06 15:18:52.385,-0.0091236529863435,-15.031630856308304,3
2025-03-06 15:18:52.393,-0.0093693266671923,-16.17002415545565,3
2025-03-06 15:18:52.400,-0.009688081465923,-17.30603098672174,3
2025-03-06 15:18:52.408,-0.0100788898611465,-18.4335107000446,3
2025-03-06 15:18:52.416,-0.0105390056232769,-19.543869894726107,3
2025-03-06 15:18:52.424,-0.0110638923492341,-20.626131418787395,3
2025-03-06 15:18:52.432,-0.0116472121311987,-21.667098773906645,3
2025-03-06 15:18:52.439,-0.0122808825777308,-22.65161606227324,3
2025-03-06 15:18:52.447,-0.0129552073877148,-23.56292031033143,3
2025-03-06 15:18:52.455,-0.0136590815788652,-24.383079425215502,3
2025-03-06 15:18:52.463,-0.0143802674657784,-25.093505306406545,3
2025-03-06 15:18:52.471,-0.0151057318714578,-25.67552791487714,3
2025-03-06 15:18:52.478,-0.0158220294577964,-26.111012603026168,3
2025-03-06 15:18:52.486,-0.0165157125000085,-26.382999972016066,3
2025-03-06 15:18:52.494,-0.0171737450101992,-26.476345202132208,3
2025-03-06 15:18:52.502,-0.0177838993577901,-26.3783324289447,3
2025-03-06 15:18:52.510,-0.0183351160520457,-26.079239487451996,3
2025-03-06 15:18:52.518,-0.0188178112031608,-25.572829306296004,3
2025-03-06 15:18:52.525,-0.0192241204663455,-24.856746397563438,3
2025-03-06 15:18:52.533,-0.0195480724482935,-23.932800158869224,3
2025-03-06 15:18:52.541,-0.0197856883909289,-22.80712091450885,3
2025-03-06 15:18:52.549,-0.0199350084189063,-21.49017954935974,3
2025-03-06 15:18:52.557,-0.0199960478057341,-19.9966669787877,3
2025-03-06 15:18:52.564,-0.0199706896047261,-18.345235284265375,3
2025-03-06 15:18:52.572,-0.0198625225188779,-16.558107867636775,3
2025-03-06 15:18:52.580,-0.0196766348754018,-14.660571194107222,3
2025-03-06 15:18:52.588,-0.0194193768598983,-12.680365383307867,3
2025-03-06 15:18:52.596,-0.0190981036712363,-10.64699486923183,3
2025-03-06 15:18:52.603,-0.0187209120095045,-8.590983410744439,3
2025-03-06 15:18:52.611,-0.0182963814114478,-6.543099759566152,3
2025-03-06 15:18:52.619,-0.0178333305310198,-4.533581193596088,3
2025-03-06 15:18:52.627,-0.0173405966540486,-2.5913818636085737,3
2025-03-06 15:18:52.635,-0.0168268446574271,-0.7434715001471071,3
2025-03-06 15:18:52.643,-0.0163004093937758,0.9857924375967776,3
2025-03-06 15:18:52.650,-0.0157691732163155,2.575199487917757,3
2025-03-06 15:18:52.658,-0.0152404781616229,4.007112267829958,3
2025-03-06 15:18:52.666,-0.0147210702765349,5.267773118819556,3
2025-03-06 15:18:52.674,-0.0142170718026802,6.347485596878356,3
2025-03-06 15:18:52.682,-0.0137339755165668,7.240670244655132,3
2025-03-06 15:18:52.689,-0.013276654558547,7.945799058369432,3
2025-03-06 15:18:52.697,-0.012849380622544,8.465217590720947,3
2025-03-06 15:18:52.705,-0.0124558434136507,8.804867488915594,3
2025-03-06 15:18:52.713,-0.0120991647760898,8.973925287231134,3
2025-03-06 15:18:52.721,-0.0117819018077097,8.984375349940697,3
2025-03-06 15:18:52.728,-0.0115060345493758,8.850535942923846,3
2025-03-06 15:18:52.736,-0.0112729353830466,8.588557506341779,3
2025-03-06 15:18:52.744,-0.0110833190063226,8.215911371511384,3
2025-03-06 15:18:52.752,-0.0109371737153741,7.750885540125461,3
2025-03-06 15:18:52.760,-0.0108336766790679,7.212101905138605,3
2025-03-06 15:18:52.768,-0.0107710978554664,6.618066657130223,3
2025-03-06 15:18:52.775,-0.0107466990701703,5.9867628161860535,3
2025-03-06 15:18:52.783,-0.0107566364070508,5.335291069895552,3
2025-03-06 15:18:52.791,-0.0107958753496024,4.679562550559281,3
2025-03-06 15:18:52.799,-0.0108581290086149,4.03404495251281,3
2025-03-06 15:18:52.807,-0.0109358302659893,3.411561516671747,3
2025-03-06 15:18:52.814,-0.0110201486873235,2.8231408995219844,3
2025-03-06 15:18:52.822,-0.0111010624278033,2.2779147890723985,3
2025-03-06 15:18:52.830,-0.0111674938849775,1.783059318938996,3
2025-03-06 15:18:52.838,-0.0112075154956408,1.343775849270582,3
2025-03-06 15:18:52.846,-0.0112086289444025,0.9633065097058002,3
2025-03-06 15:18:52.853,-0.0111581172896021,0.6429800091615268,3
2025-03-06 15:18:52.861,-0.0110434652459996,0.3822835806583577,3
2025-03-06 15:18:52.869,-0.0108528382820977,0.1789575135895389,3
2025-03-06 15:18:52.877,-0.0105756065823055,0.029109486642532,3
2025-03-06 15:18:52.885,-0.0102028956159547,-0.0726532145270156,3
2025-03-06 15:18:52.893,-0.0097281413115106,-0.1330746218361218,3
2025-03-06 15:18:52.900,-0.0091476248203332,-0.1600843785256395,3
2025-03-06 15:18:52.908,-0.0084609596817701,-0.1626150232352749,3
2025-03-06 15:18:52.916,-0.0076715030138622,-0.1504015634130117,3
2025-03-06 15:18:52.924,-0.006786662364546,-0.1337626627690808,3
2025-03-06 15:18:52.932,-0.0058180712985817,-0.1233631697702708,3
2025-03-06 15:18:52.939,-0.0047816098322689,-0.1299584803837313,3
2025-03-06 15:18:52.947,-0.0036972505330141,-0.1641223050361806,3
2025-03-06 15:18:52.955,-0.0025887174752138,-0.235960710251143,3
2025-03-06 15:18:52.963,-0.0014829532234791,-0.3548167212427953,3
2025-03-06 15:18:52.971,-0.0004093984304944,-0.5289711870970898,3
2025-03-06 15:18:52.978,0.0006009008152358,-0.7653469160090883,3
2025-03-06 15:18:52.986,0.0015163315473493,-1.069224192956627,3
2025-03-06 15:18:52.994,0.0023058609397524,-1.4439766282689448,3
2025-03-06 15:18:53.002,0.0029402445918833,-1.890836808734672,3
2025-03-06 15:18:53.010,0.003393242018264,-2.408701407129285,3
2025-03-06 15:18:53.018,0.0036427823489849,-2.993985232519253,3
2025-03-06 15:18:53.025,0.0036720242642007,-3.640533152139416,3
2025-03-06 15:18:53.033,0.0034702583595085,-4.33959786515425,3
2025-03-06 15:18:53.041,0.0030336066384635,-5.079890146218919,3
2025-03-06 15:18:53.049,0.0023654822522452,-5.847706404579189,3
2025-03-06 15:18:53.057,0.001476782951123,-6.627136241761419,3
2025-03-06 15:18:53.064,0.0003858039865107,-7.400350174407304,3
2025-03-06 15:18:53.072,-0.0008821300650247,-8.147964874690095,3
2025-03-06 15:18:53.080,-0.0022953009720917,-8.849480249002827,3
2025-03-06 15:18:53.088,-0.0038164731804213,-9.483779535573689,3
2025-03-06 15:18:53.096,-0.0054039725313085,-10.02968049600342,3
2025-03-06 15:18:53.103,-0.0070129201286204,-10.466522877703046,3
2025-03-06 15:18:53.111,-0.0085965682568701,-10.774774823823218,3
2025-03-06 15:18:53.119,-0.0101076830101015,-10.936638987451689,3
2025-03-06 15:18:53.127,-0.0114999197938805,-10.936637918743235,3
2025-03-06 15:18:53.135,-0.0127291426624471,-10.762157941556332,3
2025-03-06 15:18:53.143,-0.0137546455764438,-10.403931274650349,3
2025-03-06 15:18:53.150,-0.0145402419223276,-9.85643758842486,3
2025-03-06 15:18:53.158,-0.0150551970041568,-9.118208482609594,3
2025-03-06 15:18:53.166,-0.0152749860430034,-8.192021440053031,3
2025-03-06 15:18:53.174,-0.0151818671105881,-7.0849735313993,3
2025-03-06 15:18:53.182,-0.0147652641397281,-5.8084293515581695,3
2025-03-06 15:18:53.189,-0.0140219596257556,-4.377842169439531,3
2025-03-06 15:18:53.197,-0.0129561000232981,-2.81245186111488,3
2025-03-06 15:18:53.205,-0.0115790194898689,-1.1348676686593244,3
2025-03-06 15:18:53.213,-0.0099088899338709,0.6294520050992145,3
2025-03-06 15:18:53.221,-0.0079702076690487,2.452806850616545,3
2025-03-06 15:18:53.228,-0.0057931296317495,4.305929926596666,3
2025-03-06 15:18:53.236,-0.003412675168871,6.158709517501673,3
2025-03-06 15:18:53.244,-0.000867812730654,7.980934519245768,3
2025-03-06 15:18:53.252,0.0017995458495771,9.743039542971452,3
2025-03-06 15:18:53.260,0.0045456176499086,11.41682606064606,3
2025-03-06 15:18:53.268,0.0073258588442566,12.976136934545288,3
2025-03-06 15:18:53.275,0.0100960817464807,14.397463540934982,3
2025-03-06 15:18:53.283,0.0128135461301298,15.660467349710048,3
2025-03-06 15:18:53.291,0.0154379916255184,16.748401151572814,3
2025-03-06 15:18:53.299,0.0179325782886306,17.64841898993099,3
2025-03-06 15:18:53.307,0.0202647038492905,18.35176808295548,3
2025-03-06 15:18:53.314,0.0224066693572161,18.85386041755671,3
2025-03-06 15:18:53.322,0.0243361705924283,19.154226055076894,3
2025-03-06 15:18:53.330,0.0260366006077313,19.25635430362033,3
2025-03-06 15:18:53.338,0.0274971582162788,19.16743259812048,3
2025-03-06 15:18:53.346,0.0287127668462439,18.89799603438593,3
2025-03-06 15:18:53.353,0.0296838168381072,18.461502918527238,3
2025-03-06 15:18:53.361,0.0304157512829926,17.87385335525025,3
2025-03-06 15:18:53.369,0.0309185206610749,17.152868789435345,3
2025-03-06 15:18:53.377,0.0312059349061415,16.31775056044873,3
2025-03-06 15:18:53.385,0.0312949433100638,15.388534992676966,3
2025-03-06 15:18:53.393,0.0312048731184308,14.38556142336948,3
2025-03-06 15:18:53.400,0.0309566569226726,13.328967967889094,3
2025-03-06 15:18:53.408,0.0305720771350074,12.23822785039894,3
2025-03-06 15:18:53.416,0.0300730530575833,11.13173688755474,3
2025-03-06 15:18:53.424,0.0294809924981521,10.026460302539778,3
2025-03-06 15:18:53.432,0.028816225754966,8.93764455941291,3
2025-03-06 15:18:53.439,0.0280975353102553,7.878597425401699,3
2025-03-06 15:18:53.447,0.0273417899485606,6.86053706194772,3
2025-03-06 15:18:53.455,0.0265636874700124,5.892508677022838,3
2025-03-06 15:18:53.463,0.0257756058925283,4.981365202846036,3
2025-03-06 15:18:53.471,0.0249875591591514,4.131806656878147,3
2025-03-06 15:18:53.478,0.0242072499432773,3.346471360129533,3
2025-03-06 15:18:53.486,0.0234402091995207,2.626071077066444,3
2025-03-06 15:18:53.494,0.0226900096775006,1.9695614423411936,3
2025-03-06 15:18:53.502,0.0219585387450731,1.3743387680958838,3
2025-03-06 15:18:53.510,0.0212463145895465,0.836454474735732,3
2025-03-06 15:18:53.518,0.0205528292042412,0.3508389233162014,3
2025-03-06 15:18:53.525,0.0198769015414545,-0.0884727133618767,3
2025-03-06 15:18:53.533,0.0192170248101882,-0.4881188064364062,3
2025-03-06 15:18:53.541,0.018571693056114,-0.8551988813354469,3
2025-03-06 15:18:53.549,0.0179396937842952,-1.1970742318567071,3
2025-03-06 15:18:53.557,0.0173203553760715,-1.521184053966968,3
2025-03-06 15:18:53.564,0.0167137403305793,-1.834878491888143,3
2025-03-06 15:18:53.572,0.0161207778446806,-2.145269009870528,3
2025-03-06 15:18:53.580,0.0155433318348501,-2.459095678578051,3
2025-03-06 15:18:53.588,0.0149842031124643,-2.782610297549148,3
2025-03-06 15:18:53.596,0.0144470669887156,-3.121473773409793,3
2025-03-06 15:18:53.603,0.0139363500585855,-3.480665853589352,3
2025-03-06 15:18:53.611,0.0134570522427841,-3.8644051907728847,3
2025-03-06 15:18:53.619,0.0130145223044395,-4.276077783236828,3
2025-03-06 15:18:53.627,0.0126141969567454,-4.718172079655157,3
2025-03-06 15:18:53.635,0.012261315257159,-5.192219418099818,3
2025-03-06 15:18:53.643,0.011960621107447,-5.69873895038317,3
2025-03-06 15:18:53.650,0.0117160671793485,-6.237186759543644,3
2025-03-06 15:18:53.658,0.0115305333231176,-6.805909502415285,3
2025-03-06 15:18:53.666,0.011405571485121,-7.4021036016038195,3
2025-03-06 15:18:53.674,0.0113411875700214,-8.021781764417014,3
2025-03-06 15:18:53.682,0.0113356688860713,-8.659749392475995,3
2025-03-06 15:18:53.689,0.0113854641068482,-9.309594213691687,3
2025-03-06 15:18:53.697,0.0114851211581043,-9.963693146539637,3
2025-03-06 15:18:53.705,0.0116272869934381,-10.61324090922314,3
2025-03-06 15:18:53.713,0.0118027717178595,-11.248305122926542,3
2025-03-06 15:18:53.721,0.012000677894611,-11.857912548261767,3
2025-03-06 15:18:53.728,0.012208594141857,-12.430170583055844,3
2025-03-06 15:18:53.736,0.0124128503131919,-12.952427222841171,3
2025-03-06 15:18:53.744,0.0125988296567244,-13.411471368575096,3
2025-03-06 15:18:53.752,0.0127513313720737,-13.793773716953522,3
2025-03-06 15:18:53.760,0.0128549750279789,-14.085766564313255,3
2025-03-06 15:18:53.768,0.0128946365369221,-14.27415878031806,3
2025-03-06 15:18:53.775,0.0128559039024061,-14.346280046957046,3
2025-03-06 15:18:53.783,0.0127255396571669,-14.290446296864069,3
2025-03-06 15:18:53.791,0.0124919356176655,-14.096336218043886,3
2025-03-06 15:18:53.799,0.0121455442808609,-13.755366836941583,3
2025-03-06 15:18:53.807,0.0116792701194775,-13.261054688621831,3
2025-03-06 15:18:53.814,0.0110888035298719,-12.609348081008989,3
2025-03-06 15:18:53.822,0.0103728805140921,-11.798915594372817,3
2025-03-06 15:18:53.830,0.0095334524613755,-10.831376325369511,3
2025-03-06 15:18:53.838,0.0085757526717882,-9.711458536249651,3
2025-03-06 15:18:53.846,0.0075082495466624,-8.447075304034446,3
2025-03-06 15:18:53.853,0.0063424806640521,-7.049308435521759,3
2025-03-06 15:18:53.861,0.0050927672449266,-5.532295232729868,3
2025-03-06 15:18:53.869,0.0037758147046323,-3.913016526060673,3
2025-03-06 15:18:53.877,0.0024102118427644,-2.210988558654145,3
2025-03-06 15:18:53.885,0.0010158482863422,-0.4478655828305086,3
2025-03-06 15:18:53.893,-0.000386723750221,1.3530358298543927,3
2025-03-06 15:18:53.900,-0.0017769525882957,3.167276009201609,3
2025-03-06 15:18:53.908,-0.0031349422324866,4.969877040822406,3
2025-03-06 15:18:53.916,-0.0044420676630028,6.735933015533818,3
2025-03-06 15:18:53.924,-0.0056815220762241,8.441224027349074,3
2025-03-06 15:18:53.932,-0.0068387734881137,10.06281188521527,3
2025-03-06 15:18:53.939,-0.0079019147496321,11.579596166938636,3
2025-03-06 15:18:53.947,-0.0088618978808052,12.97281093647415,3
2025-03-06 15:18:53.955,-0.0097126501481576,14.226445081891024,3
2025-03-06 15:18:53.963,-0.0104510751578752,15.327572655311412,3
2025-03-06 15:18:53.971,-0.0110769472244452,16.266583590221906,3
2025-03-06 15:18:53.978,-0.0115927112813881,17.037309479919408,3
2025-03-06 15:18:53.986,-0.012003203567671,17.637043463247945,3
2025-03-06 15:18:53.994,-0.012315310265663,18.066457445799728,3
2025-03-06 15:18:54.002,-0.0125375822544545,18.32942369339461,3
2025-03-06 15:18:54.010,-0.0126798242596544,18.432751118136977,3
2025-03-06 15:18:54.018,-0.0127526760118594,18.38584921915737,3
2025-03-06 15:18:54.025,-0.0127672016786268,18.20033455975197,3
2025-03-06 15:18:54.033,-0.0127345019526385,17.889595824556896,3
2025-03-06 15:18:54.041,-0.0126653609190931,17.468333920170924,3
2025-03-06 15:18:54.049,-0.0125699373321335,16.952093320233924,3
2025-03-06 15:18:54.057,-0.012457507338757,16.356800000674003,3
2025-03-06 15:18:54.064,-0.0123362631352195,15.69831996640842,3
2025-03-06 15:18:54.072,-0.0122131696274326,14.992050643865332,3
2025-03-06 15:18:54.080,-0.0120938789218217,14.25255540658962,3
2025-03-06 15:18:54.088,-0.0119827003834627,13.493249310687087,3
2025-03-06 15:18:54.096,-0.0118826220868402,12.726141836430475,3
2025-03-06 15:18:54.104,-0.0117953778307018,11.961640151957264,3
2025-03-06 15:18:54.111,-0.0117215525785899,11.208414217350066,3
2025-03-06 15:18:54.119,-0.0116607182816915,10.473323005638347,3
2025-03-06 15:18:54.127,-0.0116115915870278,9.761399296216986,3
2025-03-06 15:18:54.135,-0.0115722049550429,9.07588895190636,3
2025-03-06 15:18:54.143,-0.011540083167876,8.418339363070789,3
2025-03-06 15:18:54.150,-0.0115124179953802,7.788730843208208,3
2025-03-06 15:18:54.158,-0.0114862347737177,7.18564417087937,3
2025-03-06 15:18:54.166,-0.0114585457479432,6.606457148687766,3
2025-03-06 15:18:54.174,-0.0114264861759226,6.047562936290868,3
2025-03-06 15:18:54.182,-0.0113874303381226,5.504602958216881,3
2025-03-06 15:18:54.189,-0.0113390857043881,4.972707344572676,3
2025-03-06 15:18:54.197,-0.0112795645321051,4.446736100259632,3
2025-03-06 15:18:54.205,-0.0112074330594259,3.921514495229204,3
2025-03-06 15:18:54.213,-0.011121739179466,3.3920565185738343,3
2025-03-06 15:18:54.221,-0.0110220200477098,2.853770650594947,3
2025-03-06 15:18:54.229,-0.0109082915167078,2.302642696133673,3
2025-03-06 15:18:54.236,-0.0107810216202432,1.735391010868888,3
2025-03-06 15:18:54.244,-0.0106410905373791,1.1495901647151758,3
2025-03-06 15:18:54.252,-0.010489739564346,0.5437599483461442,3
2025-03-06 15:18:54.260,-0.0103285116327657,-0.0825823415925801,3
2025-03-06 15:18:54.268,-0.0101591858420917,-0.7289072060423052,3
2025-03-06 15:18:54.275,-0.0099837083115565,-1.3936953650501829,3
2025-03-06 15:18:54.283,-0.0098041214205132,-2.0744954002329847,3
2025-03-06 15:18:54.291,-0.0096224932583727,-2.768013285233335,3
2025-03-06 15:18:54.299,-0.0094408489068598,-3.470229123997337,3
2025-03-06 15:18:54.307,-0.0092611050482754,-4.176535266940903,3
2025-03-06 15:18:54.314,-0.0090850093261144,-4.8818891229711605,3
2025-03-06 15:18:54.322,-0.0089140858595861,-5.580973500460834,3
2025-03-06 15:18:54.330,-0.0087495882935107,-6.268357219368486,3
2025-03-06 15:18:54.338,-0.008592461698075,-6.938649027655703,3
2025-03-06 15:18:54.346,-0.0084433144899273,-7.586638489998219,3
2025-03-06 15:18:54.354,-0.0083024013430198,-8.207418442623961,3
2025-03-06 15:18:54.361,-0.0081696178242192,-8.796484762026111,3
2025-03-06 15:18:54.369,-0.008044507220609,-9.349810506427568,3
2025-03-06 15:18:54.377,-0.0079262796846499,-9.863892881804157,3
2025-03-06 15:18:54.385,-0.0078138433858989,-10.335772883977317,3
2025-03-06 15:18:54.393,-0.0077058468395282,-10.763028805319218,3
2025-03-06 15:18:54.400,-0.0076007310134399,-11.143746011373343,3
2025-03-06 15:18:54.408,-0.007496789228377,-11.47646644882625,3
2025-03-06 15:18:54.416,-0.0073922323187313,-11.760122217897186,3
2025-03-06 15:18:54.424,-0.0072852561200786,-11.993958214671894,3
2025-03-06 15:18:54.432,-0.0071741082023712,-12.17744930888747,3
2025-03-06 15:18:54.439,-0.007057150922559,-12.310217754650733,3
2025-03-06 15:18:54.447,-0.0069329182683569,-12.39195651893315,3
2025-03-06 15:18:54.455,-0.0068001644708172,-12.422363941899825,3
2025-03-06 15:18:54.463,-0.0066579028620794,-12.401094608879523,3
2025-03-06 15:18:54.471,-0.0065054339151677,-12.32773052314891,3
2025-03-06 15:18:54.479,-0.0063423618514342,-12.201775642932134,3
2025-03-06 15:18:54.486,-0.0061685996636291,-12.022675619579346,3
2025-03-06 15:18:54.494,-0.0059843628755671,-11.789863192793312,3
2025-03-06 15:18:54.502,-0.0057901528093372,-11.502828220274766,3
2025-03-06 15:18:54.510,-0.0055867305109114,-11.161209811609671,3
2025-03-06 15:18:54.518,-0.0053750827714324,-10.76490657618368,3
2025-03-06 15:18:54.525,-0.0051563818897319,-10.31419966134541,3
2025-03-06 15:18:54.533,-0.004931940970673,-9.809882125347718,3
2025-03-06 15:18:54.541,-0.004703166637492,-9.2533873289475,3
2025-03-06 15:18:54.549,-0.0044715110490573,-8.64690850510442,3
2025-03-06 15:18:54.557,-0.0042384250763099,-7.993501541684465,3
2025-03-06 15:18:54.564,-0.0040053144273958,-7.297163344114442,3
2025-03-06 15:18:54.572,-0.003773500409129,-6.562878967026576,3
2025-03-06 15:18:54.580,-0.003544186845798,-5.796632007784585,3
2025-03-06 15:18:54.588,-0.003318434411288,-5.005374480935052,3
2025-03-06 15:18:54.596,-0.00309714323041,-4.196954434212221,3
2025-03-06 15:18:54.604,-0.0028810440697394,-3.380001781755029,3
2025-03-06 15:18:54.611,-0.0026706978405559,-2.5637750582131504,3
2025-03-06 15:18:54.619,-0.002466502587269,-1.7579738796971724,3
2025-03-06 15:18:54.627,-0.0022687067145137,-0.9725236975612194,3
2025-03-06 15:18:54.635,-0.0020774269462901,-0.2173408486331787,3
2025-03-06 15:18:54.643,-0.0018926694087247,0.4979131191044916,3
2025-03-06 15:18:54.650,-0.0017143522598931,1.1640783567669075,3
2025-03-06 15:18:54.658,-0.0015423284251032,1.7727353229317178,3
2025-03-06 15:18:54.666,-0.0013764072149122,2.316425936781293,3
2025-03-06 15:18:54.674,-0.001216373892381,2.788848899301182,3
2025-03-06 15:18:54.682,-0.0010620065887286,3.1850219235779225,3
2025-03-06 15:18:54.689,-0.0009130902935215,3.5014050178725773,3
2025-03-06 15:18:54.697,-0.0007694278989528,3.735980592467031,3
2025-03-06 15:18:54.705,-0.0006308484012078,3.8882879460817614,3
2025-03-06 15:18:54.713,-0.0004972123612556,3.9594115494953135,3
2025-03-06 15:18:54.721,-0.000368414681895,3.951924386307876,3
2025-03-06 15:18:54.729,-0.0002443847682062,3.8697893281141433,3
2025-03-06 15:18:54.736,-0.0001250842593563,3.7182230163069625,3
2025-03-06 15:18:54.744,-1.0502724935008282e-05,3.503527925631912,3
2025-03-06 15:18:54.752,9.934807772407216e-05,3.2328991659973165,3
2025-03-06 15:18:54.760,0.0002044406754872,2.9142131477430957,3
2025-03-06 15:18:54.768,0.0003047383949498,2.55580552305041,3
2025-03-06 15:18:54.775,0.0004002013988817,2.166245857754995,3
2025-03-06 15:18:54.783,0.0004907919851461,1.7541163111925686,3
2025-03-06 15:18:54.791,0.0005764791891951,1.3278012239405357,3
2025-03-06 15:18:54.799,0.0006572429989493,0.8952939422925773,3
2025-03-06 15:18:54.807,0.0007330786835318,0.4640264459213225,3
2025-03-06 15:18:54.814,0.0008040018373269,0.0407263926789906,3
2025-03-06 15:18:54.822,0.0008700547436389,-0.3686949394513361,3
2025-03-06 15:18:54.830,0.0009313145684446,-0.7592216219504155,3
2025-03-06 15:18:54.838,0.0009879037099864,-1.1267781564285568,3
2025-03-06 15:18:54.846,0.0010400023712849,-1.4682412814133965,3
2025-03-06 15:18:54.854,0.0010878631226944,-1.78142047024705,3
2025-03-06 15:18:54.861,0.0011318269161537,-2.0650102833283124,3
2025-03-06 15:18:54.869,0.0011723397247078,-2.318518716762929,3
2025-03-06 15:18:54.877,0.0012099687308813,-2.542176405449676,3
2025-03-06 15:18:54.885,0.0012454168079326,-2.7368319714818075,3
2025-03-06 15:18:54.893,0.0012795339489915,-2.903838958889202,3
2025-03-06 15:18:54.900,0.0013133242815622,-3.044939682292364,3
2025-03-06 15:18:54.908,0.0013479473259199,-3.162150972911358,3
2025-03-06 15:18:54.916,0.0013847122153237,-3.2576562689077857,3
2025-03-06 15:18:54.924,0.0014250637278227,-3.333707806698544,3
2025-03-06 15:18:54.932,0.0014705592115854,-3.392541866896692,3
2025-03-06 15:18:54.939,0.0015228358205677,-3.4363091632137666,3
2025-03-06 15:18:54.947,0.0015835679110932,-3.4670215965112265,3
2025-03-06 15:18:54.955,0.0016544149787949,-3.486515794366767,3
2025-03-06 15:18:54.963,0.001736961115982,-3.4964331696304782,3
2025-03-06 15:18:54.971,0.0018326476010797,-3.4982156750691638,3
2025-03-06 15:18:54.979,0.0019427008634132,-3.493115978678871,3
2025-03-06 15:18:54.986,0.0020680586764606,-3.482220381023021,3
2025-03-06 15:18:54.994,0.0022092979761365,-3.466482387331191,3
2025-03-06 15:18:55.002,0.0023665681068981,-3.446764403589181,3
2025-03-06 15:18:55.010,0.0025395335122439,-3.4238845555686,3
2025-03-06 15:18:55.018,0.0027273298911342,-3.3986651765104567,3
2025-03-06 15:18:55.025,0.0029285376288572,-3.371979140843876,3
2025-03-06 15:18:55.033,0.0031411758493992,-3.344790013206242,3
2025-03-06 15:18:55.041,0.0033627196958936,-3.318181999602473,3
2025-03-06 15:18:55.049,0.0035901424186301,-3.2933759731484105,3
2025-03-06 15:18:55.057,0.0038199825400407,-3.2717284140210605,3
2025-03-06 15:18:55.064,0.0040484347888044,-3.254710937286833,3
2025-03-06 15:18:55.072,0.0042714617264315,-3.2438691427784594,3
2025-03-06 15:18:55.080,0.0044849212185811,-3.240760743983526,3
2025-03-06 15:18:55.088,0.0046847034297276,-3.2468742341824584,3
2025-03-06 15:18:55.096,0.0048668701604395,-3.263530635707754,3
2025-03-06 15:18:55.104,0.0050277892806183,-3.291772068854561,3
2025-03-06 15:18:55.111,0.005164257678617,-3.332241908652439,3
2025-03-06 15:18:55.119,0.0052736072953245,-3.3850621302851454,3
2025-03-06 15:18:55.127,0.0053537901610354,-3.449714051534281,3
2025-03-06 15:18:55.135,0.0054034397043369,-3.5249290447531623,3
2025-03-06 15:18:55.143,0.0054219068718282,-3.60859589875062,3
2025-03-06 15:18:55.150,0.005409270776219,-3.6976913557352833,3
2025-03-06 15:18:55.158,0.0053663246803669,-3.788239927230072,3
2025-03-06 15:18:55.166,0.0052945390957571,-3.8753084028287255,3
2025-03-06 15:18:55.174,0.0051960045710606,-3.953039502324123,3
2025-03-06 15:18:55.182,0.0050733573208254,-4.014727882526725,3
2025-03-06 15:18:55.189,0.0049296911766978,-4.052940204921156,3
2025-03-06 15:18:55.197,0.0047684594616924,-4.059679233316063,3
2025-03-06 15:18:55.205,0.0045933703620069,-4.026590021707582,3
2025-03-06 15:18:55.213,0.0044082792722179,-3.9452042459745855,3
2025-03-06 15:18:55.221,0.0042170814523988,-3.8072167065959848,3
2025-03-06 15:18:55.229,0.0040236081595041,-3.604786066290976,3
2025-03-06 15:18:55.236,0.0038315291932679,-3.3308500810821244,3
2025-03-06 15:18:55.244,0.0036442645218783,-2.979444039514127,3
2025-03-06 15:18:55.252,0.0034649073019793,-2.546009943451246,3
2025-03-06 15:18:55.260,0.0032961601468126,-2.0276832349858425,3
2025-03-06 15:18:55.268,0.0031402859221158,-1.4235436788332745,3
2025-03-06 15:18:55.275,0.0029990737174424,-0.7348174243343951,3
2025-03-06 15:18:55.283,0.0028738200299239,0.0349816410230968,3
2025-03-06 15:18:55.291,0.0027653246577416,0.8799813445426541,3
2025-03-06 15:18:55.299,0.0026739003537792,1.7919591193579658,3
2025-03-06 15:18:55.307,0.0025993949565008,2.760432912083611,3
2025-03-06 15:18:55.314,0.0025412244989815,3.772836190589372,3
2025-03-06 15:18:55.322,0.0024984156618283,4.814774383840188,3
2025-03-06 15:18:55.330,0.0024696558310427,5.870356287149133,3
2025-03-06 15:18:55.338,0.0024533489329646,6.922590337761319,3
2025-03-06 15:18:55.346,0.0024476751736709,7.953832416963849,3
2025-03-06 15:18:55.354,0.002450652839753,8.94626915694424,3
2025-03-06 15:18:55.361,0.0024602004165263,9.88241878755443,3
2025-03-06 15:18:55.369,0.0024741974189583,10.745630475778349,3
2025-03-06 15:18:55.377,0.0024905424863387,11.52056296096467,3
2025-03-06 15:18:55.385,0.0025072074504097,12.193624077452633,3
2025-03-06 15:18:55.393,0.0025222862373558,12.753354423440772,3
2025-03-06 15:18:55.400,0.002534037608364,13.190740871886865,3
2025-03-06 15:18:55.408,0.0025409209004627,13.499448687742683,3
2025-03-06 15:18:55.416,0.0025416241166424,13.675964559886026,3
2025-03-06 15:18:55.424,0.002535083929334,13.719646703169785,3
2025-03-06 15:18:55.432,0.0025204973812891,13.632682146725504,3
2025-03-06 15:18:55.439,0.0024973252697523,13.419955198208664,3
2025-03-06 15:18:55.447,0.002465287385313,13.088834660393978,3
2025-03-06 15:18:55.455,0.0024243499721669,12.648890494703354,3
2025-03-06 15:18:55.463,0.0023747060065749,12.11155312702849,3
2025-03-06 15:18:55.471,0.0023167491561451,11.489730367866011,3
2025-03-06 15:18:55.479,0.0022510425545477,10.79739791114476,3
2025-03-06 15:18:55.486,0.0021782837579077,10.0491795723678,3
2025-03-06 15:18:55.494,0.002099267407798,9.259932862524872,3
2025-03-06 15:18:55.502,0.0020148472035263,8.444354248343535,3
2025-03-06 15:18:55.510,0.0019258987772741,7.6166166351859905,3
2025-03-06 15:18:55.518,0.0018332849543009,6.790049363224215,3
2025-03-06 15:18:55.525,0.0017378246655094,5.97686847828419,3
2025-03-06 15:18:55.533,0.0016402664965863,5.187962372230794,3
2025-03-06 15:18:55.541,0.0015412675645724,4.432735219986173,3
2025-03-06 15:18:55.549,0.0014413781466025,3.719008093320932,3
2025-03-06 15:18:55.557,0.0013410322463664,3.052975312929423,3
2025-03-06 15:18:55.564,0.0012405440676969,2.439211604296814,3
2025-03-06 15:18:55.572,0.0011401101921951,1.8807240327324848,3
2025-03-06 15:18:55.580,0.0010398171457693,1.37904157694651,3
2025-03-06 15:18:55.588,0.0009396539658071,0.9343345970120684,3
2025-03-06 15:18:55.596,0.0008395293020916,0.5455563520290161,3
2025-03-06 15:18:55.604,0.0007392924711018,0.2105990617388076,3
2025-03-06 15:18:55.611,0.0006387577364362,-0.0735423219181098,3
2025-03-06 15:18:55.619,0.0005377309336626,-0.3106045893231056,3
2025-03-06 15:18:55.627,0.0004360374258297,-0.5048939859923172,3
2025-03-06 15:18:55.635,0.0003335502812086,-0.6611312013304231,3
2025-03-06 15:18:55.643,0.0002302175120426,-0.7843067875724788,3
2025-03-06 15:18:55.650,0.0001260872057716,-0.8795493805009136,3
2025-03-06 15:18:55.658,2.1329411176242453e-05,-0.9520084143407026,3
2025-03-06 15:18:55.666,-8.374630979556143e-05,-1.006752432904645,3
2025-03-06 15:18:55.674,-0.0001886786976713,-1.048683576400217,3
2025-03-06 15:18:55.682,-0.000292848923052,-1.0824683480736597,3
2025-03-06 15:18:55.689,-0.0003954818042902,-1.112484321212181,3
2025-03-06 15:18:55.697,-0.0004956546281944,-1.1427820247131608,3
2025-03-06 15:18:55.705,-0.0005923137493373,-1.1770608392003754,3
2025-03-06 15:18:55.713,-0.0006842987783831,-1.2186573437426709,3
2025-03-06 15:18:55.721,-0.0007703737969292,-1.270544176336334,3
2025-03-06 15:18:55.729,-0.0008492646557833,-1.3353371119333226,3
2025-03-06 15:18:55.736,-0.0009197010399974,-1.4153077257165672,3
2025-03-06 15:18:55.744,-0.0009804616543491,-1.5123987139864772,3
2025-03-06 15:18:55.752,-0.0010304206343334,-1.6282387308106396,3
2025-03-06 15:18:55.760,-0.0010685931413074,-1.764153529708691,3
2025-03-06 15:18:55.768,-0.0010941780592347,-1.9211703481633071,3
2025-03-06 15:18:55.775,-0.0011065957608999,-2.100012893473112,3
2025-03-06 15:18:55.783,-0.0011055190384047,-2.3010849970571745,3
2025-03-06 15:18:55.791,-0.0010908955028129,-2.524441967440481,3
2025-03-06 15:18:55.799,-0.0010629600787993,-2.769749812917995,3
2025-03-06 15:18:55.807,-0.0010222366769194,-3.036233721127634,3
2025-03-06 15:18:55.814,-0.0009695287244816,-3.322618370943269,3
2025-03-06 15:18:55.822,-0.0009058989555569,-3.6270637274923625,3
2025-03-06 15:18:55.830,-0.0008326396321694,-3.9471008741261504,3
2025-03-06 15:18:55.838,-0.000751235053509,-4.279573121573385,3
2025-03-06 15:18:55.846,-0.0006633186389732,-4.620588060877488,3
2025-03-06 15:18:55.854,-0.0005706269480936,-4.965486347786227,3
2025-03-06 15:18:55.861,-0.0004749527765678,-5.308832787257437,3
2025-03-06 15:18:55.869,-0.0003780990953597,-5.644434717697242,3
2025-03-06 15:18:55.877,-0.0002818352204528,-5.965391793858341,3
2025-03-06 15:18:55.885,-0.0001878562850995,-6.264180074969443,3
2025-03-06 15:18:55.893,-9.774684977544497e-05,-6.532771893364814,3
2025-03-06 15:18:55.900,-1.2949305097641484e-05,-6.762791368272116,3
2025-03-06 15:18:55.908,6.526244485616829e-05,-6.945703703225864,3
2025-03-06 15:18:55.916,0.0001358037095854,-7.073034631137117,3
2025-03-06 15:18:55.924,0.000197794007095,-7.136614620169024,3
2025-03-06 15:18:55.932,0.0002505663082965,-7.128840802556681,3
2025-03-06 15:18:55.939,0.0002936705913792,-7.0429481162484215,3
2025-03-06 15:18:55.947,0.000326871830014,-6.873279934352277,3
2025-03-06 15:18:55.955,0.0003501426277803,-6.615547576068284,3
2025-03-06 15:18:55.963,0.000363650847204,-6.2670676164113255,3
2025-03-06 15:18:55.971,0.0003677427502056,-5.826965901099336,3
2025-03-06 15:18:55.979,0.0003629223284655,-5.296337669009329,3
2025-03-06 15:18:55.986,0.0003498276294996,-4.678354206199019,3
2025-03-06 15:18:55.994,0.0003292049729786,-3.978308000788613,3
2025-03-06 15:18:56.002,0.0003018819987018,-3.203590416185796,3
2025-03-06 15:18:56.010,0.0002687404786798,-2.36359840606835,3
2025-03-06 15:18:56.018,0.0002306897579265,-1.4695696800565263,3
2025-03-06 15:18:56.025,0.0001886415859374,-0.5343488779441046,3
2025-03-06 15:18:56.033,0.0001434869958476,0.4279094303509789,3
2025-03-06 15:18:56.041,9.607579111993198e-05,1.4020919160550154,3
2025-03-06 15:18:56.049,4.719909623320344e-05,2.3725199230071605,3
2025-03-06 15:18:56.057,-2.424696697893388e-06,3.3233708297503397,3
2025-03-06 15:18:56.064,-5.2160401275303576e-05,4.2391112815016605,3
2025-03-06 15:18:56.072,-0.0001014629095625,5.104925345393611,3
2025-03-06 15:18:56.080,-0.0001498806056561,5.907120693370499,3
2025-03-06 15:18:56.088,-0.0001970555925592,6.633496914187333,3
2025-03-06 15:18:56.096,-0.0002427210771804,7.273661925166689,3
2025-03-06 15:18:56.104,-0.0002866962712865,7.819285049699354,3
2025-03-06 15:18:56.111,-0.0003288791527557,8.26427844809467,3
2025-03-06 15:18:56.119,-0.0003692374369507,8.604902008883677,3
2025-03-06 15:18:56.127,-0.0004077981560746,8.839790297309774,3
2025-03-06 15:18:56.135,-0.0004446363130433,8.969903514118803,3
2025-03-06 15:18:56.143,-0.0004798631184376,8.998407473472259,3
2025-03-06 15:18:56.150,-0.0005136143108842,8.930490235890112,3
2025-03-06 15:18:56.158,-0.0005460390166411,8.77312514354903,3
2025-03-06 15:18:56.166,-0.0005772895464247,8.53479155376484,3
2025-03-06 15:18:56.174,-0.0006075124670158,8.225165537255867,3
2025-03-06 15:18:56.182,-0.0006368412175199,7.854793206332768,3
2025-03-06 15:18:56.189,-0.0006653904544514,7.434759180681556,3
2025-03-06 15:18:56.197,-0.0006932522070395,6.976362011533464,3
2025-03-06 15:18:56.205,-0.000720493820434,6.490807215444314,3
2025-03-06 15:18:56.213,-0.0007471575644855,5.988926995644497,3
2025-03-06 15:18:56.221,-0.0007732616793538,5.480933866727724,3
2025-03-06 15:18:56.229,-0.0007988025292733,4.976213384100273,3
2025-03-06 15:18:56.236,-0.0008237574827939,4.483159146026316,3
2025-03-06 15:18:56.244,-0.0008480881542025,4.009051291457101,3
2025-03-06 15:18:56.252,-0.000871743712441,3.559977939948193,3
2025-03-06 15:18:56.260,-0.0008946640647825,3.1407974667129928,3
2025-03-06 15:18:56.268,-0.0009167828292369,2.755138215169895,3
2025-03-06 15:18:56.275,-0.000938030093612,2.4054312452457003,3
2025-03-06 15:18:56.283,-0.0009583349945354,2.092971009717583,3
2025-03-06 15:18:56.291,-0.0009776281354909,1.817998447160788,3
2025-03-06 15:18:56.299,-0.0009958438228062,1.5798008781745707,3
2025-03-06 15:18:56.307,-0.0010129220574402,1.3768232814189287,3
2025-03-06 15:18:56.314,-0.001028810190378,1.20678597890093,3
2025-03-06 15:18:56.322,-0.0010434641340426,1.0668044254803208,3
2025-03-06 15:18:56.330,-0.0010568490228869,0.953507609785665,3
2025-03-06 15:18:56.338,-0.0010689392342733,0.86315245895874,3
2025-03-06 15:18:56.346,-0.0010797177179838,0.7917325181347914,3
2025-03-06 15:18:56.354,-0.0010891746471993,0.7350799615264956,3
2025-03-06 15:18:56.361,-0.0010973055057637,0.6889606035112352,3
2025-03-06 15:18:56.369,-0.0011041088536479,0.6491619585588906,3
2025-03-06 15:18:56.377,-0.0011095841155972,0.6115745354567381,3
2025-03-06 15:18:56.385,-0.0011137297687106,0.5722664779335704,3
2025-03-06 15:18:56.393,-0.001116542261483,0.5275514476967563,3
2025-03-06 15:18:56.400,-0.0011180159083892,0.4740493679385491,3
2025-03-06 15:18:56.408,-0.0011181438845317,0.4087393832165527,3
2025-03-06 15:18:56.416,-0.0011169202981061,0.3290042113247551,3
2025-03-06 15:18:56.424,-0.0011143431737883,0.2326650163026518,3
2025-03-06 15:18:56.432,-0.0011104180798898,0.1180060529567954,3
2025-03-06 15:18:56.439,-0.0011051620811602,-0.0162113696645266,3
2025-03-06 15:18:56.447,-0.0010986076647809,-0.1707456082957406,3
2025-03-06 15:18:56.455,-0.0010908062509318,-0.3458815393513198,3
2025-03-06 15:18:56.463,-0.0010818308773197,-0.541446413363294,3
2025-03-06 15:18:56.471,-0.0010717776630172,-0.7568330401466201,3
2025-03-06 15:18:56.479,-0.0010607657236851,-0.9910282222646524,3
2025-03-06 15:18:56.486,-0.0010489353370701,-1.242644128479942,3
2025-03-06 15:18:56.494,-0.0010364443517011,-1.509950297451819,3
2025-03-06 15:18:56.502,-0.0010234630681645,-1.7909041909961283,3
2025-03-06 15:18:56.510,-0.0010101680259147,-2.0831786514359463,3
