Timestamp,GSR_Filtered,PPG_Filtered
2025-06-20 11:25:29.830,-0.005553972464635,-10.703598744986063
2025-06-20 11:25:29.838,-0.0061650309272576,-10.351036668197125
2025-06-20 11:25:29.845,-0.0067756852347199,-10.017276698726796
2025-06-20 11:25:29.853,-0.0073698666498602,-9.703534341765334
2025-06-20 11:25:29.861,-0.0079335144177259,-9.410189007929189
2025-06-20 11:25:29.869,-0.0084554275905594,-9.13691226565139
2025-06-20 11:25:29.877,-0.008927914900534,-8.882796837520818
2025-06-20 11:25:29.884,-0.0093472013301163,-8.646481055655554
2025-06-20 11:25:29.892,-0.009713564747388,-8.426264858954221
2025-06-20 11:25:29.900,-0.0100311924108404,-8.220214766670976
2025-06-20 11:25:29.908,-0.0103077645041147,-8.02625650745008
2025-06-20 11:25:29.916,-0.0105537892719087,-7.842255047922704
2025-06-20 11:25:29.923,-0.0107817309038337,-7.666082600117569
2025-06-20 11:25:29.931,-0.0110049861041524,-7.495675770279837
2025-06-20 11:25:29.939,-0.0112367771657431,-7.329083344950841
2025-06-20 11:25:29.947,-0.0114890370457156,-7.164506308342759
2025-06-20 11:25:29.955,-0.011771364274135,-7.000331573806221
2025-06-20 11:25:29.963,-0.0120901219321879,-6.8351606346363125
2025-06-20 11:25:29.970,-0.0124477455785022,-6.667833958442575
2025-06-20 11:25:29.978,-0.0128423106938573,-6.4974515357894775
2025-06-20 11:25:29.986,-0.0132673921461998,-6.323389608504257
2025-06-20 11:25:29.994,-0.0137122276821702,-6.145313285180829
2025-06-20 11:25:30.002,-0.0141621759302918,-5.963184520023162
2025-06-20 11:25:30.017,-0.0145994383705718,-5.777264792612907
2025-06-20 11:25:30.025,-0.0150039958444812,-5.588111779595416
2025-06-20 11:25:30.033,-0.0153546952550937,-5.396569348280965
2025-06-20 11:25:30.041,-0.0156304128821296,-5.203750315499915
2025-06-20 11:25:30.048,-0.0158112181934688,-5.011011588963509
2025-06-20 11:25:30.056,-0.0158794657870855,-4.819921530547647
2025-06-20 11:25:30.064,-0.0158207517265358,-4.632219642084829
2025-06-20 11:25:30.072,-0.0156246824826058,-4.449768964904345
2025-06-20 11:25:30.080,-0.0152854187220953,-4.2745018906318135
2025-06-20 11:25:30.088,-0.014801971298958,-4.108360385661079
2025-06-20 11:25:30.095,-0.0141782421635792,-3.9532319203256368
2025-06-20 11:25:30.103,-0.0134228178477971,-3.810882655498151
2025-06-20 11:25:30.111,-0.0125485372195691,-3.6828896657135055
2025-06-20 11:25:30.119,-0.0115718678315105,-3.5705741610841746
2025-06-20 11:25:30.127,-0.0105121354990127,-3.474937803027659
2025-06-20 11:25:30.134,-0.0093906583646529,-3.3966042835663326
2025-06-20 11:25:30.142,-0.0082298385987887,-3.335768345695804
2025-06-20 11:25:30.150,-0.0070522622104923,-3.292154355178352
2025-06-20 11:25:30.158,-0.0058798513990781,-3.264986389330238
2025-06-20 11:25:30.166,-0.0047331058689867,-3.252971587150534
2025-06-20 11:25:30.173,-0.0036304606480706,-3.254298206847845
2025-06-20 11:25:30.181,-0.002587778940843,-3.266649456965236
2025-06-20 11:25:30.189,-0.001617989936976,-3.2872337033928303
2025-06-20 11:25:30.197,-0.0007308736366089,-3.312831113618948
2025-06-20 11:25:30.205,6.701215059926589e-05,-3.339856200120582
2025-06-20 11:25:30.213,0.0007722733407485,-3.364435093053135
2025-06-20 11:25:30.220,0.0013845051296972,-3.382495737239148
2025-06-20 11:25:30.228,0.0019060206755683,-3.3898685992020137
2025-06-20 11:25:30.236,0.0023415044335227,-3.2284705568823746
2025-06-20 11:25:30.244,0.0026976128389219,-3.0938696751902355
2025-06-20 11:25:30.252,0.0029825449827118,-2.979631557122521
2025-06-20 11:25:30.259,0.003205604737381,-2.878508152039331
2025-06-20 11:25:30.267,0.0033767736530415,-2.782628625371568
2025-06-20 11:25:30.275,0.0035063110754889,-2.6837067091755724
2025-06-20 11:25:30.283,0.003604394552798,-2.573259748445417
2025-06-20 11:25:30.291,0.0036808098975316,-2.442834579255648
2025-06-20 11:25:30.298,0.0037446964940293,-2.2842353183324904
2025-06-20 11:25:30.306,0.0038043498423969,-2.0897480887906794
2025-06-20 11:25:30.314,0.0038670801291798,-1.8523576490145528
2025-06-20 11:25:30.322,0.0039391229471556,-1.56595084004285
2025-06-20 11:25:30.330,0.004025596245171,-1.2255017436671374
2025-06-20 11:25:30.338,0.0041304962619051,-0.827233486023497
2025-06-20 11:25:30.345,0.004256724632493,-0.3687517795808459
2025-06-20 11:25:30.353,0.0044061389874507,0.1508543775970418
2025-06-20 11:25:30.361,0.004579620025315,0.7309488916571997
2025-06-20 11:25:30.369,0.0047771490546258,1.369324933338301
2025-06-20 11:25:30.377,0.0049978912016799,2.06222375438404
2025-06-20 11:25:30.384,0.0052402807096446,2.8043970356205805
2025-06-20 11:25:30.392,0.0055021058921345,3.5892124548623365
2025-06-20 11:25:30.400,0.0057805922960122,4.408800650787053
2025-06-20 11:25:30.408,0.0060724834568146,5.254240186751267
2025-06-20 11:25:30.416,0.0063741192677121,6.115775555397192
2025-06-20 11:25:30.423,0.0066815123767358,6.9830617827315065
2025-06-20 11:25:30.431,0.0069904231284394,7.845427869385487
2025-06-20 11:25:30.439,0.0072964333763672,8.692150241429367
2025-06-20 11:25:30.447,0.007595019100374,9.51272667288734
2025-06-20 11:25:30.455,0.007881621345982,10.29714086811688
2025-06-20 11:25:30.463,0.008151714755544,11.036108100089969
2025-06-20 11:25:30.470,0.0084008729653758,11.721292999635253
2025-06-20 11:25:30.478,0.00862483031655,12.345491758373877
2025-06-20 11:25:30.486,0.008819539516378,12.90277259091176
2025-06-20 11:25:30.494,0.0089812250032552,13.388570216451749
2025-06-20 11:25:30.502,0.0091064318213194,13.79973225919232
2025-06-20 11:25:30.517,0.0091920698556779,14.134517709340194
2025-06-20 11:25:30.525,0.0092354533377623,14.392549806188866
2025-06-20 11:25:30.533,0.0092343355866214,14.574727775794988
2025-06-20 11:25:30.541,0.0091869389821171,14.68310365427238
2025-06-20 11:25:30.548,0.0090919801681754,14.720731837818358
2025-06-20 11:25:30.556,0.0089486904650304,14.691499930730403
2025-06-20 11:25:30.564,0.0087568314138277,14.599949860451986
2025-06-20 11:25:30.572,0.0085167052601712,14.451098084985706
2025-06-20 11:25:30.580,0.0082291600197782,14.250263062970104
2025-06-20 11:25:30.588,0.0078955886221425,14.002907054072782
2025-06-20 11:25:30.595,0.0075179215596148,13.714497859751848
2025-06-20 11:25:30.603,0.007098612513129,13.390394418044483
2025-06-20 11:25:30.611,0.0066406166008293,13.035758361538774
2025-06-20 11:25:30.619,0.0061473612051019,12.655491867401198
2025-06-20 11:25:30.627,0.005622709727617,12.254200492968549
2025-06-20 11:25:30.634,0.0050709189908271,11.8361782990308
2025-06-20 11:25:30.642,0.0044965912457658,11.405411486768
2025-06-20 11:25:30.650,0.0039046218472326,10.965596054590051
2025-06-20 11:25:30.658,0.0033001436789618,10.52016463266863
2025-06-20 11:25:30.666,0.0026884693880337,10.072317670470548
2025-06-20 11:25:30.673,0.0020750323849011,9.625054512014266
2025-06-20 11:25:30.681,0.0014653273481851,9.18120054850934
2025-06-20 11:25:30.689,0.0008648506845174,8.743427520760076
2025-06-20 11:25:30.697,0.0002790411321561,8.314265072534873
2025-06-20 11:25:30.705,-0.0002867794589355,7.896102742828646
2025-06-20 11:25:30.713,-0.0008274651567244,7.491182640319299
2025-06-20 11:25:30.720,-0.0013381046492938,7.10158398452352
2025-06-20 11:25:30.728,-0.0018140792531953,6.729201458248928
2025-06-20 11:25:30.736,-0.0022511196237871,6.375719849823112
2025-06-20 11:25:30.744,-0.0026453604177691,6.042587748501965
2025-06-20 11:25:30.752,-0.0029933921348658,5.730993090556137
2025-06-20 11:25:30.759,-0.0032923094277868,5.441843155425407
2025-06-20 11:25:30.767,-0.0035397552533902,5.175751219684477
2025-06-20 11:25:30.775,-0.0037339602775958,4.933031545988559
2025-06-20 11:25:30.783,-0.0038737769008324,4.713703774915087
2025-06-20 11:25:30.791,-0.0039587071437125,4.51750715242606
2025-06-20 11:25:30.798,-0.0039889234648086,4.343924402277402
2025-06-20 11:25:30.806,-0.0039652814293811,4.192214466208331
2025-06-20 11:25:30.814,-0.0038893230661038,4.061452804249851
2025-06-20 11:25:30.822,-0.0037632697814497,3.950577488995832
2025-06-20 11:25:30.830,-0.0035900038566135,3.8584389528138594
2025-06-20 11:25:30.838,-0.0033730377970288,3.7838509637328888
2025-06-20 11:25:30.845,-0.0031164711009898,3.725640223875919
2025-06-20 11:25:30.853,-0.0028249343550189,3.682691918319593
2025-06-20 11:25:30.861,-0.0025035209615246,3.6539886057424216
2025-06-20 11:25:30.869,-0.0021577072526638,3.638640039857476
2025-06-20 11:25:30.877,-0.0017932622196754,3.6359018384705504
2025-06-20 11:25:30.884,-0.001416148573143,3.645181368797101
2025-06-20 11:25:30.892,-0.0010324173362436,3.666029786347576
2025-06-20 11:25:30.900,-0.0006480986291045,3.698119836870901
2025-06-20 11:25:30.908,-0.0002690916625273,3.74120978190998
2025-06-20 11:25:30.916,9.894285783230256e-05,3.795094602765968
2025-06-20 11:25:30.923,0.0004506847689091,3.859546431242478
2025-06-20 11:25:30.931,0.0007812480765631,3.9342469001211775
2025-06-20 11:25:30.939,0.001086263798578,4.018714753670662
2025-06-20 11:25:30.947,0.0013619502003278,4.112232565070652
2025-06-20 11:25:30.955,0.0016051690716498,4.213776737269519
2025-06-20 11:25:30.963,0.0018134670073617,4.321955088126134
2025-06-20 11:25:30.970,0.0019851008591649,4.434956219365129
2025-06-20 11:25:30.978,0.0021190467744381,4.550514531508653
2025-06-20 11:25:30.986,0.0022149926527006,4.6658941772449385
2025-06-20 11:25:30.994,0.0022733144274718,4.777894465674688
2025-06-20 11:25:31.002,0.0022950372036354,4.882878279348638
2025-06-20 11:25:31.017,0.0022817828325659,4.9768239949969
2025-06-20 11:25:31.025,0.0022357059444118,5.055400258996922
2025-06-20 11:25:31.033,0.0021594207783765,5.114061811953063
2025-06-20 11:25:31.041,0.002055921349887,5.148163440937985
2025-06-20 11:25:31.048,0.001928497551366,5.1530881286528025
2025-06-20 11:25:31.056,0.0017806497011265,5.124384633292912
2025-06-20 11:25:31.064,0.0016160038559511,5.057909129113253
2025-06-20 11:25:31.072,0.0014382299209226,4.949965205360798
2025-06-20 11:25:31.080,0.001250964259617,4.79743647849649
2025-06-20 11:25:31.088,0.0010577381612423,4.597906316364449
2025-06-20 11:25:31.095,0.0008619131876911,4.349759681960578
2025-06-20 11:25:31.103,0.0006666241273432,4.05226284339664
2025-06-20 11:25:31.111,0.0004747300448243,3.705617619870431
2025-06-20 11:25:31.119,0.0002887737601717,3.310987888970634
2025-06-20 11:25:31.127,0.0001109500436533,2.8704972157729287
2025-06-20 11:25:31.134,-5.6917126248424296e-05,2.3871976298474538
2025-06-20 11:25:31.142,-0.0002133877981595,1.8650107260013948
2025-06-20 11:25:31.150,-0.0003574093365772,1.308643350194865
2025-06-20 11:25:31.158,-0.0004883095276786,0.7234811029678493
2025-06-20 11:25:31.166,-0.0006057796590533,0.1154637002592048
2025-06-20 11:25:31.173,-0.0007098482207566,-0.5090531636357339
2025-06-20 11:25:31.181,-0.0008008463672739,-1.1434444272524058
2025-06-20 11:25:31.189,-0.000879366711028,-1.7809655758228815
2025-06-20 11:25:31.197,-0.0009462173386106,-2.4149007625147427
2025-06-20 11:25:31.205,-0.0010023731036064,-3.03870432900916
2025-06-20 11:25:31.213,-0.001048926236706,-3.646131398633535
2025-06-20 11:25:31.220,-0.0010870381577053,-4.231353864144175
2025-06-20 11:25:31.228,-0.0011178941345289,-4.789058870468108
2025-06-20 11:25:31.236,-0.0011426621596401,-5.314527753566707
2025-06-20 11:25:31.244,-0.0011624571305455,-5.803694290060306
2025-06-20 11:25:31.252,-0.0011783111438868,-6.253181987710978
2025-06-20 11:25:31.259,-0.0011911504519831,-6.660320955950883
2025-06-20 11:25:31.267,-0.0012017793849529,-7.023145598054388
2025-06-20 11:25:31.275,-0.0012108712860149,-7.340374936387579
2025-06-20 11:25:31.283,-0.001218966205524,-7.611377810534564
2025-06-20 11:25:31.291,-0.0012264747459756,-7.836125479627287
2025-06-20 11:25:31.298,-0.0012336871008549,-8.015134326167184
2025-06-20 11:25:31.306,-0.001240786064096,-8.149401412456498
2025-06-20 11:25:31.314,-0.0012478626524202,-8.240335598144036
2025-06-20 11:25:31.322,-0.0012549329925432,-8.28968680684238
2025-06-20 11:25:31.330,-0.0012619552751153,-8.299475850060553
2025-06-20 11:25:31.338,-0.0012688458371021,-8.27192699271361
2025-06-20 11:25:31.345,-0.0012754937343614,-8.209405185016214
2025-06-20 11:25:31.353,-0.0012817734241829,-8.114359594927095
2025-06-20 11:25:31.361,-0.001287555349116,-7.989274756233027
2025-06-20 11:25:31.369,-0.0012927143114421,-7.836630301078465
2025-06-20 11:25:31.377,-0.0012971355926288,-7.658869871650902
2025-06-20 11:25:31.384,-0.0013007188329243,-7.458379406649689
2025-06-20 11:25:31.392,-0.0013033797509846,-7.237474587249438
2025-06-20 11:25:31.400,-0.0013050498502853,-6.99839682693059
2025-06-20 11:25:31.408,-0.0013056743245882,-6.743316823033824
2025-06-20 11:25:31.416,-0.0013052084355015,-6.474344373219436
2025-06-20 11:25:31.423,-0.0013036126878949,-6.193542910171291
2025-06-20 11:25:31.431,-0.0013008471705564,-5.902947031471122
2025-06-20 11:25:31.439,-0.0012968654572522,-5.604581201392087
2025-06-20 11:25:31.447,-0.0012916084749238,-5.300477777054303
2025-06-20 11:25:31.455,-0.0012849987392373,-4.992692566271364
2025-06-20 11:25:31.463,-0.0012769353317576,-4.683316267551253
2025-06-20 11:25:31.470,-0.0012672899469172,-4.374480382758807
2025-06-20 11:25:31.478,-0.0012559042706327,-4.068356529814508
2025-06-20 11:25:31.486,-0.0012425888665514,-3.767148502678864
2025-06-20 11:25:31.494,-0.0012271236418876,-3.4730769015852285
2025-06-20 11:25:31.502,-0.0012092598448405,-3.1883566521093165
2025-06-20 11:25:31.517,-0.0011887234142447,-2.915168207238813
2025-06-20 11:25:31.525,-0.0011652193744463,-2.655623641756583
2025-06-20 11:25:31.533,-0.0011384368807815,-2.4117291689107665
2025-06-20 11:25:31.541,-0.0011080545216617,-2.185345817367012
2025-06-20 11:25:31.548,-0.0010737455929409,-1.978150102502349
2025-06-20 11:25:31.556,-0.0010351832406404,-1.7915965213993623
2025-06-20 11:25:31.564,-0.0009920455363061,-1.626883607695977
2025-06-20 11:25:31.572,-0.0009440206329542,-1.4849251130742909
2025-06-20 11:25:31.580,-0.0008908121451,-1.3663276519834204
2025-06-20 11:25:31.588,-0.0008321448721383,-1.271375872167127
2025-06-20 11:25:31.595,-0.0007677710097531,-1.200025909763194
2025-06-20 11:25:31.603,-0.0006974770684153,-1.151907563743742
2025-06-20 11:25:31.611,-0.0006210917755457,-1.126335287920821
2025-06-20 11:25:31.619,-0.0005384952118979,-1.122327758338412
2025-06-20 11:25:31.627,-0.0004496293135007,-1.1386354405227406
2025-06-20 11:25:31.634,-0.0003545097009651,-1.1737752675192563
2025-06-20 11:25:31.642,-0.0002532386198186,-1.22607125873962
2025-06-20 11:25:31.650,-0.0001460186065539,-1.2936996719084712
2025-06-20 11:25:31.658,-3.316634634013933e-05,-1.3747370938853292
2025-06-20 11:25:31.666,8.487393782941859e-05,-1.4672097491057634
2025-06-20 11:25:31.673,0.0002075183348897,-1.5691422469812166
2025-06-20 11:25:31.681,0.0003340331829233,-1.6786040123246049
2025-06-20 11:25:31.689,0.0004635279545645,-1.7937517539913552
2025-06-20 11:25:31.697,0.0005949518949763,-1.9128665291584184
2025-06-20 11:25:31.705,0.0007270951264582,-2.034384246578952
2025-06-20 11:25:31.713,0.0008585948307885,-2.156918802387285
2025-06-20 11:25:31.720,0.0009879469929411,-2.2792774304939507
2025-06-20 11:25:31.728,0.0011135240193266,-2.400468251129604
2025-06-20 11:25:31.736,0.0012335983255522,-2.519700392704565
2025-06-20 11:25:31.744,0.0013463717308607,-2.636377418446476
2025-06-20 11:25:31.752,0.001450010219436,-2.7500850821334035
2025-06-20 11:25:31.759,0.0015426833668329,-2.8605746439696547
2025-06-20 11:25:31.767,0.0016226075100229,-2.967743088257296
2025-06-20 11:25:31.775,0.0016880915552028,-3.071611599757138
2025-06-20 11:25:31.783,0.0017375841478287,-3.172303581436278
2025-06-20 11:25:31.791,0.0017697207893037,-3.2700233436940507
2025-06-20 11:25:31.798,0.0017833694179703,-3.3650363836379364
2025-06-20 11:25:31.806,0.0017776729938261,-3.4576519284711518
2025-06-20 11:25:31.814,0.0017520877147706,-3.548208163613824
2025-06-20 11:25:31.822,0.0017064156294289,-3.637060319453241
2025-06-20 11:25:31.830,0.0016408305910117,-3.724571558775929
2025-06-20 11:25:31.838,0.0015558966966037,-3.811106396859957
2025-06-20 11:25:31.845,0.0014525785454995,-3.8970262079178415
2025-06-20 11:25:31.853,0.0013322428212027,-3.9826862361376345
2025-06-20 11:25:31.861,0.001196650880333,-4.068433443681116
2025-06-20 11:25:31.869,0.001047942243162,-4.154604492729123
2025-06-20 11:25:31.877,0.0008886091057033,-4.241523173251133
2025-06-20 11:25:31.884,0.0007214621755463,-4.329496652386303
2025-06-20 11:25:31.892,0.0005495882390781,-4.418810032990839
2025-06-20 11:25:31.900,0.0003762999219566,-4.5097188615220505
2025-06-20 11:25:31.908,0.0002050781637483,-4.602439410353369
2025-06-20 11:25:31.916,3.950803324045024e-05,-4.697136770045983
2025-06-20 11:25:31.923,-0.0001167913212314,-4.793911018150994
2025-06-20 11:25:31.931,-0.0002602415618497,-4.892781974504269
2025-06-20 11:25:31.939,-0.0003873835819991,-4.993673289945146
2025-06-20 11:25:31.947,-0.0004949578210459,-5.096396814157163
2025-06-20 11:25:31.955,-0.0005799844890054,-5.2006383107205645
2025-06-20 11:25:31.963,-0.0006398413835252,-5.305945602174327
2025-06-20 11:25:31.970,-0.0006723367225788,-5.4117201221931
2025-06-20 11:25:31.978,-0.0006757743057851,-5.5172126357997024
2025-06-20 11:25:31.986,-0.0006490084049752,-5.621523589955772
2025-06-20 11:25:31.994,-0.0005914860689302,-5.723608212574503
2025-06-20 11:25:32.002,-0.0005032749695976,-5.82228612407267
2025-06-20 11:25:32.017,-0.0003850754657959,-5.9162548932662204
2025-06-20 11:25:32.025,-0.0002382161599172,-6.004106685408201
2025-06-20 11:25:32.033,-6.463282528946135e-05,-6.084346938153836
2025-06-20 11:25:32.041,0.0001331688465392,-6.155413881744733
2025-06-20 11:25:32.048,0.0003521657207894,-6.215697707481955
2025-06-20 11:25:32.056,0.0005888835577234,-6.263558290139748
2025-06-20 11:25:32.064,0.0008394756003468,-6.297340584274605
2025-06-20 11:25:32.072,0.001099811690949,-6.315387133524018
2025-06-20 11:25:32.080,0.0013655761830233,-6.316047537858967
2025-06-20 11:25:32.088,0.0016323728980537,-6.297685183564372
2025-06-20 11:25:32.095,0.0018958352699181,-6.2586820095493145
2025-06-20 11:25:32.103,0.0021517396140048,-6.1974425148231775
2025-06-20 11:25:32.111,0.0023961192196356,-6.112398566713249
2025-06-20 11:25:32.119,0.0026253767652122,-6.002016817345657
2025-06-20 11:25:32.127,0.0028363924143283,-5.864810650969595
2025-06-20 11:25:32.134,0.0030266248355182,-5.699358543101133
2025-06-20 11:25:32.142,0.0031942022599829,-5.504330494731076
2025-06-20 11:25:32.150,0.0033380005480968,-5.278523797886891
2025-06-20 11:25:32.158,0.003457705123044,-5.020908788754682
2025-06-20 11:25:32.166,0.0035538536201887,-4.730684464062505
2025-06-20 11:25:32.173,0.0036278562434792,-4.407342913400068
2025-06-20 11:25:32.181,0.0036819911161683,-4.050740518175132
2025-06-20 11:25:32.189,0.0037193723363656,-3.66117286634992
2025-06-20 11:25:32.197,0.0037438889814034,-3.239449414056395
2025-06-20 11:25:32.205,0.0037601139485973,-2.7869631724837656
2025-06-20 11:25:32.213,0.0037731822781346,-2.305750193436674
2025-06-20 11:25:32.220,0.0037886394761202,-1.798533451250964
2025-06-20 11:25:32.228,0.0038122613343598,-1.2687459417085185
2025-06-20 11:25:32.236,0.0038498478121644,-0.7205284810465247
2025-06-20 11:25:32.244,0.0039069946796333,-0.1586987897571132
2025-06-20 11:25:32.252,0.0039888477883462,0.4113100616696371
2025-06-20 11:25:32.259,0.0040998459946073,0.983541982930039
2025-06-20 11:25:32.267,0.0042434598738589,1.5516391737746265
2025-06-20 11:25:32.275,0.0044219344011012,2.1089887060117265
2025-06-20 11:25:32.283,0.0046360446962677,2.648888956036401
2025-06-20 11:25:32.291,0.0048848746907801,3.1647291004355167
2025-06-20 11:25:32.298,0.0051656290882141,3.650173979811768
2025-06-20 11:25:32.306,0.0054734891854377,4.0993462471567454
2025-06-20 11:25:32.314,0.0058015229114071,4.506997852493919
2025-06-20 11:25:32.322,0.0061406587721369,4.868663530262267
2025-06-20 11:25:32.330,0.0064797322236022,5.180789970673986
2025-06-20 11:25:32.338,0.0068056112867077,5.440835673885116
2025-06-20 11:25:32.345,0.0071034059450631,5.647337997417625
2025-06-20 11:25:32.353,0.0073567630676616,5.799945496954336
2025-06-20 11:25:32.361,0.0075482453771709,5.899415219586391
2025-06-20 11:25:32.369,0.0076597894650009,5.947576050378805
2025-06-20 11:25:32.377,0.0076732341669268,5.947260479092213
2025-06-20 11:25:32.384,0.007570906900022,5.902208210898188
2025-06-20 11:25:32.392,0.0073362519743697,5.816945879030386
2025-06-20 11:25:32.400,0.0069544815788585,5.69664772527288
2025-06-20 11:25:32.408,0.0064132272471077,5.546982498339668
2025-06-20 11:25:32.416,0.0057031673166692,5.373951990688357
2025-06-20 11:25:32.424,0.0048186044279824,5.183726611668927
2025-06-20 11:25:32.431,0.003757966699613,4.982483204859568
2025-06-20 11:25:32.439,0.0025242070309326,4.776249982382367
2025-06-20 11:25:32.447,0.0011250770992277,4.570762986947193
2025-06-20 11:25:32.455,-0.0004267439469359,4.371337922784625
2025-06-20 11:25:32.463,-0.0021136813433594,4.1827605420092615
2025-06-20 11:25:32.470,-0.0039134663422992,4.009198054006991
2025-06-20 11:25:32.478,-0.0057995097634896,3.854133259135423
2025-06-20 11:25:32.486,-0.0077414418391244,3.7203223125712777
2025-06-20 11:25:32.494,-0.0097058048160396,3.6097762233926702
2025-06-20 11:25:32.502,-0.0116568773701865,3.523765416170857
2025-06-20 11:25:32.517,-0.013557603642675,3.462845956605097
2025-06-20 11:25:32.525,-0.0153705950917834,3.42690539697665
2025-06-20 11:25:32.533,-0.0170591705348957,3.4152256553517804
2025-06-20 11:25:32.541,-0.018588398675853,3.4265599200355323
2025-06-20 11:25:32.549,-0.0199261078910395,3.459220273190577
2025-06-20 11:25:32.556,-0.0210438297695606,3.511172554207614
2025-06-20 11:25:32.564,-0.0219176455396249,3.5801349322245484
2025-06-20 11:25:32.572,-0.0225289078471425,3.663676723882833
2025-06-20 11:25:32.580,-0.0228648142404866,3.75931416832023
2025-06-20 11:25:32.588,-0.0229188130112505,3.864600144449274
2025-06-20 11:25:32.595,-0.0226908266262163,3.977205172841841
2025-06-20 11:25:32.603,-0.0221872828228322,4.0949874731995735
2025-06-20 11:25:32.611,-0.0214209485676681,4.216050335111249
2025-06-20 11:25:32.619,-0.020410567589768,4.338785589818833
2025-06-20 11:25:32.627,-0.0191803082480223,4.46190252735657
2025-06-20 11:25:32.634,-0.0177590352545078,4.584442169463072
2025-06-20 11:25:32.642,-0.0161794263738342,4.705777368279939
2025-06-20 11:25:32.650,-0.0144769635176158,4.825599737508476
2025-06-20 11:25:32.658,-0.0126888359963031,4.943894912919978
2025-06-20 11:25:32.666,-0.0108528007643671,5.0609080503679245
2025-06-20 11:25:32.674,-0.0090060486550644,5.177101767799874
2025-06-20 11:25:32.681,-0.0071841256244272,5.293108899602792
2025-06-20 11:25:32.689,-0.0054199537402494,5.409682449463186
2025-06-20 11:25:32.697,-0.0037429889687023,5.527645008611408
2025-06-20 11:25:32.705,-0.0021785431895161,5.647839668264577
2025-06-20 11:25:32.713,-0.0007472876858383,5.771084128904104
2025-06-20 11:25:32.720,0.0005350544507489,5.898129337241865
2025-06-20 11:25:32.728,0.0016578284683637,6.029623610651737
2025-06-20 11:25:32.736,0.002615389885662,6.166082872724843
2025-06-20 11:25:32.744,0.0034068839276058,6.307867332278355
2025-06-20 11:25:32.752,0.0040358833342309,6.45516468038861
2025-06-20 11:25:32.759,0.0045099091495883,6.607979639444645
2025-06-20 11:25:32.767,0.0048398614213215,6.766129465728711
2025-06-20 11:25:32.775,0.0050393877172668,6.92924478198675
2025-06-20 11:25:32.783,0.0051242171208284,7.096774903495543
2025-06-20 11:25:32.791,0.0051114860534944,7.267996630072823
2025-06-20 11:25:32.799,0.0050190800604272,7.442025322850021
2025-06-20 11:25:32.806,0.004865012775841,7.617826985437995
2025-06-20 11:25:32.814,0.0046668598541626,7.794230036394644
2025-06-20 11:25:32.822,0.0044412618871452,7.969935500331238
2025-06-20 11:25:32.830,0.0042035064006934,8.14352446548711
2025-06-20 11:25:32.838,0.0039671951335089,8.313461865478633
2025-06-20 11:25:32.845,0.0037439991358917,8.478095948818224
2025-06-20 11:25:32.853,0.0035435009349351,8.635653199309322
2025-06-20 11:25:32.861,0.0033731201644776,8.784228950149647
2025-06-20 11:25:32.869,0.0032381166739208,8.92177447154905
2025-06-20 11:25:32.877,0.0031416632123197,9.046081873879675
2025-06-20 11:25:32.884,0.0030849783288357,9.154768713663188
2025-06-20 11:25:32.892,0.003067509110037,9.24526466865805
2025-06-20 11:25:32.900,0.0030871527525057,9.314803013887776
2025-06-20 11:25:32.908,0.0031405057341994,9.360419846720747
2025-06-20 11:25:32.916,0.0032231294926606,9.378964051141454
2025-06-20 11:25:32.924,0.0033298220006013,9.367120838723569
2025-06-20 11:25:32.931,0.0034548853988571,9.32145133691168
2025-06-20 11:25:32.939,0.0035923808886478,9.238450099374004
2025-06-20 11:25:32.947,0.003736363394525,9.114621587955066
2025-06-20 11:25:32.955,0.0038810900310448,8.946575642245422
2025-06-20 11:25:32.963,0.0040211980396127,8.731140754182634
2025-06-20 11:25:32.970,0.0041518495135967,8.465492662141767
2025-06-20 11:25:32.978,0.0042688418240723,8.147294445456357
2025-06-20 11:25:32.986,0.0043686841136862,7.7748430197862195
2025-06-20 11:25:32.994,0.0044486414610907,7.347215795590022
2025-06-20 11:25:33.002,0.0045067492891037,6.864410357667191
2025-06-20 11:25:33.017,0.0045418013074235,6.327469444426058
2025-06-20 11:25:33.025,0.0045533147908242,5.738583336794151
2025-06-20 11:25:33.033,0.0045414773292781,5.101162077909664
2025-06-20 11:25:33.041,0.0045070793412746,4.419870775881126
2025-06-20 11:25:33.049,0.0044514365927348,3.700622590794917
2025-06-20 11:25:33.056,0.0043763067090822,2.9505258197204034
2025-06-20 11:25:33.064,0.0042838032399241,2.177783662586356
2025-06-20 11:25:33.072,0.0041763102939144,1.3915476284673942
2025-06-20 11:25:33.080,0.0040564001699375,0.601727954657163
2025-06-20 11:25:33.088,0.00392675581827,-0.181233312194908
2025-06-20 11:25:33.095,0.0037900994075228,-0.9466189353715222
2025-06-20 11:25:33.103,0.003649127781338,-1.683713588827464
2025-06-20 11:25:33.111,0.0035064551791852,-2.3820911227797965
2025-06-20 11:25:33.119,0.0033645632638711,-3.031901103411676
2025-06-20 11:25:33.127,0.0032257582363368,-3.62414369627524
2025-06-20 11:25:33.134,0.0030921346257901,-4.150922443446038
2025-06-20 11:25:33.142,0.0029655452233996,-4.605665442168171
2025-06-20 11:25:33.150,0.0028475765807928,-4.983306798769828
2025-06-20 11:25:33.158,0.0027395295161156,-5.28042192350339
2025-06-20 11:25:33.166,0.0026424041519614,-5.495312161103894
2025-06-20 11:25:33.174,0.0025568891390171,-5.628036321890042
2025-06-20 11:25:33.181,0.0024833548817984,-5.680388785865616
2025-06-20 11:25:33.189,0.0024218507611618,-5.655825894994006
2025-06-20 11:25:33.197,0.0023721065238524,-5.559344232013354
2025-06-20 11:25:33.205,0.0023335381631592,-5.397316026157655
2025-06-20 11:25:33.213,0.0023052587282727,-5.177288265131466
2025-06-20 11:25:33.220,0.0022860945560163,-4.907753093895668
2025-06-20 11:25:33.228,0.0022746074023548,-4.597897737441302
2025-06-20 11:25:33.236,0.0022691228523239,-4.257342509850229
2025-06-20 11:25:33.244,0.0022677652074919,-3.8958754869784578
2025-06-20 11:25:33.252,0.0022684988085063,-3.523192148746452
2025-06-20 11:25:33.259,0.0022691754706366,-3.1486477674110467
2025-06-20 11:25:33.267,0.0022675874047738,-2.78102956557302
2025-06-20 11:25:33.275,0.0022615246720657,-2.4283547315757694
2025-06-20 11:25:33.283,0.0022488358968101,-2.097699300062438
2025-06-20 11:25:33.291,0.0022274906726956,-1.7950617214791305
2025-06-20 11:25:33.299,0.0021956418749147,-1.525263697576802
2025-06-20 11:25:33.306,0.0021516859469774,-1.291889592428526
2025-06-20 11:25:33.314,0.0020943191470074,-1.0972644793820816
2025-06-20 11:25:33.322,0.0020225876902654,-0.942469688400631
2025-06-20 11:25:33.330,0.0019359297260682,-0.827393607105779
2025-06-20 11:25:33.338,0.0018342071863575,-0.7508144944362541
2025-06-20 11:25:33.345,0.0017177257735391,-0.7105112213339566
2025-06-20 11:25:33.353,0.0015872417033208,-0.7033971880985134
2025-06-20 11:25:33.361,0.0014439542446498,-0.7256722015267514
2025-06-20 11:25:33.369,0.0012894835748245,-0.7729868304859628
2025-06-20 11:25:33.377,0.0011258339842605,-0.8406136887247507
2025-06-20 11:25:33.384,0.0009553430208774,-0.9236202035014917
2025-06-20 11:25:33.392,0.0007806177547131,-1.0170376966094052
2025-06-20 11:25:33.400,0.0006044599524064,-1.1160220060508574
2025-06-20 11:25:33.408,0.0004297825376288,-1.2160013901918283
2025-06-20 11:25:33.416,0.0002595202196771,-1.3128080652275642
2025-06-20 11:25:33.424,9.653755320036396e-05,-1.4027904163405207
2025-06-20 11:25:33.431,-5.646207228943739e-05,-1.4829036742842692
2025-06-20 11:25:33.439,-0.0001970229340012,-1.5507776368375283
2025-06-20 11:25:33.447,-0.0003230154726026,-1.604760806857191
2025-06-20 11:25:33.455,-0.0004327035381537,-1.6439410801443872
2025-06-20 11:25:33.463,-0.0005247975568756,-1.668143812616837
2025-06-20 11:25:33.470,-0.000598491365563,-1.677908699224944
2025-06-20 11:25:33.478,-0.000653481155918,-1.6744473892490563
2025-06-20 11:25:33.486,-0.0006899657362008,-1.659584139016383
2025-06-20 11:25:33.494,-0.0007086281236584,-1.635682068724086
2025-06-20 11:25:33.502,-0.0007105993315546,-1.6055577557802638
2025-06-20 11:25:33.517,-0.0006974061110696,-1.5723869769736325
2025-06-20 11:25:33.525,-0.0006709053046126,-1.539604422768978
2025-06-20 11:25:33.533,-0.0006332082600536,-1.5108001656677537
2025-06-20 11:25:33.541,-0.0005865993206979,-1.4896155803325846
2025-06-20 11:25:33.549,-0.0005334526395861,-1.4796412853863457
2025-06-20 11:25:33.556,-0.000476151416547,-1.4843195004537098
2025-06-20 11:25:33.564,-0.000417013147736,-1.5068529865696243
2025-06-20 11:25:33.572,-0.0003582237154006,-1.5501224697274771
2025-06-20 11:25:33.580,-0.0003017822740832,-1.616614143757023
2025-06-20 11:25:33.588,-0.0002494580317189,-1.7083585144819944
2025-06-20 11:25:33.595,-0.0002027592542148,-1.8268814852133357
2025-06-20 11:25:33.603,-0.0001629141756802,-1.97316819962024
2025-06-20 11:25:33.611,-0.0001308629908726,-2.1476397620724264
2025-06-20 11:25:33.619,-0.0001072597503815,-2.3501425632392667
2025-06-20 11:25:33.627,-9.248277457615038e-05,-2.5799495712835907
2025-06-20 11:25:33.634,-8.665214330150923e-05,-2.8357726313871026
2025-06-20 11:25:33.642,-8.965288142163486e-05,-3.1157845730722533
2025-06-20 11:25:33.650,-0.0001011625883907,-3.417649774822126
2025-06-20 11:25:33.658,-0.0001206823677374,-3.7385617883343327
2025-06-20 11:25:33.666,-0.0001475699368632,-4.075286679408633
2025-06-20 11:25:33.674,-0.0001810737418997,-4.424210889240664
2025-06-20 11:25:33.681,-0.0002203668159012,-4.7813926405834
2025-06-20 11:25:33.689,-0.0002645790611794,-5.142616179136578
2025-06-20 11:25:33.697,-0.0003128266696025,-5.503448413952008
2025-06-20 11:25:33.705,-0.0003642375595515,-5.8592977636173895
2025-06-20 11:25:33.713,-0.0004179719936867,-6.205475198683932
2025-06-20 11:25:33.720,-0.0004732378972328,-6.537257578182869
2025-06-20 11:25:33.728,-0.0005293007749576,-6.849953401329142
2025-06-20 11:25:33.736,-0.0005854884987729,-7.138971034229154
2025-06-20 11:25:33.744,-0.0006411915884215,-7.399889332627411
2025-06-20 11:25:33.752,-0.0006958599097957,-7.628530379933264
2025-06-20 11:25:33.759,-0.0007489969265525,-7.82103381408798
2025-06-20 11:25:33.767,-0.0008001527171125,-7.973931944994439
2025-06-20 11:25:33.775,-0.0008489169081348,-8.084224579379859
2025-06-20 11:25:33.783,-0.0008949125268336,-8.14945218403159
2025-06-20 11:25:33.791,-0.0009377915974853,-8.167765745196025
2025-06-20 11:25:33.799,-0.0009772331300446,-8.137991434648884
2025-06-20 11:25:33.806,-0.001012943956433,-8.059687980604863
2025-06-20 11:25:33.814,-0.0010446626179621,-7.933194471740636
2025-06-20 11:25:33.822,-0.0010721661693592,-7.759666207896381
2025-06-20 11:25:33.830,-0.0010952793867381,-7.54109617472273
2025-06-20 11:25:33.838,-0.0011138855450781,-7.280319793414154
2025-06-20 11:25:33.845,-0.0011279377324751,-6.981000811581847
2025-06-20 11:25:33.853,-0.0011374695915116,-6.647596577748892
2025-06-20 11:25:33.861,-0.0011426043854802,-6.28530148720008
2025-06-20 11:25:33.869,-0.0011435613587196,-5.899968095915456
2025-06-20 11:25:33.877,-0.0011406585064849,-5.498006252686388
2025-06-20 11:25:33.884,-0.0011343111002963,-5.086261561274574
2025-06-20 11:25:33.892,-0.0011250256022635,-4.6718755052148735
2025-06-20 11:25:33.900,-0.0011133888943034,-4.262130590168494
2025-06-20 11:25:33.908,-0.0011000530158361,-3.8642848175473272
2025-06-20 11:25:33.916,-0.0010857158532754,-3.485400624026288
2025-06-20 11:25:33.924,-0.0010710984715725,-3.13217402665247
2025-06-20 11:25:33.931,-0.0010569200237258,-2.810770034868909
2025-06-20 11:25:33.939,-0.0010438714012482,-2.526670383638156
2025-06-20 11:25:33.947,-0.0010325889566462,-2.284539290101948
2025-06-20 11:25:33.955,-0.0010236296856447,-2.088112257713652
2025-06-20 11:25:33.963,-0.0010174491756525,-1.940111998374644
2025-06-20 11:25:33.970,-0.0010143834308936,-1.8421943922828303
2025-06-20 11:25:33.978,-0.0010146354229092,-1.7949261445449989
2025-06-20 11:25:33.986,-0.0010182669254067,-1.7977945088396228
2025-06-20 11:25:33.994,-0.0010251958915173,-1.849248197646532
2025-06-20 11:25:34.002,-0.0010351993262795,-1.9467674355079685
2025-06-20 11:25:34.017,-0.0010479213043821,-2.086960074973323
2025-06-20 11:25:34.025,-0.0010628854992799,-2.2656798164155894
2025-06-20 11:25:34.033,-0.0010795113618521,-2.4781618798825176
2025-06-20 11:25:34.041,-0.0010971329632701,-2.719170991413719
2025-06-20 11:25:34.049,-0.0011150195200301,-2.9831562844185227
2025-06-20 11:25:34.056,-0.0011323967219849,-3.26440768891038
2025-06-20 11:25:34.064,-0.0011484681338079,-3.5572085870331938
2025-06-20 11:25:34.072,-0.0011624360960177,-3.855979936430361
2025-06-20 11:25:34.080,-0.0011735216948276,-4.155411672634235
2025-06-20 11:25:34.088,-0.0011809834932543,-4.450577957089328
2025-06-20 11:25:34.095,-0.0011841348151074,-4.737033692967912
2025-06-20 11:25:34.103,-0.0011823594464824,-5.0108906378167175
2025-06-20 11:25:34.111,-0.0011751256658436,-5.268872350094041
2025-06-20 11:25:34.119,-0.0011619985351117,-5.508348067159631
2025-06-20 11:25:34.127,-0.0011426503834426,-5.727346381007237
2025-06-20 11:25:34.134,-0.0011168693970953,-5.92455021683872
2025-06-20 11:25:34.142,-0.0010845661986606,-6.09927509888497
2025-06-20 11:25:34.150,-0.0010457782635724,-6.251432992212276
2025-06-20 11:25:34.158,-0.0010006719884309,-6.381484142652361
2025-06-20 11:25:34.166,-0.0009495422016304,-6.490379321640485
2025-06-20 11:25:34.174,-0.0008928088993117,-6.579494751650089
2025-06-20 11:25:34.181,-0.000831011005437,-6.650561779003681
2025-06-20 11:25:34.189,-0.0007647969995468,-6.705593114558001
2025-06-20 11:25:34.197,-0.0006949123340052,-6.74680721854318
2025-06-20 11:25:34.205,-0.0006221836771625,-6.776552195145846
2025-06-20 11:25:34.213,-0.0005475001709498,-6.797230402518543
2025-06-20 11:25:34.220,-0.0004717920783379,-6.811224878160403
2025-06-20 11:25:34.228,-0.000396007403389,-6.820828624511261
2025-06-20 11:25:34.236,-0.0003210872569734,-6.828177790902886
2025-06-20 11:25:34.244,-0.0002479408638948,-6.835189819247019
2025-06-20 11:25:34.252,-0.0001774211356991,-6.843507675846893
2025-06-20 11:25:34.259,-0.0001103016893315,-6.854451341254821
2025-06-20 11:25:34.267,-4.725612088041267e-05,-6.86897773940311
2025-06-20 11:25:34.275,1.115972144317213e-05,-6.887650229232876
2025-06-20 11:25:34.283,6.452177176708928e-05,-6.910618644837769
2025-06-20 11:25:34.291,0.000112547444401,-6.937610655501679
2025-06-20 11:25:34.299,0.0001551004352303,-6.96793493621659
2025-06-20 11:25:34.306,0.0001921902349777,-7.000496310358275
2025-06-20 11:25:34.314,0.0002239662382414,-7.033822670061869
2025-06-20 11:25:34.322,0.0002507066877883,-7.06610311445354
2025-06-20 11:25:34.330,0.0002728030661203,-7.095236383618418
2025-06-20 11:25:34.338,0.0002907408638634,-7.118888316746851
2025-06-20 11:25:34.345,0.0003050778548974,-7.134556738181739
2025-06-20 11:25:34.353,0.0003164210656086,-7.139641890857213
2025-06-20 11:25:34.361,0.0003254035663059,-7.13152031078222
2025-06-20 11:25:34.369,0.0003326620891054,-7.107619886281044
2025-06-20 11:25:34.377,0.0003388163276543,-7.06549378700845
2025-06-20 11:25:34.384,0.0003444506097539,-7.002890991409346
2025-06-20 11:25:34.392,0.0003500984424976,-6.917821290020737
2025-06-20 11:25:34.400,0.0003562302058373,-6.80861288589633
2025-06-20 11:25:34.408,0.0003632440456062,-6.673961030291432
2025-06-20 11:25:34.416,0.0003714598441784,-6.512966493754306
2025-06-20 11:25:34.424,0.0003811160540119,-6.325163054249129
2025-06-20 11:25:34.431,0.0003923691548602,-6.110533563933208
2025-06-20 11:25:34.439,0.0004052955153021,-5.8695145157239885
2025-06-20 11:25:34.447,0.0004198954805642,-5.602989350842855
2025-06-20 11:25:34.455,0.000436099542725,-5.312271013243862
2025-06-20 11:25:34.463,0.000453776447825,-4.999074458283564
2025-06-20 11:25:34.470,0.000472743046385,-4.665479963023841
2025-06-20 11:25:34.478,0.0004927756083451,-4.313888174746701
2025-06-20 11:25:34.486,0.0005136222241148,-3.9469678893959848
2025-06-20 11:25:34.494,0.0005350158344464,-3.5675975924943093
2025-06-20 11:25:34.502,0.0005566873971292,-3.178801841072401
2025-06-20 11:25:34.517,0.0005783786981285,-2.783683632087259
2025-06-20 11:25:34.525,0.0005998543135273,-2.385353998704824
2025-06-20 11:25:34.533,0.0006209122063863,-1.9868601995173472
2025-06-20 11:25:34.541,0.0006413924310564,-1.5911140107310109
2025-06-20 11:25:34.549,0.0006611834840033,-1.200821788036346
2025-06-20 11:25:34.556,0.0006802260171247,-0.8184181165626009
2025-06-20 11:25:34.564,0.0006985138655007,-0.4460049878312667
2025-06-20 11:25:34.572,0.0007160925391617,-0.0852985028342461
2025-06-20 11:25:34.580,0.0007330554262244,0.2624149229732467
2025-06-20 11:25:34.588,0.000749537961642,0.5963109984793318
2025-06-20 11:25:34.595,0.000765709978483,0.9160470130932324
2025-06-20 11:25:34.603,0.0007817664236834,1.2217670212969285
2025-06-20 11:25:34.611,0.0007979166322604,1.514091910567562
2025-06-20 11:25:34.619,0.000814372449061,1.7940940476807117
2025-06-20 11:25:34.627,0.0008313356521589,2.063256817156223
2025-06-20 11:25:34.634,0.0008489852922738,2.3234200390902275
2025-06-20 11:25:34.642,0.0008674656430554,2.576712947310269
2025-06-20 11:25:34.650,0.0008868754439299,2.8254770745852364
2025-06-20 11:25:34.658,0.000907259043653,3.0721819738571803
2025-06-20 11:25:34.666,0.0009285999505921,3.3193371540804346
2025-06-20 11:25:34.674,0.0009508171780559,3.56940389331528
2025-06-20 11:25:34.681,0.0009737646431524,3.824710691478208
2025-06-20 11:25:34.689,0.0009972337377474,4.08737603158732
2025-06-20 11:25:34.697,0.001020959042394,4.359241833538843
2025-06-20 11:25:34.705,0.0010446270012102,4.641820524013936
2025-06-20 11:25:34.713,0.0010678872205358,4.936258036186092
2025-06-20 11:25:34.720,0.0010903659000845,5.243314324126237
2025-06-20 11:25:34.728,0.0011116807575385,5.563362162001864
2025-06-20 11:25:34.736,0.0011314566798126,5.896404136690755
2025-06-20 11:25:34.744,0.0011493412531431,6.24210688604609
2025-06-20 11:25:34.752,0.0011650193152006,6.59985084475293
2025-06-20 11:25:34.759,0.0011782257362409,6.968793090773878
2025-06-20 11:25:34.767,0.0011887557486906,7.347940372393282
2025-06-20 11:25:34.775,0.0011964722801319,7.736229049038096
2025-06-20 11:25:34.783,0.0012013098923815,8.13260848876056
2025-06-20 11:25:34.791,0.0012032750945525,8.536124408015631
2025-06-20 11:25:34.799,0.0012024429986519,8.945998685761962
2025-06-20 11:25:34.806,0.0011989505294682,9.361702309939597
2025-06-20 11:25:34.814,0.0011929866478193,9.783018309839289
2025-06-20 11:25:34.822,0.0011847802247797,10.2100917952735
2025-06-20 11:25:34.830,0.0011745862747347,10.643464569294864
2025-06-20 11:25:34.838,0.001162671251197,11.084092209188183
2025-06-20 11:25:34.845,0.0011492980922189,11.533342022250045
2025-06-20 11:25:34.853,0.0011347116938322,11.992970881716124
2025-06-20 11:25:34.861,0.0011191254786233,12.46508263719728
2025-06-20 11:25:34.869,0.0011027097050951,12.95206556816849
2025-06-20 11:25:34.877,0.0010855821227838,13.4565111883003
2025-06-20 11:25:34.884,0.0010678014947012,13.981116577286969
2025-06-20 11:25:34.892,0.0010493643715964,14.528573269992618
2025-06-20 11:25:34.900,0.0010302053301629,15.101446520038705
2025-06-20 11:25:34.908,0.0010102007056381,15.702049423178028
2025-06-20 11:25:34.916,0.0009891756730361,16.332316880513616
2025-06-20 11:25:34.924,0.0009669143669744,16.993684652416963
2025-06-20 11:25:34.931,0.0009431725821525,17.68697876312111
2025-06-20 11:25:34.939,0.000917692469121,18.41232024829695
2025-06-20 11:25:34.947,0.0008902185367305,19.16904970629762
2025-06-20 11:25:34.955,0.0008605141968116,19.955675353041403
2025-06-20 11:25:34.963,0.0008283780409697,20.769847335585773
2025-06-20 11:25:34.970,0.0007936590260883,21.60835997952266
2025-06-20 11:25:34.978,0.0007562697658291,22.467182485866324
2025-06-20 11:25:34.986,0.0007161971810192,23.341517416312865
2025-06-20 11:25:34.994,0.00067350985251,24.225885175136053
2025-06-20 11:25:35.002,0.0006283615451989,25.114231668698896
2025-06-20 11:25:35.017,0.000580990529875,26.000055445525472
2025-06-20 11:25:35.025,0.0005317145178002,26.8765499258146
2025-06-20 11:25:35.033,0.0004809212378941,27.736755845243188
2025-06-20 11:25:35.041,0.0004290549233578,28.573718781440377
2025-06-20 11:25:35.049,0.0003765992261749,29.380646607015446
2025-06-20 11:25:35.056,0.000324057326003,30.15106190547005
2025-06-20 11:25:35.064,0.0002719302047962,30.878944759772008
2025-06-20 11:25:35.072,0.0002206941682214,31.55886182888509
2025-06-20 11:25:35.080,0.0001707786849977,32.186078217552
2025-06-20 11:25:35.088,0.0001225455184769,32.756649283868306
2025-06-20 11:25:35.095,7.627001051394124e-05,33.2674901958462
2025-06-20 11:25:35.103,3.212529395200939e-05,33.71642172823064
2025-06-20 11:25:35.111,-9.829854066307313e-06,34.1021914732996
2025-06-20 11:25:35.119,-4.9658895223803214e-05,34.42447031554807
2025-06-20 11:25:35.127,-8.755066512973856e-05,34.68382468329856
2025-06-20 11:25:35.135,-0.0001238174492401,34.881665731874406
2025-06-20 11:25:35.142,-0.0001588878737568,35.02017721839744
2025-06-20 11:25:35.150,-0.0001932946709849,35.10222437806787
2025-06-20 11:25:35.158,-0.000227657559966,35.131246586711164
2025-06-20 11:25:35.166,-0.000262661658036,35.11113697645921
2025-06-20 11:25:35.174,-0.0002990320045137,35.046112440971285
2025-06-20 11:25:35.181,-0.0003375049309012,34.94057760349422
2025-06-20 11:25:35.189,-0.0003787971492919,34.798986312362494
2025-06-20 11:25:35.197,-0.0004235735482842,34.62570407462293
2025-06-20 11:25:35.205,-0.0004724147794009,34.424874553432176
2025-06-20 11:25:35.213,-0.0005257857823903,34.20029286401801
2025-06-20 11:25:35.220,-0.0005840064303072,33.95528793966034
2025-06-20 11:25:35.228,-0.0006472254705076,33.692615740336414
2025-06-20 11:25:35.236,-0.0007153988915123,33.41436457855707
2025-06-20 11:25:35.244,-0.0007882737545746,33.12187337276277
2025-06-20 11:25:35.252,-0.0008653783916869,32.81566323900242
2025-06-20 11:25:35.260,-0.0009460196968782,32.49538252470657
2025-06-20 11:25:35.267,-0.0010292880455899,32.15976519905966
2025-06-20 11:25:35.275,-0.0011140701806061,31.8066024603438
2025-06-20 11:25:35.283,-0.0011990701798727,31.43272750592314
2025-06-20 11:25:35.291,-0.0012828383293229,31.034013623298115
2025-06-20 11:25:35.299,-0.0013638073562114,30.605386075980764
2025-06-20 11:25:35.306,-0.0014403350901067,30.140848642607885
2025-06-20 11:25:35.314,-0.0015107522875464,29.63352608093081
2025-06-20 11:25:35.322,-0.0015734141257387,29.075724181617407
2025-06-20 11:25:35.330,-0.0016267537282245,28.459009397818814
2025-06-20 11:25:35.338,-0.0016693359930581,27.774310232383428
2025-06-20 11:25:35.345,-0.0016999099270837,27.012042578595747
2025-06-20 11:25:35.353,-0.0017174576460184,26.162260977547746
2025-06-20 11:25:35.361,-0.0017212381881954,25.2148372114046
2025-06-20 11:25:35.369,-0.0017108243214458,24.1596667522833
2025-06-20 11:25:35.377,-0.0016861306095514,22.98690232149229
2025-06-20 11:25:35.385,-0.0016474311584677,21.68721221221829
2025-06-20 11:25:35.392,-0.0015953656935336,20.252059155530905
2025-06-20 11:25:35.400,-0.0015309329357252,18.67399346677554
2025-06-20 11:25:35.408,-0.0014554706536562,16.946952137227854
2025-06-20 11:25:35.416,-0.001370622271119,15.066553607234905
2025-06-20 11:25:35.424,-0.0012782905061611,13.030376363242638
2025-06-20 11:25:35.431,-0.0011805792011251,10.838208432578972
2025-06-20 11:25:35.439,-0.0010797252629323,8.492254474409565
2025-06-20 11:25:35.447,-0.0009780234498983,5.997287604468863
2025-06-20 11:25:35.455,-0.0008777475700447,3.3607344026486587
2025-06-20 11:25:35.463,-0.0007810723914973,0.5926837237288527
2025-06-20 11:25:35.470,-0.0006900010364144,-2.2941871211613405
2025-06-20 11:25:35.478,-0.0006063026588724,-5.28477167660576
2025-06-20 11:25:35.486,-0.0005314647063767,-8.361778044307899
2025-06-20 11:25:35.494,-0.0004666630699912,-11.50605176585741
2025-06-20 11:25:35.502,-0.0004127520541183,-14.696968715727648
2025-06-20 11:25:35.517,-0.0003702744927195,-17.912885262717158
2025-06-20 11:25:35.525,-0.0003394906859365,-21.131629982204675
2025-06-20 11:25:35.533,-0.0003204233331217,-24.3310189678397
2025-06-20 11:25:35.541,-0.0003129144712628,-27.48937540331634
2025-06-20 11:25:35.549,-0.0003166896954566,-30.586033583241115
2025-06-20 11:25:35.556,-0.0003314246638091,-33.601808049434936
2025-06-20 11:25:35.564,-0.0003568090334737,-36.51940991703037
2025-06-20 11:25:35.572,-0.0003926034517548,-39.323794729583184
2025-06-20 11:25:35.580,-0.0004386859175352,-42.00242918171541
2025-06-20 11:25:35.588,-0.000495084617286,-44.54546762163
2025-06-20 11:25:35.595,-0.0005619951573997,-46.94583320733374
2025-06-20 11:25:35.603,-0.0006397809457148,-49.19920273628424
2025-06-20 11:25:35.611,-0.0007289563285261,-51.303898288646096
2025-06-20 11:25:35.619,-0.0008301529638093,-53.26069271179724
2025-06-20 11:25:35.627,-0.0009440707835708,-55.0725394325768
2025-06-20 11:25:35.635,-0.0010714157411738,-56.7442399453294
2025-06-20 11:25:35.642,-0.0012128273391102,-58.282064464528005
2025-06-20 11:25:35.650,-0.0013687996650703,-59.69334258352166
2025-06-20 11:25:35.658,-0.0015396002683848,-60.98604133216213
2025-06-20 11:25:35.666,-0.0017251916052596,-62.1683478058563
2025-06-20 11:25:35.674,-0.0019251599082924,-63.2482726137957
2025-06-20 11:25:35.681,-0.0021386561624981,-64.23328886155034
2025-06-20 11:25:35.689,-0.0023643533939553,-65.13001935877513
2025-06-20 11:25:35.697,-0.0026004237279008,-65.94398234949219
2025-06-20 11:25:35.705,-0.0028445377021945,-66.67940342039114
2025-06-20 11:25:35.713,-0.0030938871676183,-67.33909846016151
2025-06-20 11:25:35.720,-0.0033452317810744,-67.9244297110469
2025-06-20 11:25:35.728,-0.0035949676428937,-68.43533414963335
2025-06-20 11:25:35.736,-0.0038392151832287,-68.87042073297958
2025-06-20 11:25:35.744,-0.0040739221840153,-69.22713053175222
2025-06-20 11:25:35.752,-0.0042949770223517,-69.5019515275714
2025-06-20 11:25:35.760,-0.0044983268937874,-69.6906779473366
2025-06-20 11:25:35.767,-0.0046800958309914,-69.78870249781463
2025-06-20 11:25:35.775,-0.0048366976215636,-69.79132879684074
2025-06-20 11:25:35.783,-0.0049649391349585,-69.69409071417842
2025-06-20 11:25:35.791,-0.0050621100800076,-69.49306526109734
2025-06-20 11:25:35.799,-0.0051260558969075,-69.18516610508192
2025-06-20 11:25:35.806,-0.00515523139514,-68.76840571155947
2025-06-20 11:25:35.814,-0.0051487338438254,-68.24211548346977
2025-06-20 11:25:35.822,-0.005106315372439,-67.6071150214126
2025-06-20 11:25:35.830,-0.0050283756055494,-66.86582369250016
2025-06-20 11:25:35.838,-0.0049159363645355,-66.0223100026666
2025-06-20 11:25:35.845,-0.0047706010244553,-65.08227673655466
2025-06-20 11:25:35.853,-0.0045945017294104,-64.05298236055295
2025-06-20 11:25:35.861,-0.0043902381105426,-62.94310164883947
2025-06-20 11:25:35.869,-0.0041608113138184,-61.76253075382534
2025-06-20 11:25:35.877,-0.0039095569065022,-60.52214389410787
2025-06-20 11:25:35.885,-0.0036400795499611,-59.2335104157856
2025-06-20 11:25:35.892,-0.0033561913005965,-57.90858218278274
2025-06-20 11:25:35.900,-0.0030618542340157,-56.55936208378047
2025-06-20 11:25:35.908,-0.0027611270179616,-55.197564932801534
2025-06-20 11:25:35.916,-0.0024581142882161,-53.834282209186725
2025-06-20 11:25:35.924,-0.0021569173054557,-52.479661941561936
2025-06-20 11:25:35.931,-0.0018615843640461,-51.14261458612769
2025-06-20 11:25:35.939,-0.0015760596891463,-49.830554965521706
2025-06-20 11:25:35.947,-0.0013041299956168,-48.54918920010609
2025-06-20 11:25:35.955,-0.0010493684214204,-47.30235407093789
2025-06-20 11:25:35.963,-0.0008150761387368,-46.09191442008822
2025-06-20 11:25:35.970,-0.0006042225221251,-44.91772206469033
2025-06-20 11:25:35.978,-0.0004193852428853,-43.77763734835507
2025-06-20 11:25:35.986,-0.0002626920374009,-42.667611974576985
2025-06-20 11:25:35.994,-0.0001357661974745,-41.58182927895543
2025-06-20 11:25:36.002,-3.967808154060063e-05,-40.51289573063259
2025-06-20 11:25:36.010,2.5094890291115305e-05,-39.45207534095628
2025-06-20 11:25:36.017,5.869731771836394e-05,-38.38955692171699
2025-06-20 11:25:36.025,6.191183711407521e-05,-37.314742878921976
2025-06-20 11:25:36.033,3.6160496087781165e-05,-36.216547529856754
2025-06-20 11:25:36.041,-1.6509373767111e-05,-35.08369284586113
2025-06-20 11:25:36.049,-9.345489953128292e-05,-33.90499007652276
2025-06-20 11:25:36.056,-0.0001914824477568,-32.66959689046216
2025-06-20 11:25:36.064,-0.0003069062877275,-31.367241416259017
2025-06-20 11:25:36.072,-0.0004356195754215,-29.98840678319885
2025-06-20 11:25:36.080,-0.0005731758926174,-28.524472308626105
2025-06-20 11:25:36.088,-0.0007148795297153,-26.96781019536295
2025-06-20 11:25:36.095,-0.0008558827128491,-25.31183931407797
2025-06-20 11:25:36.103,-0.0009912879479642,-23.55104017651018
2025-06-20 11:25:36.111,-0.0011162535296206,-21.68093739650554
2025-06-20 11:25:36.119,-0.0012261000328908,-19.698057656798028
2025-06-20 11:25:36.127,-0.0013164153025728,-17.599872353872914
2025-06-20 11:25:36.135,-0.0013831551246355,-15.3847346128211
2025-06-20 11:25:36.142,-0.0014227364845291,-13.051820204802045
2025-06-20 11:25:36.150,-0.0014321201896398,-10.601081048384808
2025-06-20 11:25:36.158,-0.0014088797508323,-8.033218462765081
2025-06-20 11:25:36.166,-0.0013512538017558,-5.349681245003929
2025-06-20 11:25:36.174,-0.0012581799396214,-2.55269108889984
2025-06-20 11:25:36.181,-0.0011293086497605,0.3547049886789196
2025-06-20 11:25:36.189,-0.0009649968999279,3.368558501266167
2025-06-20 11:25:36.197,-0.0007662820010491,6.483925742504243
2025-06-20 11:25:36.205,-0.0005348373037076,9.694765015908386
2025-06-20 11:25:36.213,-0.0002729120779305,12.993835309392704
2025-06-20 11:25:36.220,1.674159627349686e-05,16.372607987522446
2025-06-20 11:25:36.228,0.0003309519137649,19.821203285181483
2025-06-20 11:25:36.236,0.0006662174061134,23.32836265339223
2025-06-20 11:25:36.244,0.001018801101631,26.88146636653753
2025-06-20 11:25:36.252,0.0013848260859725,30.466603352430035
2025-06-20 11:25:36.260,0.0017603700115763,34.06869710909998
2025-06-20 11:25:36.267,0.0021415564085694,37.67168803561959
2025-06-20 11:25:36.275,0.0025246409662001,41.25876879142243
2025-06-20 11:25:36.283,0.0029060912270682,44.81266570126108
2025-06-20 11:25:36.291,0.003282658351257,48.3159560217615
2025-06-20 11:25:36.299,0.0036514397894173,51.75140830895482
2025-06-20 11:25:36.306,0.0040099318706396,55.10233132601764
2025-06-20 11:25:36.314,0.0043560714438938,58.35291598072877
2025-06-20 11:25:36.322,0.0046882657936815,61.4885546962769
2025-06-20 11:25:36.330,0.0050054101243383,64.49612337228083
2025-06-20 11:25:36.338,0.005306892066195,67.36421263576865
2025-06-20 11:25:36.345,0.0055925829565999,70.08329733855325
2025-06-20 11:25:36.353,0.00586281605232,72.64583611645398
2025-06-20 11:25:36.361,0.0061183522511944,75.04629613884629
2025-06-20 11:25:36.369,0.0063603342799844,77.28110177053861
2025-06-20 11:25:36.377,0.006590230627416,79.34850955644448
2025-06-20 11:25:36.385,0.0068097707808002,81.24841553304373
2025-06-20 11:25:36.392,0.007020873590704,82.98210418177581
2025-06-20 11:25:36.400,0.0072255708608221,84.55195119174597
2025-06-20 11:25:36.408,0.0074259285210285,85.96109443461772
2025-06-20 11:25:36.416,0.0076239679455651,87.21308904570611
2025-06-20 11:25:36.424,0.0078215900910521,88.31156317248944
2025-06-20 11:25:36.431,0.0080205051214147,89.25989077561961
2025-06-20 11:25:36.439,0.0082221700053087,90.06089688453707
2025-06-20 11:25:36.447,0.0084277361662805,90.71660900056504
2025-06-20 11:25:36.455,0.0086380086625851,91.22806602219418
2025-06-20 11:25:36.463,0.0088534176911751,91.5951932873508
2025-06-20 11:25:36.470,0.0090740025915508,91.81674924884804
2025-06-20 11:25:36.478,0.009299408051697,91.8903460828064
2025-06-20 11:25:36.486,0.0095288918889567,91.81254332001404
2025-06-20 11:25:36.494,0.0097613435536432,91.57901050909896
2025-06-20 11:25:36.502,0.0099953123583057,91.18475206951436
2025-06-20 11:25:36.510,0.0102290443767306,90.6243849584976
2025-06-20 11:25:36.517,0.0104605269908342,89.89245763730104
2025-06-20 11:25:36.525,0.0106875401691659,88.98379714651071
2025-06-20 11:25:36.533,0.0109077137022474,87.89386993944272
2025-06-20 11:25:36.541,0.0111185897671948,86.61914150648524
2025-06-20 11:25:36.549,0.0113176902974221,85.15741976381477
2025-06-20 11:25:36.556,0.0115025886193294,83.50816767173417
2025-06-20 11:25:36.564,0.0116709846526859,81.67277156413425
2025-06-20 11:25:36.572,0.0118207826908737,79.65475316447375
2025-06-20 11:25:36.580,0.0119501704225209,77.45991517823165
2025-06-20 11:25:36.588,0.0120576974170323,75.09641263012033
2025-06-20 11:25:36.595,0.0121423507590072,72.57474470296609
2025-06-20 11:25:36.603,0.012203624950938,69.90766467894694
2025-06-20 11:25:36.611,0.0122415827605268,67.11000861812465
2025-06-20 11:25:36.619,0.0122569034827504,64.19844655456701
2025-06-20 11:25:36.627,0.012250915091595,61.19116314662757
2025-06-20 11:25:36.635,0.0122256068313459,58.10747775423973
2025-06-20 11:25:36.642,0.0121836188235057,54.96741667272077
2025-06-20 11:25:36.650,0.0121282052686417,51.79125256312352
2025-06-20 11:25:36.658,0.0120631679669523,48.5990278358219
2025-06-20 11:25:36.666,0.0119927573471584,45.41007975507513
2025-06-20 11:25:36.674,0.011921539067905,42.24258527524197
2025-06-20 11:25:36.681,0.0118542255231877,39.11314308442302
2025-06-20 11:25:36.689,0.0117954731676226,36.03640905156188
2025-06-20 11:25:36.697,0.0117496483824452,33.02479931171783
2025-06-20 11:25:36.705,0.0117205665410787,30.088272669712648
2025-06-20 11:25:36.713,0.0117112109316492,27.234200963292004
2025-06-20 11:25:36.720,0.0117234401818555,24.46733262226024
2025-06-20 11:25:36.728,0.0117576947411375,21.789851012230063
2025-06-20 11:25:36.736,0.011812714756338,19.201525389753108
2025-06-20 11:25:36.744,0.0118852832820449,16.699948558391867
2025-06-20 11:25:36.752,0.0119700101170533,14.28085174409727
2025-06-20 11:25:36.760,0.0120591725449964,11.938483936354563
2025-06-20 11:25:36.767,0.0121426297586852,9.666040090789092
2025-06-20 11:25:36.775,0.0122078276277567,7.456120273230134
2025-06-20 11:25:36.783,0.0122399095623496,5.301200154233411
2025-06-20 11:25:36.791,0.0122219473081494,3.194092341381616
2025-06-20 11:25:36.799,0.012135302222231,1.128377958793218
2025-06-20 11:25:36.806,0.0119601223796918,-0.9012112748708244
2025-06-20 11:25:36.814,0.011675973201105,-2.8984784109351343
2025-06-20 11:25:36.822,0.0112625891275614,-4.865529244325405
2025-06-20 11:25:36.830,0.0107007221471812,-6.80263438265386
2025-06-20 11:25:36.838,0.0099730515369743,-8.7081924460042
2025-06-20 11:25:36.845,0.0090651100157124,-10.578796417575097
2025-06-20 11:25:36.853,0.0079661758908334,-12.40939985258792
2025-06-20 11:25:36.861,0.0066700790100053,-14.19357434980673
2025-06-20 11:25:36.869,0.0051758700310618,-15.92384472577237
2025-06-20 11:25:36.877,0.0034883072056192,-17.59208403390985
2025-06-20 11:25:36.885,0.0016181221655498,-19.189947236599423
2025-06-20 11:25:36.892,-0.0004179641213003,-20.709320207354427
2025-06-20 11:25:36.900,-0.0025974921798219,-22.14275997139373
2025-06-20 11:25:36.908,-0.0048927847579117,-23.48390275126777
2025-06-20 11:25:36.916,-0.0072717251840761,-24.727818433073644
2025-06-20 11:25:36.924,-0.0096987647582001,-25.87129336738486
2025-06-20 11:25:36.931,-0.0121361143496763,-26.91302773390259
2025-06-20 11:25:36.939,-0.0145450608341702,-27.85373873206437
2025-06-20 11:25:36.947,-0.0168873381785776,-28.69616627785409
2025-06-20 11:25:36.955,-0.0191264777187462,-29.44498333597668
2025-06-20 11:25:36.963,-0.0212290633813691,-30.10661813967932
2025-06-20 11:25:36.970,-0.0231658249543042,-30.689000025053797
2025-06-20 11:25:36.978,-0.0249125147089031,-31.201244182006416
2025-06-20 11:25:36.986,-0.0264505280331026,-31.65329313758108
2025-06-20 11:25:36.994,-0.0277672456129297,-32.05553416203704
2025-06-20 11:25:37.002,-0.0288560917087288,-32.41841202687752
2025-06-20 11:25:37.010,-0.0297163191110806,-32.75205572445784
2025-06-20 11:25:37.017,-0.0303525456407115,-33.06593602476108
2025-06-20 11:25:37.025,-0.0307740790544891,-33.36856828750599
2025-06-20 11:25:37.033,-0.0309940765711177,-33.667271973944445
2025-06-20 11:25:37.041,-0.0310285916167895,-33.967995005876766
2025-06-20 11:25:37.049,-0.0308955635496055,-34.27520767115825
2025-06-20 11:25:37.056,-0.030613805981906,-34.591867337500574
2025-06-20 11:25:37.064,-0.0302020461096777,-34.91945196956165
2025-06-20 11:25:37.072,-0.0296780616664443,-35.258057491400656
2025-06-20 11:25:37.080,-0.0290579543680578,-35.60655150387131
2025-06-20 11:25:37.088,-0.0283555896267285,-35.9627738187524
2025-06-20 11:25:37.095,-0.0275822224125222,-36.3237727381015
2025-06-20 11:25:37.103,-0.0267463188511789,-36.68606499342191
2025-06-20 11:25:37.111,-0.0258535728702412,-37.04590675435004
2025-06-20 11:25:37.119,-0.0249071073803109,-37.399563103599
2025-06-20 11:25:37.127,-0.0239078405475488,-37.74356383140197
2025-06-20 11:25:37.135,-0.022854990048937,-38.07493429322711
2025-06-20 11:25:37.142,-0.0217466820671462,-38.391391346018246
2025-06-20 11:25:37.150,-0.0205806273664759,-38.691495967616326
2025-06-20 11:25:37.158,-0.0193548242664316,-38.97475600948209
2025-06-20 11:25:37.166,-0.0180682478353741,-39.2416745774807
2025-06-20 11:25:37.174,-0.0167214861881562,-39.49374172575195
2025-06-20 11:25:37.181,-0.0153172882456234,-39.73336943176363
2025-06-20 11:25:37.189,-0.0138609924360376,-39.96377213965836
2025-06-20 11:25:37.197,-0.0123608123004717,-40.18879744686606
2025-06-20 11:25:37.205,-0.0108279625412898,-40.41271368576368
2025-06-20 11:25:37.213,-0.0092766174546855,-40.6399631276761
2025-06-20 11:25:37.220,-0.007723702574987,-40.87489121484486
2025-06-20 11:25:37.228,-0.0061885292357144,-41.121463511142885
2025-06-20 11:25:37.236,-0.0046922899461568,-41.38298286718781
2025-06-20 11:25:37.244,-0.0032574393076426,-41.661819555962936
2025-06-20 11:25:37.252,-0.0019069901867039,-41.95916682149002
2025-06-20 11:25:37.260,-0.000663757815244,-42.27483340000004
2025-06-20 11:25:37.267,0.0004504146395189,-42.60708315093539
2025-06-20 11:25:37.275,0.0014154165786165,-42.95253002864712
2025-06-20 11:25:37.283,0.0022135868118291,-43.30609431932688
2025-06-20 11:25:37.291,0.0028303608565896,-43.6610234769317
2025-06-20 11:25:37.299,0.0032548272500002,-44.008978152872906
2025-06-20 11:25:37.306,0.0034801759371403,-44.34018126953256
2025-06-20 11:25:37.314,0.0035040260645014,-44.64362537502247
2025-06-20 11:25:37.322,0.0033286244454193,-44.90733116111646
2025-06-20 11:25:37.330,0.0029609096574976,-45.11864802814405
2025-06-20 11:25:37.338,0.0024124403059211,-45.26458599964816
2025-06-20 11:25:37.345,0.0016991895323049,-45.33216714191001
2025-06-20 11:25:37.353,0.0008412114146689,-45.30878391966888
2025-06-20 11:25:37.361,-0.0001378114957571,-45.182551612896205
2025-06-20 11:25:37.369,-0.001211126664135,-44.94264204514779
2025-06-20 11:25:37.377,-0.0023495597997774,-44.57958646762977
2025-06-20 11:25:37.385,-0.0035222334123483,-44.08553654479826
2025-06-20 11:25:37.392,-0.0046973336912033,-43.45447401837925
2025-06-20 11:25:37.400,-0.0058429018566659,-42.682361769511374
2025-06-20 11:25:37.408,-0.0069276253422941,-41.76723158423767
2025-06-20 11:25:37.416,-0.0079216047219154,-40.70920683340447
2025-06-20 11:25:37.424,-0.0087970742185427,-39.510461339806135
2025-06-20 11:25:37.431,-0.0095290565806084,-38.17511873744424
2025-06-20 11:25:37.439,-0.0100959365539504,-36.70909944195002
2025-06-20 11:25:37.447,-0.0104799406494187,-35.119924768629055
2025-06-20 11:25:37.455,-0.0106675141111167,-33.41648959402488
2025-06-20 11:25:37.463,-0.0106495888003798,-31.60881612790284
2025-06-20 11:25:37.470,-0.0104217381258047,-29.70780176355104
2025-06-20 11:25:37.478,-0.0099842172519444,-27.724973585870988
2025-06-20 11:25:37.486,-0.0093418887479017,-25.672260982339274
2025-06-20 11:25:37.494,-0.008504035794112,-23.56179601947831
2025-06-20 11:25:37.502,-0.0074840672867251,-21.40574895622626
2025-06-20 11:25:37.510,-0.006299121837465,-19.216203628453695
2025-06-20 11:25:37.517,-0.0049695807850601,-17.00507462305165
2025-06-20 11:25:37.525,-0.003518503762943,-14.784065322867376
2025-06-20 11:25:37.533,-0.001971003789665,-12.564663188042774
2025-06-20 11:25:37.541,-0.0003535818003563,-10.358166174436308
2025-06-20 11:25:37.549,0.0013065574681838,-8.175732091865763
2025-06-20 11:25:37.556,0.0029821856224133,-6.02844107295839
2025-06-20 11:25:37.564,0.0046467048339526,-3.927360236948695
2025-06-20 11:25:37.572,0.0062747560379901,-1.8835991551360185
2025-06-20 11:25:37.580,0.007842763717318,0.0916550912105137
2025-06-20 11:25:37.588,0.0093294031506858,1.9871335834471795
2025-06-20 11:25:37.595,0.0107159796887724,3.791520689703943
2025-06-20 11:25:37.603,0.0119867136366137,5.493535076997721
2025-06-20 11:25:37.611,0.0131289284686095,7.082060170246378
2025-06-20 11:25:37.619,0.0141331440333486,8.546324290959426
2025-06-20 11:25:37.627,0.0149930797923603,9.876127121438362
2025-06-20 11:25:37.635,0.0157055758486711,11.062105513668978
2025-06-20 11:25:37.642,0.0162704415857174,12.09602823948872
2025-06-20 11:25:37.650,0.0166902431703888,12.971106309588356
2025-06-20 11:25:37.658,0.0169700419192253,13.68230320428607
2025-06-20 11:25:37.666,0.0171170955208262,14.226627948384692
2025-06-20 11:25:37.674,0.0171405333661006,14.603393560457263
2025-06-20 11:25:37.681,0.0170510159553424,14.814424084115284
2025-06-20 11:25:37.689,0.0168603869441015,14.864195161457769
2025-06-20 11:25:37.697,0.0165813253386865,14.7598958513527
2025-06-20 11:25:37.705,0.0162270048878513,14.511402962849242
2025-06-20 11:25:37.713,0.0158107676522695,14.131163342039134
2025-06-20 11:25:37.720,0.0153458186358913,13.633984062911416
2025-06-20 11:25:37.728,0.0148449478839742,13.036735061093948
2025-06-20 11:25:37.736,0.0143202854766725,12.357973136211337
2025-06-20 11:25:37.744,0.0137830934468036,11.61750015687174
2025-06-20 11:25:37.752,0.0132435970129542,10.835871491784076
2025-06-20 11:25:37.760,0.0127108558831776,10.03387299510043
2025-06-20 11:25:37.767,0.0121926749446287,9.23198621153399
2025-06-20 11:25:37.775,0.0116955524928068,8.449861827553274
2025-06-20 11:25:37.783,0.0112246632699115,7.705820829053282
2025-06-20 11:25:37.791,0.0107838729662924,7.016401432179943
2025-06-20 11:25:37.799,0.0103757804997334,6.395967765816327
2025-06-20 11:25:37.806,0.0100017843155131,5.856393650284645
2025-06-20 11:25:37.814,0.0096621690880176,5.406831781923057
2025-06-20 11:25:37.822,0.0093562094439418,5.0535753270307415
2025-06-20 11:25:37.830,0.0090822875356417,4.8000154673110575
2025-06-20 11:25:37.838,0.0088380213698091,4.646694935743796
2025-06-20 11:25:37.846,0.0086204007361643,4.591454153752339
2025-06-20 11:25:37.853,0.0084259274767601,4.629663342253883
2025-06-20 11:25:37.861,0.0082507567901782,4.754531033517341
2025-06-20 11:25:37.869,0.0080908363076295,4.957476844922195
2025-06-20 11:25:37.877,0.0079420397978076,5.228554261844125
2025-06-20 11:25:37.885,0.0078002925601903,5.556907572877682
2025-06-20 11:25:37.892,0.0076616858761324,5.931246050606514
2025-06-20 11:25:37.900,0.0075225783053154,6.340318004759415
2025-06-20 11:25:37.908,0.0073796821004534,6.773367462822773
2025-06-20 11:25:37.916,0.0072301334952392,7.220556943632605
2025-06-20 11:25:37.924,0.0070715460432289,7.673341048249098
2025-06-20 11:25:37.931,0.0069020465507952,8.12477735505888
2025-06-20 11:25:37.939,0.0067202935119259,8.569763328930854
2025-06-20 11:25:37.947,0.00652547836441,9.005190594347342
2025-06-20 11:25:37.955,0.006317310335538,9.430010924892132
2025-06-20 11:25:37.963,0.0060959860880768,9.8452115880419
2025-06-20 11:25:37.971,0.005862145785262,10.253701152403552
2025-06-20 11:25:37.978,0.0056168175526898,10.660110393009948
2025-06-20 11:25:37.986,0.0053613526157822,11.070516381145866
2025-06-20 11:25:37.994,0.0050973536402166,11.49210106398298
2025-06-20 11:25:38.002,0.0048265990108942,11.93275846072892
2025-06-20 11:25:38.010,0.004550965935988,12.400666864634204
2025-06-20 11:25:38.017,0.0042723553166163,12.90384400544766
2025-06-20 11:25:38.025,0.003992621253959,13.44970389460275
2025-06-20 11:25:38.033,0.0037135078648351,14.04463399224788
2025-06-20 11:25:38.041,0.0034365957317908,14.693610397000256
2025-06-20 11:25:38.049,0.0031632598266134,15.399867011383227
2025-06-20 11:25:38.056,0.0028946401590781,16.164632173535708
2025-06-20 11:25:38.064,0.0026316257788863,16.986943208866847
2025-06-20 11:25:38.072,0.0023748521397125,17.863545914334587
2025-06-20 11:25:38.080,0.002124711227387,18.78888232739516
2025-06-20 11:25:38.088,0.0018813732638003,19.755166437779643
2025-06-20 11:25:38.096,0.001644818261513,20.75254395177121
2025-06-20 11:25:38.103,0.0014148752794315,21.76932897508352
2025-06-20 11:25:38.111,0.0011912669488617,22.79230767042316
2025-06-20 11:25:38.119,0.0009736566929758,23.80709665988778
2025-06-20 11:25:38.127,0.000761696030299,24.79854223249986
2025-06-20 11:25:38.135,0.0005550694218186,25.751145302682588
2025-06-20 11:25:38.142,0.0003535342867055,26.64949654340992
2025-06-20 11:25:38.150,0.0001569540760731,27.47870617460285
2025-06-20 11:25:38.158,-3.467733061445071e-05,28.224813505452765
2025-06-20 11:25:38.166,-0.000221221155293,28.8751624845738
2025-06-20 11:25:38.174,-0.000402389866438,29.41873116511845
2025-06-20 11:25:38.181,-0.000577754059464,29.846405080271232
2025-06-20 11:25:38.189,-0.0007467596536036,30.15118695646445
2025-06-20 11:25:38.197,-0.0009087544820666,30.32833784932918
2025-06-20 11:25:38.205,-0.0010630228766365,30.375447535138825
2025-06-20 11:25:38.213,-0.001208826408286,30.292434690771053
2025-06-20 11:25:38.221,-0.0013454485668984,30.0814799269373
2025-06-20 11:25:38.228,-0.0014722408927358,29.746897006648688
2025-06-20 11:25:38.236,-0.0015886679657884,29.29494950712631
2025-06-20 11:25:38.244,-0.0016943487371145,28.7336217060339
2025-06-20 11:25:38.252,-0.0017890919070802,28.072353549037903
2025-06-20 11:25:38.260,-0.0018729233574447,27.32175016970587
2025-06-20 11:25:38.267,-0.0019461040050726,26.493276596847046
2025-06-20 11:25:38.275,-0.0020091368738717,25.5989480350011
2025-06-20 11:25:38.283,-0.0020627626810819,24.651025495495546
2025-06-20 11:25:38.291,-0.0021079438047998,23.6617256502936
2025-06-20 11:25:38.299,-0.0021458371443577,22.642952637586188
2025-06-20 11:25:38.306,-0.0021777570707696,21.60605822044702
2025-06-20 11:25:38.314,-0.002205130311317,20.561635242117653
2025-06-20 11:25:38.322,-0.0022294451376478,19.51934779328137
2025-06-20 11:25:38.330,-0.0022521975650716,18.48779997134478
2025-06-20 11:25:38.338,-0.0022748373664856,17.474443630312116
2025-06-20 11:25:38.346,-0.0022987165430275,16.485524147342808
2025-06-20 11:25:38.353,-0.0023250425378694,15.52606201848431
2025-06-20 11:25:38.361,-0.0023548380330177,14.59986708704582
2025-06-20 11:25:38.369,-0.0023889087084756,13.709581440649597
2025-06-20 11:25:38.377,-0.0024278199016592,12.856746508373169
2025-06-20 11:25:38.385,-0.0024718826934428,12.041889648629342
2025-06-20 11:25:38.392,-0.0025211495707029,11.264625522389393
2025-06-20 11:25:38.400,-0.0025754194764395,10.523767759000972
2025-06-20 11:25:38.408,-0.0026342517581208,9.817446796014854
2025-06-20 11:25:38.416,-0.002696988261825,9.143230257939504
2025-06-20 11:25:38.424,-0.0027627825918079,8.498242778927414
2025-06-20 11:25:38.431,-0.0028306353593144,7.87928272193977
2025-06-20 11:25:38.439,-0.0028994340774615,7.282933762260805
2025-06-20 11:25:38.447,-0.0029679962176531,6.705669760442783
2025-06-20 11:25:38.455,-0.0030351138261813,6.14395173695549
2025-06-20 11:25:38.463,-0.003099598016844,5.594316078390533
2025-06-20 11:25:38.471,-0.0031603216360652,5.0534533627705
2025-06-20 11:25:38.478,-0.0032162584749476,4.518277402326799
2025-06-20 11:25:38.486,-0.003266517575761,3.985984275742391
2025-06-20 11:25:38.494,-0.0033103714072052,3.454101263077587
2025-06-20 11:25:38.502,-0.0033472769346869,2.9205257088146706
2025-06-20 11:25:38.510,-0.0033768888965214,2.383553927403789
2025-06-20 11:25:38.517,-0.0033990649205166,1.8419003392623587
2025-06-20 11:25:38.525,-0.0034138624574468,1.2947070915354593
2025-06-20 11:25:38.533,-0.0034215278415791,0.7415444858158112
2025-06-20 11:25:38.541,-0.0034224780988376,0.1824026143553565
2025-06-20 11:25:38.549,-0.0034172764046092,-0.3823252958136385
2025-06-20 11:25:38.556,-0.0034066023422602,-0.9518672167344512
2025-06-20 11:25:38.564,-0.003391218327418,-1.5251035969303135
2025-06-20 11:25:38.572,-0.0033719337396778,-2.1006047366050016
2025-06-20 11:25:38.580,-0.0033495684389808,-2.676673323741006
2025-06-20 11:25:38.588,-0.0033249174252883,-3.2513911274525134
2025-06-20 11:25:38.596,-0.0032987183936383,-3.82266880019477
2025-06-20 11:25:38.603,-0.0032716237973414,-4.388297711948152
2025-06-20 11:25:38.611,-0.003244178741518,-4.946002721819668
2025-06-20 11:25:38.619,-0.0032168056189292,-5.493494781934441
2025-06-20 11:25:38.627,-0.0031897959278865,-6.028522264289359
2025-06-20 11:25:38.635,-0.0031633092257616,-6.548919907590825
2025-06-20 11:25:38.642,-0.0031373787076233,-7.052654306008633
2025-06-20 11:25:38.650,-0.0031119225043779,-7.537864912018062
2025-06-20 11:25:38.658,-0.0030867595237796,-8.002899603992484
2025-06-20 11:25:38.666,-0.0030616285388487,-8.446343978194262
2025-06-20 11:25:38.674,-0.0030362092387149,-8.867043668444712
2025-06-20 11:25:38.681,-0.0030101440467993,-9.264119177029675
2025-06-20 11:25:38.689,-0.0029830596414158,-9.636972910496706
2025-06-20 11:25:38.697,-0.0029545872656908,-9.985288338402611
2025-06-20 11:25:38.705,-0.0029243810783445,-10.309021416800498
2025-06-20 11:25:38.713,-0.0028921339675366,-10.608384636781707
2025-06-20 11:25:38.721,-0.0028575904203802,-10.883824278407335
2025-06-20 11:25:38.728,-0.0028205562052927,-11.13599168080308
2025-06-20 11:25:38.736,-0.0027809047782928,-11.365709580301203
2025-06-20 11:25:38.744,-0.0027385804637448,-11.573934806919803
2025-06-20 11:25:38.752,-0.0026935985818414,-11.76171884075604
2025-06-20 11:25:38.760,-0.0026460427971235,-11.930167885246922
2025-06-20 11:25:38.767,-0.0025960600432151,-12.080404187473226
2025-06-20 11:25:38.775,-0.0025438534381213,-12.213530308289698
2025-06-20 11:25:38.783,-0.0024896736419947,-12.330597909865338
2025-06-20 11:25:38.791,-0.0024338091259344,-12.432582391069872
2025-06-20 11:25:38.799,-0.0023765758173101,-12.520364379520965
2025-06-20 11:25:38.806,-0.0023183065658992,-12.59471870643268
2025-06-20 11:25:38.814,-0.0022593408376402,-12.656311069198676
2025-06-20 11:25:38.822,-0.0022000149911134,-12.705702145762327
2025-06-20 11:25:38.830,-0.0021406534281341,-12.743358482584991
2025-06-20 11:25:38.838,-0.0020815608363104,-12.769669057309324
2025-06-20 11:25:38.846,-0.0020230156619138,-12.784966046831611
2025-06-20 11:25:38.853,-0.0019652648777744,-12.78954804216537
2025-06-20 11:25:38.861,-0.0019085200658316,-12.78370376999971
2025-06-20 11:25:38.869,-0.0018529548305939,-12.767734325501804
2025-06-20 11:25:38.877,-0.0017987035736232,-12.741971998790568
2025-06-20 11:25:38.885,-0.0017458616437915,-12.706793985125506
2025-06-20 11:25:38.892,-0.0016944868189046,-12.662629595525429
2025-06-20 11:25:38.900,-0.00164460200555,-12.609960014749008
2025-06-20 11:25:38.908,-0.0015961990002591,-12.549310166231884
2025-06-20 11:25:38.916,-0.0015492431227182,-12.48123281101975
2025-06-20 11:25:38.924,-0.0015036784676192,-12.406285597415708
2025-06-20 11:25:38.931,-0.0014594334149207,-12.325002354944615
2025-06-20 11:25:38.939,-0.0014164259366842,-12.237860452791118
2025-06-20 11:25:38.947,-0.0013745682113722,-12.145246477857873
2025-06-20 11:25:38.955,-0.0013337701358938,-12.047422787903196
2025-06-20 11:25:38.963,-0.0012939414866097,-11.944497622584286
2025-06-20 11:25:38.971,-0.0012549926704863,-11.836401385194748
2025-06-20 11:25:38.978,-0.0012168341862709,-11.722871435418938
2025-06-20 11:25:38.986,-0.0011793750643189,-11.60344727245768
2025-06-20 11:25:38.994,-0.0011425206649055,-11.477477368049165
2025-06-20 11:25:39.002,-0.0011061702839682,-11.344138173301143
2025-06-20 11:25:39.010,-0.0010702150392718,-11.2024650261881
2025-06-20 11:25:39.017,-0.0010345364876494,-11.05139388881908
2025-06-20 11:25:39.025,-0.0009990063556079,-10.88981210488261
2025-06-20 11:25:39.033,-0.0009634876532625,-10.716615739775976
2025-06-20 11:25:39.041,-0.0009278372889941,-10.530770589634212
2025-06-20 11:25:39.049,-0.000891910116334,-10.331373650523606
2025-06-20 11:25:39.056,-0.0008555641434771,-10.117711742497358
2025-06-20 11:25:39.064,-0.0008186664595296,-9.889314086024507
2025-06-20 11:25:39.072,-0.0007810993324725,-9.64599591511106
2025-06-20 11:25:39.080,-0.0007427659387957,-9.387890655231518
2025-06-20 11:25:39.088,-0.0007035952715647,-9.115468762152982
2025-06-20 11:25:39.096,-0.0006635458944837,-8.829541974073148
2025-06-20 11:25:39.103,-0.000622608328523,-8.531252436716734
2025-06-20 11:25:39.111,-0.0005808059606152,-8.222046882726344
2025-06-20 11:25:39.119,-0.0005381944471338,-7.903636750916444
2025-06-20 11:25:39.127,-0.0004948596472517,-7.577945791184475
2025-06-20 11:25:39.135,-0.0004509141626163,-7.247047294574364
2025-06-20 11:25:39.142,-0.000406492582323,-6.913093595328742
2025-06-20 11:25:39.150,-0.0003617455469818,-6.578240894124951
2025-06-20 11:25:39.158,-0.0003168327753967,-6.244572729593357
2025-06-20 11:25:39.166,-0.0002719152574296,-5.914025556695098
2025-06-20 11:25:39.174,-0.0002271468950201,-5.588319851937315
2025-06-20 11:25:39.181,-0.0001826659538905,-5.268899938053392
2025-06-20 11:25:39.189,-0.0001385867806255,-4.956885303025864
2025-06-20 11:25:39.197,-9.499234411164528e-05,-4.653035603661843
2025-06-20 11:25:39.205,-5.192822600641739e-05,-4.3577308366114735
2025-06-20 11:25:39.213,-9.39865100711918e-06,-4.07096738255736
2025-06-20 11:25:39.221,3.263499288074845e-05,-3.792369834902596
2025-06-20 11:25:39.228,7.425290041476802e-05,-3.521217762766004
2025-06-20 11:25:39.236,0.0001155728424756,-3.25648587562883
2025-06-20 11:25:39.244,0.0001567435883457,-2.996895492625588
2025-06-20 11:25:39.252,0.0001979360839903,-2.7409748021807743
2025-06-20 11:25:39.260,0.0002393327987749,-2.487125143346773
2025-06-20 11:25:39.267,0.0002811156982921,-2.233690448422211
2025-06-20 11:25:39.275,0.0003234533289673,-1.97902704024096
2025-06-20 11:25:39.283,0.0003664875291349,-1.7215711481082507
2025-06-20 11:25:39.291,0.0004103203339874,-1.4599017607426432
2025-06-20 11:25:39.299,0.000455001736204,-1.1927967421351753
2025-06-20 11:25:39.306,0.0005005190835018,-0.9192804725129124
2025-06-20 11:25:39.314,0.0005467889767725,-0.6386616253410607
2025-06-20 11:25:39.322,0.0005936525037316,-0.3505600447628862
2025-06-20 11:25:39.330,0.0006408744686706,-0.0549220444114518
2025-06-20 11:25:39.338,0.0006881469834732,0.2479761914067862
2025-06-20 11:25:39.346,0.0007350974236315,0.5575370599457631
2025-06-20 11:25:39.353,0.0007813003799541,0.8728614379724502
2025-06-20 11:25:39.361,0.0008262929070626,1.192779260227815
2025-06-20 11:25:39.369,0.0008695921406757,1.5158896699128486
2025-06-20 11:25:39.377,0.0009107142564382,1.8406093107767756
2025-06-20 11:25:39.385,0.000949193753253,2.1652270353068306
2025-06-20 11:25:39.392,0.0009846021171298,2.487963043322803
2025-06-20 11:25:39.400,0.0010165650224203,2.807030254357203
2025-06-20 11:25:39.408,0.0010447773418898,3.120695575137646
2025-06-20 11:25:39.416,0.001069015361401,3.427338669037402
2025-06-20 11:25:39.424,0.0010891457271272,3.725505879399898
2025-06-20 11:25:39.431,0.001105130791597,4.013957107068934
2025-06-20 11:25:39.439,0.0011170301682075,4.291703693367365
2025-06-20 11:25:39.447,0.0011249984510479,4.558035708452275
2025-06-20 11:25:39.455,0.0011292792069201,4.812537479094886
2025-06-20 11:25:39.463,0.0011301954982516,5.055090687331041
2025-06-20 11:25:39.471,0.0011281373479224,5.28586490439041
2025-06-20 11:25:39.478,0.0011235467083042,5.50529596579362
2025-06-20 11:25:39.486,0.0011169006434631,5.714053119935205
2025-06-20 11:25:39.494,0.0011086935633648,5.9129963738093645
2025-06-20 11:25:39.502,0.001099419436843,6.103125898972986
2025-06-20 11:25:39.510,0.0010895549300257,6.285525734040264
2025-06-20 11:25:39.517,0.0010795443592441,6.461304313107692
2025-06-20 11:25:39.525,0.0010697872144429,6.631534547086955
2025-06-20 11:25:39.533,0.0010606288051234,6.797196270220549
2025-06-20 11:25:39.541,0.0010523543219854,6.9591238225299685
2025-06-20 11:25:39.549,0.0010451863275431,7.117961363851396
2025-06-20 11:25:39.556,0.0010392854287859,7.274128210899517
2025-06-20 11:25:39.564,0.001034753682417,7.42779606832494
2025-06-20 11:25:39.572,0.0010316401576839,7.578879503839826
2025-06-20 11:25:39.580,0.0010299480138936,7.727040414564994
2025-06-20 11:25:39.588,0.0010296424032644,7.871706570912062
2025-06-20 11:25:39.596,0.0010306584838803,8.012103634185218
2025-06-20 11:25:39.603,0.0010329088582157,8.147299352282907
2025-06-20 11:25:39.611,0.0010362898676826,8.276257969332866
2025-06-20 11:25:39.619,0.0010406863749309,8.397902267187606
2025-06-20 11:25:39.627,0.0010459749342693,8.511180124834267
2025-06-20 11:25:39.635,0.0010520255327274,8.615132078044109
2025-06-20 11:25:39.642,0.0010587022980835,8.708956127036224
2025-06-20 11:25:39.650,0.0010658636608829,8.792066006928229
2025-06-20 11:25:39.658,0.0010733624336364,8.864139324121682
2025-06-20 11:25:39.666,0.0010810461758954,8.925152375711304
2025-06-20 11:25:39.674,0.0010887580839075,8.975399093366079
2025-06-20 11:25:39.681,0.0010963384950795,9.015492353290048
2025-06-20 11:25:39.689,0.0011036269482402,9.046346822212454
2025-06-20 11:25:39.697,0.0011104646264362,9.069143514203166
2025-06-20 11:25:39.705,0.0011166969674793,9.085277262991776
2025-06-20 11:25:39.713,0.0011221762515384,9.096289316276795
2025-06-20 11:25:39.721,0.0011267640064887,9.103788174956108
2025-06-20 11:25:39.728,0.0011303330733625,9.10936257181658
2025-06-20 11:25:39.736,0.0011327691802866,9.114491055823986
2025-06-20 11:25:39.744,0.0011339719310328,9.1204529755732
2025-06-20 11:25:39.752,0.0011338552090353,9.128245708918836
2025-06-20 11:25:39.760,0.0011323470793461,9.138512752139365
2025-06-20 11:25:39.767,0.0011293893273839,9.15148676887329
2025-06-20 11:25:39.775,0.0011249368276073,9.166950937986435
2025-06-20 11:25:39.783,0.0011189569845744,9.18422098162008
2025-06-20 11:25:39.791,0.0011114294948483,9.202149161755935
2025-06-20 11:25:39.799,0.0011023466122341,9.21915037254048
2025-06-20 11:25:39.806,0.0010917139659503,9.23324929737232
2025-06-20 11:25:39.814,0.0010795518184629,9.242146517105548
2025-06-20 11:25:39.822,0.0010658965193734,9.243300514654974
2025-06-20 11:25:39.830,0.0010508018654849,9.23402177082576
2025-06-20 11:25:39.838,0.0010343401080564,9.211574613511464
2025-06-20 11:25:39.846,0.0010166023992966,9.17328217640014
2025-06-20 11:25:39.853,0.0009976984967124,9.116629742667998
2025-06-20 11:25:39.861,0.0009777555576941,9.039361887407775
2025-06-20 11:25:39.869,0.0009569159024881,8.939569177636127
2025-06-20 11:25:39.877,0.0009353337238789,8.81576072134431
2025-06-20 11:25:39.885,0.0009131708593327,8.666919551975925
2025-06-20 11:25:39.892,0.000890591881039,8.492538662152832
2025-06-20 11:25:39.900,0.0008677588643549,8.29263642496956
2025-06-20 11:25:39.908,0.0008448262363265,8.067751120441393
2025-06-20 11:25:39.916,0.0008219360740792,7.818915271380836
2025-06-20 11:25:39.924,0.0007992141308178,7.547611438304343
2025-06-20 11:25:39.931,0.0007767667494449,7.2557119784626
2025-06-20 11:25:39.939,0.0007546787285857,6.945405991272233
2025-06-20 11:25:39.947,0.0007330121525788,6.619117204285882
2025-06-20 11:25:39.955,0.0007118061513946,6.279416860155425
2025-06-20 11:25:39.963,0.0006910774837226,5.9289357202994815
2025-06-20 11:25:39.971,0.0006708217549431,5.57027910204462
2025-06-20 11:25:39.978,0.0006510150376846,5.205948436043807
2025-06-20 11:25:39.986,0.0006316156880799,4.838272216999792
2025-06-20 11:25:39.994,0.0006125662537906,4.469348486596957
2025-06-20 11:25:40.002,0.000593795526269,4.101000202100676
2025-06-20 11:25:40.010,0.000575220936004,3.7347440714166704
2025-06-20 11:25:40.017,0.0005567515511463,3.371772727446729
2025-06-20 11:25:40.025,0.0005382918814833,3.012949509379925
2025-06-20 11:25:40.033,0.0005197465357955,2.6588146423897188
2025-06-20 11:25:40.041,0.0005010255920073,2.3096012746331045
2025-06-20 11:25:40.049,0.0004820503785324,1.965259640573108
2025-06-20 11:25:40.056,0.0004627592736297,1.6254875549065262
2025-06-20 11:25:40.064,0.0004431131207275,1.289765473615487
2025-06-20 11:25:40.072,0.0004230999206928,0.9573944578638752
2025-06-20 11:25:40.080,0.0004027385623636,0.6275355151364745
2025-06-20 11:25:40.088,0.0003820814333954,0.2992489453803408
2025-06-20 11:25:40.096,0.0003612157749077,-0.0284675324198223
2025-06-20 11:25:40.103,0.0003402636268455,-0.3566429666042099
2025-06-20 11:25:40.111,0.0003193802085527,-0.6863006483544158
2025-06-20 11:25:40.119,0.0002987506099266,-1.0184297371320312
2025-06-20 11:25:40.127,0.0002785847212632,-1.3539617698112654
2025-06-20 11:25:40.135,0.000259110406813,-1.6937526416314816
2025-06-20 11:25:40.142,0.0002405650472805,-2.038570481315868
2025-06-20 11:25:40.150,0.0002231857458831,-2.389089655528248
2025-06-20 11:25:40.158,0.0002071986822775,-2.745890925730916
2025-06-20 11:25:40.166,0.0001928082477557,-3.109467540784755
2025-06-20 11:25:40.174,0.0001801866503321,-3.480236783584753
2025-06-20 11:25:40.181,0.0001694646367687,-3.858556208142141
2025-06-20 11:25:40.189,0.0001607238763109,-4.244743519260839
2025-06-20 11:25:40.197,0.0001539914210617,-4.639098780242082
2025-06-20 11:25:40.205,0.0001492365147618,-5.041927408440209
2025-06-20 11:25:40.213,0.0001463698699392,-5.453562258250608
2025-06-20 11:25:40.221,0.0001452453777755,-5.874383018829272
2025-06-20 11:25:40.228,0.0001456640685779,-6.304831187582935
2025-06-20 11:25:40.236,0.0001473800291662,-6.745419029484179
2025-06-20 11:25:40.244,0.0001501079312448,-7.196731194722365
2025-06-20 11:25:40.252,0.0001535318299696,-7.659418031977346
2025-06-20 11:25:40.260,0.0001573149212846,-8.134180083200464
2025-06-20 11:25:40.267,0.0001611099616139,-8.621743752429484
2025-06-20 11:25:40.275,0.0001645700409421,-9.122828675173478
2025-06-20 11:25:40.283,0.0001673593729509,-9.638107846356888
2025-06-20 11:25:40.291,0.0001691637342292,-10.168162068390648
2025-06-20 11:25:40.299,0.0001697001501158,-10.713430735350796
2025-06-20 11:25:40.306,0.0001687254009296,-11.274161355832913
2025-06-20 11:25:40.314,0.0001660429357438,-11.850360520064047
2025-06-20 11:25:40.322,0.000161507853823,-12.441749222078773
2025-06-20 11:25:40.330,0.0001550297537669,-13.047725538039565
2025-06-20 11:25:40.338,0.0001465734364534,-13.6673376148725
2025-06-20 11:25:40.346,0.0001361576283342,-14.299269716189396
2025-06-20 11:25:40.353,0.0001238520168166,-14.9418436881346
2025-06-20 11:25:40.361,0.0001097729475837,-15.59303764115053
2025-06-20 11:25:40.369,9.407814480893988e-05,-16.250522903811202
2025-06-20 11:25:40.377,7.696079447984554e-05,-16.911719415864987
2025-06-20 11:25:40.385,5.864327028516725e-05,-17.573868727788497
2025-06-20 11:25:40.392,3.937067546058298e-05,-18.234122714600208
2025-06-20 11:25:40.400,1.9404259521456977e-05,-18.889645053906687
2025-06-20 11:25:40.408,-9.852911133795004e-07,-19.537721530030208
2025-06-20 11:25:40.416,-2.1524676697097265e-05,-20.17587437545592
2025-06-20 11:25:40.424,-4.194487088437379e-05,-20.80197520795139
2025-06-20 11:25:40.431,-6.198799070640083e-05,-21.41435071358275
2025-06-20 11:25:40.439,-8.141402750698043e-05,-22.01187509377069
2025-06-20 11:25:40.447,-0.0001000072377027,-22.594043452024213
2025-06-20 11:25:40.455,-0.0001175819174607,-23.16102073826843
2025-06-20 11:25:40.463,-0.0001339872749384,-23.7136615778002
2025-06-20 11:25:40.471,-0.0001491111768791,-24.253497264930985
2025-06-20 11:25:40.478,-0.0001628826475149,-24.782687372318783
2025-06-20 11:25:40.486,-0.0001752731033435,-25.303934780838105
2025-06-20 11:25:40.494,-0.000186296401744,-25.820364422959877
2025-06-20 11:25:40.502,-0.0001960078511196,-26.33536759545023
2025-06-20 11:25:40.510,-0.0002045023530778,-26.85241527040027
2025-06-20 11:25:40.517,-0.0002119118108273,-27.37484535223184
2025-06-20 11:25:40.525,-0.000218401868242,-27.905630227637133
2025-06-20 11:25:40.533,-0.0002241679906602,-28.447132170486828
2025-06-20 11:25:40.541,-0.0002294308876514,-29.00085513262313
2025-06-20 11:25:40.549,-0.0002344312983472,-29.567202122427844
2025-06-20 11:25:40.557,-0.0002394241906142,-30.145247710180467
2025-06-20 11:25:40.564,-0.0002446724562761,-30.732535182263646
2025-06-20 11:25:40.572,-0.0002504402135961,-31.3249074888874
2025-06-20 11:25:40.580,-0.000256985854616,-31.91638040070869
2025-06-20 11:25:40.588,-0.0002645549978482,-32.4990652338668
2025-06-20 11:25:40.596,-0.0002733735252031,-33.06314716061573
2025-06-20 11:25:40.603,-0.0002836408947826,-33.59692354201414
2025-06-20 11:25:40.611,-0.0002955239270307,-34.08690494983073
2025-06-20 11:25:40.619,-0.0003091512594494,-34.5179796365429
2025-06-20 11:25:40.627,-0.0003246086534272,-34.87364021633407
2025-06-20 11:25:40.635,-0.0003419353145479,-35.136269292410084
2025-06-20 11:25:40.642,-0.0003611213557345,-35.28747877026291
2025-06-20 11:25:40.650,-0.0003821064997305,-35.30849570349898
2025-06-20 11:25:40.658,-0.0004047801040129,-35.18058580160107
2025-06-20 11:25:40.666,-0.0004289826085323,-34.885504254053174
2025-06-20 11:25:40.674,-0.0004545085305786,-34.4059623443806
2025-06-20 11:25:40.682,-0.0004811111225547,-33.72609747453702
2025-06-20 11:25:40.689,-0.0005085087639363,-32.831933712160215
2025-06-20 11:25:40.697,-0.0005363931037703,-31.711819813989127
2025-06-20 11:25:40.705,-0.0005644389032147,-30.356831857683897
2025-06-20 11:25:40.713,-0.0005923154138597,-28.761128109422863
2025-06-20 11:25:40.721,-0.000619698950346,-26.92224454415321
2025-06-20 11:25:40.728,-0.0006462861053112,-24.841320515694964
2025-06-20 11:25:40.736,-0.0006718068722541,-22.52324547021574
2025-06-20 11:25:40.744,-0.0006960368499044,-19.97671935238949
2025-06-20 11:25:40.752,-0.000718807728731,-17.214221503025552
2025-06-20 11:25:40.760,-0.0007400153837703,-14.251885391342569
2025-06-20 11:25:40.767,-0.0007596250695371,-11.109279425129143
2025-06-20 11:25:40.775,-0.0007776733956203,-7.809097255174945
2025-06-20 11:25:40.783,-0.0007942669399969,-4.37676430386071
2025-06-20 11:25:40.791,-0.0008095775257128,-0.839970521679561
2025-06-20 11:25:40.799,-0.000823834342075,2.7718575941996675
2025-06-20 11:25:40.807,-0.0008373132311082,6.428130093696573
2025-06-20 11:25:40.814,-0.0008503235814075,10.097694164864684
2025-06-20 11:25:40.822,-0.0008631933727429,13.749443342612215
2025-06-20 11:25:40.830,-0.0008762529942837,17.352915996634803
2025-06-20 11:25:40.838,-0.0008898185158871,20.878864144446656
2025-06-20 11:25:40.846,-0.0009041751246106,24.299774855779248
2025-06-20 11:25:40.853,-0.0009195614468309,27.590328520649383
2025-06-20 11:25:40.861,-0.0009361554597672,30.727780955399567
2025-06-20 11:25:40.869,-0.0009540626547846,33.692259592811986
2025-06-20 11:25:40.877,-0.0009733070489447,36.4669676817687
2025-06-20 11:25:40.885,-0.0009938255516209,39.03829431420661
2025-06-20 11:25:40.892,-0.0010154660807945,41.39583198800364
2025-06-20 11:25:40.900,-0.0010379896906291,43.53230708998421
2025-06-20 11:25:40.908,-0.0010610768203905,45.44343195029981
2025-06-20 11:25:40.916,-0.0010843376076805,47.12768982204888
2025-06-20 11:25:40.924,-0.0011073260299337,48.58606616972745
2025-06-20 11:25:40.932,-0.001129557451517,49.82174095107916
2025-06-20 11:25:40.939,-0.0011505289646259,50.8397571455846
2025-06-20 11:25:40.947,-0.0011697417262218,51.646680656162
2025-06-20 11:25:40.955,-0.0011867243184361,52.25026594227506
2025-06-20 11:25:40.963,-0.0012010560127029,52.65914038765439
2025-06-20 11:25:40.971,-0.0012123887277595,52.88251852978844
2025-06-20 11:25:40.978,-0.0012204664667575,52.92995497237917
2025-06-20 11:25:40.986,-0.0012251411005649,52.811142182316246
2025-06-20 11:25:40.994,-0.0012263835011193,52.535756570767255
2025-06-20 11:25:41.002,-0.0012242891760366,52.11335341481069
2025-06-20 11:25:41.010,-0.0012190776923536,51.55330844017371
2025-06-20 11:25:41.017,-0.0012110853351519,50.86480140551196
2025-06-20 11:25:41.025,-0.0012007506947452,50.05683494055434
2025-06-20 11:25:41.033,-0.0011885932568931,49.13828030960892
2025-06-20 11:25:41.041,-0.0011751855630988,48.11794078844094
2025-06-20 11:25:41.049,-0.0011611200541376,47.00462301297971
2025-06-20 11:25:41.057,-0.001146972248379,45.80720699092368
2025-06-20 11:25:41.064,-0.0011332623655501,44.53470641309105
2025-06-20 11:25:41.072,-0.0011204177920127,43.19631236215783
2025-06-20 11:25:41.080,-0.0011087388177093,41.80141536274132
2025-06-20 11:25:41.088,-0.0010983698564177,40.35960280250799
2025-06-20 11:25:41.096,-0.0010892779651373,38.88063092533477
2025-06-20 11:25:41.103,-0.0010812399957969,37.37437269936554
2025-06-20 11:25:41.111,-0.0010738392015441,35.85074474491021
2025-06-20 11:25:41.119,-0.0010664716085208,34.319618034527245
2025-06-20 11:25:41.127,-0.0010583619666706,32.790718144748254
2025-06-20 11:25:41.135,-0.0010485886138984,31.27352138135521
2025-06-20 11:25:41.142,-0.0010361161193238,29.777153098251148
2025-06-20 11:25:41.150,-0.0010198341161917,28.31029400820262
2025-06-20 11:25:41.158,-0.0009986003423241,26.88109931137813
2025-06-20 11:25:41.166,-0.0009712856680044,25.49713415645925
2025-06-20 11:25:41.174,-0.0009368188861916,24.16532744021323
2025-06-20 11:25:41.182,-0.0008942292790183,22.89194439425994
2025-06-20 11:25:41.189,-0.0008426853978064,21.68257694172155
2025-06-20 11:25:41.197,-0.0007815290020507,20.54214954788148
2025-06-20 11:25:41.205,-0.0007103035934794,19.47493732099041
2025-06-20 11:25:41.213,-0.0006287773767259,18.4845924846215
2025-06-20 11:25:41.221,-0.0005369607379773,17.574175044463274
2025-06-20 11:25:41.228,-0.000435118447241,16.74618348228981
2025-06-20 11:25:41.236,-0.0003237767660815,16.00258158133242
2025-06-20 11:25:41.244,-0.0002037255052354,15.344817965384706
2025-06-20 11:25:41.252,-7.601487531540683e-05,14.77383556337416
2025-06-20 11:25:41.260,5.8053224395543794e-05,14.290068941484734
2025-06-20 11:25:41.267,0.0001969399760407,13.89342823354881
2025-06-20 11:25:41.275,0.000338891027223,13.583269212597894
2025-06-20 11:25:41.283,0.0004819649960669,13.358349854030628
2025-06-20 11:25:41.291,0.0006240694301482,13.216774521213146
2025-06-20 11:25:41.299,0.0007630042601025,13.155927640690471
2025-06-20 11:25:41.307,0.0008965124194712,13.172399415535038
2025-06-20 11:25:41.314,0.0010223368881055,13.261906743444092
2025-06-20 11:25:41.322,0.0011382829590956,13.41921305064045
2025-06-20 11:25:41.330,0.0012422840329773,13.6380512068188
2025-06-20 11:25:41.338,0.0013324687439473,13.911054026678348
2025-06-20 11:25:41.346,0.0014072267698249,14.229697065238929
2025-06-20 11:25:41.353,0.0014652703174271,14.584258461407924
2025-06-20 11:25:41.361,0.0015056880771474,14.963800472967144
2025-06-20 11:25:41.369,0.0015279884953457,15.35617707481674
2025-06-20 11:25:41.377,0.0015321295702174,15.748071554929684
2025-06-20 11:25:41.385,0.0015185329952287,16.125067432036328
2025-06-20 11:25:41.392,0.0014880812514559,16.471755234764636
2025-06-20 11:25:41.400,0.0014420970904625,16.77187673123573
2025-06-20 11:25:41.408,0.0013823056991502,17.008507095689446
2025-06-20 11:25:41.416,0.0013107806759335,17.164274268703085
2025-06-20 11:25:41.424,0.0012298757615417,17.221613447909352
2025-06-20 11:25:41.432,0.0011421450351249,17.163053288992177
2025-06-20 11:25:41.439,0.0010502549528709,16.971529061945834
2025-06-20 11:25:41.447,0.0009568920843578,16.63071675279523
2025-06-20 11:25:41.455,0.0008646706169893,16.12538097385575
2025-06-20 11:25:41.463,0.0007760436510926,15.44172858076741
2025-06-20 11:25:41.471,0.0006932220717266,14.56775911564322
2025-06-20 11:25:41.478,0.0006181044431,13.493602619120928
2025-06-20 11:25:41.486,0.0005522209670615,12.211834990952282
2025-06-20 11:25:41.494,0.0004966940527389,10.717760937736184
2025-06-20 11:25:41.502,0.0004522173790722,9.0096546422128
2025-06-20 11:25:41.510,0.0004190544054101,7.088948653522976
2025-06-20 11:25:41.517,0.0003970560737886,4.960362188478175
2025-06-20 11:25:41.525,0.0003856960515808,2.6319611216540726
2025-06-20 11:25:41.533,0.0003841205201734,0.115143487604429
2025-06-20 11:25:41.541,0.0003912085345593,-2.575453655326261
2025-06-20 11:25:41.549,0.0004056385977917,-5.422127670631201
2025-06-20 11:25:41.557,0.0004259573165369,-8.404362918032934
2025-06-20 11:25:41.564,0.0004506466055375,-11.499158188018402
2025-06-20 11:25:41.572,0.0004781866311687,-14.681421587582925
2025-06-20 11:25:41.580,0.0005071123842779,-17.924422485401184
2025-06-20 11:25:41.588,0.0005360623969558,-21.20028750544694
2025-06-20 11:25:41.596,0.0005638186353697,-24.480525479216897
2025-06-20 11:25:41.603,0.000589337013954,-27.736564859042574
2025-06-20 11:25:41.611,0.0006117683408402,-30.940286437697782
2025-06-20 11:25:41.619,0.0006304698697614,-34.064534344123615
2025-06-20 11:25:41.627,0.000645007980355,-37.08358918384485
2025-06-20 11:25:41.635,0.0006551527830769,-39.97358882260436
2025-06-20 11:25:41.642,0.0006608656354209,-42.712884592974014
2025-06-20 11:25:41.650,0.0006622806970704,-45.28232351950388
2025-06-20 11:25:41.658,0.0006596817660321,-47.6654503616361
2025-06-20 11:25:41.666,0.0006534757152141,-49.8486266980209
2025-06-20 11:25:41.674,0.0006441638715154,-51.821067741960015
2025-06-20 11:25:41.682,0.000632312642158,-53.57480090307601
2025-06-20 11:25:41.689,0.0006185246001756,-55.10455312170095
2025-06-20 11:25:41.697,0.0006034110998421,-56.40757655147623
2025-06-20 11:25:41.705,0.0005875673114573,-57.48342414210966
2025-06-20 11:25:41.713,0.0005715503534937,-58.33368801347967
2025-06-20 11:25:41.721,0.0005558609772267,-58.96171419601868
2025-06-20 11:25:41.728,0.0005409290557602,-59.37230736023341
2025-06-20 11:25:41.736,0.0005271029754419,-59.57143861007125
2025-06-20 11:25:41.744,0.0005146429257283,-59.56596831774553
2025-06-20 11:25:41.752,0.0005037180028713,-59.36339439022728
2025-06-20 11:25:41.760,0.0004944069400643,-58.97163435895666
2025-06-20 11:25:41.767,0.0004867021320349,-58.39884737392068
2025-06-20 11:25:41.775,0.0004805164692315,-57.65329967625987
2025-06-20 11:25:41.783,0.0004756924056152,-56.743274546861045
2025-06-20 11:25:41.791,0.0004720126897482,-55.67702521507588
2025-06-20 11:25:41.799,0.0004692122449637,-54.46276689396152
2025-06-20 11:25:41.807,0.0004669907087367,-53.1087021112246
2025-06-20 11:25:41.814,0.000465025108772,-51.62307194045229
2025-06-20 11:25:41.822,0.0004629821209944,-50.01422469630623
2025-06-20 11:25:41.830,0.0004605293900462,-48.29069319731334
2025-06-20 11:25:41.838,0.0004573455045385,-46.46127183100887
2025-06-20 11:25:41.846,0.0004531283692526,-44.53508533918209
2025-06-20 11:25:41.853,0.0004476018690673,-42.521642396883216
2025-06-20 11:25:41.861,0.0004405208587441,-40.43086858084878
2025-06-20 11:25:41.869,0.0004316746319597,-38.27311508358096
2025-06-20 11:25:41.877,0.0004208891098014,-36.05914138825776
2025-06-20 11:25:41.885,0.0004080280210556,-33.80007193617601
2025-06-20 11:25:41.892,0.0003929933121289,-31.50732846337516
2025-06-20 11:25:41.900,0.0003757249498988,-29.19254104866637
2025-06-20 11:25:41.908,0.0003562002170945,-26.86744192392103
2025-06-20 11:25:41.916,0.0003344325747093,-24.54374670950456
2025-06-20 11:25:41.924,0.0003104701698891,-22.233027954894528
2025-06-20 11:25:41.932,0.0002843940818937,-19.94658572726745
2025-06-20 11:25:41.939,0.0002563164135763,-17.695319570733897
2025-06-20 11:25:41.947,0.0002263783417457,-15.489605546715868
2025-06-20 11:25:41.955,0.0001947482176674,-13.339181357252098
2025-06-20 11:25:41.963,0.0001616197488263,-11.253041835615146
2025-06-20 11:25:41.971,0.0001272102204288,-9.239346434640431
2025-06-20 11:25:41.978,9.175867047187122e-05,-7.305339803860523
2025-06-20 11:25:41.986,5.552392067801284e-05,-5.457286148983567
2025-06-20 11:25:41.994,1.8782363237595165e-05,-3.700417814197717
2025-06-20 11:25:42.002,-1.817458832696337e-05,-2.0388984009776463
2025-06-20 11:25:42.010,-5.50434314126403e-05,-0.475800702129591
2025-06-20 11:25:42.017,-9.151186844195386e-05,0.986900258737718
2025-06-20 11:25:42.025,-0.0001272624077266,2.348318784517553
2025-06-20 11:25:42.033,-0.0001619762500264,3.608634403452248
2025-06-20 11:25:42.041,-0.0001953374960417,4.7690519806449485
2025-06-20 11:25:42.049,-0.0002270377083119,5.831746139570466
2025-06-20 11:25:42.057,-0.0002567807786612,6.79979041620837
2025-06-20 11:25:42.064,-0.0002842879500983,7.6770719781765315
2025-06-20 11:25:42.072,-0.0003093027914377,8.468193209017372
2025-06-20 11:25:42.080,-0.0003315959367907,9.17836194695398
2025-06-20 11:25:42.088,-0.000350969447297,9.813272635442656
2025-06-20 11:25:42.096,-0.000367260698209,10.378981048476094
2025-06-20 11:25:42.103,-0.0003803457296621,10.881775563330107
2025-06-20 11:25:42.111,-0.000390142023567,11.328048144669104
2025-06-20 11:25:42.119,-0.0003966106837281,11.724168266748816
2025-06-20 11:25:42.127,-0.0003997580037504,12.076362937262768
2025-06-20 11:25:42.135,-0.0003996364101787,12.390605805833577
2025-06-20 11:25:42.142,-0.0003963447695193,12.6725180509824
2025-06-20 11:25:42.150,-0.0003900280486932,12.927283351301428
2025-06-20 11:25:42.158,-0.000380876312338,13.159578774291502
2025-06-20 11:25:42.166,-0.0003691230093293,13.373522880041442
2025-06-20 11:25:42.174,-0.0003550424361276,13.57264175947044
2025-06-20 11:25:42.182,-0.0003389461942821,13.759853132359863
2025-06-20 11:25:42.189,-0.0003211784347176,13.93746804388641
2025-06-20 11:25:42.197,-0.000302109728737,14.10720914438178
2025-06-20 11:25:42.205,-0.0002821295126568,14.270244037326371
2025-06-20 11:25:42.213,-0.0002616371966462,14.427231751952409
2025-06-20 11:25:42.221,-0.0002410321936821,14.578380049707771
2025-06-20 11:25:42.228,-0.000220703293701,14.72351101269416
2025-06-20 11:25:42.236,-0.0002010179430427,14.862132189755282
2025-06-20 11:25:42.244,-0.0001823120399252,14.993510498148886
2025-06-20 11:25:42.252,-0.0001648807998462,15.11674610471758
2025-06-20 11:25:42.260,-0.0001489711146021,15.230843646495616
2025-06-20 11:25:42.267,-0.0001347756956234,15.334778395521216
2025-06-20 11:25:42.275,-0.0001224292055313,15.427555317166949
2025-06-20 11:25:42.283,-0.0001120065310649,15.508259399984702
2025-06-20 11:25:42.291,-0.0001035232913485,15.576096125482753
2025-06-20 11:25:42.299,-9.693858460757154e-05,15.630421468330931
2025-06-20 11:25:42.307,-9.215986749930176e-05,15.67076133604534
2025-06-20 11:25:42.314,-8.9049756593979e-05,15.696820838611108
2025-06-20 11:25:42.322,-8.743445208839262e-05,15.708484197414633
2025-06-20 11:25:42.330,-8.711341187702991e-05,15.705806443742691
2025-06-20 11:25:42.338,-8.786984985872461e-05,15.6889983103627
2025-06-20 11:25:42.346,-8.94815956742248e-05,15.658405879235836
2025-06-20 11:25:42.353,-9.173183349207132e-05,15.61448661504424
2025-06-20 11:25:42.361,-9.441923428611092e-05,15.557783399224313
2025-06-20 11:25:42.369,-9.7367008389615e-05,15.48889810136011
2025-06-20 11:25:42.377,-0.0001004304335621,15.40846610261088
2025-06-20 11:25:42.385,-0.0001035024669081,15.317133031557692
2025-06-20 11:25:42.392,-0.000106517146108,15.2155347912313
2025-06-20 11:25:42.400,-0.000109450636423,15.104281746602638
2025-06-20 11:25:42.408,-0.000112319957057,14.983947701387354
2025-06-20 11:25:42.416,-0.0001151795723278,14.855064018118572
2025-06-20 11:25:42.424,-0.0001181161321479,14.71811892527038
2025-06-20 11:25:42.432,-0.000121241702775,14.57356171735584
2025-06-20 11:25:42.439,-0.000124685862553,14.4218112091781
2025-06-20 11:25:42.447,-0.0001285870576205,14.263267485639592
2025-06-20 11:25:42.455,-0.0001330836206348,14.098325727786085
2025-06-20 11:25:42.463,-0.0001383048513097,13.92739072203766
2025-06-20 11:25:42.471,-0.0001443625410353,13.750890590976317
2025-06-20 11:25:42.478,-0.0001513432952046,13.5692883272851
2025-06-20 11:25:42.486,-0.0001593019664779,13.383089861205764
2025-06-20 11:25:42.494,-0.0001682564605734,13.192847628437042
2025-06-20 11:25:42.502,-0.0001781841139996,12.99915890641467
2025-06-20 11:25:42.510,-0.000189019771356,12.802658530212964
2025-06-20 11:25:42.517,-0.0002006556095911,12.604005965937931
2025-06-20 11:25:42.525,-0.0002129426693503,12.40386709137913
2025-06-20 11:25:42.533,-0.0002256939610002,12.202891392318907
2025-06-20 11:25:42.541,-0.0002386889187473,12.001685611068416
2025-06-20 11:25:42.549,-0.0002516788941503,11.800785166646328
2025-06-20 11:25:42.557,-0.0002643933432378,11.600624888803235
2025-06-20 11:25:42.564,-0.0002765464041589,11.401510754615444
2025-06-20 11:25:42.572,-0.0002878436729124,11.203594372372628
2025-06-20 11:25:42.580,-0.0002979890921116,11.006851916813728
2025-06-20 11:25:42.588,-0.0003066919094448,10.811069085882318
2025-06-20 11:25:42.596,-0.0003136736488167,10.615833429583226
2025-06-20 11:25:42.603,-0.0003186750166837,10.420535101898285
2025-06-20 11:25:42.611,-0.0003214626505993,10.224376712125574
2025-06-20 11:25:42.619,-0.0003218355841929,10.026392514034049
2025-06-20 11:25:42.627,-0.0003196312558253,9.825476692659985
2025-06-20 11:25:42.635,-0.0003147308585716,9.620420020194755
2025-06-20 11:25:42.642,-0.0003070638286904,9.409953685717705
2025-06-20 11:25:42.650,-0.0002966112863977,9.192798686555776
2025-06-20 11:25:42.658,-0.0002834082707299,8.967718826360208
2025-06-20 11:25:42.666,-0.0002675446418159,8.73357511662137
2025-06-20 11:25:42.674,-0.0002491645382927,8.489379235836669
2025-06-20 11:25:42.682,-0.0002284642744741,8.234343664810282
2025-06-20 11:25:42.689,-0.0002056885805566,7.96792618144764
2025-06-20 11:25:42.697,-0.0001811251664719,7.689866557058611
2025-06-20 11:25:42.705,-0.0001550977132597,7.400213545095088
2025-06-20 11:25:42.713,-0.0001279575178452,7.099340592862356
2025-06-20 11:25:42.721,-0.000100074103442,6.787949139734208
2025-06-20 11:25:42.728,-7.182514950644886e-05,6.46705889194458
2025-06-20 11:25:42.736,-4.358610084649405e-05,6.137985073763522
2025-06-20 11:25:42.744,-1.5719817476168016e-05,5.802303319428375
2025-06-20 11:25:42.752,1.1433338102565226e-05,5.461803542057056
2025-06-20 11:25:42.760,3.756452185770299e-05,5.11843473642617
2025-06-20 11:25:42.767,6.240406367512311e-05,4.77424318666554
2025-06-20 11:25:42.775,8.572734755575119e-05,4.431306916399681
2025-06-20 11:25:42.783,0.0001073586397988,4.091669412825353
2025-06-20 11:25:42.791,0.0001271727427519,3.757275666910901
2025-06-20 11:25:42.799,0.0001450944907319,3.429913401440357
2025-06-20 11:25:42.807,0.0001610962137511,3.1111620222041405
2025-06-20 11:25:42.814,0.0001751933717702,2.8023513521665184
2025-06-20 11:25:42.822,0.00018743861648,2.5045316276860934
2025-06-20 11:25:42.830,0.0001979145920644,2.218455585203912
2025-06-20 11:25:42.838,0.0002067258638868,1.9445727824634564
2025-06-20 11:25:42.846,0.0002139904619164,1.6830356213001674
2025-06-20 11:25:42.853,0.0002198316093411,1.4337159177081669
2025-06-20 11:25:42.861,0.0002243702287914,1.1962303499796834
2025-06-20 11:25:42.869,0.0002277187481662,0.9699727493054604
2025-06-20 11:25:42.877,0.000229976576742,0.7541510035442783
2025-06-20 11:25:42.885,0.0002312274401377,0.5478263275823938
2025-06-20 11:25:42.892,0.0002315385943424,0.3499527987537672
2025-06-20 11:25:42.900,0.000230961789102,0.1594153362633548
2025-06-20 11:25:42.908,0.0002295357136842,-0.0249353162336133
2025-06-20 11:25:42.916,0.000227289559534,-0.2042516070366031
2025-06-20 11:25:42.924,0.0002242473041728,-0.3796627400075431
2025-06-20 11:25:42.932,0.0002204323371237,-0.5522529057357161
2025-06-20 11:25:42.939,0.0002158720622361,-0.723043933953952
2025-06-20 11:25:42.947,0.0002106021130478,-0.8929818410057496
2025-06-20 11:25:42.955,0.0002046698431882,-1.0629265670195664
2025-06-20 11:25:42.963,0.0001981368229598,-1.2336441210287912
2025-06-20 11:25:42.971,0.0001910801711239,-1.4058003698346455
2025-06-20 11:25:42.978,0.0001835926533437,-1.5799558018809683
2025-06-20 11:25:42.986,0.0001757815727671,-1.756560751393124
2025-06-20 11:25:42.994,0.0001677665593471,-1.9359507599011243
2025-06-20 11:25:43.002,0.0001596764302381,-2.1183419610111947
2025-06-20 11:25:43.010,0.0001516453419869,-2.3038265799526965
2025-06-20 11:25:43.017,0.0001438084847431,-2.4923688239225776
2025-06-20 11:25:43.025,0.0001362975783644,-2.6838015853466946
2025-06-20 11:25:43.033,0.0001292364196237,-2.8778244718629997
2025-06-20 11:25:43.041,0.0001227366988144,-3.074003703968544
2025-06-20 11:25:43.049,0.000116894255156,-3.2717743846763607
2025-06-20 11:25:43.057,0.0001117858843642,-3.470445556204847
2025-06-20 11:25:43.064,0.0001074667708871,-3.6692083314775465
2025-06-20 11:25:43.072,0.0001039686050201,-3.867147235599883
2025-06-20 11:25:43.080,0.0001012984394166,-4.063254723181139
2025-06-20 11:25:43.088,9.943830503174988e-05,-4.256448658058999
2025-06-20 11:25:43.096,9.83455512830831e-05,-4.445592359898746
2025-06-20 11:25:43.103,9.795384693134216e-05,-4.629516646956038
2025-06-20 11:25:43.111,9.817478949711405e-05,-4.80704314868298
2025-06-20 11:25:43.119,9.890007283714072e-05,-4.977008040271417
2025-06-20 11:25:43.127,0.0001000041191981,-5.1382852779299375
2025-06-20 11:25:43.135,0.0001013470298085,-5.289808400928402
2025-06-20 11:25:43.143,0.0001027777046484,-5.430590021729667
2025-06-20 11:25:43.150,0.0001041370347114,-5.5597382489547496
2025-06-20 11:25:43.158,0.000105261141772,-5.676469472770123
2025-06-20 11:25:43.166,0.0001059846970137,-5.780117177911006
2025-06-20 11:25:43.174,0.0001061443767006,-5.870136721347855
2025-06-20 11:25:43.182,0.0001055825073224,-5.946106297229023
2025-06-20 11:25:43.189,0.0001041509142485,-6.007724580110766
2025-06-20 11:25:43.197,0.0001017149199003,-6.054805755076209
2025-06-20 11:25:43.205,9.815735384989385e-05,-6.087272783915187
2025-06-20 11:25:43.213,9.338237245306684e-05,-6.105149807314009
2025-06-20 11:25:43.221,8.73188766772756e-05,-6.108554545132246
2025-06-20 11:25:43.228,7.992335649683123e-05,-6.097691442631613
2025-06-20 11:25:43.236,7.118202092034229e-05,-6.0728461389615385
2025-06-20 11:25:43.244,6.111205838424447e-05,-6.0343816256043326
2025-06-20 11:25:43.252,4.976185036711732e-05,-5.982736235067514
2025-06-20 11:25:43.260,3.7209990690146674e-05,-5.91842336977792
2025-06-20 11:25:43.268,2.356305241153443e-05,-5.842032661733617
2025-06-20 11:25:43.275,8.952157258217043e-06,-5.754232056490054
2025-06-20 11:25:43.283,-6.4714947713035135e-06,-5.655770150455275
2025-06-20 11:25:43.291,-2.2541899768175893e-05,-5.547477988344216
2025-06-20 11:25:43.299,-3.908404216097758e-05,-5.430269458158464
2025-06-20 11:25:43.307,-5.591989763375187e-05,-5.305139413132526
2025-06-20 11:25:43.314,-7.287434761594632e-05,-5.173158711410537
2025-06-20 11:25:43.322,-8.978074294885901e-05,-5.035465501199201
2025-06-20 11:25:43.330,-0.000106485918123,-4.893252293683147
2025-06-20 11:25:43.338,-0.0001228545460709,-4.747748651119834
2025-06-20 11:25:43.346,-0.0001387728322361,-4.600199656189729
2025-06-20 11:25:43.353,-0.0001541516604984,-4.451840695155201
2025-06-20 11:25:43.361,-0.0001689293862717,-4.303869448830309
2025-06-20 11:25:43.369,-0.000183074477359,-4.157416304257425
2025-06-20 11:25:43.377,-0.0001965881185581,-4.01351463990271
2025-06-20 11:25:43.385,-0.0002095067695875,-3.873072570355295
2025-06-20 11:25:43.393,-0.0002219045619561,-3.736847748673197
2025-06-20 11:25:43.400,-0.000233895353567,-3.605426715114416
2025-06-20 11:25:43.408,-0.0002456341994745,-3.479210060963965
2025-06-20 11:25:43.416,-0.000257317925423,-3.3584043660154648
2025-06-20 11:25:43.424,-0.0002691844243972,-3.2430214963062385
2025-06-20 11:25:43.432,-0.0002815102601921,-3.132885446836128
2025-06-20 11:25:43.439,-0.0002946061682855,-3.0276465110944817
2025-06-20 11:25:43.447,-0.0003088100956324,-2.9268021775828914
2025-06-20 11:25:43.455,-0.0003244775165839,-2.829723811544693
2025-06-20 11:25:43.463,-0.0003419688993861,-2.7356878952510817
2025-06-20 11:25:43.471,-0.0003616343722842,-2.643910385831577
2025-06-20 11:25:43.478,-0.0003837958441314,-2.553582610105444
2025-06-20 11:25:43.486,-0.0004087270639843,-2.463907048579646
2025-06-20 11:25:43.494,-0.000436632348512,-2.3741313652543856
2025-06-20 11:25:43.502,-0.0004676249533941,-2.2835791238825336
2025-06-20 11:25:43.510,-0.0005017062929579,-2.1916758062557293
2025-06-20 11:25:43.518,-0.0005387473776427,-2.097969016936744
2025-06-20 11:25:43.525,-0.0005784738866915,-2.002142107844298
2025-06-20 11:25:43.533,-0.0006204561955212,-1.904020856332329
2025-06-20 11:25:43.541,-0.0006641054558088,-1.803573245889725
2025-06-20 11:25:43.549,-0.0007086765307878,-1.70090279321105
2025-06-20 11:25:43.557,-0.0007532782574599,-1.596236206601788
2025-06-20 11:25:43.564,-0.0007968911604489,-1.489906423334706
2025-06-20 11:25:43.572,-0.0008383923892167,-1.3823322448996769
2025-06-20 11:25:43.580,-0.0008765873006542,-1.2739958691847706
2025-06-20 11:25:43.588,-0.0009102467727155,-1.1654196139968005
2025-06-20 11:25:43.596,-0.0009381490225126,-1.0571430432973965
2025-06-20 11:25:43.603,-0.0009591244253605,-0.9497015525065924
2025-06-20 11:25:43.611,-0.0009721016011982,-0.8436072535464278
2025-06-20 11:25:43.619,-0.0009761528631684,-0.7393327423279298
2025-06-20 11:25:43.627,-0.0009705370211931,-0.6372980544013486
2025-06-20 11:25:43.635,-0.0009547375116829,-0.5378608442415711
2025-06-20 11:25:43.643,-0.0009284938925036,-0.4413095864352185
2025-06-20 11:25:43.650,-0.0008918249061472,-0.3478594166253729
2025-06-20 11:25:43.658,-0.0008450415697086,-0.2576501234529997
2025-06-20 11:25:43.666,-0.0007887490801493,-0.1707457760135294
2025-06-20 11:25:43.674,-0.0007238367161449,-0.0871355182634683
2025-06-20 11:25:43.682,-0.0006514553945599,-0.0067351676632481
2025-06-20 11:25:43.689,-0.0005729831327696,0.0706105968447012
2025-06-20 11:25:43.697,-0.0004899793694109,0.1451255003340903
2025-06-20 11:25:43.705,-0.0004041298548196,0.217098259189332
2025-06-20 11:25:43.713,-0.0003171845853094,0.2868782085498352
2025-06-20 11:25:43.721,-0.0002308919573313,0.3548695885871798
2025-06-20 11:25:43.728,-0.000146932827822,0.4215240762194915
2025-06-20 11:25:43.736,-6.685831068312577e-05,0.4873311914133413
2025-06-20 11:25:43.744,7.965177786316597e-06,0.5528063221442399
2025-06-20 11:25:43.752,7.640081131560259e-05,0.6184762870663166
2025-06-20 11:25:43.760,0.0001375742620984,0.6848625685494271
2025-06-20 11:25:43.768,0.0001908936153149,0.7524625766276134
2025-06-20 11:25:43.775,0.0002360561207261,0.8217295254341499
2025-06-20 11:25:43.783,0.0002730423454463,0.8930517008226532
2025-06-20 11:25:43.791,0.0003020989003502,0.9667320566613432
2025-06-20 11:25:43.799,0.0003237113859892,1.0429691856868348
2025-06-20 11:25:43.807,0.0003385695371833,1.121840758813548
2025-06-20 11:25:43.814,0.0003475267380774,1.20329050591473
2025-06-20 11:25:43.822,0.0003515561351391,1.2871197159649967
2025-06-20 11:25:43.830,0.0003517055034796,1.3729840653633965
2025-06-20 11:25:43.838,0.0003490528425193,1.460396346398728
2025-06-20 11:25:43.846,0.0003446644262492,1.5487353752383433
2025-06-20 11:25:43.853,0.0003395567495133,1.6372610304892554
2025-06-20 11:25:43.861,0.0003346635180632,1.7251350354384645
2025-06-20 11:25:43.869,0.0003308085387041,1.8114467731191115
2025-06-20 11:25:43.877,0.0003286850871275,1.8952431278003277
2025-06-20 11:25:43.885,0.0003288420638791,1.9755610886387436
2025-06-20 11:25:43.893,0.0003316769760126,2.051461643655164
2025-06-20 11:25:43.900,0.0003374354886447,2.1220633522299024
2025-06-20 11:25:43.908,0.0003462169851458,2.1865739276897527
2025-06-20 11:25:43.916,0.0003579852948395,2.2443181969895805
2025-06-20 11:25:43.924,0.000372583544196,2.294760933566154
2025-06-20 11:25:43.932,0.0003897519890536,2.3375232792007195
2025-06-20 11:25:43.939,0.000409147677801,2.372391774859707
2025-06-20 11:25:43.947,0.0004303648524411,2.399319397855125
2025-06-20 11:25:43.955,0.0004529551026135,2.4184184347338165
2025-06-20 11:25:43.963,0.0004764464388788,2.429945479699647
2025-06-20 11:25:43.971,0.0005003606368967,2.4342793061131918
2025-06-20 11:25:43.978,0.0005242284156723,2.431892782768029
2025-06-20 11:25:43.986,0.0005476022328751,2.423320369846276
2025-06-20 11:25:43.994,0.000570066676077,2.4091230099998686
2025-06-20 11:25:44.002,0.0005912465714681,2.3898524127346907
2025-06-20 11:25:44.010,0.0006108130075547,2.3660168052894552
2025-06-20 11:25:44.018,0.0006284874796177,2.3380501827303752
2025-06-20 11:25:44.025,0.0006440443147396,2.3062869277196696
2025-06-20 11:25:44.033,0.0006573114738908,2.270943386707321
2025-06-20 11:25:44.041,0.0006681697977092,2.232107597640648
2025-06-20 11:25:44.049,0.0006765507930805,2.189737890702945
2025-06-20 11:25:44.057,0.00068243312754,2.1436705586215536
2025-06-20 11:25:44.064,0.0006858380627426,2.093636245180103
2025-06-20 11:25:44.072,0.0006868240865326,2.039284156795188
2025-06-20 11:25:44.080,0.000685480997496,1.9802126924450512
2025-06-20 11:25:44.088,0.0006819236888023,1.9160046455859892
2025-06-20 11:25:44.096,0.0006762859069384,1.846264790750897
2025-06-20 11:25:44.103,0.0006687143173655,1.7706574549005671
2025-06-20 11:25:44.111,0.0006593632267735,1.6889416117424991
2025-06-20 11:25:44.119,0.0006483902334058,1.601001144313681
2025-06-20 11:25:44.127,0.000635952920913,1.5068682061927157
2025-06-20 11:25:44.135,0.0006222065437141,1.4067380646407437
2025-06-20 11:25:44.143,0.0006073025216895,1.3009743953221702
2025-06-20 11:25:44.150,0.0005913874871034,1.1901046657813423
2025-06-20 11:25:44.158,0.0005746026129096,1.074805935372997
2025-06-20 11:25:44.166,0.0005570829911523,0.9558820560469364
2025-06-20 11:25:44.174,0.0005389568984548,0.8342338281300071
2025-06-20 11:25:44.182,0.0005203448584942,0.7108241020964905
2025-06-20 11:25:44.189,0.0005013584775929,0.5866400887464361
2025-06-20 11:25:44.197,0.0004820990861683,0.4626552314489625
2025-06-20 11:25:44.205,0.0004626562647251,0.3397929078982271
2025-06-20 11:25:44.213,0.000443106367631,0.2188939821369459
2025-06-20 11:25:44.221,0.0004235111806493,0.1006898483370645
2025-06-20 11:25:44.228,0.0004039168590232,-0.0142178658104156
2025-06-20 11:25:44.236,0.0003843532920136,-0.1253702881098596
2025-06-20 11:25:44.244,0.0003648340277057,-0.2324568501521135
2025-06-20 11:25:44.252,0.0003453568694454,-0.3353137296025719
2025-06-20 11:25:44.260,0.0003259052235425,-0.4339159151155375
2025-06-20 11:25:44.268,0.0003064502382725,-0.5283639255349108
2025-06-20 11:25:44.275,0.0002869537283388,-0.618866414873091
2025-06-20 11:25:44.283,0.0002673718286783,-0.7057199856377474
2025-06-20 11:25:44.291,0.0002476592688282,-0.7892875208879333
2025-06-20 11:25:44.299,0.0002277741062036,-0.8699762457517466
2025-06-20 11:25:44.307,0.0002076827058275,-0.9482165631706392
2025-06-20 11:25:44.314,0.000187364707637,-1.024442498781716
2025-06-20 11:25:44.322,0.0001668176843704,-1.0990743585996023
2025-06-20 11:25:44.330,0.0001460611751345,-1.172503971904134
2025-06-20 11:25:44.338,0.0001251398047177,-1.2450826780750917
2025-06-20 11:25:44.346,0.0001041252795681,-1.3171120314223714
2025-06-20 11:25:44.353,8.311716327865619e-05,-1.3888370475128646
2025-06-20 11:25:44.361,6.224242869883894e-05,-1.460441700230552
2025-06-20 11:25:44.369,4.1653835178607285e-05,-1.532046304197934
2025-06-20 11:25:44.377,2.1527200114951014e-05,-1.603706387783764
2025-06-20 11:25:44.385,2.057645332521226e-06,-1.675412681559167
2025-06-20 11:25:44.393,-1.654508886518884e-05,-1.74709191316046
2025-06-20 11:25:44.400,-3.406215397424916e-05,-1.8186082019545955
2025-06-20 11:25:44.408,-5.027180191831114e-05,-1.8897649703470525
2025-06-20 11:25:44.416,-6.495614563166687e-05,-1.9603074156741505
2025-06-20 11:25:44.424,-7.790830308556127e-05,-2.02992570113179
2025-06-20 11:25:44.432,-8.893973349536258e-05,-2.09825911332394
2025-06-20 11:25:44.439,-9.78875524400182e-05,-2.164901488343807
2025-06-20 11:25:44.447,-0.0001046215930037,-2.2294082198852694
2025-06-20 11:25:44.455,-0.0001090509646535,-2.2913051250767564
2025-06-20 11:25:44.463,-0.0001111298523553,-2.3500993538466983
2025-06-20 11:25:44.471,-0.0001108622974033,-2.405292389706105
2025-06-20 11:25:44.478,-0.000108305710505,-2.456395014689066
2025-06-20 11:25:44.486,-0.000103572888581,-2.502943913847574
2025-06-20 11:25:44.494,-9.68323409420505e-05,-2.5445193920183966
2025-06-20 11:25:44.502,-8.830677905105485e-05,-2.580763486501021
2025-06-20 11:25:44.510,-7.826968748761999e-05,-2.611397605533272
2025-06-20 11:25:44.518,-6.703997194535685e-05,-2.6362387254585973
2025-06-20 11:25:44.525,-5.497477233404963e-05,-2.6552131539799877
2025-06-20 11:25:44.533,-4.246063382107388e-05,-2.668366916988412
2025-06-20 11:25:44.541,-2.990334199676137e-05,-2.6758719476673525
2025-06-20 11:25:44.549,-1.771683587193838e-05,-2.6780274401759687
2025-06-20 11:25:44.557,-6.311679941888972e-06,-2.6752559638496303
2025-06-20 11:25:44.564,3.916432308474515e-06,-2.668094199805076
2025-06-20 11:25:44.572,1.259774639730778e-05,-2.657178439482664
2025-06-20 11:25:44.580,1.9398762194670317e-05,-2.643225257434737
2025-06-20 11:25:44.588,2.4031484595979305e-05,-2.627008029755302
2025-06-20 11:25:44.596,2.6261272983572618e-05,-2.609330209720414
2025-06-20 11:25:44.603,2.5912974865083937e-05,-2.590996484551454
2025-06-20 11:25:44.611,2.2875151461867225e-05,-2.572783106436899
2025-06-20 11:25:44.619,1.710240151794848e-05,-2.555408799372963
2025-06-20 11:25:44.627,8.615983471537001e-06,-2.5395076774466885
2025-06-20 11:25:44.635,-2.496956670767379e-06,-2.5256055641887287
2025-06-20 11:25:44.643,-1.6085258614361204e-05,-2.5141009769529123
2025-06-20 11:25:44.650,-3.193653777999521e-05,-2.5052518376824717
2025-06-20 11:25:44.658,-4.97808478433098e-05,-2.4991686978983143
2025-06-20 11:25:44.666,-6.929528097582475e-05,-2.4958149346990366
2025-06-20 11:25:44.674,-9.010961764537996e-05,-2.495014007021596
2025-06-20 11:25:44.682,-0.0001118131366457,-2.496463481497804
2025-06-20 11:25:44.689,-0.0001339626800728,-2.499755168169233
2025-06-20 11:25:44.697,-0.0001560920370321,-2.504400369441652
2025-06-20 11:25:44.705,-0.0001777226369641,-2.5098589607687547
2025-06-20 11:25:44.713,-0.0001983754312307,-2.515570806442062
2025-06-20 11:25:44.721,-0.0002175837287368,-2.520987883022185
2025-06-20 11:25:44.728,-0.0002349066624265,-2.5256054461431487
2025-06-20 11:25:44.736,-0.000249942888526,-2.5289906371402067
2025-06-20 11:25:44.744,-0.000262344041321,-2.5308070801143767
2025-06-20 11:25:44.752,-0.0002718273788021,-2.530834256264772
2025-06-20 11:25:44.760,-0.0002781869732827,-2.528980743778936
2025-06-20 11:25:44.768,-0.0002813027638974,-2.525290757901144
2025-06-20 11:25:44.775,-0.0002811468428206,-2.5199437938446425
2025-06-20 11:25:44.783,-0.0002777865082592,-2.5132475390745626
2025-06-20 11:25:44.791,-0.0002713838367433,-2.5056245530420256
2025-06-20 11:25:44.799,-0.000262191732184,-2.4975934847849395
2025-06-20 11:25:44.807,-0.0002505465650071,-2.4897457933279483
2025-06-20 11:25:44.814,-0.0002368576391115,-2.4827190483415387
2025-06-20 11:25:44.822,-0.0002215938508769,-2.477167928472616
2025-06-20 11:25:44.830,-0.0002052680415632,-2.4737340180221983
2025-06-20 11:25:44.838,-0.000188419669012,-2.473015444965536
2025-06-20 11:25:44.846,-0.0001715965116338,-2.475537318164608
2025-06-20 11:25:44.853,-0.0001553361641464,-2.4817238205455623
2025-06-20 11:25:44.861,-0.0001401480946301,-2.491872708031334
2025-06-20 11:25:44.869,-0.0001264970011654,-2.506132860028001
2025-06-20 11:25:44.877,-0.0001147881342599,-2.524485433962369
2025-06-20 11:25:44.885,-0.0001053551528039,-2.5467290994084384
2025-06-20 11:25:44.893,-9.845095803326748e-05,-2.57246976924221
2025-06-20 11:25:44.900,-9.424178267293836e-05,-2.601115204603934
2025-06-20 11:25:44.908,-9.280460249629148e-05,-2.631874841256639
2025-06-20 11:25:44.916,-9.412773480318437e-05,-2.6637651569514444
2025-06-20 11:25:44.924,-9.811435344993152e-05,-2.695620860129525
2025-06-20 11:25:44.932,-0.0001045885938182,-2.7261121169044085
