Timestamp,GSR_Filtered,PPG_Filtered,FMS,Condition
2025-06-20 11:36:28.767,-0.0004929898003359,0.7368332396434664,2,MB
2025-06-20 11:36:28.775,-0.0004905954436393,0.7384734152420793,2,MB
2025-06-20 11:36:28.783,-0.0004857056986242,0.7314894443766078,2,MB
2025-06-20 11:36:28.790,-0.0004783483466621,0.7172977123040214,2,MB
2025-06-20 11:36:28.798,-0.0004685906397009,0.697507180964401,2,MB
2025-06-20 11:36:28.806,-0.0004565382376537,0.673869263124695,2,MB
2025-06-20 11:36:28.814,-0.0004423337645326,0.6482251235578254,2,MB
2025-06-20 11:36:28.822,-0.0004261550461057,0.622451665085856,2,MB
2025-06-20 11:36:28.829,-0.0004082129791266,0.5984073863456031,2,MB
2025-06-20 11:36:28.837,-0.0003887488770277,0.5778792177087655,2,MB
2025-06-20 11:36:28.845,-0.0003680310912747,0.5625313472057937,2,MB
2025-06-20 11:36:28.853,-0.0003463507480326,0.553856936465503,2,MB
2025-06-20 11:36:28.861,-0.0003240165440405,0.5531335026803365,2,MB
2025-06-20 11:36:28.868,-0.0003013486658528,0.5613826199127719,2,MB
2025-06-20 11:36:28.876,-0.0002786719972592,0.5793344871613846,2,MB
2025-06-20 11:36:28.884,-0.0002563088467463,0.607397832792021,2,MB
2025-06-20 11:36:28.892,-0.0002345714570502,0.6456355819538528,2,MB
2025-06-20 11:36:28.900,-0.0002137545516042,0.6937467085732364,2,MB
2025-06-20 11:36:28.908,-0.0001941281301288,0.751054722575879,2,MB
2025-06-20 11:36:28.915,-0.0001759306606043,0.8165032926740551,2,MB
2025-06-20 11:36:28.923,-0.0001593627619052,0.8886595560673295,2,MB
2025-06-20 11:36:28.931,-0.0001445814754988,0.9657256987952216,2,MB
2025-06-20 11:36:28.939,-0.0001316952973974,1.0455593852734175,2,MB
2025-06-20 11:36:28.947,-0.0001207602346704,1.1257035557391255,2,MB
2025-06-20 11:36:28.954,-0.0001117772002163,1.2034259841680857,2,MB
2025-06-20 11:36:28.962,-0.0001046910513205,1.2757687929001162,2,MB
2025-06-20 11:36:28.970,-9.939154383731157e-05,1.3396078573819254,2,MB
2025-06-20 11:36:28.978,-9.571643448443136e-05,1.3917217141735534,2,MB
2025-06-20 11:36:28.986,-9.345690445623112e-05,1.4288692204116271,2,MB
2025-06-20 11:36:28.993,-9.236537667936867e-05,1.4478748179433156,2,MB
2025-06-20 11:36:29.001,-9.2165647863711e-05,1.4457198452852962,2,MB
2025-06-20 11:36:29.009,-9.256505821852429e-05,1.4196379298967825,2,MB
2025-06-20 11:36:29.017,-9.326819295606836e-05,1.3672120957085223,2,MB
2025-06-20 11:36:29.025,-9.399138985235392e-05,1.2864708505223843,2,MB
2025-06-20 11:36:29.033,-9.44771687085449e-05,1.1759801931411868,2,MB
2025-06-20 11:36:29.040,-9.450763116700274e-05,1.0349282260439017,2,MB
2025-06-20 11:36:29.048,-9.391589396059632e-05,0.863198904910742,2,MB
2025-06-20 11:36:29.056,-9.259470218242642e-05,0.6614314293128766,2,MB
2025-06-20 11:36:29.064,-9.050153244524804e-05,0.4310619055597733,2,MB
2025-06-20 11:36:29.072,-8.765974561838266e-05,0.1743442163301658,2,MB
2025-06-20 11:36:29.079,-8.415565327988902e-05,-0.1056524731049106,2,MB
2025-06-20 11:36:29.087,-8.013166623822035e-05,-0.4050714578882011,2,MB
2025-06-20 11:36:29.095,-7.577595573132043e-05,-0.719322521744981,2,MB
2025-06-20 11:36:29.103,-7.130925917423636e-05,-1.0431623130668737,2,MB
2025-06-20 11:36:29.111,-6.696959545116201e-05,-1.370800088322963,2,MB
2025-06-20 11:36:29.118,-6.299571646116324e-05,-1.6960267846716863,2,MB
2025-06-20 11:36:29.126,-5.961011254562532e-05,-2.012364364531853,2,MB
2025-06-20 11:36:29.134,-5.7002322097308746e-05,-2.313231438580954,2,MB
2025-06-20 11:36:29.142,-5.531320542003524e-05,-2.592120353282599,2,MB
2025-06-20 11:36:29.150,-5.462077841038577e-05,-2.8427802490574923,2,MB
2025-06-20 11:36:29.158,-5.492818715640754e-05,-3.059400080474288,2,MB
2025-06-20 11:36:29.165,-5.615441637171527e-05,-3.236785273917186,2,MB
2025-06-20 11:36:29.173,-5.8128314730493976e-05,-3.370521622432181,2,MB
2025-06-20 11:36:29.181,-6.0586454136107584e-05,-3.457120218913399,2,MB
2025-06-20 11:36:29.189,-6.317520629251748e-05,-3.4941377245620746,2,MB
2025-06-20 11:36:29.197,-6.545722107307943e-05,-3.480267049787218,2,MB
2025-06-20 11:36:29.204,-6.692224344050648e-05,-3.4153945567589528,2,MB
2025-06-20 11:36:29.212,-6.700194862137423e-05,-3.3006211268375782,2,MB
2025-06-20 11:36:29.220,-6.508826215005889e-05,-3.1382458083087643,2,MB
2025-06-20 11:36:29.228,-6.0554491582669865e-05,-2.931712199062705,2,MB
2025-06-20 11:36:29.236,-5.277851175020181e-05,-2.685519155520871,2,MB
2025-06-20 11:36:29.243,-4.116717289995038e-05,-2.4050987889628197,2,MB
2025-06-20 11:36:29.251,-2.5181013583237808e-05,-2.096665951945579,2,MB
2025-06-20 11:36:29.259,-4.3582628058166015e-06,-1.7670444712663969,2,MB
2025-06-20 11:36:29.267,2.1662953771313644e-05,-1.423476197808655,2,MB
2025-06-20 11:36:29.275,5.312527882827073e-05,-1.0734194807904467,2,MB
2025-06-20 11:36:29.283,9.013661795113832e-05,-0.7243439173566647,2,MB
2025-06-20 11:36:29.290,0.0001326592199113,-0.3835281799346932,2,MB
2025-06-20 11:36:29.298,0.0001805038581108,-0.0578673999108767,2,MB
2025-06-20 11:36:29.306,0.000233329384258,0.2463039843312801,2,MB
2025-06-20 11:36:29.314,0.0002906476906758,0.5233687829597036,2,MB
2025-06-20 11:36:29.322,0.0003518338958495,0.7685588103704998,2,MB
2025-06-20 11:36:29.329,0.0004161413600622,0.978058660359583,2,MB
2025-06-20 11:36:29.337,0.0004827209452464,1.1490793816579736,2,MB
2025-06-20 11:36:29.345,0.0005506437581945,1.2799009861857789,2,MB
2025-06-20 11:36:29.353,0.0006189264700185,1.3698837216657394,2,MB
2025-06-20 11:36:29.361,0.0006865582095455,1.4194489528545653,2,MB
2025-06-20 11:36:29.368,0.0007525279992235,1.4300312997656797,2,MB
2025-06-20 11:36:29.376,0.000815851725231,1.4040043701426146,2,MB
2025-06-20 11:36:29.384,0.0008755976845951,1.3445830009605444,2,MB
2025-06-20 11:36:29.392,0.0009309098300683,1.255705398005749,2,MB
2025-06-20 11:36:29.400,0.0009810279505,1.1418989442858545,2,MB
2025-06-20 11:36:29.408,0.0010253041778354,1.0081337508765864,2,MB
2025-06-20 11:36:29.415,0.0010632153874609,0.8596682602203859,2,MB
2025-06-20 11:36:29.423,0.001094371247252,0.7018913835380971,2,MB
2025-06-20 11:36:29.431,0.0011185178684655,0.5401657460168238,2,MB
2025-06-20 11:36:29.439,0.0011355372085056,0.3796765986241515,2,MB
2025-06-20 11:36:29.447,0.0011454425490048,0.2252908051737245,2,MB
2025-06-20 11:36:29.454,0.0011483705012475,0.0814300076210269,2,MB
2025-06-20 11:36:29.462,0.0011445700779082,-0.0480383941666987,2,MB
2025-06-20 11:36:29.470,0.0011343894412242,-0.1598894295131268,2,MB
2025-06-20 11:36:29.478,0.0011182610094485,-0.2516056365419145,2,MB
2025-06-20 11:36:29.486,0.0010966856574705,-0.3214175971708061,2,MB
2025-06-20 11:36:29.493,0.0010702167445595,-0.3683193820580511,2,MB
2025-06-20 11:36:29.501,0.0010394446256438,-0.3920592659514786,2,MB
2025-06-20 11:36:29.509,0.0010049821818049,-0.393106952348749,2,MB
2025-06-20 11:36:29.517,0.0009674517840831,-0.3725993551723527,2,MB
2025-06-20 11:36:29.525,0.0009274739907268,-0.3322676863981768,2,MB
2025-06-20 11:36:29.533,0.0008856581449366,-0.274349165139122,2,MB
2025-06-20 11:36:29.540,0.0008425948742815,-0.2014870806528297,2,MB
2025-06-20 11:36:29.548,0.000798850325181,-0.1166232016850609,2,MB
2025-06-20 11:36:29.556,0.0007549618477024,-0.0228866222350059,2,MB
2025-06-20 11:36:29.564,0.0007114348037833,0.0765169335755585,2,MB
2025-06-20 11:36:29.572,0.0006687401865645,0.1784115518604486,2,MB
2025-06-20 11:36:29.579,0.0006273127651833,0.2797498875788591,2,MB
2025-06-20 11:36:29.587,0.000587549483857,0.377701297702824,2,MB
2025-06-20 11:36:29.595,0.0005498078662013,0.4697269742142665,2,MB
2025-06-20 11:36:29.603,0.000514404237724,0.5536403295120248,2,MB
2025-06-20 11:36:29.611,0.0004816116775921,0.6276515442850479,2,MB
2025-06-20 11:36:29.618,0.0004516577055218,0.6903958451156075,2,MB
2025-06-20 11:36:29.626,0.0004247217726606,0.7409457072132969,2,MB
2025-06-20 11:36:29.634,0.0004009326650268,0.7788077535419693,2,MB
2025-06-20 11:36:29.642,0.0003803659632246,0.803905626071523,2,MB
2025-06-20 11:36:29.650,0.0003630417368461,0.8165505196623444,2,MB
2025-06-20 11:36:29.658,0.0003489226834989,0.8174013787178533,2,MB
2025-06-20 11:36:29.665,0.0003379129479921,0.8074169550126747,2,MB
2025-06-20 11:36:29.673,0.0003298578708337,0.7878020175174999,2,MB
2025-06-20 11:36:29.681,0.0003245449127601,0.7599500037686855,2,MB
2025-06-20 11:36:29.689,0.0003217059815726,0.7253843194064925,2,MB
2025-06-20 11:36:29.697,0.0003210213445267,0.68570033765033,2,MB
2025-06-20 11:36:29.704,0.0003221252418523,0.6425099344386159,2,MB
2025-06-20 11:36:29.712,0.0003246132252846,0.5973901338901949,2,MB
2025-06-20 11:36:29.720,0.0003280511298577,0.5518371531472822,2,MB
2025-06-20 11:36:29.728,0.0003319854587119,0.5072268436761237,2,MB
2025-06-20 11:36:29.736,0.000335954845838,0.4647822389055346,2,MB
2025-06-20 11:36:29.743,0.0003395021837527,0.4255486412944497,2,MB
2025-06-20 11:36:29.751,0.000342186963236,0.39037641775192,2,MB
2025-06-20 11:36:29.759,0.0003435973512267,0.3599114189874542,2,MB
2025-06-20 11:36:29.767,0.0003433615179279,0.3345926909470747,2,MB
2025-06-20 11:36:29.775,0.0003411577368539,0.3146569023089108,2,MB
2025-06-20 11:36:29.783,0.0003367228562033,0.3001486759813142,2,MB
2025-06-20 11:36:29.790,0.0003298588651157,0.2909357981423099,2,MB
2025-06-20 11:36:29.798,0.0003204373923354,0.2867281054643109,2,MB
2025-06-20 11:36:29.806,0.0003084020313825,0.287098743531705,2,MB
2025-06-20 11:36:29.814,0.0002937683988104,0.291506471057646,2,MB
2025-06-20 11:36:29.822,0.0002766218467122,0.2993177730545464,2,MB
2025-06-20 11:36:29.829,0.0002571128022098,0.3098277451200301,2,MB
2025-06-20 11:36:29.837,0.0002354498059609,0.3222790046496715,2,MB
2025-06-20 11:36:29.845,0.0002118904580908,0.3358782398342567,2,MB
2025-06-20 11:36:29.853,0.0001867306183433,0.3498103814357666,2,MB
2025-06-20 11:36:29.861,0.0001602922993055,0.3632507325758548,2,MB
2025-06-20 11:36:29.869,0.0001329107131534,0.3753756788579711,2,MB
2025-06-20 11:36:29.876,0.0001049209072352,0.3853727936566167,2,MB
2025-06-20 11:36:29.884,7.664439979311106e-05,0.3924512341940225,2,MB
2025-06-20 11:36:29.892,4.837623688539288e-05,0.3958532935732601,2,MB
2025-06-20 11:36:29.900,2.037293497215736e-05,0.3948678446954077,2,MB
2025-06-20 11:36:29.908,-7.15818219530776e-06,0.388846197520587,2,MB
2025-06-20 11:36:29.915,-3.4067746889231565e-05,0.3772206006439232,2,MB
2025-06-20 11:36:29.923,-6.0270779886390606e-05,0.3595252608664681,2,MB
2025-06-20 11:36:29.931,-8.575048297534435e-05,0.3354193481170358,2,MB
2025-06-20 11:36:29.939,-0.0001105592052292,0.3047110290205689,2,MB
2025-06-20 11:36:29.947,-0.0001348164955902,0.2673811744146546,2,MB
2025-06-20 11:36:29.954,-0.000158704239282,0.2236050650232084,2,MB
2025-06-20 11:36:29.962,-0.0001824589689509,0.1737702244588116,2,MB
2025-06-20 11:36:29.970,-0.0002063615521175,0.1184884771073643,2,MB
2025-06-20 11:36:29.978,-0.0002307245827952,0.05860047829467,2,MB
2025-06-20 11:36:29.986,-0.0002558779444129,-0.0048287092190775,2,MB
2025-06-20 11:36:29.994,-0.0002821531502263,-0.0705239424275016,2,MB
2025-06-20 11:36:30.001,-0.0003098671778553,-0.1370245983001091,2,MB
2025-06-20 11:36:30.009,-0.0003393065702579,-0.2027191802863192,2,MB
2025-06-20 11:36:30.017,-0.0003707125646595,-0.265889017390055,2,MB
2025-06-20 11:36:30.025,-0.0004042679337363,-0.3247595256697749,2,MB
2025-06-20 11:36:30.033,-0.0004400860914241,-0.3775569591280627,2,MB
2025-06-20 11:36:30.040,-0.0004782028554196,-0.4225681499069905,2,MB
2025-06-20 11:36:30.048,-0.0005185710983111,-0.4582004606362227,2,MB
2025-06-20 11:36:30.056,-0.0005610583728873,-0.4830390662984679,2,MB
2025-06-20 11:36:30.064,-0.000605447467577,-0.4958987586140014,2,MB
2025-06-20 11:36:30.072,-0.000651439739119,-0.4958677214511314,2,MB
2025-06-20 11:36:30.079,-0.0006986609830209,-0.4823411484989397,2,MB
2025-06-20 11:36:30.087,-0.0007466695374356,-0.4550431384389499,2,MB
2025-06-20 11:36:30.095,-0.00079496627478,-0.4140359681900375,2,MB
2025-06-20 11:36:30.103,-0.0008430061176406,-0.3597165609779502,2,MB
2025-06-20 11:36:30.111,-0.0008902107191428,-0.2928006788492371,2,MB
2025-06-20 11:36:30.119,-0.0009359819722284,-0.2142960268967367,2,MB
2025-06-20 11:36:30.126,-0.0009797160465154,-0.1254660123756741,2,MB
2025-06-20 11:36:30.134,-0.0010208176705515,-0.0277863179052523,2,MB
2025-06-20 11:36:30.142,-0.0010587143608022,0.07710330247727,2,MB
2025-06-20 11:36:30.150,-0.0010928702509951,0.1874495251380148,2,MB
2025-06-20 11:36:30.158,-0.00112279913201,0.3014358831306876,2,MB
2025-06-20 11:36:30.165,-0.0011480763240926,0.4172310074094946,2,MB
2025-06-20 11:36:30.173,-0.0011683490946075,0.5330329621560385,2,MB
2025-06-20 11:36:30.181,-0.0011833454745057,0.6471084206738618,2,MB
2025-06-20 11:36:30.189,-0.0011928814483381,0.7578259198244186,2,MB
2025-06-20 11:36:30.197,-0.0011968665514594,0.863682894694993,2,MB
2025-06-20 11:36:30.204,-0.0011953079175886,0.9633265913429828,2,MB
2025-06-20 11:36:30.212,-0.0011883128202306,1.0555692596698647,2,MB
2025-06-20 11:36:30.220,-0.0011760897490668,1.1393982296300622,2,MB
2025-06-20 11:36:30.228,-0.0011589480281368,1.2139815723776264,2,MB
2025-06-20 11:36:30.236,-0.0011372959047849,1.2786700533961066,2,MB
2025-06-20 11:36:30.244,-0.001111636949151,1.332996013090715,2,MB
2025-06-20 11:36:30.251,-0.0010825645554703,1.37666968209101,2,MB
2025-06-20 11:36:30.259,-0.0010507543576998,1.4095732795577371,2,MB
2025-06-20 11:36:30.267,-0.0010169544370465,1.4317530852507914,2,MB
2025-06-20 11:36:30.275,-0.0009819732440361,1.443409554287106,2,MB
2025-06-20 11:36:30.283,-0.0009466651502984,1.4448854838798553,2,MB
2025-06-20 11:36:30.290,-0.0009119135257923,1.436652251494883,2,MB
2025-06-20 11:36:30.298,-0.000878611277114,1.4192942105229636,2,MB
2025-06-20 11:36:30.306,-0.0008476389143854,1.3934914292400018,2,MB
2025-06-20 11:36:30.314,-0.0008198404142489,1.3600010700973837,2,MB
2025-06-20 11:36:30.322,-0.0007959973646226,1.319637813244243,2,MB
2025-06-20 11:36:30.329,-0.0007768020728157,1.273253817313887,2,MB
2025-06-20 11:36:30.337,-0.0007628304828108,1.2217187703189103,2,MB
2025-06-20 11:36:30.345,-0.0007545158933766,1.1659006058128696,2,MB
2025-06-20 11:36:30.353,-0.0007521245993995,1.106647440720302,2,MB
2025-06-20 11:36:30.361,-0.0007557346629524,1.0447712321676166,2,MB
2025-06-20 11:36:30.369,-0.0007652190062931,0.981033555879698,2,MB
2025-06-20 11:36:30.376,-0.0007802338783595,0.9161337874199208,2,MB
2025-06-20 11:36:30.384,-0.0008002135012205,0.8506998350395705,2,MB
2025-06-20 11:36:30.392,-0.0008243714030734,0.7852814497147226,2,MB
2025-06-20 11:36:30.400,-0.0008517086380663,0.720346042931707,2,MB
2025-06-20 11:36:30.408,-0.0008810288290699,0.6562768837879969,2,MB
2025-06-20 11:36:30.415,-0.000910959796403,0.5933735190500574,2,MB
2025-06-20 11:36:30.423,-0.0009399814652655,0.5318542518477473,2,MB
2025-06-20 11:36:30.431,-0.0009664597192949,0.4718605151610069,2,MB
2025-06-20 11:36:30.439,-0.0009886857929079,0.413462974189639,2,MB
2025-06-20 11:36:30.447,-0.001004920615711,0.3566691773818259,2,MB
2025-06-20 11:36:30.454,-0.0010134432553645,0.3014325430403176,2,MB
2025-06-20 11:36:30.462,-0.0010126023057293,0.2476624152301769,2,MB
2025-06-20 11:36:30.470,-0.0010008687816272,0.1952348524045779,2,MB
2025-06-20 11:36:30.478,-0.0009768888372332,0.1440037346144759,2,MB
2025-06-20 11:36:30.486,-0.0009395344400171,0.0938117058302232,2,MB
2025-06-20 11:36:30.494,-0.0008879500226203,0.044500421389757,2,MB
2025-06-20 11:36:30.501,-0.000821593116791,-0.0040804442171482,2,MB
2025-06-20 11:36:30.509,-0.0007402670608449,-0.0520659513941847,2,MB
2025-06-20 11:36:30.517,-0.0006441440772575,-0.0995708670209741,2,MB
2025-06-20 11:36:30.525,-0.0005337773475899,-0.1466871935903597,2,MB
2025-06-20 11:36:30.533,-0.0004101011623346,-0.1934844305618404,2,MB
2025-06-20 11:36:30.540,-0.0002744187611165,-0.2400125342615444,2,MB
2025-06-20 11:36:30.548,-0.0001283780441917,-0.2863073067881927,2,MB
2025-06-20 11:36:30.556,2.6064140011348266e-05,-0.3323977050235705,2,MB
2025-06-20 11:36:30.564,0.0001866880016777,-0.3783143454053463,2,MB
2025-06-20 11:36:30.572,0.0003510656774382,-0.4240983126932008,2,MB
2025-06-20 11:36:30.579,0.0005166233094492,-0.4698092809906211,2,MB
2025-06-20 11:36:30.587,0.0006807084841234,-0.5155319397677477,2,MB
2025-06-20 11:36:30.595,0.0008406609444522,-0.5613797994681407,2,MB
2025-06-20 11:36:30.603,0.0009938842400358,-0.6074956327377329,2,MB
2025-06-20 11:36:30.611,0.0011379157757156,-0.6540480751917548,2,MB
2025-06-20 11:36:30.619,0.0012704926366453,-0.701224237450541,2,MB
2025-06-20 11:36:30.626,0.0013896106675066,-0.7492185349863307,2,MB
2025-06-20 11:36:30.634,0.0014935745849586,-0.7982182901500772,2,MB
2025-06-20 11:36:30.642,0.0015810373593001,-0.8483869689596969,2,MB
2025-06-20 11:36:30.650,0.0016510276403629,-0.8998461555105409,2,MB
2025-06-20 11:36:30.658,0.0017029645759774,-0.9526575197189736,2,MB
2025-06-20 11:36:30.665,0.0017366599530516,-1.006806090894367,2,MB
2025-06-20 11:36:30.673,0.0017523081437086,-1.062186110276682,2,MB
2025-06-20 11:36:30.681,0.001750464815045,-1.1185906053104204,2,MB
2025-06-20 11:36:30.689,0.0017320157318648,-1.175705616621297,2,MB
2025-06-20 11:36:30.697,0.0016981372431335,-1.2331097308740389,2,MB
2025-06-20 11:36:30.704,0.0016502502040268,-1.2902792498684748,2,MB
2025-06-20 11:36:30.712,0.001589969159755,-1.346598980667857,2,MB
2025-06-20 11:36:30.720,0.0015190486199547,-1.4013782835629882,2,MB
2025-06-20 11:36:30.728,0.0014393281993601,-1.453871684520176,2,MB
2025-06-20 11:36:30.736,0.0013526783076429,-1.5033030699130818,2,MB
2025-06-20 11:36:30.744,0.0012609479523269,-1.5488922581788347,2,MB
2025-06-20 11:36:30.751,0.0011659160775492,-1.5898826038653104,2,MB
2025-06-20 11:36:30.759,0.0010692476892816,-1.6255682423349576,2,MB
2025-06-20 11:36:30.767,0.0009724558108785,-1.6553196271225992,2,MB
2025-06-20 11:36:30.775,0.0008768700930633,-1.678606139086494,2,MB
2025-06-20 11:36:30.783,0.0007836126913074,-1.695014744896039,2,MB
2025-06-20 11:36:30.790,0.0006935818046313,-1.704263938234137,2,MB
2025-06-20 11:36:30.798,0.0006074430124684,-1.7062124961467509,2,MB
2025-06-20 11:36:30.806,0.0005256282572616,-1.7008629066687502,2,MB
2025-06-20 11:36:30.814,0.0004483420411441,-1.6883596453397325,2,MB
2025-06-20 11:36:30.822,0.0003755741707051,-1.6689827660849377,2,MB
2025-06-20 11:36:30.829,0.0003071182081238,-1.6431374990903331,2,MB
2025-06-20 11:36:30.837,0.0002425946714572,-1.6113406985734853,2,MB
2025-06-20 11:36:30.845,0.0001814779678127,-1.5742050530777036,2,MB
2025-06-20 11:36:30.853,0.0001231260268901,-1.5324219665747054,2,MB
2025-06-20 11:36:30.861,6.681160299542912e-05,-1.4867439522011774,2,MB
2025-06-20 11:36:30.869,1.1754213488196291e-05,-1.437967265430134,2,MB
2025-06-20 11:36:30.876,-4.28483000460724e-05,-1.386915354111881,2,MB
2025-06-20 11:36:30.884,-9.778952247058108e-05,-1.3344235334382444,2,MB
2025-06-20 11:36:30.892,-0.0001538263038969,-1.2813251163987711,2,MB
2025-06-20 11:36:30.900,-0.0002116532464808,-1.22843905339261,2,MB
2025-06-20 11:36:30.908,-0.0002718801647089,-1.176558967229419,2,MB
2025-06-20 11:36:30.915,-0.0003350126403565,-1.1264433239440863,2,MB
2025-06-20 11:36:30.923,-0.0004014356618124,-1.0788063697681325,2,MB
2025-06-20 11:36:30.931,-0.0004714002822808,-1.0343094025735309,2,MB
2025-06-20 11:36:30.939,-0.0005450132150344,-0.9935519394895488,2,MB
2025-06-20 11:36:30.947,-0.0006222292800404,-0.9570623927612602,2,MB
2025-06-20 11:36:30.954,-0.0007028466335641,-0.925287970697887,2,MB
2025-06-20 11:36:30.962,-0.0007865047568113,-0.8985836740403773,2,MB
2025-06-20 11:36:30.970,-0.0008726852302293,-0.8772004496489488,2,MB
2025-06-20 11:36:30.978,-0.000960715350628,-0.8612727759698522,2,MB
2025-06-20 11:36:30.986,-0.0010497746531671,-0.8508061669424406,2,MB
2025-06-20 11:36:30.994,-0.0011389043946596,-0.8456652721514161,2,MB
2025-06-20 11:36:31.001,-0.0012270200480871,-0.8455634044755113,2,MB
2025-06-20 11:36:31.009,-0.0013129268266653,-0.8500544299039049,2,MB
2025-06-20 11:36:31.017,-0.0013953381639009,-0.8585279982537,2,MB
2025-06-20 11:36:31.025,-0.0014728969355916,-0.870209071087124,2,MB
2025-06-20 11:36:31.033,-0.0015441990840951,-0.8841626093141604,2,MB
2025-06-20 11:36:31.040,-0.0016078192437768,-0.899304115572823,2,MB
2025-06-20 11:36:31.048,-0.0016623379605526,-0.9144164875509242,2,MB
2025-06-20 11:36:31.056,-0.0017063701073337,-0.928173337428988,2,MB
2025-06-20 11:36:31.064,-0.0017385940926511,-0.9391685880812776,2,MB
2025-06-20 11:36:31.072,-0.0017577814365649,-0.9459517925375566,2,MB
2025-06-20 11:36:31.079,-0.0017628262528726,-0.9470682628023456,2,MB
2025-06-20 11:36:31.087,-0.0017527741382205,-0.9411027573787554,2,MB
2025-06-20 11:36:31.095,-0.0017268499273431,-0.9267251820743602,2,MB
2025-06-20 11:36:31.103,-0.0016844837099643,-0.9027365253179988,2,MB
2025-06-20 11:36:31.111,-0.0016253343886619,-0.8681130981848914,2,MB
2025-06-20 11:36:31.119,-0.0015493098856302,-0.8220470990131541,2,MB
2025-06-20 11:36:31.126,-0.0014565829357058,-0.763981582128217,2,MB
2025-06-20 11:36:31.134,-0.0013476013324053,-0.6936380768618843,2,MB
2025-06-20 11:36:31.142,-0.0012230916093114,-0.6110353658778073,2,MB
2025-06-20 11:36:31.150,-0.0010840554538281,-0.5164982779965499,2,MB
2025-06-20 11:36:31.158,-0.0009317585913795,-0.4106557670488223,2,MB
2025-06-20 11:36:31.165,-0.0007677123433725,-0.2944280187351046,2,MB
2025-06-20 11:36:31.173,-0.0005936484821628,-0.169002831288147,2,MB
2025-06-20 11:36:31.181,-0.0004114883462404,-0.0358020271719014,2,MB
2025-06-20 11:36:31.189,-0.0002233074043585,0.1035608585489205,2,MB
2025-06-20 11:36:31.197,-3.1296528401905645e-05,0.2473299349616186,2,MB
2025-06-20 11:36:31.204,0.0001622788537333,0.3936613305400945,2,MB
2025-06-20 11:36:31.212,0.0003551207447406,0.5406803147360397,2,MB
2025-06-20 11:36:31.220,0.0005449409332106,0.6865387614504415,2,MB
2025-06-20 11:36:31.228,0.0007295031199997,0.8294705356528427,2,MB
2025-06-20 11:36:31.236,0.0009066643240132,0.9678424893431172,2,MB
2025-06-20 11:36:31.244,0.0010744150777686,1.1001989736474989,2,MB
2025-06-20 11:36:31.251,0.0012309177907187,1.225298100627395,2,MB
2025-06-20 11:36:31.259,0.0013745424142612,1.34213840459029,2,MB
2025-06-20 11:36:31.267,0.0015038982746061,1.4499750346693707,2,MB
2025-06-20 11:36:31.275,0.0016178607588863,1.548325130465737,2,MB
2025-06-20 11:36:31.283,0.0017155915312006,1.6369625606744465,2,MB
2025-06-20 11:36:31.290,0.0017965511568201,1.715902707527743,2,MB
2025-06-20 11:36:31.298,0.0018605034010553,1.7853784221418365,2,MB
2025-06-20 11:36:31.306,0.0019075109580598,1.845808627457052,2,MB
2025-06-20 11:36:31.314,0.001937922850468,1.89776128973788,2,MB
2025-06-20 11:36:31.322,0.0019523541577273,1.9419126141689456,2,MB
2025-06-20 11:36:31.329,0.0019516590605339,1.979004352662731,2,MB
2025-06-20 11:36:31.337,0.0019368984331552,2.0098010559682304,2,MB
2025-06-20 11:36:31.345,0.0019093033745323,2.0350489737074144,2,MB
2025-06-20 11:36:31.353,0.0018702361336628,2.055438122839695,2,MB
2025-06-20 11:36:31.361,0.001821149855978,2.071568825542393,2,MB
2025-06-20 11:36:31.369,0.0017635484925307,2.083923777541693,2,MB
2025-06-20 11:36:31.376,0.0016989481233989,2.092846459012201,2,MB
2025-06-20 11:36:31.384,0.0016288408558369,2.098526450551512,2,MB
2025-06-20 11:36:31.392,0.0015546623206419,2.1009919735446774,2,MB
2025-06-20 11:36:31.400,0.0014777635758047,2.100109743460876,2,MB
2025-06-20 11:36:31.408,0.0013993879616643,2.0955920103609773,2,MB
2025-06-20 11:36:31.415,0.0013206531945717,2.087010465735135,2,MB
2025-06-20 11:36:31.423,0.0012425387796796,2.073816521376142,2,MB
2025-06-20 11:36:31.431,0.0011658786768576,2.055367317390379,2,MB
2025-06-20 11:36:31.439,0.0010913590414187,2.0309566933390406,2,MB
2025-06-20 11:36:31.447,0.0010195207409125,1.9998502535262952,2,MB
2025-06-20 11:36:31.454,0.0009507662006082,1.961323564005779,2,MB
2025-06-20 11:36:31.462,0.0008853699794066,1.9147024251177576,2,MB
2025-06-20 11:36:31.470,0.0008234923716398,1.8594040652893389,2,MB
2025-06-20 11:36:31.478,0.0007651952906326,1.7949780007683858,2,MB
2025-06-20 11:36:31.486,0.0007104596942487,1.7211452050547689,2,MB
2025-06-20 11:36:31.494,0.0006592038137625,1.637834135193411,2,MB
2025-06-20 11:36:31.501,0.0006113014196318,1.5452120795896025,2,MB
2025-06-20 11:36:31.509,0.0005665993224759,1.4437102439933938,2,MB
2025-06-20 11:36:31.517,0.0005249333095964,1.3340410068604458,2,MB
2025-06-20 11:36:31.525,0.0004861417875798,1.217205878384182,2,MB
2025-06-20 11:36:31.533,0.0004500765457617,1.0944929058145427,2,MB
2025-06-20 11:36:31.540,0.0004166102591876,0.9674625879617617,2,MB
2025-06-20 11:36:31.548,0.0003856405821673,0.8379217916360343,2,MB
2025-06-20 11:36:31.556,0.000357090911155,0.7078856901089879,2,MB
2025-06-20 11:36:31.564,0.0003309081000663,0.579528346554162,2,MB
2025-06-20 11:36:31.572,0.0003070575845705,0.4551232131715665,2,MB
2025-06-20 11:36:31.579,0.0002855165078192,0.3369754694927461,2,MB
2025-06-20 11:36:31.587,0.000266265541346,0.2273487289924524,2,MB
2025-06-20 11:36:31.595,0.0002492801703016,0.1283891381138618,2,MB
2025-06-20 11:36:31.603,0.0002345222484574,0.0420502145828789,2,MB
2025-06-20 11:36:31.611,0.0002219325873441,-0.0299781179111483,2,MB
2025-06-20 11:36:31.619,0.0002114252045508,-0.0863329539160468,2,MB
2025-06-20 11:36:31.626,0.0002028836450914,-0.1260312654218674,2,MB
2025-06-20 11:36:31.634,0.0001961595586005,-0.148509674843006,2,MB
2025-06-20 11:36:31.642,0.0001910735033602,-0.1536492700788996,2,MB
2025-06-20 11:36:31.650,0.0001874177732311,-0.1417843423732421,2,MB
2025-06-20 11:36:31.658,0.0001849609118272,-0.1136947307527456,2,MB
2025-06-20 11:36:31.665,0.0001834534930036,-0.0705822559266926,2,MB
2025-06-20 11:36:31.673,0.0001826347096796,-0.0140324716444463,2,MB
2025-06-20 11:36:31.681,0.0001822393244812,0.0540363897556052,2,MB
2025-06-20 11:36:31.689,0.0001820045928426,0.1314348835578121,2,MB
2025-06-20 11:36:31.697,0.0001816768597693,0.2157714770851234,2,MB
2025-06-20 11:36:31.704,0.0001810176292753,0.304526389718656,2,MB
2025-06-20 11:36:31.712,0.0001798089828861,0.3951271821860508,2,MB
2025-06-20 11:36:31.720,0.0001778582686601,0.4850232498914928,2,MB
2025-06-20 11:36:31.728,0.0001750019943875,0.5717566127517582,2,MB
2025-06-20 11:36:31.736,0.0001711088389864,0.6530267186240925,2,MB
2025-06-20 11:36:31.744,0.000166081656919,0.7267473605599004,2,MB
2025-06-20 11:36:31.751,0.0001598583195826,0.7910942235934313,2,MB
2025-06-20 11:36:31.759,0.0001524112412611,0.8445420019685899,2,MB
2025-06-20 11:36:31.767,0.00014374548731,0.8858904451227795,2,MB
2025-06-20 11:36:31.775,0.0001338954593303,0.9142790880816886,2,MB
2025-06-20 11:36:31.783,0.0001229202835433,0.9291907903233836,2,MB
2025-06-20 11:36:31.790,0.0001108981593015,0.930444540394709,2,MB
2025-06-20 11:36:31.798,9.79200065279538e-05,0.9181782807792768,2,MB
2025-06-20 11:36:31.806,8.408276023871543e-05,0.8928227754979138,2,MB
2025-06-20 11:36:31.814,6.948262175136748e-05,0.8550677898138132,2,MB
2025-06-20 11:36:31.822,5.420853866346416e-05,0.8058220758547978,2,MB
2025-06-20 11:36:31.829,3.8336183244725126e-05,0.7461688471724984,2,MB
2025-06-20 11:36:31.837,2.1922733011660093e-05,0.677318563985547,2,MB
2025-06-20 11:36:31.845,5.0027968423958684e-06,0.6005609278614308,2,MB
2025-06-20 11:36:31.853,-1.2414171174356272e-05,0.5172179899044757,2,MB
2025-06-20 11:36:31.861,-3.034469198271911e-05,0.4286001980606733,2,MB
2025-06-20 11:36:31.869,-4.883014056274024e-05,0.3359670363881878,2,MB
2025-06-20 11:36:31.876,-6.793361163552437e-05,0.2404936396700591,2,MB
2025-06-20 11:36:31.884,-8.773479957949856e-05,0.1432444091355156,2,MB
2025-06-20 11:36:31.892,-0.0001083230461099,0.0451542282242855,2,MB
2025-06-20 11:36:31.900,-0.0001297888778811,-0.0529825900815972,2,MB
2025-06-20 11:36:31.908,-0.0001522145377131,-0.1505159630628786,2,MB
2025-06-20 11:36:31.915,-0.000175664154477,-0.2469370730539792,2,MB
2025-06-20 11:36:31.923,-0.0002001742605349,-0.3418698891497668,2,MB
2025-06-20 11:36:31.931,-0.0002257453466784,-0.4350585105250528,2,MB
2025-06-20 11:36:31.939,-0.0002523350630088,-0.5263517462670215,2,MB
2025-06-20 11:36:31.947,-0.0002798535557263,-0.6156862827231586,2,MB
2025-06-20 11:36:31.954,-0.0003081612864051,-0.7030696005504876,2,MB
2025-06-20 11:36:31.962,-0.0003370695150392,-0.7885635266854879,2,MB
2025-06-20 11:36:31.970,-0.0003663434463505,-0.8722689883783921,2,MB
2025-06-20 11:36:31.978,-0.00039570784657,-0.9543122240848092,2,MB
2025-06-20 11:36:31.986,-0.0004248547498672,-1.0348324361426204,2,MB
2025-06-20 11:36:31.994,-0.0004534527290473,-1.113970665488361,2,MB
2025-06-20 11:36:32.001,-0.0004811571517377,-1.191859540490677,2,MB
2025-06-20 11:36:32.009,-0.0005076208931416,-1.2686135040133732,2,MB
2025-06-20 11:36:32.017,-0.0005325050828526,-1.3443191515381352,2,MB
2025-06-20 11:36:32.025,-0.000555489555101,-1.419025406391803,2,MB
2025-06-20 11:36:32.033,-0.0005762827214345,-1.492733396784396,2,MB
2025-06-20 11:36:32.040,-0.0005946306236111,-1.5653860637473285,2,MB
2025-06-20 11:36:32.048,-0.000610324978165,-1.636857704053995,2,MB
2025-06-20 11:36:32.056,-0.0006232100663046,-1.7069438262854988,2,MB
2025-06-20 11:36:32.064,-0.0006331883197919,-1.7753518586310153,2,MB
2025-06-20 11:36:32.072,-0.0006402244207868,-1.8416933789584085,2,MB
2025-06-20 11:36:32.079,-0.0006443477110704,-1.9054786290040329,2,MB
2025-06-20 11:36:32.087,-0.0006456527071822,-1.966114118802428,2,MB
2025-06-20 11:36:32.095,-0.000644297542682,-2.0229041207702227,2,MB
2025-06-20 11:36:32.103,-0.0006405002239183,-2.0750567898648864,2,MB
2025-06-20 11:36:32.111,-0.000634532703521,-2.1216955221250924,2,MB
2025-06-20 11:36:32.119,-0.0006267129206334,-2.1618759782935637,2,MB
2025-06-20 11:36:32.126,-0.0006173950806109,-2.1946089565957383,2,MB
2025-06-20 11:36:32.134,-0.0006069585167429,-2.2188890072357323,2,MB
2025-06-20 11:36:32.142,-0.0005957954923234,-2.2337283531848957,2,MB
2025-06-20 11:36:32.150,-0.0005842982955823,-2.238195334242145,2,MB
2025-06-20 11:36:32.158,-0.0005728460000141,-2.2314562436141885,2,MB
2025-06-20 11:36:32.165,-0.0005617913316552,-2.2128190986571137,2,MB
2025-06-20 11:36:32.173,-0.0005514481779761,-2.1817776003585774,2,MB
2025-06-20 11:36:32.181,-0.0005420803410919,-2.1380533104936945,2,MB
2025-06-20 11:36:32.189,-0.0005338921451376,-2.0816339329382063,2,MB
2025-06-20 11:36:32.197,-0.000527021442653,-2.01280554755566,2,MB
2025-06-20 11:36:32.204,-0.0005215354365708,-1.9321767267177767,2,MB
2025-06-20 11:36:32.212,-0.0005174295684223,-1.840692668653864,2,MB
2025-06-20 11:36:32.220,-0.000514629547911,-1.7396377968705294,2,MB
2025-06-20 11:36:32.228,-0.0005129964277938,-1.6306256806627724,2,MB
2025-06-20 11:36:32.236,-0.0005123344647592,-1.5155756074612563,2,MB
2025-06-20 11:36:32.244,-0.0005124013567861,-1.3966756655283905,2,MB
2025-06-20 11:36:32.251,-0.0005129203150863,-1.276332758973117,2,MB
2025-06-20 11:36:32.259,-0.0005135933251122,-1.1571105591035973,2,MB
2025-06-20 11:36:32.267,-0.0005141149011453,-1.0416569777771336,2,MB
2025-06-20 11:36:32.275,-0.0005141856562621,-0.9326233075885086,2,MB
2025-06-20 11:36:32.283,-0.0005135250697827,-0.8325776849732501,2,MB
2025-06-20 11:36:32.290,-0.000511882900998,-0.7439159692650799,2,MB
2025-06-20 11:36:32.298,-0.0005090487688792,-0.6687734688879867,2,MB
2025-06-20 11:36:32.306,-0.0005048595250078,-0.6089411611505384,2,MB
2025-06-20 11:36:32.314,-0.0004992042095576,-0.5657901194471616,2,MB
2025-06-20 11:36:32.322,-0.0004920265706082,-0.5402077577177049,2,MB
2025-06-20 11:36:32.329,-0.0004833252945803,-0.5325492108336151,2,MB
2025-06-20 11:36:32.337,-0.0004731522034435,-0.5426066875860566,2,MB
2025-06-20 11:36:32.345,-0.0004616087109888,-0.5695989715244412,2,MB
2025-06-20 11:36:32.353,-0.0004488408065944,-0.6121824294199871,2,MB
2025-06-20 11:36:32.361,-0.0004350327862382,-0.6684839529912648,2,MB
2025-06-20 11:36:32.369,-0.0004203999265549,-0.7361552489361816,2,MB
2025-06-20 11:36:32.376,-0.0004051803240348,-0.8124468554439087,2,MB
2025-06-20 11:36:32.384,-0.0003896261758229,-0.8942992615735854,2,MB
2025-06-20 11:36:32.392,-0.0003739948162528,-0.9784476097986904,2,MB
2025-06-20 11:36:32.400,-0.0003585398209741,-1.0615357396812153,2,MB
2025-06-20 11:36:32.408,-0.0003435024603844,-1.1402348319644169,2,MB
2025-06-20 11:36:32.415,-0.0003291037502625,-1.2113616621469183,2,MB
2025-06-20 11:36:32.423,-0.0003155373209921,-1.271991475258123,2,MB
2025-06-20 11:36:32.431,-0.0003029633081417,-1.3195607410535783,2,MB
2025-06-20 11:36:32.439,-0.0002915034563706,-1.351955524377583,2,MB
2025-06-20 11:36:32.447,-0.0002812376152248,-1.367581883313458,2,MB
2025-06-20 11:36:32.455,-0.0002722017657935,-1.3654155526427785,2,MB
2025-06-20 11:36:32.462,-0.0002643876400074,-1.3450291371540524,2,MB
2025-06-20 11:36:32.470,-0.0002577439036508,-1.3065960753531802,2,MB
2025-06-20 11:36:32.478,-0.0002521788155597,-1.250871681644642,2,MB
2025-06-20 11:36:32.486,-0.0002475642722007,-1.179152578208572,2,MB
2025-06-20 11:36:32.494,-0.0002437411743973,-1.093216737518681,2,MB
2025-06-20 11:36:32.501,-0.0002405260630341,-0.9952471326248958,2,MB
2025-06-20 11:36:32.509,-0.0002377189301905,-0.8877426036052986,2,MB
2025-06-20 11:36:32.517,-0.0002351120198333,-0.7734199713401321,2,MB
2025-06-20 11:36:32.525,-0.0002324993114425,-0.6551116480333442,2,MB
2025-06-20 11:36:32.533,-0.0002296862589261,-0.5356630015420218,2,MB
2025-06-20 11:36:32.540,-0.0002264992514348,-0.4178335334054462,2,MB
2025-06-20 11:36:32.548,-0.0002227941875548,-0.3042055457461512,2,MB
2025-06-20 11:36:32.556,-0.0002184635455839,-0.1971034269034301,2,MB
2025-06-20 11:36:32.564,-0.0002134414270289,-0.0985260167127598,2,MB
2025-06-20 11:36:32.572,-0.000207706243959,-0.0100937670314727,2,MB
2025-06-20 11:36:32.580,-0.0002012809618166,0.066988354131787,2,MB
2025-06-20 11:36:32.587,-0.0001942310347944,0.1319520005789212,2,MB
2025-06-20 11:36:32.595,-0.0001866603398372,0.1844710669972914,2,MB
2025-06-20 11:36:32.603,-0.0001787055132176,0.2246527679540726,2,MB
2025-06-20 11:36:32.611,-0.0001705291265043,0.2530155658484359,2,MB
2025-06-20 11:36:32.619,-0.0001623121295473,0.2704556162572583,2,MB
2025-06-20 11:36:32.626,-0.0001542459627853,0.2782035590346615,2,MB
2025-06-20 11:36:32.634,-0.0001465247113077,0.2777735455318643,2,MB
2025-06-20 11:36:32.642,-0.0001393376403045,0.2709063828203502,2,MB
2025-06-20 11:36:32.650,-0.0001328624171821,0.2595086200071341,2,MB
2025-06-20 11:36:32.658,-0.0001272592810176,0.2455893207234046,2,MB
2025-06-20 11:36:32.665,-0.0001226663435663,0.2311961772010192,2,MB
2025-06-20 11:36:32.673,-0.0001191960884412,0.2183525389720208,2,MB
2025-06-20 11:36:32.681,-0.0001169330026306,0.2089968604701851,2,MB
2025-06-20 11:36:32.689,-0.0001159321750203,0.2049260144716103,2,MB
2025-06-20 11:36:32.697,-0.0001162186569828,0.2077438612863733,2,MB
2025-06-20 11:36:32.705,-0.0001177873875365,0.2188163897202739,2,MB
2025-06-20 11:36:32.712,-0.000120603515658,0.2392346344835978,2,MB
2025-06-20 11:36:32.720,-0.0001246029944135,0.269786406288828,2,MB
2025-06-20 11:36:32.728,-0.0001296933711734,0.3109376342772438,2,MB
2025-06-20 11:36:32.736,-0.0001357547505385,0.3628238203405602,2,MB
2025-06-20 11:36:32.744,-0.0001426409602608,0.42525176183757,2,MB
2025-06-20 11:36:32.751,-0.0001501810022583,0.4977113409974413,2,MB
2025-06-20 11:36:32.759,-0.0001581809145924,0.5793968314326439,2,MB
2025-06-20 11:36:32.767,-0.000166426195261,0.6692368532370995,2,MB
2025-06-20 11:36:32.775,-0.0001746849219527,0.7659318299650348,2,MB
2025-06-20 11:36:32.783,-0.0001827116287972,0.8679975700455678,2,MB
2025-06-20 11:36:32.790,-0.0001902518966814,0.9738134147665012,2,MB
2025-06-20 11:36:32.798,-0.0001970475189469,1.0816732652632168,2,MB
2025-06-20 11:36:32.806,-0.0002028420325134,1.1898377215319698,2,MB
2025-06-20 11:36:32.814,-0.0002073863553359,1.2965855374129325,2,MB
2025-06-20 11:36:32.822,-0.000210444261559,1.4002626181574676,2,MB
2025-06-20 11:36:32.830,-0.0002117974682669,1.4993268656703151,2,MB
2025-06-20 11:36:32.837,-0.0002112501773857,1.5923873187256137,2,MB
2025-06-20 11:36:32.845,-0.0002086329678645,1.6782362515996758,2,MB
2025-06-20 11:36:32.853,-0.000203805945319,1.755873192342176,2,MB
2025-06-20 11:36:32.861,-0.0001966610515406,1.8245202007298944,2,MB
2025-06-20 11:36:32.869,-0.0001871234609832,1.883628191986964,2,MB
2025-06-20 11:36:32.876,-0.000175152069757,1.93287457717095,2,MB
2025-06-20 11:36:32.884,-0.0001607391914956,1.9721529770771484,2,MB
2025-06-20 11:36:32.892,-0.000143909666543,2.001556215792337,2,MB
2025-06-20 11:36:32.900,-0.0001247196327165,2.021354178412848,2,MB
2025-06-20 11:36:32.908,-0.0001032551869738,2.0319683919902984,2,MB
2025-06-20 11:36:32.915,-7.96310908629473e-05,2.0339453296676773,2,MB
2025-06-20 11:36:32.923,-5.398955538980842e-05,2.02793042772731,2,MB
2025-06-20 11:36:32.931,-2.649902225941522e-05,2.0146446440093078,2,MB
2025-06-20 11:36:32.939,2.647209358248264e-06,1.9948650866157007,2,MB
2025-06-20 11:36:32.947,3.323265085233971e-05,1.9694108229831464,2,MB
2025-06-20 11:36:32.955,6.501965966339433e-05,1.9391344668751755,2,MB
2025-06-20 11:36:32.962,9.775183652498273e-05,1.9049195702748,2,MB
2025-06-20 11:36:32.970,0.0001311567234866,1.8676832641821264,2,MB
2025-06-20 11:36:32.978,0.0001649487216909,1.8283830473433644,2,MB
2025-06-20 11:36:32.986,0.0001988321641329,1.788026162048294,2,MB
2025-06-20 11:36:32.994,0.0002325045278906,1.7476796574897395,2,MB
2025-06-20 11:36:33.001,0.0002656598384736,1.708479045550484,2,MB
2025-06-20 11:36:33.009,0.0002979923718797,1.6716334102857606,2,MB
2025-06-20 11:36:33.017,0.0003292007595467,1.6384249407802534,2,MB
2025-06-20 11:36:33.025,0.0003589925459582,1.6102011121817226,2,MB
2025-06-20 11:36:33.033,0.0003870891763467,1.5883581344569802,2,MB
2025-06-20 11:36:33.040,0.0004132313287728,1.5743148140493153,2,MB
2025-06-20 11:36:33.048,0.0004371844410456,1.5694766140909966,2,MB
2025-06-20 11:36:33.056,0.0004587442106333,1.575190423546058,2,MB
2025-06-20 11:36:33.064,0.0004777417837417,1.592691308420057,2,MB
2025-06-20 11:36:33.072,0.0004940483233794,1.6230432641936254,2,MB
2025-06-20 11:36:33.080,0.0005075786683402,1.6670766631560994,2,MB
2025-06-20 11:36:33.087,0.00051829386714,1.725325642519468,2,MB
2025-06-20 11:36:33.095,0.0005262024814892,1.7979690636475478,2,MB
2025-06-20 11:36:33.103,0.0005313606689046,1.8847788526068996,2,MB
2025-06-20 11:36:33.111,0.000533871126536,1.9850794823805435,2,MB
2025-06-20 11:36:33.119,0.0005338809856904,2.0977220639514287,2,MB
2025-06-20 11:36:33.126,0.000531578714418,2.2210759748414244,2,MB
2025-06-20 11:36:33.134,0.0005271900636692,2.353040182501944,2,MB
2025-06-20 11:36:33.142,0.0005209731155528,2.491075450650799,2,MB
2025-06-20 11:36:33.150,0.0005132125619212,2.632257507925745,2,MB
2025-06-20 11:36:33.158,0.0005042134266998,2.7733500880894684,2,MB
2025-06-20 11:36:33.165,0.0004942944993824,2.9108956063667275,2,MB
2025-06-20 11:36:33.173,0.0004837817468927,3.041320201827274,2,MB
2025-06-20 11:36:33.181,0.0004730019391797,3.161049023137384,2,MB
2025-06-20 11:36:33.189,0.0004622766969372,3.266627015443291,2,MB
2025-06-20 11:36:33.197,0.0004519171494265,3.354840104684732,2,MB
2025-06-20 11:36:33.205,0.0004422193434527,3.4228315748128195,2,MB
2025-06-20 11:36:33.212,0.0004334604516852,3.4682085837762417,2,MB
2025-06-20 11:36:33.220,0.0004258957156612,3.489134153525311,2,MB
2025-06-20 11:36:33.228,0.0004197559735557,3.4844005821771744,2,MB
2025-06-20 11:36:33.236,0.0004152455902605,3.453481036195139,2,MB
2025-06-20 11:36:33.244,0.0004125406162337,3.396557043874732,2,MB
2025-06-20 11:36:33.251,0.0004117870275271,3.314520672360288,2,MB
2025-06-20 11:36:33.259,0.0004130989301968,3.208951267649637,2,MB
2025-06-20 11:36:33.267,0.0004165566452195,3.0820677113218498,2,MB
2025-06-20 11:36:33.275,0.0004222046222099,2.9366581451225318,2,MB
2025-06-20 11:36:33.283,0.0004300491684941,2.775989989310361,2,MB
2025-06-20 11:36:33.290,0.0004400560439716,2.603703799671249,2,MB
2025-06-20 11:36:33.298,0.0004521480687606,2.4236950532691437,2,MB
2025-06-20 11:36:33.306,0.0004662029914257,2.2399883174631063,2,MB
2025-06-20 11:36:33.314,0.0004820519208079,2.056608438347153,2,MB
2025-06-20 11:36:33.322,0.0004994786071169,1.8774533842466647,2,MB
2025-06-20 11:36:33.330,0.0005182197893474,1.70617320317707,2,MB
2025-06-20 11:36:33.337,0.000537966752305,1.5460592130841762,2,MB
2025-06-20 11:36:33.345,0.0005583681908802,1.3999470596919226,2,MB
2025-06-20 11:36:33.353,0.0005790344712069,1.2701366745221478,2,MB
2025-06-20 11:36:33.361,0.000599543396648,1.1583314763116186,2,MB
2025-06-20 11:36:33.369,0.0006194475962209,1.0655984167158683,2,MB
2025-06-20 11:36:33.376,0.0006382836067627,0.992349707374062,2,MB
2025-06-20 11:36:33.384,0.0006555825957306,0.9383463037023668,2,MB
2025-06-20 11:36:33.392,0.0006708824959107,0.9027224769579578,2,MB
2025-06-20 11:36:33.400,0.0006837411485496,0.8840300951049933,2,MB
2025-06-20 11:36:33.408,0.0006937499171059,0.8803005768364894,2,MB
2025-06-20 11:36:33.415,0.0007005471574131,0.889121911780864,2,MB
2025-06-20 11:36:33.423,0.0007038309160145,0.9077276839892932,2,MB
2025-06-20 11:36:33.431,0.0007033702697384,0.9330947178230332,2,MB
2025-06-20 11:36:33.439,0.0006990147946739,0.9620457974981812,2,MB
2025-06-20 11:36:33.447,0.0006907017377167,0.9913538971816536,2,MB
2025-06-20 11:36:33.455,0.0006784605496981,1.0178444917543914,2,MB
2025-06-20 11:36:33.462,0.0006624145268788,1.0384927813891538,2,MB
2025-06-20 11:36:33.470,0.0006427793986188,1.050513027052588,2,MB
2025-06-20 11:36:33.478,0.0006198588028717,1.051437624639025,2,MB
2025-06-20 11:36:33.486,0.0005940367217591,1.0391840096059484,2,MB
2025-06-20 11:36:33.494,0.0005657670969271,1.0121079538144762,2,MB
2025-06-20 11:36:33.501,0.000535560971832,0.969042270276478,2,MB
2025-06-20 11:36:33.509,0.0005039715937466,0.9093203647711372,2,MB
2025-06-20 11:36:33.517,0.0004715779737232,0.8327844577747033,2,MB
2025-06-20 11:36:33.525,0.0004389674827603,0.7397786449675797,2,MB
2025-06-20 11:36:33.533,0.0004067181563236,0.6311272758190519,2,MB
2025-06-20 11:36:33.540,0.0003753814493427,0.5080994190958301,2,MB
2025-06-20 11:36:33.548,0.000345466195355,0.3723604667662766,2,MB
2025-06-20 11:36:33.556,0.0003174244662433,0.2259122191486515,2,MB
2025-06-20 11:36:33.564,0.0002916399042307,0.0710231039605132,2,MB
2025-06-20 11:36:33.572,0.0002684189182661,-0.0898494934649678,2,MB
2025-06-20 11:36:33.580,0.000247984939618,-0.2541424912046022,2,MB
2025-06-20 11:36:33.587,0.0002304757583411,-0.4192733764877265,2,MB
2025-06-20 11:36:33.595,0.0002159438261763,-0.5827266558511894,2,MB
2025-06-20 11:36:33.603,0.0002043593007753,-0.7421375071977951,2,MB
2025-06-20 11:36:33.611,0.0001956155130006,-0.8953695766784336,2,MB
2025-06-20 11:36:33.619,0.0001895364629918,-1.040583899709775,2,MB
2025-06-20 11:36:33.626,0.0001858858907094,-1.1762961007943702,2,MB
2025-06-20 11:36:33.634,0.0001843774311323,-1.3014193634243003,2,MB
2025-06-20 11:36:33.642,0.0001846853739433,-1.4152911672331825,2,MB
2025-06-20 11:36:33.650,0.0001864556103703,-1.5176824551021229,2,MB
2025-06-20 11:36:33.658,0.000189316438068,-1.6087886899323658,2,MB
2025-06-20 11:36:33.665,0.0001928889590512,-1.6892031433377346,2,MB
2025-06-20 11:36:33.673,0.0001967968188493,-1.7598736677042088,2,MB
2025-06-20 11:36:33.681,0.0002006750183277,-1.8220450742187648,2,MB
2025-06-20 11:36:33.689,0.0002041775285634,-1.877190008412718,2,MB
2025-06-20 11:36:33.697,0.0002069834861295,-1.926931824497829,2,MB
2025-06-20 11:36:33.705,0.0002088018493074,-1.9729633670928048,2,MB
2025-06-20 11:36:33.712,0.00020937454195,-2.0169657467029665,2,MB
2025-06-20 11:36:33.720,0.0002084782636878,-2.06053113181126,2,MB
2025-06-20 11:36:33.728,0.0002059252526393,-2.10509328113456,2,MB
2025-06-20 11:36:33.736,0.0002015633241901,-2.1518690288369453,2,MB
2025-06-20 11:36:33.744,0.000195275497897,-2.2018132532246737,2,MB
2025-06-20 11:36:33.751,0.0001869795002773,-2.255589056097902,2,MB
2025-06-20 11:36:33.759,0.0001766273966355,-2.313554013483585,2,MB
2025-06-20 11:36:33.767,0.0001642055288689,-2.375762490782376,2,MB
2025-06-20 11:36:33.775,0.0001497348017117,-2.4419832041146337,2,MB
2025-06-20 11:36:33.783,0.000133271196644,-2.5117304994770016,2,MB
2025-06-20 11:36:33.790,0.0001149062541541,-2.5843072398691787,2,MB
2025-06-20 11:36:33.798,9.476719074739892e-05,-2.6588567494144386,2,MB
2025-06-20 11:36:33.806,7.301632139036725e-05,-2.734420961682797,2,MB
2025-06-20 11:36:33.814,4.984953282766475e-05,-2.8100017501605623,2,MB
2025-06-20 11:36:33.822,2.549366479384686e-05,-2.8846223769509023,2,MB
2025-06-20 11:36:33.830,2.027565416503689e-07,-2.9573860783367474,2,MB
2025-06-20 11:36:33.837,-2.5746819562047226e-05,-3.0275290059634687,2,MB
2025-06-20 11:36:33.845,-5.206226703661215e-05,-3.094465046569082,2,MB
2025-06-20 11:36:33.853,-7.844117996097742e-05,-3.1578204355079174,2,MB
2025-06-20 11:36:33.861,-0.0001045790431662,-3.217456546820588,2,MB
2025-06-20 11:36:33.869,-0.0001301771343975,-3.273479775563035,2,MB
2025-06-20 11:36:33.876,-0.0001549505243947,-3.326238016677343,2,MB
2025-06-20 11:36:33.884,-0.0001786358727504,-3.376303875389015,2,MB
2025-06-20 11:36:33.892,-0.0002009987077777,-3.424445396348636,2,MB
2025-06-20 11:36:33.900,-0.000221839858551,-3.4715857415960443,2,MB
2025-06-20 11:36:33.908,-0.0002410007128394,-3.518753840331933,2,MB
2025-06-20 11:36:33.915,-0.0002583670283052,-3.5670285328998768,2,MB
2025-06-20 11:36:33.923,-0.0002738711047738,-3.617479099992892,2,MB
2025-06-20 11:36:33.931,-0.0002874921975375,-3.671105280675103,2,MB
2025-06-20 11:36:33.939,-0.0002992551152008,-3.728779926866199,2,MB
2025-06-20 11:36:33.947,-0.0003092270348191,-3.791197315331244,2,MB
2025-06-20 11:36:33.955,-0.0003175127024009,-3.858829847233255,2,MB
2025-06-20 11:36:33.962,-0.0003242483428812,-3.931895424852671,2,MB
2025-06-20 11:36:33.970,-0.0003295947313517,-4.010337228835237,2,MB
2025-06-20 11:36:33.978,-0.0003337299414929,-4.093816957464045,2,MB
2025-06-20 11:36:33.986,-0.0003368422759051,-4.18172186607939,2,MB
2025-06-20 11:36:33.994,-0.0003391237985222,-4.273185198459808,2,MB
2025-06-20 11:36:34.001,-0.0003407647474934,-4.367118877116045,2,MB
2025-06-20 11:36:34.009,-0.0003419489468664,-4.462256663452853,2,MB
2025-06-20 11:36:34.017,-0.0003428502095229,-4.5572054551148415,2,MB
2025-06-20 11:36:34.025,-0.000343629660169,-4.650501989804982,2,MB
2025-06-20 11:36:34.033,-0.0003444338856771,-4.740671993160088,2,MB
2025-06-20 11:36:34.040,-0.000345393797668,-4.826288751952722,2,MB
2025-06-20 11:36:34.048,-0.0003466240486011,-4.906028211120852,2,MB
2025-06-20 11:36:34.056,-0.0003482228005038,-4.978717970137436,2,MB
2025-06-20 11:36:34.064,-0.0003502716502115,-5.043377965443371,2,MB
2025-06-20 11:36:34.072,-0.000352835588981,-5.099251138342495,2,MB
2025-06-20 11:36:34.080,-0.0003559629916779,-5.145822968962022,2,MB
2025-06-20 11:36:34.087,-0.0003596857410216,-5.182829376540964,2,MB
2025-06-20 11:36:34.095,-0.0003640196583811,-5.210253115060593,2,MB
2025-06-20 11:36:34.103,-0.000368965419927,-5.228309400362391,2,MB
2025-06-20 11:36:34.111,-0.0003745100846979,-5.237422059213362,2,MB
2025-06-20 11:36:34.119,-0.0003806292621082,-5.238191961888937,2,MB
2025-06-20 11:36:34.126,-0.0003872898362615,-5.231359858799218,2,MB
2025-06-20 11:36:34.134,-0.0003944530922364,-5.21776596267582,2,MB
2025-06-20 11:36:34.142,-0.0004020780801079,-5.198308681550633,2,MB
2025-06-20 11:36:34.150,-0.0004101250827809,-5.173904805602862,2,MB
2025-06-20 11:36:34.158,-0.0004185590764074,-5.145453188921262,2,MB
2025-06-20 11:36:34.173,-0.0004273530549507,-5.113803567337333,2,MB
2025-06-20 11:36:34.181,-0.0004364910336299,-5.079731652106538,2,MB
2025-06-20 11:36:34.189,-0.0004459704823861,-5.043921084404527,2,MB
2025-06-20 11:36:34.197,-0.0004558039180507,-5.006952283616062,2,MB
2025-06-20 11:36:34.205,-0.0004660194262242,-4.969297730106671,2,MB
2025-06-20 11:36:34.212,-0.0004766599683203,-4.931322836254464,2,MB
2025-06-20 11:36:34.220,-0.0004877814169693,-4.893291302433008,2,MB
2025-06-20 11:36:34.228,-0.0004994493410941,-4.855373728922654,2,MB
2025-06-20 11:36:34.236,-0.0005117346407391,-4.817658245862416,2,MB
2025-06-20 11:36:34.244,-0.0005247082164493,-4.780162009666081,2,MB
2025-06-20 11:36:34.251,-0.0005384349454895,-4.742842572218312,2,MB
2025-06-20 11:36:34.259,-0.0005529673240287,-4.705608334891662,2,MB
2025-06-20 11:36:34.267,-0.0005683392071781,-4.668327529767551,2,MB
2025-06-20 11:36:34.275,-0.0005845601097331,-4.630835402644842,2,MB
2025-06-20 11:36:34.283,-0.0006016104965045,-4.592939483901642,2,MB
2025-06-20 11:36:34.290,-0.0006194383941363,-4.554423003499782,2,MB
2025-06-20 11:36:34.298,-0.0006379575297234,-4.515046622177013,2,MB
2025-06-20 11:36:34.306,-0.0006570470943633,-4.4745487120508685,2,MB
2025-06-20 11:36:34.314,-0.0006765531673843,-4.432644439953873,2,MB
2025-06-20 11:36:34.322,-0.0006962917974386,-4.38902390612965,2,MB
2025-06-20 11:36:34.330,-0.000716053675971,-4.343349587512714,2,MB
2025-06-20 11:36:34.337,-0.0007356102365487,-4.295253340187845,2,MB
2025-06-20 11:36:34.345,-0.0007547208939848,-4.24433323590582,2,MB
2025-06-20 11:36:34.353,-0.0007731410476754,-4.190150544413776,2,MB
2025-06-20 11:36:34.361,-0.0007906304396536,-4.132227221526668,2,MB
2025-06-20 11:36:34.369,-0.0008069614594029,-4.07004430971429,2,MB
2025-06-20 11:36:34.376,-0.000821926990359,-4.0030416908988125,2,MB
2025-06-20 11:36:34.384,-0.0008353473976563,-3.930619645561817,2,MB
2025-06-20 11:36:34.392,-0.0008470762979591,-3.8521426697614993,2,MB
2025-06-20 11:36:34.400,-0.0008570048510113,-3.766945980917444,2,MB
2025-06-20 11:36:34.408,-0.0008650644438921,-3.674345095647016,2,MB
2025-06-20 11:36:34.415,-0.0008712277541724,-3.5736487775964583,2,MB
2025-06-20 11:36:34.423,-0.0008755082439831,-3.464175523336699,2,MB
2025-06-20 11:36:34.431,-0.0008779581531535,-3.3452735784900387,2,MB
2025-06-20 11:36:34.439,-0.0008786650586676,-3.2163442557687096,2,MB
2025-06-20 11:36:34.447,-0.0008777470976282,-3.076868066656091,2,MB
2025-06-20 11:36:34.455,-0.0008753470355599,-2.926432892571338,2,MB
2025-06-20 11:36:34.462,-0.0008716254772608,-2.7647631340781578,2,MB
2025-06-20 11:36:34.470,-0.0008667536153893,-2.5917485192569427,2,MB
2025-06-20 11:36:34.478,-0.000860905957818,-2.407471053926517,2,MB
2025-06-20 11:36:34.486,-0.0008542534566313,-2.212228477915964,2,MB
2025-06-20 11:36:34.494,-0.0008469573811697,-2.006552566396642,2,MB
2025-06-20 11:36:34.501,-0.0008391641498832,-1.791220692919689,2,MB
2025-06-20 11:36:34.509,-0.000831001198767,-1.567259256238028,2,MB
2025-06-20 11:36:34.517,-0.0008225738687514,-1.335937861526118,2,MB
2025-06-20 11:36:34.525,-0.0008139632668882,-1.098753523012138,2,MB
2025-06-20 11:36:34.533,-0.0008052250745017,-0.8574045996220785,2,MB
2025-06-20 11:36:34.540,-0.0007963892929105,-0.6137546681455486,2,MB
2025-06-20 11:36:34.548,-0.0007874609017532,-0.369787055894359,2,MB
2025-06-20 11:36:34.556,-0.0007784213563658,-0.127551264284055,2,MB
2025-06-20 11:36:34.564,-0.0007692308012321,0.1108970216963951,2,MB
2025-06-20 11:36:34.572,-0.0007598308714908,0.3435602594956632,2,MB
2025-06-20 11:36:34.580,-0.0007501480064239,0.5685653515148027,2,MB
2025-06-20 11:36:34.587,-0.0007400972613135,0.7842293991538916,2,MB
2025-06-20 11:36:34.595,-0.0007295866155464,0.9891223302973432,2,MB
2025-06-20 11:36:34.603,-0.0007185217247615,1.182123871390624,2,MB
2025-06-20 11:36:34.611,-0.0007068109889426,1.3624724751918675,2,MB
2025-06-20 11:36:34.619,-0.0006943707321977,1.5298040387554572,2,MB
2025-06-20 11:36:34.626,-0.0006811302148307,1.6841785494254429,2,MB
2025-06-20 11:36:34.634,-0.0006670361386731,1.8260931746260785,2,MB
2025-06-20 11:36:34.642,-0.000652056300927,1.9564807550794825,2,MB
2025-06-20 11:36:34.650,-0.0006361821219051,2.076693157898039,2,MB
2025-06-20 11:36:34.658,-0.0006194298932771,2.1884694814730734,2,MB
2025-06-20 11:36:34.673,-0.0006018407163857,2.293889665347755,2,MB
2025-06-20 11:36:34.681,-0.0005834791901888,2.395314634146095,2,MB
2025-06-20 11:36:34.689,-0.0005644309613363,2.495314681813275,2,MB
2025-06-20 11:36:34.697,-0.0005447992848858,2.596588360750094,2,MB
2025-06-20 11:36:34.705,-0.0005247007855086,2.7018746524630086,2,MB
2025-06-20 11:36:34.712,-0.0005042606549026,2.8138616307604813,2,MB
2025-06-20 11:36:34.720,-0.000483607549194,2.9350951516611183,2,MB
2025-06-20 11:36:34.728,-0.000462868446655,3.067891279941023,2,MB
2025-06-20 11:36:34.736,-0.0004421637043765,3.2142561561699643,2,MB
2025-06-20 11:36:34.744,-0.0004216025345029,3.375816795754156,2,MB
2025-06-20 11:36:34.751,-0.0004012791066087,3.553765885043299,2,MB
2025-06-20 11:36:34.759,-0.0003812694499769,3.7488230100915234,2,MB
2025-06-20 11:36:34.767,-0.0003616292572768,3.961213952949,2,MB
2025-06-20 11:36:34.775,-0.0003423925829432,4.1906687720226845,2,MB
2025-06-20 11:36:34.783,-0.0003235713194786,4.436438418511867,2,MB
2025-06-20 11:36:34.790,-0.0003051552716638,4.69732870767625,2,MB
2025-06-20 11:36:34.798,-0.0002871126563564,4.971749631904808,2,MB
2025-06-20 11:36:34.806,-0.0002693909100296,5.257777327751168,2,MB
2025-06-20 11:36:34.814,-0.0002519177403743,5.553225529176964,2,MB
2025-06-20 11:36:34.822,-0.0002346023863107,5.855723070813417,2,MB
2025-06-20 11:36:34.830,-0.0002173370620406,6.162793942383744,2,MB
2025-06-20 11:36:34.837,-0.0001999985768422,6.471936516939219,2,MB
2025-06-20 11:36:34.845,-0.0001824501515861,6.780698853913085,2,MB
2025-06-20 11:36:34.853,-0.0001645434936448,7.086747386103204,2,MB
2025-06-20 11:36:34.861,-0.0001461212418093,7.387926810116656,2,MB
2025-06-20 11:36:34.869,-0.0001270199397953,7.682309581014519,2,MB
2025-06-20 11:36:34.876,-0.0001070737142127,7.968234027186754,2,MB
2025-06-20 11:36:34.884,-8.611879664814367e-05,8.244330712788843,2,MB
2025-06-20 11:36:34.892,-6.399893270978172e-05,8.50953724726186,2,MB
2025-06-20 11:36:34.900,-4.057157682213279e-05,8.763102243164491,2,MB
2025-06-20 11:36:34.908,-1.571461830657545e-05,9.00457952706662,2,MB
2025-06-20 11:36:34.915,1.0666726519945484e-05,9.233813993232973,2,MB
2025-06-20 11:36:34.923,3.863326239200949e-05,9.45092064909616,2,MB
2025-06-20 11:36:34.931,6.820580095584608e-05,9.6562584419585,2,MB
2025-06-20 11:36:34.939,9.936016750009893e-05,9.85040039209924,2,MB
2025-06-20 11:36:34.947,0.0001320236113389,10.03410140376399,2,MB
2025-06-20 11:36:34.955,0.0001660729940132,10.20826490206065,2,MB
2025-06-20 11:36:34.962,0.0002013350671721,10.373909181775147,2,MB
2025-06-20 11:36:34.970,0.0002375890137325,10.53213409431965,2,MB
2025-06-20 11:36:34.978,0.0002745712378464,10.684088479847444,2,MB
2025-06-20 11:36:34.986,0.0003119822022283,10.83093859838849,2,MB
2025-06-20 11:36:34.994,0.000349494963535,10.97383773660708,2,MB
2025-06-20 11:36:35.001,0.0003867649633395,11.113897161924124,2,MB
2025-06-20 11:36:35.009,0.0004234405979049,11.252158646932903,2,MB
2025-06-20 11:36:35.017,0.0004591741134162,11.389568865960364,2,MB
2025-06-20 11:36:35.025,0.0004936324420424,11.526956038973186,2,MB
2025-06-20 11:36:35.033,0.0005265076748642,11.665009240168784,2,MB
2025-06-20 11:36:35.040,0.000557526922183,11.804260790473764,2,MB
2025-06-20 11:36:35.048,0.0005864613375073,11.945072119726769,2,MB
2025-06-20 11:36:35.056,0.0006131341134198,12.087623424518052,2,MB
2025-06-20 11:36:35.064,0.0006374273077341,12.23190736791638,2,MB
2025-06-20 11:36:35.072,0.0006592873833774,12.37772697219587,2,MB
2025-06-20 11:36:35.080,0.0006787293014332,12.524697749926087,2,MB
2025-06-20 11:36:35.087,0.0006958389211283,12.672254006445357,2,MB
2025-06-20 11:36:35.095,0.0007107734177455,12.81965913119101,2,MB
2025-06-20 11:36:35.103,0.0007237594799109,12.966019583015528,2,MB
2025-06-20 11:36:35.111,0.000735089158645,13.110302176472937,2,MB
2025-06-20 11:36:35.119,0.0007451133540411,13.251354202368384,2,MB
2025-06-20 11:36:35.126,0.0007542330304599,13.387925869059307,2,MB
2025-06-20 11:36:35.134,0.0007628883693749,13.518694525268588,2,MB
2025-06-20 11:36:35.142,0.0007715461969139,13.642290112392294,2,MB
2025-06-20 11:36:35.150,0.0007806861238264,13.757321289345771,2,MB
2025-06-20 11:36:35.158,0.0007907858857274,13.8624016753751,2,MB
2025-06-20 11:36:35.173,0.000802306391311,13.95617566916964,2,MB
2025-06-20 11:36:35.181,0.0008156770095974,14.037343330061766,2,MB
2025-06-20 11:36:35.189,0.0008312816529877,14.104683850500985,2,MB
2025-06-20 11:36:35.197,0.0008494462047833,14.157077206422796,2,MB
2025-06-20 11:36:35.205,0.0008704277753648,14.193523639718858,2,MB
2025-06-20 11:36:35.212,0.0008944061716736,14.213160699336822,2,MB
2025-06-20 11:36:35.220,0.0009214778666917,14.215277638021949,2,MB
2025-06-20 11:36:35.228,0.0009516526693542,14.199327024663836,2,MB
2025-06-20 11:36:35.236,0.0009848532072122,14.164933483440814,2,MB
2025-06-20 11:36:35.244,0.0010209172353095,14.111899504812977,2,MB
2025-06-20 11:36:35.251,0.001059602674648,14.040208281444604,2,MB
2025-06-20 11:36:35.259,0.0011005951622175,13.950023498457757,2,MB
2025-06-20 11:36:35.267,0.0011435177720892,13.84168595632654,2,MB
2025-06-20 11:36:35.275,0.0011879424686691,13.715706841752478,2,MB
2025-06-20 11:36:35.283,0.0012334028018278,13.572757407770242,2,MB
2025-06-20 11:36:35.291,0.0012794073578263,13.413654799725975,2,MB
2025-06-20 11:36:35.298,0.001325453536903,13.239343788116026,2,MB
2025-06-20 11:36:35.306,0.001371041322379,13.050874258655204,2,MB
2025-06-20 11:36:35.314,0.0014156867994488,12.84937446967666,2,MB
2025-06-20 11:36:35.322,0.0014589352243885,12.636020306519036,2,MB
2025-06-20 11:36:35.330,0.0015003734119389,12.41200102141256,2,MB
2025-06-20 11:36:35.337,0.0015396411244242,12.178482226253104,2,MB
2025-06-20 11:36:35.345,0.0015764410603502,11.936567189344132,2,MB
2025-06-20 11:36:35.353,0.001610546990026,11.687257756996182,2,MB
2025-06-20 11:36:35.361,0.0016418095864124,11.431416449289094,2,MB
2025-06-20 11:36:35.369,0.0016701595549026,11.16973143583478,2,MB
2025-06-20 11:36:35.376,0.0016956077767713,10.902686159409583,2,MB
2025-06-20 11:36:35.384,0.0017182423448034,10.630535332703891,2,MB
2025-06-20 11:36:35.392,0.001738222571782,10.353288884460374,2,MB
2025-06-20 11:36:35.400,0.0017557702561582,10.070705177186571,2,MB
2025-06-20 11:36:35.408,0.0017711586443036,9.78229446354072,2,MB
2025-06-20 11:36:35.416,0.0017846996096689,9.487333102904577,2,MB
2025-06-20 11:36:35.423,0.0017967295984087,9.184888541032697,2,MB
2025-06-20 11:36:35.431,0.0018075949137672,8.873854486590488,2,MB
2025-06-20 11:36:35.439,0.0018176369498393,8.552995128850874,2,MB
2025-06-20 11:36:35.447,0.0018271780178375,8.220996672874158,2,MB
2025-06-20 11:36:35.455,0.0018365083900974,7.876523973363756,2,MB
2025-06-20 11:36:35.462,0.001845875096632,7.518279673614537,2,MB
2025-06-20 11:36:35.470,0.0018554728716894,7.145063033173255,2,MB
2025-06-20 11:36:35.478,0.0018654375131324,6.755825570615695,2,MB
2025-06-20 11:36:35.486,0.0018758418199437,6.349720757125524,2,MB
2025-06-20 11:36:35.494,0.001886694214406,5.92614526439375,2,MB
2025-06-20 11:36:35.501,0.0018979401044409,5.484769679916112,2,MB
2025-06-20 11:36:35.509,0.0019094659519926,5.025557129318408,2,MB
2025-06-20 11:36:35.517,0.0019211058631879,4.548768860460635,2,MB
2025-06-20 11:36:35.525,0.0019326503311836,4.05495651843887,2,MB
2025-06-20 11:36:35.533,0.0019438565933161,3.5449415413695755,2,MB
2025-06-20 11:36:35.541,0.0019544599472442,3.0197827935021504,2,MB
2025-06-20 11:36:35.548,0.0019641853202766,2.4807341785338584,2,MB
2025-06-20 11:36:35.556,0.0019727584041973,1.929194498248924,2,MB
2025-06-20 11:36:35.564,0.001979915753047,1.3666522050541794,2,MB
2025-06-20 11:36:35.572,0.0019854133881878,0.7946279160099806,2,MB
2025-06-20 11:36:35.580,0.0019890336466249,0.2146175917395562,2,MB
2025-06-20 11:36:35.587,0.0019905902055619,-0.3719608741190152,2,MB
2025-06-20 11:36:35.595,0.001989931366273,-0.963815255017198,2,MB
2025-06-20 11:36:35.603,0.0019869417561643,-1.559818885976751,2,MB
2025-06-20 11:36:35.611,0.001981542630566,-2.159041568139348,2,MB
2025-06-20 11:36:35.619,0.0019736909698254,-2.760770851235609,2,MB
2025-06-20 11:36:35.626,0.0019633775947291,-3.364523693734656,2,MB
2025-06-20 11:36:35.634,0.001950624545029,-3.970049062583014,2,MB
2025-06-20 11:36:35.642,0.0019354819482373,-4.577322491456677,2,MB
2025-06-20 11:36:35.650,0.0019180245492229,-5.186533947834291,2,MB
2025-06-20 11:36:35.658,0.0018983480145973,-5.798070558169119,2,MB
2025-06-20 11:36:35.673,0.0018765650954155,-6.412495808750919,2,MB
2025-06-20 11:36:35.681,0.0018528017163894,-7.030526782108976,2,MB
2025-06-20 11:36:35.689,0.0018271930479523,-7.653010811380364,2,MB
2025-06-20 11:36:35.697,0.0017998796134316,-8.280902649608295,2,MB
2025-06-20 11:36:35.705,0.0017710034781363,-8.915242878437759,2,MB
2025-06-20 11:36:35.712,0.0017407045348882,-9.557137852923898,2,MB
2025-06-20 11:36:35.720,0.0017091168428662,-10.207741036962286,2,MB
2025-06-20 11:36:35.728,0.0016763649317142,-10.868235172370987,2,MB
2025-06-20 11:36:35.736,0.0016425599751807,-11.539814387236492,2,MB
2025-06-20 11:36:35.744,0.0016077957553147,-12.223665121540623,2,MB
2025-06-20 11:36:35.751,0.0015721443672103,-12.920944654203716,2,MB
2025-06-20 11:36:35.759,0.001535651668733,-13.632756064436524,2,MB
2025-06-20 11:36:35.767,0.0014983325765989,-14.360118645052491,2,MB
2025-06-20 11:36:35.775,0.0014601664437497,-15.103933088038582,2,MB
2025-06-20 11:36:35.783,0.0014210928864476,-15.864941160815908,2,MB
2025-06-20 11:36:35.791,0.0013810085113818,-16.64368006230298,2,MB
2025-06-20 11:36:35.798,0.0013397649964108,-17.440432164142578,2,MB
2025-06-20 11:36:35.806,0.0012971689232013,-18.25517136884336,2,MB
2025-06-20 11:36:35.814,0.0012529836825833,-19.0875078127559,2,MB
2025-06-20 11:36:35.822,0.0012069336852503,-19.936633072219912,2,MB
2025-06-20 11:36:35.830,0.0011587110004271,-20.80126837294504,2,MB
2025-06-20 11:36:35.837,0.001107984408004,-21.679618546971007,2,MB
2025-06-20 11:36:35.845,0.0010544106894252,-22.56933462854498,2,MB
2025-06-20 11:36:35.853,0.0009976478045112,-23.467488028424555,2,MB
2025-06-20 11:36:35.861,0.0009373694214104,-24.37055916433132,2,MB
2025-06-20 11:36:35.869,0.0008732801162312,-25.27444323563012,2,MB
2025-06-20 11:36:35.876,0.0008051304665969,-26.17447549851149,2,MB
2025-06-20 11:36:35.884,0.0007327312437733,-27.065477920838543,2,MB
2025-06-20 11:36:35.892,0.0006559659635523,-27.94182848140052,2,MB
2025-06-20 11:36:35.900,0.0005748011754911,-28.797553642627285,2,MB
2025-06-20 11:36:35.908,0.0004892940191174,-29.62644369157267,2,MB
2025-06-20 11:36:35.916,0.0003995967063603,-30.42218974119856,2,MB
2025-06-20 11:36:35.923,0.0003059576776796,-31.1785402487208,2,MB
2025-06-20 11:36:35.931,0.0002087192485114,-31.889473976780447,2,MB
2025-06-20 11:36:35.939,0.0001083116580857,-32.54938542905932,2,MB
2025-06-20 11:36:35.947,5.243575951737038e-06,-33.15327796368163,2,MB
2025-06-20 11:36:35.955,-9.991071012783425e-05,-33.696959054321084,2,MB
2025-06-20 11:36:35.962,-0.000206527054729,-34.17723155790415,2,MB
2025-06-20 11:36:35.970,-0.0003139496942094,-34.59207437824835,2,MB
2025-06-20 11:36:35.978,-0.0004215114234438,-34.94080559485704,2,MB
2025-06-20 11:36:35.986,-0.0005285550903915,-35.224220960675495,2,MB
2025-06-20 11:36:35.994,-0.0006344557073588,-35.44470067600926,2,MB
2025-06-20 11:36:36.001,-0.0007386424295343,-35.606277543403664,2,MB
2025-06-20 11:36:36.009,-0.0008406196602772,-35.71466003127939,2,MB
2025-06-20 11:36:36.017,-0.0009399865873155,-35.777204456553,2,MB
2025-06-20 11:36:36.025,-0.0010364544914038,-35.80283147586863,2,MB
2025-06-20 11:36:36.033,-0.0011298611799631,-35.80188338776227,2,MB
2025-06-20 11:36:36.041,-0.0012201819076969,-35.785920415812384,2,MB
2025-06-20 11:36:36.048,-0.0013075362025987,-35.767456158231774,2,MB
2025-06-20 11:36:36.056,-0.0013921901451151,-35.75963470893589,2,MB
2025-06-20 11:36:36.064,-0.0014745538285273,-35.77585449991909,2,MB
2025-06-20 11:36:36.072,-0.0015551739132911,-35.829346573541486,2,MB
2025-06-20 11:36:36.080,-0.001634721343446,-35.93271762823015,2,MB
2025-06-20 11:36:36.087,-0.0017139744092798,-36.09747063915842,2,MB
2025-06-20 11:36:36.095,-0.0017937974278997,-36.33351798070322,2,MB
2025-06-20 11:36:36.103,-0.0018751154062167,-36.648703616996535,2,MB
2025-06-20 11:36:36.111,-0.0019588851934802,-37.048351939087176,2,MB
2025-06-20 11:36:36.119,-0.0020460638335273,-37.534861102174325,2,MB
2025-06-20 11:36:36.126,-0.0021375750405913,-38.10735819961626,2,MB
2025-06-20 11:36:36.134,-0.0022342748808291,-38.76143231385436,2,MB
2025-06-20 11:36:36.142,-0.0023369178282526,-39.48895947897287,2,MB
2025-06-20 11:36:36.150,-0.0024461244073799,-40.27803098646802,2,MB
2025-06-20 11:36:36.158,-0.0025623516517572,-41.11299339588803,2,MB
2025-06-20 11:36:36.173,-0.0026858675791447,-41.97460521062031,2,MB
2025-06-20 11:36:36.181,-0.0028167307845032,-42.84031157515139,2,MB
2025-06-20 11:36:36.189,-0.0029547760694709,-43.684634657270855,2,MB
2025-06-20 11:36:36.197,-0.0030996067704252,-44.479673688177066,2,MB
2025-06-20 11:36:36.205,-0.0032505941500948,-45.19570501364549,2,MB
2025-06-20 11:36:36.212,-0.0034068839293907,-45.801869015796754,2,MB
2025-06-20 11:36:36.220,-0.0035674097909972,-46.26692745589668,2,MB
2025-06-20 11:36:36.228,-0.0037309134846346,-46.56007173788264,2,MB
2025-06-20 11:36:36.236,-0.0038959709838732,-46.65175989332835,2,MB
2025-06-20 11:36:36.244,-0.0040610239624436,-46.514557851251645,2,MB
2025-06-20 11:36:36.251,-0.0042244156649669,-46.12395890259755,2,MB
2025-06-20 11:36:36.259,-0.0043844300551396,-45.45915433108641,2,MB
2025-06-20 11:36:36.267,-0.0045393329622005,-44.50372809830726,2,MB
2025-06-20 11:36:36.275,-0.004687413851414,-43.24624938220401,2,MB
2025-06-20 11:36:36.283,-0.0048270268531914,-41.68073880717584,2,MB
2025-06-20 11:36:36.291,-0.004956629813765,-39.80698747494472,2,MB
2025-06-20 11:36:36.298,-0.0050748203534962,-37.63071244116847,2,MB
2025-06-20 11:36:36.306,-0.0051803681798752,-35.16353799332029,2,MB
2025-06-20 11:36:36.314,-0.0052722431427551,-32.422798737649885,2,MB
2025-06-20 11:36:36.322,-0.0053496387063513,-29.431167751903686,2,MB
2025-06-20 11:36:36.330,-0.0054119906393254,-26.216120492709788,2,MB
2025-06-20 11:36:36.337,-0.005458990797501,-22.809252308945524,2,MB
2025-06-20 11:36:36.345,-0.0054905959047422,-19.24547383985335,2,MB
2025-06-20 11:36:36.353,-0.0055070312399569,-15.56211383941963,2,MB
2025-06-20 11:36:36.361,-0.0055087891273612,-11.797962727745624,2,MB
2025-06-20 11:36:36.369,-0.0054966221190999,-7.992292216354251,2,MB
2025-06-20 11:36:36.376,-0.0054715307700458,-4.183886615183962,2,MB
2025-06-20 11:36:36.384,-0.0054347459490875,-0.4101199539592738,2,MB
2025-06-20 11:36:36.392,-0.0053877057227047,3.293890005073598,2,MB
2025-06-20 11:36:36.400,-0.0053320269941456,6.896024170770972,2,MB
2025-06-20 11:36:36.408,-0.0052694722811664,10.367779636447034,2,MB
2025-06-20 11:36:36.416,-0.0052019122387133,13.684747020444409,2,MB
2025-06-20 11:36:36.423,-0.005131284734678,16.826938661698126,2,MB
2025-06-20 11:36:36.431,-0.005059551433554,19.77896497599249,2,MB
2025-06-20 11:36:36.439,-0.0049886529240092,22.53006224357127,2,MB
2025-06-20 11:36:36.447,-0.0049204634320188,25.073980509397444,2,MB
2025-06-20 11:36:36.455,-0.0048567460705586,27.408744938199277,2,MB
2025-06-20 11:36:36.462,-0.0047991093821575,29.53630773426568,2,MB
2025-06-20 11:36:36.470,-0.0047489656633566,31.462110518979134,2,MB
2025-06-20 11:36:36.478,-0.0047074912933391,33.19457881493114,2,MB
2025-06-20 11:36:36.486,-0.0046755891166231,34.744571025547586,2,MB
2025-06-20 11:36:36.494,-0.0046538529306843,36.12480408939457,2,MB
2025-06-20 11:36:36.501,-0.004642534327308,37.34927693444526,2,MB
2025-06-20 11:36:36.509,-0.0046415124826904,38.43271108617335,2,MB
2025-06-20 11:36:36.517,-0.004650267892936,39.39002543578147,2,MB
2025-06-20 11:36:36.525,-0.0046678614240497,40.23585940802505,2,MB
2025-06-20 11:36:36.533,-0.0046929203404029,40.98415574698711,2,MB
2025-06-20 11:36:36.541,-0.0047236331664547,41.64781101981614,2,MB
2025-06-20 11:36:36.548,-0.0047577553003825,42.23839885591515,2,MB
2025-06-20 11:36:36.556,-0.0047926272171333,42.76596799444152,2,MB
2025-06-20 11:36:36.564,-0.0048252068534782,43.238914482557945,2,MB
2025-06-20 11:36:36.572,-0.0048521173325224,43.663924912667845,2,MB
2025-06-20 11:36:36.580,-0.0048697105532823,44.04598546354187,2,MB
2025-06-20 11:36:36.587,-0.004874146392424,44.38844976274303,2,MB
2025-06-20 11:36:36.595,-0.0048614864404184,44.69315724381652,2,MB
2025-06-20 11:36:36.603,-0.0048278004283484,44.9605927376615,2,MB
2025-06-20 11:36:36.611,-0.0047692828552937,45.19007750320248,2,MB
2025-06-20 11:36:36.619,-0.0046823767965453,45.37998175203094,2,MB
2025-06-20 11:36:36.626,-0.0045639014210363,45.52794894025634,2,MB
2025-06-20 11:36:36.634,-0.0044111793548283,45.63112267315507,2,MB
2025-06-20 11:36:36.642,-0.0042221597286293,45.68636797334373,2,MB
2025-06-20 11:36:36.650,-0.0039955325846379,45.69047986962891,2,MB
2025-06-20 11:36:36.658,-0.0037308302906492,45.64037372633802,2,MB
2025-06-20 11:36:36.673,-0.0034285116799138,45.53325339249488,2,MB
2025-06-20 11:36:36.681,-0.0030900247811026,45.36675503548907,2,MB
2025-06-20 11:36:36.689,-0.002717844235878,45.139066356005394,2,MB
2025-06-20 11:36:36.697,-0.0023154798526485,44.849022674756,2,MB
2025-06-20 11:36:36.705,-0.0018874532547671,44.49618303900058,2,MB
2025-06-20 11:36:36.712,-0.0014392403059145,44.08089089806381,2,MB
2025-06-20 11:36:36.720,-0.0009771779948497,43.60432490656227,2,MB
2025-06-20 11:36:36.728,-0.000508335759162,43.06854590706143,2,MB
2025-06-20 11:36:36.736,-4.0352775841759824e-05,42.47654603257752,2,MB
2025-06-20 11:36:36.744,0.0004187555604995,41.83230511303542,2,MB
2025-06-20 11:36:36.751,0.0008608170327376,41.14085817523003,2,MB
2025-06-20 11:36:36.759,0.0012777412817234,40.40837584768536,2,MB
2025-06-20 11:36:36.767,0.0016617696763803,39.64225702344183,2,MB
2025-06-20 11:36:36.775,0.0020057270089577,38.85123034445687,2,MB
2025-06-20 11:36:36.783,0.0023032647931319,38.045458138254446,2,MB
2025-06-20 11:36:36.791,0.0025490857104039,37.23663357706948,2,MB
2025-06-20 11:36:36.798,0.0027391392679301,36.43805928397156,2,MB
2025-06-20 11:36:36.806,0.0028707799165325,35.664693643450136,2,MB
2025-06-20 11:36:36.814,0.002942880505254,34.93314994864506,2,MB
2025-06-20 11:36:36.822,0.0029558958316451,34.26163345250077,2,MB
2025-06-20 11:36:36.830,0.002911873120733,33.66980252615985,2,MB
2025-06-20 11:36:36.837,0.0028144085109297,33.17854251466304,2,MB
2025-06-20 11:36:36.845,0.0026685509681063,32.80964446854858,2,MB
2025-06-20 11:36:36.853,0.002480657358408,32.58538556375105,2,MB
2025-06-20 11:36:36.861,0.0022582045762737,32.52801344083362,2,MB
2025-06-20 11:36:36.869,0.002009566623269,32.65914255544852,2,MB
2025-06-20 11:36:36.876,0.001743766389981,32.99907654271225,2,MB
2025-06-20 11:36:36.884,0.0014702135344299,33.56607615158416,2,MB
2025-06-20 11:36:36.892,0.0011984409899404,34.37559711136288,2,MB
2025-06-20 11:36:36.900,0.0009378528645393,35.43952600768385,2,MB
2025-06-20 11:36:36.908,0.0006974955520093,36.76544460180556,2,MB
2025-06-20 11:36:36.916,0.00048586181504,38.355953858331496,2,MB
2025-06-20 11:36:36.923,0.0003107346964203,40.2080882048038,2,MB
2025-06-20 11:36:36.931,0.0001790746854012,42.31284830199941,2,MB
2025-06-20 11:36:36.939,9.69499184184452e-05,44.654877029871294,2,MB
2025-06-20 11:36:36.947,6.950562601558002e-05,47.21229874070436,2,MB
2025-06-20 11:36:36.955,0.0001009658442275,49.95673638691438,2,MB
2025-06-20 11:36:36.962,0.0001946578520043,52.85351518476281,2,MB
2025-06-20 11:36:36.970,0.0003530480725201,55.86205528779132,2,MB
2025-06-20 11:36:36.978,0.0005777773910044,58.93644973505091,2,MB
2025-06-20 11:36:36.986,0.0008696840387255,62.02621788589194,2,MB
2025-06-20 11:36:36.994,0.0012288033955408,65.0772187930533,2,MB
2025-06-20 11:36:37.001,0.0016543362508491,68.03270361251036,2,MB
2025-06-20 11:36:37.009,0.0021445801195045,70.83448130969533,2,MB
2025-06-20 11:36:37.017,0.0026968219541495,73.42416770918163,2,MB
2025-06-20 11:36:37.025,0.0033071948495574,75.74448446160946,2,MB
2025-06-20 11:36:37.033,0.0039705059219157,77.74057187275244,2,MB
2025-06-20 11:36:37.041,0.0046800472386416,79.36127785028184,2,MB
2025-06-20 11:36:37.048,0.0054274061606757,80.56038456705775,2,MB
2025-06-20 11:36:37.056,0.006202295354584,81.29773491629794,2,MB
2025-06-20 11:36:37.064,0.0069924256052333,81.54022255004442,2,MB
2025-06-20 11:36:37.072,0.0077834459729154,81.26261234467316,2,MB
2025-06-20 11:36:37.080,0.0085589753987714,80.44816258984677,2,MB
2025-06-20 11:36:37.087,0.0093007472675457,79.08902604872692,2,MB
2025-06-20 11:36:37.095,0.0099888835474367,77.18641417802917,2,MB
2025-06-20 11:36:37.103,0.0106023081009671,74.75051698459167,2,MB
2025-06-20 11:36:37.111,0.0111193001169402,71.8001798743814,2,MB
2025-06-20 11:36:37.119,0.0115181790825302,68.3623479929651,2,MB
2025-06-20 11:36:37.126,0.0117781030166977,64.47129749749135,2,MB
2025-06-20 11:36:37.134,0.0118799524292861,60.167681457480604,2,MB
2025-06-20 11:36:37.142,0.0118072641690331,55.497425191038616,2,MB
2025-06-20 11:36:37.150,0.0115471724545363,50.5105114019374,2,MB
2025-06-20 11:36:37.158,0.0110913094019858,45.25969918978287,2,MB
2025-06-20 11:36:37.173,0.0104366146651442,39.799222681697394,2,MB
2025-06-20 11:36:37.181,0.0095860036679862,34.183514626747225,2,MB
2025-06-20 11:36:37.189,0.0085488465298516,28.4659978719484,2,MB
2025-06-20 11:36:37.197,0.0073412152906625,22.69798338838164,2,MB
2025-06-20 11:36:37.205,0.0059858654526018,16.927707728473198,2,MB
2025-06-20 11:36:37.212,0.0045119289601855,11.199535820752292,2,MB
2025-06-20 11:36:37.220,0.0029543091449032,5.553347209713926,2,MB
2025-06-20 11:36:37.228,0.0013527833733068,0.0241155882282055,2,MB
2025-06-20 11:36:37.236,-0.0002491644243548,-5.358316884079155,2,MB
2025-06-20 11:36:37.244,-0.0018057422813721,-10.569277058789629,2,MB
2025-06-20 11:36:37.251,-0.0032704243588541,-15.58912408985039,2,MB
2025-06-20 11:36:37.259,-0.0045976305261126,-20.402959013631293,2,MB
2025-06-20 11:36:37.267,-0.0057444288553707,-25.00020629205239,2,MB
2025-06-20 11:36:37.275,-0.0066721700232761,-29.37409671938061,2,MB
2025-06-20 11:36:37.283,-0.0073479600739524,-33.52108322913092,2,MB
2025-06-20 11:36:37.291,-0.0077458842930366,-37.44022166275455,2,MB
2025-06-20 11:36:37.298,-0.0078479115490535,-41.13254754491632,2,MB
2025-06-20 11:36:37.306,-0.007644433505702,-44.600477498410434,2,MB
2025-06-20 11:36:37.314,-0.0071344220716193,-47.84726034597533,2,MB
2025-06-20 11:36:37.322,-0.0063252166875867,-50.87649846325901,2,MB
2025-06-20 11:36:37.330,-0.0052319773666702,-53.69175486704143,2,MB
2025-06-20 11:36:37.337,-0.0038768580203895,-56.2962561400818,2,MB
2025-06-20 11:36:37.345,-0.0022879666876181,-58.69269588173504,2,MB
2025-06-20 11:36:37.353,-0.0004981847784502,-60.88313817357317,2,MB
2025-06-20 11:36:37.361,0.0014560829701954,-62.86901576560366,2,MB
2025-06-20 11:36:37.369,0.0035361612639254,-64.65121348763219,2,MB
2025-06-20 11:36:37.376,0.0057023016743602,-66.23022390734556,2,MB
2025-06-20 11:36:37.384,0.0079147772945717,-67.60635960238595,2,MB
2025-06-20 11:36:37.392,0.0101348391332651,-68.7800046678936,2,MB
2025-06-20 11:36:37.400,0.0123255113515165,-69.75188727529107,2,MB
2025-06-20 11:36:37.408,0.0144522151168693,-70.52335520794884,2,MB
2025-06-20 11:36:37.416,0.0164832228399419,-71.09663725897535,2,MB
2025-06-20 11:36:37.423,0.0183899550286396,-71.4750750972013,2,MB
2025-06-20 11:36:37.431,0.0201471402560091,-71.6633125823304,2,MB
2025-06-20 11:36:37.439,0.0217328644098279,-71.6674324109798,2,MB
2025-06-20 11:36:37.447,0.0231285383843226,-71.49503325566198,2,MB
2025-06-20 11:36:37.455,0.0243188137934029,-71.1552440605185,2,MB
2025-06-20 11:36:37.462,0.0252914743637053,-70.65867571470754,2,MB
2025-06-20 11:36:37.470,0.0260373266985811,-70.01731376708211,2,MB
2025-06-20 11:36:37.478,0.0265501084194046,-69.2443590119703,2,MB
2025-06-20 11:36:37.486,0.0268264247482157,-68.35402552481715,2,MB
2025-06-20 11:36:37.494,0.0268657171061687,-67.36130793854943,2,MB
2025-06-20 11:36:37.501,0.0266702601361241,-66.2817313101506,2,MB
2025-06-20 11:36:37.509,0.026245177449566,-65.13109771179232,2,MB
2025-06-20 11:36:37.517,0.0255984617286282,-63.925243592368986,2,MB
2025-06-20 11:36:37.525,0.0247409816613011,-62.67982094589495,2,MB
2025-06-20 11:36:37.533,0.0236864565290259,-61.41011340763384,2,MB
2025-06-20 11:36:37.541,0.0224513791124628,-60.13089564914058,2,MB
2025-06-20 11:36:37.548,0.0210548689854725,-58.85634098956846,2,MB
2025-06-20 11:36:37.556,0.0195184412769833,-57.59997817910234,2,MB
2025-06-20 11:36:37.564,0.0178656806072919,-56.37469410564312,2,MB
2025-06-20 11:36:37.572,0.0161218161110263,-55.19277504019584,2,MB
2025-06-20 11:36:37.580,0.0143132011315442,-54.065975295595045,2,MB
2025-06-20 11:36:37.587,0.0124667100184701,-53.00559914161931,2,MB
2025-06-20 11:36:37.595,0.0106090737470086,-52.02257978990171,2,MB
2025-06-20 11:36:37.603,0.0087661844298776,-51.12753848363008,2,MB
2025-06-20 11:36:37.611,0.006962404524909,-50.33080736144602,2,MB
2025-06-20 11:36:37.619,0.0052199184771009,-49.64240184920892,2,MB
2025-06-20 11:36:37.626,0.0035581625175504,-49.07193177416921,2,MB
2025-06-20 11:36:37.634,0.0019933629792106,-48.62844498321847,2,MB
2025-06-20 11:36:37.642,0.0005382056536209,-48.32020266797606,2,MB
2025-06-20 11:36:37.650,-0.0007983506313468,-48.1543914592703,2,MB
2025-06-20 11:36:37.658,-0.0020111128563014,-48.13678320224225,2,MB
2025-06-20 11:36:37.673,-0.0030985510866286,-48.27135869440068,2,MB
2025-06-20 11:36:37.681,-0.0040625683674771,-48.5599161225686,2,MB
2025-06-20 11:36:37.689,-0.0049081637799845,-49.00168809971953,2,MB
2025-06-20 11:36:37.697,-0.0056430130683155,-49.59299281167063,2,MB
2025-06-20 11:36:37.705,-0.0062769922059159,-50.32694469318783,2,MB
2025-06-20 11:36:37.712,-0.0068216676757085,-51.19324824989496,2,MB
2025-06-20 11:36:37.720,-0.007289774269983,-52.17809523818378,2,MB
2025-06-20 11:36:37.728,-0.0076946981601541,-53.2641806340707,2,MB
2025-06-20 11:36:37.736,-0.0080499805068916,-54.43084697802568,2,MB
2025-06-20 11:36:37.744,-0.0083688549420497,-55.65436015166674,2,MB
2025-06-20 11:36:37.751,-0.0086638305222821,-56.90831282823147,2,MB
2025-06-20 11:36:37.759,-0.0089463299401458,-58.16414514413416,2,MB
2025-06-20 11:36:37.767,-0.0092263907367228,-59.39176593780547,2,MB
2025-06-20 11:36:37.775,-0.0095124349532996,-60.560252523467874,2,MB
2025-06-20 11:36:37.783,-0.009811110105979,-61.63860268833648,2,MB
2025-06-20 11:36:37.791,-0.0101272016300246,-62.5965096437485,2,MB
2025-06-20 11:36:37.798,-0.0104636141547348,-63.40512918154539,2,MB
2025-06-20 11:36:37.806,-0.0108214163601377,-64.03780836213022,2,MB
2025-06-20 11:36:37.814,-0.0111999420360694,-64.47074667406604,2,MB
2025-06-20 11:36:37.822,-0.0115969385977726,-64.68356366027454,2,MB
2025-06-20 11:36:37.830,-0.0120087538335917,-64.65975133900947,2,MB
2025-06-20 11:36:37.837,-0.0124305519765655,-64.38699512934285,2,MB
2025-06-20 11:36:37.845,-0.0128565510829019,-63.85735312742922,2,MB
2025-06-20 11:36:37.853,-0.0132802749240919,-63.0672901285751,2,MB
2025-06-20 11:36:37.861,-0.0136948139141117,-62.0175693816868,2,MB
2025-06-20 11:36:37.869,-0.0140930907677682,-60.71301132140632,2,MB
2025-06-20 11:36:37.877,-0.0144681274518199,-59.16213409101384,2,MB
2025-06-20 11:36:37.884,-0.0148133104695802,-57.37669524243061,2,MB
2025-06-20 11:36:37.892,-0.0151226515982732,-55.37115736708918,2,MB
2025-06-20 11:36:37.900,-0.0153910408970523,-53.16210246650232,2,MB
2025-06-20 11:36:37.908,-0.0156144881700318,-50.76762060404541,2,MB
2025-06-20 11:36:37.916,-0.0157903481708462,-48.20669786783984,2,MB
2025-06-20 11:36:37.923,-0.0159175237665639,-45.49862707280362,2,MB
2025-06-20 11:36:37.931,-0.0159966401721126,-42.6624621428099,2,MB
2025-06-20 11:36:37.939,-0.0160301823836046,-39.71653396693981,2,MB
2025-06-20 11:36:37.947,-0.0160225872413059,-36.6780419381138,2,MB
2025-06-20 11:36:37.955,-0.0159802812760868,-33.562731557339376,2,MB
2025-06-20 11:36:37.962,-0.0159116557357238,-30.38466459249189,2,MB
2025-06-20 11:36:37.970,-0.0158269710173827,-27.156084457702317,2,MB
2025-06-20 11:36:37.978,-0.015738184186024,-23.88737584185935,2,MB
2025-06-20 11:36:37.986,-0.0156586953148873,-20.58711425173204,2,MB
2025-06-20 11:36:37.994,-0.0156030109683014,-17.262198112693493,2,MB
2025-06-20 11:36:38.002,-0.0155863261810507,-13.918053430430064,2,MB
2025-06-20 11:36:38.009,-0.015624029724924,-10.558898785281595,2,MB
2025-06-20 11:36:38.017,-0.0157311412379773,-7.188056628777422,2,MB
2025-06-20 11:36:38.025,-0.0159216928091468,-3.8082955091922734,2,MB
2025-06-20 11:36:38.033,-0.0162080716720366,-0.422187006866889,2,MB
2025-06-20 11:36:38.041,-0.0166003445397332,2.967539148891406,2,MB
2025-06-20 11:36:38.048,-0.0171055875741087,6.357658040914774,2,MB
2025-06-20 11:36:38.056,-0.0177272488115429,9.744145983725636,2,MB
2025-06-20 11:36:38.064,-0.0184645718815586,13.121924280316753,2,MB
2025-06-20 11:36:38.072,-0.0193121109149634,16.484662091860812,2,MB
2025-06-20 11:36:38.080,-0.0202593665226356,19.8246475491609,2,MB
2025-06-20 11:36:38.087,-0.0212905715032995,23.13273313943041,2,MB
2025-06-20 11:36:38.095,-0.0223846523616933,26.398357997551,2,MB
2025-06-20 11:36:38.103,-0.0235153886620575,29.609646200298148,2,MB
2025-06-20 11:36:38.111,-0.0246517866336337,32.7535767117503,2,MB
2025-06-20 11:36:38.119,-0.0257586762656163,35.81621745451829,2,MB
2025-06-20 11:36:38.127,-0.0267975324273536,38.78301324655572,2,MB
2025-06-20 11:36:38.134,-0.0277275104874435,41.63911516968408,2,MB
2025-06-20 11:36:38.142,-0.0285066757865103,44.36973740878781,2,MB
2025-06-20 11:36:38.150,-0.0290933945872654,46.96052676728482,2,MB
2025-06-20 11:36:38.158,-0.0294478423618055,49.39792993360941,2,MB
2025-06-20 11:36:38.173,-0.029533574179222,51.6695441189398,2,MB
2025-06-20 11:36:38.181,-0.0293190923071691,53.764437856024045,2,MB
2025-06-20 11:36:38.189,-0.0287793387925089,55.673430470199726,2,MB
2025-06-20 11:36:38.197,-0.0278970366917148,57.38932091137261,2,MB
2025-06-20 11:36:38.205,-0.0266638037538056,58.90705914765366,2,MB
2025-06-20 11:36:38.212,-0.0250809674472733,60.22385602285986,2,MB
2025-06-20 11:36:38.220,-0.0231600205013346,61.33923021864055,2,MB
2025-06-20 11:36:38.228,-0.020922671330541,62.254993594191234,2,MB
2025-06-20 11:36:38.236,-0.0184004632954539,62.97517857720942,2,MB
2025-06-20 11:36:38.244,-0.0156339601124479,63.505913342059394,2,MB
2025-06-20 11:36:38.252,-0.0126715209006189,63.85525214699092,2,MB
2025-06-20 11:36:38.259,-0.0095677152793452,64.03296934987117,2,MB
2025-06-20 11:36:38.267,-0.0063814532068691,64.05032625410612,2,MB
2025-06-20 11:36:38.275,-0.003173922351523,63.91982006329789,2,MB
2025-06-20 11:36:38.283,-6.435703596794671e-06,63.65492388952862,2,MB
2025-06-20 11:36:38.291,0.0030617063030457,63.269826039401686,2,MB
2025-06-20 11:36:38.298,0.0059752407193663,62.77917578227394,2,MB
2025-06-20 11:36:38.306,0.0086847671981367,62.19784157119065,2,MB
2025-06-20 11:36:38.314,0.0111483017712479,61.54068631062768,2,MB
2025-06-20 11:36:38.322,0.0133325050138865,60.8223628086822,2,MB
2025-06-20 11:36:38.330,0.0152135481170281,60.0571310748758,2,MB
2025-06-20 11:36:38.337,0.0167775977483759,59.25869768760724,2,MB
2025-06-20 11:36:38.345,0.0180209168676202,58.44007611558917,2,MB
2025-06-20 11:36:38.353,0.0189495935253334,57.613465695494,2,MB
2025-06-20 11:36:38.361,0.019578922918632,56.79014601148554,2,MB
2025-06-20 11:36:38.369,0.0199324794016706,55.98038276602235,2,MB
2025-06-20 11:36:38.377,0.0200409245246021,55.193340944896725,2,MB
2025-06-20 11:36:38.384,0.019940604384524,54.43700121210586,2,MB
2025-06-20 11:36:38.392,0.0196719947437138,53.71807604182911,2,MB
2025-06-20 11:36:38.400,0.0192780557406683,53.04192309559868,2,MB
2025-06-20 11:36:38.408,0.0188025596518905,52.41245474280887,2,MB
2025-06-20 11:36:38.416,0.0182884548656467,51.83204432778094,2,MB
2025-06-20 11:36:38.423,0.0177763267222785,51.3014316947987,2,MB
2025-06-20 11:36:38.431,0.0173030110014781,50.819632449891095,2,MB
2025-06-20 11:36:38.439,0.0169004086945659,50.383857301569286,2,MB
2025-06-20 11:36:38.447,0.0165945416320752,49.98944941139476,2,MB
2025-06-20 11:36:38.455,0.0164048779583737,49.62984882768265,2,MB
2025-06-20 11:36:38.462,0.0163439446629712,49.29659361094396,2,MB
2025-06-20 11:36:38.470,0.0164172315875014,48.97936706034924,2,MB
2025-06-20 11:36:38.478,0.0166233778438642,48.666099449142536,2,MB
2025-06-20 11:36:38.486,0.0169546182052835,48.34313088074124,2,MB
2025-06-20 11:36:38.494,0.0173974551528782,47.99543936566089,2,MB
2025-06-20 11:36:38.502,0.0179335133085023,47.606935133792746,2,MB
2025-06-20 11:36:38.509,0.0185405276873569,47.16081872732037,2,MB
2025-06-20 11:36:38.517,0.019193415403561,46.6399967869107,2,MB
2025-06-20 11:36:38.525,0.0198653815217775,46.02754587307472,2,MB
2025-06-20 11:36:38.533,0.0205290129471545,45.30721136432493,2,MB
2025-06-20 11:36:38.541,0.0211573189616306,44.46392562430926,2,MB
2025-06-20 11:36:38.548,0.0217246828262568,43.48432738270383,2,MB
2025-06-20 11:36:38.556,0.022207695538865,42.357262754709325,2,MB
2025-06-20 11:36:38.564,0.0225858501275194,41.07424763239123,2,MB
2025-06-20 11:36:38.572,0.0228420823798218,39.62987139346088,2,MB
2025-06-20 11:36:38.580,0.0229631511563917,38.0221230377147,2,MB
2025-06-20 11:36:38.587,0.0229398580156498,36.25262298953837,2,MB
2025-06-20 11:36:38.595,0.0227671116408961,34.32674685326212,2,MB
2025-06-20 11:36:38.603,0.0224438475507265,32.25363127020615,2,MB
2025-06-20 11:36:38.611,0.0219728178276902,30.04605654414881,2,MB
2025-06-20 11:36:38.619,0.0213602690514073,27.720205683441723,2,MB
2025-06-20 11:36:38.627,0.0206155291496313,25.295304732325903,2,MB
2025-06-20 11:36:38.634,0.0197505254076366,22.79315448202457,2,MB
2025-06-20 11:36:38.642,0.0187792564172516,20.23756859284423,2,MB
2025-06-20 11:36:38.650,0.01771724036532,17.653737544765026,2,MB
2025-06-20 11:36:38.658,0.0165809608189552,15.067541403455328,2,MB
2025-06-20 11:36:38.673,0.0153873291430374,12.504836915194636,2,MB
2025-06-20 11:36:38.681,0.0141531800410082,9.99074576080476,2,MB
2025-06-20 11:36:38.689,0.012894813695474,7.548970817317298,2,MB
2025-06-20 11:36:38.697,0.0116275949028885,5.201165996024371,2,MB
2025-06-20 11:36:38.705,0.0103656166877664,2.966382730717457,2,MB
2025-06-20 11:36:38.712,0.0091214332371112,0.8606126411080429,2,MB
2025-06-20 11:36:38.720,0.0079058645943138,-1.1035584841721475,2,MB
2025-06-20 11:36:38.728,0.0067278733638665,-2.917175193419489,2,MB
2025-06-20 11:36:38.736,0.0055945116961482,-4.575010425445668,2,MB
2025-06-20 11:36:38.744,0.0045109350251456,-6.075537442692925,2,MB
2025-06-20 11:36:38.752,0.0034804773790601,-7.420781007335669,2,MB
2025-06-20 11:36:38.759,0.0025047815516378,-8.6160577168286,2,MB
2025-06-20 11:36:38.767,0.0015839760402643,-9.669619293695416,2,MB
2025-06-20 11:36:38.775,0.000716889485643,-10.59221568559792,2,MB
2025-06-20 11:36:38.783,-9.870754470130027e-05,-11.39659699327327,2,MB
2025-06-20 11:36:38.791,-0.0008658441027145,-12.096974480732449,2,MB
2025-06-20 11:36:38.798,-0.0015880844244752,-12.708461258147654,2,MB
2025-06-20 11:36:38.806,-0.0022692676405595,-13.246512728307891,2,MB
2025-06-20 11:36:38.814,-0.0029132606546992,-13.726385652865275,2,MB
2025-06-20 11:36:38.822,-0.0035237316894467,-14.162632851697104,2,MB
2025-06-20 11:36:38.830,-0.0041039502284255,-14.56864824014362,2,MB
2025-06-20 11:36:38.837,-0.0046566172646861,-14.956274283531355,2,MB
2025-06-20 11:36:38.845,-0.0051837280837855,-15.335481150053422,2,MB
2025-06-20 11:36:38.853,-0.005686468434933,-15.714123996926885,2,MB
2025-06-20 11:36:38.861,-0.0061651440162025,-16.09778202880236,2,MB
2025-06-20 11:36:38.869,-0.0066191428405639,-16.48968029197797,2,MB
2025-06-20 11:36:38.877,-0.0070469302973576,-16.890692659210575,2,MB
2025-06-20 11:36:38.884,-0.0074460773928669,-17.299422145307986,2,MB
2025-06-20 11:36:38.892,-0.0078133232677835,-17.712352591143933,2,MB
2025-06-20 11:36:38.900,-0.0081446731130956,-18.124063883398787,2,MB
2025-06-20 11:36:38.908,-0.0084355318204279,-18.52750127000629,2,MB
2025-06-20 11:36:38.916,-0.0086808722917755,-18.91428802772387,2,MB
2025-06-20 11:36:38.923,-0.0088754356216007,-19.2750697809054,2,MB
2025-06-20 11:36:38.931,-0.0090139585974159,-19.59987819607319,2,MB
2025-06-20 11:36:38.939,-0.009091422323341,-19.878501612975565,2,MB
2025-06-20 11:36:38.947,-0.0091033144262787,-20.100850435130766,2,MB
2025-06-20 11:36:38.955,-0.0090458963552226,-20.25730578798463,2,MB
2025-06-20 11:36:38.962,-0.0089164666432489,-20.33904103167193,2,MB
2025-06-20 11:36:38.970,-0.0087136104427946,-20.33830713409956,2,MB
2025-06-20 11:36:38.978,-0.0084374250672494,-20.24867459929211,2,MB
2025-06-20 11:36:38.986,-0.0080897108749705,-20.06522653020428,2,MB
2025-06-20 11:36:38.994,-0.0076741169486117,-19.78469940161701,2,MB
2025-06-20 11:36:39.002,-0.0071962318684154,-19.40557012809345,2,MB
2025-06-20 11:36:39.009,-0.0066636115176318,-18.92808992221318,2,MB
2025-06-20 11:36:39.017,-0.0060857382679003,-18.35426714691263,2,MB
2025-06-20 11:36:39.025,-0.005473908924523,-17.687802799772825,2,MB
2025-06-20 11:36:39.033,-0.0048410521077901,-16.933983383819534,2,MB
2025-06-20 11:36:39.041,-0.0042014787505641,-16.099536698647615,2,MB
2025-06-20 11:36:39.048,-0.0035705715816453,-15.192456529830949,2,MB
2025-06-20 11:36:39.056,-0.0029644207027391,-14.221802354513896,2,MB
2025-06-20 11:36:39.064,-0.002399413035393,-13.197480075359351,2,MB
2025-06-20 11:36:39.072,-0.0018917841672075,-12.13000951876644,2,MB
2025-06-20 11:36:39.080,-0.0014571425042682,-11.030284064441895,2,MB
2025-06-20 11:36:39.087,-0.0011099778121065,-9.909327381902214,2,MB
2025-06-20 11:36:39.095,-0.0008631689869265,-8.778051889002873,2,MB
2025-06-20 11:36:39.103,-0.0007275087989717,-7.647023252507754,2,MB
2025-06-20 11:36:39.111,-0.0007112658221235,-6.526235039048348,2,MB
2025-06-20 11:36:39.119,-0.0008198050924442,-5.4248975034975775,2,MB
2025-06-20 11:36:39.127,-0.0010552885338709,-4.3512444698467645,2,MB
2025-06-20 11:36:39.134,-0.0014164736183842,-3.312362307380555,2,MB
2025-06-20 11:36:39.142,-0.0018986244635889,-2.3140451096308103,2,MB
2025-06-20 11:36:39.150,-0.0024935442346099,-1.3606803068660691,2,MB
2025-06-20 11:36:39.158,-0.0031897318128115,-0.4551690316429364,2,MB
2025-06-20 11:36:39.173,-0.0039726595932816,0.4011144537514205,2,MB
2025-06-20 11:36:39.181,-0.0048251633503268,1.2083201440454745,2,MB
2025-06-20 11:36:39.189,-0.0057279297556269,1.9680728105756515,2,MB
2025-06-20 11:36:39.197,-0.006660062676051,2.683372761757808,2,MB
2025-06-20 11:36:39.205,-0.0075997060352411,3.3584451744368664,2,MB
2025-06-20 11:36:39.212,-0.008524698904291,3.998538046259211,2,MB
2025-06-20 11:36:39.220,-0.0094132376202352,4.609671057871398,2,MB
2025-06-20 11:36:39.228,-0.01024452009072,5.198340337948155,2,MB
2025-06-20 11:36:39.236,-0.0109993489403951,5.771187150732777,2,MB
2025-06-20 11:36:39.244,-0.0116606725874608,6.334641647268286,2,MB
2025-06-20 11:36:39.252,-0.0122140463768902,6.894555749915843,2,MB
2025-06-20 11:36:39.259,-0.0126479991648407,7.455841660253725,2,MB
2025-06-20 11:36:39.267,-0.0129542939865635,8.022134086610555,2,MB
2025-06-20 11:36:39.275,-0.0131280746329736,8.5954948159457,2,MB
2025-06-20 11:36:39.283,-0.0131678933133381,9.176177516986588,2,MB
2025-06-20 11:36:39.291,-0.0130756183465899,9.762468570761095,2,MB
2025-06-20 11:36:39.298,-0.0128562251702653,10.350616319787694,2,MB
2025-06-20 11:36:39.306,-0.0125174789578661,10.9348565879897,2,MB
2025-06-20 11:36:39.314,-0.0120695227679949,11.507536957433548,2,MB
2025-06-20 11:36:39.322,-0.011524391162172,12.059336483675295,2,MB
2025-06-20 11:36:39.330,-0.0108954749308742,12.579571708207002,2,MB
2025-06-20 11:36:39.337,-0.0101969668011213,13.056574405732274,2,MB
2025-06-20 11:36:39.345,-0.0094433195824977,13.478121888235966,2,MB
2025-06-20 11:36:39.353,-0.0086487465847634,13.83189722971611,2,MB
2025-06-20 11:36:39.361,-0.0078267896453719,14.105954744186407,2,MB
2025-06-20 11:36:39.369,-0.0069899737148459,14.289165608364716,2,MB
2025-06-20 11:36:39.377,-0.006149559794963,14.371619720145445,2,MB
2025-06-20 11:36:39.384,-0.0053154009335566,14.344962665317578,2,MB
2025-06-20 11:36:39.392,-0.0044958992415927,14.202650854822586,2,MB
2025-06-20 11:36:39.400,-0.0036980555048672,13.940113196108475,2,MB
2025-06-20 11:36:39.408,-0.0029275970817933,13.554813670272452,2,MB
2025-06-20 11:36:39.416,-0.0021891649276275,13.046215447936303,2,MB
2025-06-20 11:36:39.423,-0.0014865373728819,12.415653251787946,2,MB
2025-06-20 11:36:39.431,-0.0008228670969551,11.66612616978608,2,MB
2025-06-20 11:36:39.439,-0.0002009086589615,10.802027704935716,2,MB
2025-06-20 11:36:39.447,0.0003767831743468,9.828833248553655,2,MB
2025-06-20 11:36:39.455,0.0009076995765933,8.752767197716896,2,MB
2025-06-20 11:36:39.462,0.0013892780612768,7.580472503729815,2,MB
2025-06-20 11:36:39.470,0.0018188612155499,6.318704522858096,2,MB
2025-06-20 11:36:39.478,0.0021937127357119,4.974068714632581,2,MB
2025-06-20 11:36:39.486,0.002511085680367,3.5528181516276702,2,MB
2025-06-20 11:36:39.494,0.002768335071262,2.060722203733204,2,MB
2025-06-20 11:36:39.502,0.0029630653951424,0.5030124526495311,2,MB
2025-06-20 11:36:39.509,0.0030933028335516,-1.1155937463862722,2,MB
2025-06-20 11:36:39.517,0.0031576816938851,-2.7907972039566484,2,MB
2025-06-20 11:36:39.525,0.003155634294171,-4.518558580859854,2,MB
2025-06-20 11:36:39.533,0.0030875735525055,-6.294892334148785,2,MB
2025-06-20 11:36:39.541,0.0029550579169441,-8.115630610241872,2,MB
2025-06-20 11:36:39.548,0.0027609290216412,-9.97617664921263,2,MB
2025-06-20 11:36:39.556,0.0025094133359418,-11.871267770325218,2,MB
2025-06-20 11:36:39.564,0.0022061798897115,-13.79476716241747,2,MB
2025-06-20 11:36:39.572,0.0018583470026545,-15.739501621329604,2,MB
2025-06-20 11:36:39.580,0.0014744321271023,-17.69715925976018,2,MB
2025-06-20 11:36:39.587,0.0010642406900679,-19.65825731354017,2,MB
2025-06-20 11:36:39.595,0.0006386922835144,-21.612185754341866,2,MB
2025-06-20 11:36:39.603,0.0002095856798371,-23.547327776000444,2,MB
2025-06-20 11:36:39.611,-0.0002106921888149,-25.45125364041888,2,MB
2025-06-20 11:36:39.619,-0.0006095042212574,-27.310980120627484,2,MB
2025-06-20 11:36:39.627,-0.0009743352075579,-29.11328408293739,2,MB
2025-06-20 11:36:39.634,-0.0012931816782944,-30.845055765911656,2,MB
2025-06-20 11:36:39.642,-0.0015549406340728,-32.493675146556086,2,MB
2025-06-20 11:36:39.650,-0.0017497766359771,-34.04739349577069,2,MB
2025-06-20 11:36:39.658,-0.0018694464969245,-35.49570183944158,2,MB
2025-06-20 11:36:39.673,-0.0019075623769604,-36.82966854436054,2,MB
2025-06-20 11:36:39.681,-0.0018597777025901,-38.04222958737181,2,MB
2025-06-20 11:36:39.689,-0.0017238857989815,-39.12841716047875,2,MB
2025-06-20 11:36:39.697,-0.0014998278362989,-40.08551501833797,2,MB
2025-06-20 11:36:39.705,-0.0011896139116674,-40.91313227825809,2,MB
2025-06-20 11:36:39.712,-0.0007971681193627,-41.61319109430324,2,MB
2025-06-20 11:36:39.720,-0.0003281145520084,-42.18982756145736,2,MB
2025-06-20 11:36:39.728,0.0002104746542927,-42.64920915695805,2,MB
2025-06-20 11:36:39.736,0.0008103469852188,-42.99927579870716,2,MB
2025-06-20 11:36:39.744,0.0014623332710752,-43.24941502597096,2,MB
2025-06-20 11:36:39.752,0.0021565936237153,-43.41008474101273,2,MB
2025-06-20 11:36:39.759,0.0028828389060158,-43.49239926752251,2,MB
2025-06-20 11:36:39.767,0.0036305272842141,-43.50769607761716,2,MB
2025-06-20 11:36:39.775,0.0043890393151807,-43.46710133323937,2,MB
2025-06-20 11:36:39.783,0.0051478365527108,-43.38111233472051,2,MB
2025-06-20 11:36:39.791,0.0058966085979865,-43.25921407077031,2,MB
2025-06-20 11:36:39.798,0.0066254126920486,-43.10954537252636,2,MB
2025-06-20 11:36:39.806,0.0073248088638634,-42.93862778424031,2,MB
2025-06-20 11:36:39.814,0.0079859925662741,-42.75116730211581,2,MB
2025-06-20 11:36:39.822,0.0086009257756402,-42.54993575831626,2,MB
2025-06-20 11:36:39.830,0.0091624666803094,-42.335735022867766,2,MB
2025-06-20 11:36:39.837,0.0096644971955948,-42.10744355854455,2,MB
2025-06-20 11:36:39.845,0.0101020464507777,-41.86214138430595,2,MB
2025-06-20 11:36:39.853,0.0104714069705335,-41.595306350139744,2,MB
2025-06-20 11:36:39.861,0.0107702384556812,-41.301071931213166,2,MB
2025-06-20 11:36:39.869,0.0109976519184744,-40.97253460001067,2,MB
2025-06-20 11:36:39.877,0.0111542647873465,-40.602097283958216,2,MB
2025-06-20 11:36:39.884,0.011242216272378,-40.18183449068765,2,MB
2025-06-20 11:36:39.892,0.0112651329157814,-39.70386438842392,2,MB
2025-06-20 11:36:39.900,0.0112280375819335,-39.1607134379287,2,MB
2025-06-20 11:36:39.908,0.0111372007683824,-38.54566002117819,2,MB
2025-06-20 11:36:39.916,0.0109999396146163,-37.853044808619565,2,MB
2025-06-20 11:36:39.923,0.010824375701829,-37.07853724620532,2,MB
2025-06-20 11:36:39.931,0.0106191665157142,-36.219349418551005,2,MB
2025-06-20 11:36:39.939,0.0103932268606,-35.274390556057696,2,MB
2025-06-20 11:36:39.947,0.0101554557353648,-34.24435751740333,2,MB
2025-06-20 11:36:39.955,0.0099144816914886,-33.13175863013357,2,MB
2025-06-20 11:36:39.962,0.0096784361226656,-31.94087026881695,2,MB
2025-06-20 11:36:39.970,0.009454759978701,-30.6776274725918,2,MB
2025-06-20 11:36:39.978,0.0092500456488027,-29.349451754698208,2,MB
2025-06-20 11:36:39.986,0.0090699126000609,-27.96502105935967,2,MB
2025-06-20 11:36:39.994,0.0089189130165996,-26.533988614285526,2,MB
2025-06-20 11:36:40.002,0.0088004623171087,-25.066659247362654,2,MB
2025-06-20 11:36:40.009,0.0087167890665489,-23.57363359395039,2,MB
2025-06-20 11:36:40.017,0.0086688993308919,-22.065432472788384,2,MB
2025-06-20 11:36:40.025,0.0086565517315518,-20.552115445870776,2,MB
2025-06-20 11:36:40.033,0.0086782410331439,-19.04290903890588,2,MB
2025-06-20 11:36:40.041,0.0087311897148667,-17.545861088309458,2,MB
2025-06-20 11:36:40.048,0.0088113483992356,-16.067537990462796,2,MB
2025-06-20 11:36:40.056,0.0089134071655483,-14.612781067484034,2,MB
2025-06-20 11:36:40.064,0.0090308206888179,-13.184536687503837,2,MB
2025-06-20 11:36:40.072,0.0091558508713315,-11.783772119459758,2,MB
2025-06-20 11:36:40.080,0.009279631187346,-10.409485392300011,2,MB
2025-06-20 11:36:40.087,0.0093922572917362,-9.05881280851696,2,MB
2025-06-20 11:36:40.095,0.0094829084687651,-7.727232493018599,2,MB
2025-06-20 11:36:40.103,0.0095400041419378,-6.408856793693858,2,MB
2025-06-20 11:36:40.111,0.0095513988630994,-5.096800880233644,2,MB
2025-06-20 11:36:40.119,0.0095046179035929,-3.7836098948554895,2,MB
2025-06-20 11:36:40.127,0.0093871338063933,-2.461722847047612,2,MB
2025-06-20 11:36:40.134,0.0091866821336537,-1.1239484305419023,2,MB
2025-06-20 11:36:40.142,0.0088916122830683,0.2360736666066007,2,MB
2025-06-20 11:36:40.150,0.0084912667059103,1.623452412079203,2,MB
2025-06-20 11:36:40.158,0.0079763791659732,3.041690861362936,2,MB
2025-06-20 11:36:40.173,0.0073394799597107,4.492418946496822,2,MB
2025-06-20 11:36:40.181,0.0065752935392063,5.9752304764883295,2,MB
2025-06-20 11:36:40.189,0.0056811120583557,7.48763525791071,2,MB
2025-06-20 11:36:40.197,0.0046571273127797,9.02513043452871,2,MB
2025-06-20 11:36:40.205,0.0035067036470057,10.58138794597881,2,MB
2025-06-20 11:36:40.212,0.0022365757827151,12.148547939296948,2,MB
2025-06-20 11:36:40.220,0.0008569580141559,13.71760152398748,2,MB
2025-06-20 11:36:40.228,-0.000618445581497,15.278840856716348,2,MB
2025-06-20 11:36:40.236,-0.0021725367849158,16.822350503402358,2,MB
2025-06-20 11:36:40.244,-0.0037850280911884,18.33851158793955,2,MB
2025-06-20 11:36:40.252,-0.0054327567311693,19.8184895290042,2,MB
2025-06-20 11:36:40.259,-0.0070901045080701,21.254677213085625,2,MB
2025-06-20 11:36:40.267,-0.0087295169470933,22.641068171184735,2,MB
2025-06-20 11:36:40.275,-0.0103221122656053,23.97353854189932,2,MB
2025-06-20 11:36:40.283,-0.0118383678203055,25.25002206067826,2,MB
2025-06-20 11:36:40.291,-0.0132488688628359,26.470568693845145,2,MB
2025-06-20 11:36:40.298,-0.0145251013757344,27.637284451934864,2,MB
2025-06-20 11:36:40.306,-0.0156402672116402,28.754156930658525,2,MB
2025-06-20 11:36:40.314,-0.0165700958622135,29.826777780377014,2,MB
2025-06-20 11:36:40.322,-0.01729362362569,30.86197916250705,2,MB
2025-06-20 11:36:40.330,-0.0177939085624064,31.867405939824003,2,MB
2025-06-20 11:36:40.337,-0.0180586489687198,32.85104857947679,2,MB
2025-06-20 11:36:40.345,-0.018080674429271,33.820763346146464,2,MB
2025-06-20 11:36:40.353,-0.0178582820733598,34.783806278778975,2,MB
2025-06-20 11:36:40.361,-0.0173953966641449,35.7464057542222,2,MB
2025-06-20 11:36:40.369,-0.0167015414479696,36.71339533136238,2,MB
2025-06-20 11:36:40.377,-0.0157916165896038,37.68792431146456,2,MB
2025-06-20 11:36:40.384,-0.0146854923038423,38.67125837116816,2,MB
2025-06-20 11:36:40.392,-0.0134074330732494,39.66267708254266,2,MB
2025-06-20 11:36:40.400,-0.0119853766362153,40.65946950742417,2,MB
2025-06-20 11:36:40.408,-0.0104500965512315,41.65702371617879,2,MB
2025-06-20 11:36:40.416,-0.008834280486058,42.64900136506344,2,MB
2025-06-20 11:36:40.423,-0.0071715584577757,43.62758462030425,2,MB
2025-06-20 11:36:40.431,-0.0054955164660506,44.58377989519261,2,MB
2025-06-20 11:36:40.439,-0.0038387315212073,45.50776113369064,2,MB
2025-06-20 11:36:40.447,-0.0022318637817618,46.3892347162563,2,MB
2025-06-20 11:36:40.455,-0.0007028397290903,47.21780840217561,2,MB
2025-06-20 11:36:40.462,0.0007238436917051,47.983347927600086,2,MB
2025-06-20 11:36:40.470,0.002027670360822,48.67630677950715,2,MB
2025-06-20 11:36:40.478,0.0031924960535169,49.28801706849915,2,MB
2025-06-20 11:36:40.486,0.0042067721502468,49.81093213266867,2,MB
2025-06-20 11:36:40.494,0.0050636030045758,50.2388143442348,2,MB
2025-06-20 11:36:40.502,0.005760645230897,50.56686440735432,2,MB
2025-06-20 11:36:40.509,0.0062998631706714,50.791791100333285,2,MB
2025-06-20 11:36:40.517,0.0066871593460622,50.91182283101686,2,MB
2025-06-20 11:36:40.525,0.0069319017503992,50.92666448346944,2,MB
2025-06-20 11:36:40.533,0.0070463714159017,50.83740481814596,2,MB
2025-06-20 11:36:40.541,0.0070451539997765,50.64638115026226,2,MB
2025-06-20 11:36:40.548,0.0069444984204897,50.35700917775733,2,MB
2025-06-20 11:36:40.556,0.0067616642762999,49.97358665486658,2,MB
2025-06-20 11:36:40.564,0.0065142783354043,49.50108009286795,2,MB
2025-06-20 11:36:40.572,0.0062197190623195,48.944903801450046,2,MB
2025-06-20 11:36:40.580,0.0058945469256104,48.31070036250163,2,MB
2025-06-20 11:36:40.588,0.0055539969583954,47.60413106791537,2,MB
2025-06-20 11:36:40.595,0.0052115485231334,46.83068397592943,2,MB
2025-06-20 11:36:40.603,0.004878585199566,45.9955060748868,2,MB
2025-06-20 11:36:40.611,0.0045641548373571,45.10326463575854,2,MB
2025-06-20 11:36:40.619,0.0042748359060437,44.15804125742412,2,MB
2025-06-20 11:36:40.627,0.004014711490029,43.16326045109362,2,MB
2025-06-20 11:36:40.634,0.0037854470708521,42.12165296594961,2,MB
2025-06-20 11:36:40.642,0.0035864631625304,41.03525251480161,2,MB
2025-06-20 11:36:40.650,0.0034151893894492,39.90542319182494,2,MB
2025-06-20 11:36:40.658,0.0032673830547762,38.73291374361682,2,MB
2025-06-20 11:36:40.673,0.0031374928563093,37.51793400217456,2,MB
2025-06-20 11:36:40.681,0.003019047277392,36.2602482408437,2,MB
2025-06-20 11:36:40.689,0.0029050473220009,34.959279983269354,2,MB
2025-06-20 11:36:40.697,0.0027883445950255,33.614222873461934,2,MB
2025-06-20 11:36:40.705,0.0026619880824712,32.224152572653054,2,MB
2025-06-20 11:36:40.713,0.0025195261002612,30.78813523623393,2,MB
2025-06-20 11:36:40.720,0.0023552534420032,29.305328880004385,2,MB
2025-06-20 11:36:40.728,0.0021643974730902,27.775074803796,2,MB
2025-06-20 11:36:40.736,0.0019432405603878,26.1969771396752,2,MB
2025-06-20 11:36:40.744,0.0016891796268427,24.570969474077348,2,MB
2025-06-20 11:36:40.752,0.0014007266536145,22.89736830614286,2,MB
2025-06-20 11:36:40.759,0.0010774565149167,21.176913802625144,2,MB
2025-06-20 11:36:40.767,0.0007199105446938,19.410798858592702,2,MB
2025-06-20 11:36:40.775,0.0003294656660956,17.60068785296384,2,MB
2025-06-20 11:36:40.783,-9.182023502723668e-05,15.748726693024242,2,MB
2025-06-20 11:36:40.791,-0.0005413757472535,13.857545779261445,2,MB
2025-06-20 11:36:40.798,-0.0010162855606354,11.930257410371995,2,MB
2025-06-20 11:36:40.806,-0.0015134525176073,9.970448918041445,2,MB
2025-06-20 11:36:40.814,-0.0020297435841619,7.982172505228636,2,MB
2025-06-20 11:36:40.822,-0.0025621127935629,5.969932389889429,2,MB
2025-06-20 11:36:40.830,-0.0031076959911081,3.9386694562517937,2,MB
2025-06-20 11:36:40.838,-0.0036638741364198,1.8937432206503573,2,MB
2025-06-20 11:36:40.845,-0.0042283038995827,-0.159089432606055,2,MB
2025-06-20 11:36:40.853,-0.004798916199017,-2.213699559816094,2,MB
2025-06-20 11:36:40.861,-0.0053738850678487,-4.263616484283745,2,MB
2025-06-20 11:36:40.869,-0.0059515707223991,-6.30206414218066,2,MB
2025-06-20 11:36:40.877,-0.0065304418711297,-8.322004335688934,2,MB
2025-06-20 11:36:40.884,-0.0071089831052411,-10.31618752424353,2,MB
2025-06-20 11:36:40.892,-0.0076855936868383,-12.27721140170278,2,MB
2025-06-20 11:36:40.900,-0.008258484276309,-14.197587038005006,2,MB
2025-06-20 11:36:40.908,-0.0088255781571583,-16.06981186279703,2,MB
2025-06-20 11:36:40.916,-0.0093844232919243,-17.886448289467356,2,MB
2025-06-20 11:36:40.923,-0.0099321210214805,-19.64020636499772,2,MB
2025-06-20 11:36:40.931,-0.0104652763890297,-21.32402851847478,2,MB
2025-06-20 11:36:40.939,-0.0109799739811749,-22.931174292726805,2,MB
2025-06-20 11:36:40.947,-0.0114717819191882,-24.45530288609893,2,MB
2025-06-20 11:36:40.955,-0.0119357852940447,-25.890551391363918,2,MB
2025-06-20 11:36:40.963,-0.0123666490024663,-27.23160676739228,2,MB
2025-06-20 11:36:40.970,-0.0127587086683855,-28.47376978135899,2,MB
2025-06-20 11:36:40.978,-0.0131060871362739,-29.61300938312643,2,MB
2025-06-20 11:36:40.986,-0.0134028328888853,-30.646006200006937,2,MB
2025-06-20 11:36:40.994,-0.0136430757007545,-31.570184067668464,2,MB
2025-06-20 11:36:41.002,-0.0138211939597032,-32.38372875266228,2,MB
2025-06-20 11:36:41.009,-0.0139319874375937,-33.0855932899972,2,MB
2025-06-20 11:36:41.017,-0.013970848925782,-33.675489670974486,2,MB
2025-06-20 11:36:41.025,-0.0139339281148216,-34.15386698330145,2,MB
2025-06-20 11:36:41.033,-0.0138182813622103,-34.52187653087518,2,MB
2025-06-20 11:36:41.041,-0.0136220014302689,-34.7813249397953,2,MB
2025-06-20 11:36:41.048,-0.0133443217761911,-34.9346167759985,2,MB
2025-06-20 11:36:41.056,-0.0129856905646869,-34.98468873139137,2,MB
2025-06-20 11:36:41.064,-0.0125478104044822,-34.93493793862971,2,MB
2025-06-20 11:36:41.072,-0.0120336410433305,-34.78914740144206,2,MB
2025-06-20 11:36:41.080,-0.0114473639430832,-34.551411831365066,2,MB
2025-06-20 11:36:41.088,-0.0107943096762265,-34.22606732331934,2,MB
2025-06-20 11:36:41.095,-0.0100808511455995,-33.81762824740226,2,MB
2025-06-20 11:36:41.103,-0.0093142673560052,-33.33073445431552,2,MB
2025-06-20 11:36:41.111,-0.0085025835705944,-32.77011137157512,2,MB
2025-06-20 11:36:41.119,-0.0076543940990243,-32.14054481332207,2,MB
2025-06-20 11:36:41.127,-0.0067786738609157,-31.446871369996,2,MB
2025-06-20 11:36:41.134,-0.0058845845553491,-30.69398414136828,2,MB
2025-06-20 11:36:41.142,-0.0049812810413062,-29.88685240301312,2,MB
2025-06-20 11:36:41.150,-0.0040777235712131,-29.03055264002122,2,MB
2025-06-20 11:36:41.158,-0.00318250182812,-28.130307334211853,2,MB
2025-06-20 11:36:41.173,-0.0023036771279193,-27.19152703979788,2,MB
2025-06-20 11:36:41.181,-0.0014486493290257,-26.219850703707426,2,MB
2025-06-20 11:36:41.189,-0.00062405448318,-25.22117893957393,2,MB
2025-06-20 11:36:41.197,0.0001643023585387,-24.20169508631055,2,MB
2025-06-20 11:36:41.205,0.0009114775369,-23.167869386055955,2,MB
2025-06-20 11:36:41.213,0.0016133841179464,-22.126442487052515,2,MB
2025-06-20 11:36:41.220,0.0022667571691208,-21.08438566946353,2,MB
2025-06-20 11:36:41.228,0.0028690965300404,-20.048836632055064,2,MB
2025-06-20 11:36:41.236,0.0034185962019747,-19.02701126809386,2,MB
2025-06-20 11:36:41.244,0.0039140699496835,-18.026093489932254,2,MB
2025-06-20 11:36:41.252,0.0043548820306938,-17.05310672126728,2,MB
2025-06-20 11:36:41.259,0.0047408902022842,-16.114772057987874,2,MB
2025-06-20 11:36:41.267,0.0050724055161979,-15.217359209736289,2,MB
2025-06-20 11:36:41.275,0.0053501702601093,-14.366537097204352,2,MB
2025-06-20 11:36:41.283,0.0055753522368504,-13.56723133255721,2,MB
2025-06-20 11:36:41.291,0.0057495509186468,-12.823495709939914,2,MB
2025-06-20 11:36:41.298,0.0058748092590084,-12.138404270918778,2,MB
2025-06-20 11:36:41.306,0.005953624209735,-11.513969523238114,2,MB
2025-06-20 11:36:41.314,0.0059889492091458,-10.951091062209692,2,MB
2025-06-20 11:36:41.322,0.0059841829418617,-10.449537283453871,2,MB
2025-06-20 11:36:41.330,0.0059431403127746,-10.007961206362436,2,MB
2025-06-20 11:36:41.338,0.005870003552259,-9.623949769739887,2,MB
2025-06-20 11:36:41.345,0.0057692533999792,-9.294104421069964,2,MB
2025-06-20 11:36:41.353,0.0056455821857542,-9.014149484427632,2,MB
2025-06-20 11:36:41.361,0.0055037922024008,-8.779063720780606,2,MB
2025-06-20 11:36:41.369,0.0053486839872053,-8.583229724223031,2,MB
2025-06-20 11:36:41.377,0.0051849399894529,-8.420595339607114,2,MB
2025-06-20 11:36:41.384,0.0050170096042575,-8.284841131623846,2,MB
2025-06-20 11:36:41.392,0.0048490016653983,-8.169548057619107,2,MB
2025-06-20 11:36:41.400,0.0046845901533266,-8.068359858083403,2,MB
2025-06-20 11:36:41.408,0.0045269380746506,-7.975135231487837,2,MB
2025-06-20 11:36:41.416,0.0043786432941957,-7.884085552996029,2,MB
2025-06-20 11:36:41.423,0.0042417087213267,-7.7898946830629905,2,MB
2025-06-20 11:36:41.431,0.0041175378424483,-7.687818251351198,2,MB
2025-06-20 11:36:41.439,0.0040069552442371,-7.573760657129716,2,MB
2025-06-20 11:36:41.447,0.0039102504656486,-7.444328867015757,2,MB
2025-06-20 11:36:41.455,0.0038272421645529,-7.29686288866843,2,MB
2025-06-20 11:36:41.463,0.0037573581621395,-7.12944353569076,2,MB
2025-06-20 11:36:41.470,0.0036997255944716,-6.940878758870981,2,MB
2025-06-20 11:36:41.478,0.0036532644830598,-6.73067038704566,2,MB
2025-06-20 11:36:41.486,0.0036167778541463,-6.498963584910513,2,MB
2025-06-20 11:36:41.494,0.0035890322193986,-6.246481689671854,2,MB
2025-06-20 11:36:41.502,0.0035688236643398,-5.974449336944059,2,MB
2025-06-20 11:36:41.509,0.0035550266838377,-5.684506938346823,2,MB
2025-06-20 11:36:41.517,0.0035466249212198,-5.378619640012,2,MB
2025-06-20 11:36:41.525,0.0035427248480836,-5.058983881738638,2,MB
2025-06-20 11:36:41.533,0.0035425550156546,-4.727934596452707,2,MB
2025-06-20 11:36:41.541,0.0035454547391146,-4.387855941725358,2,MB
2025-06-20 11:36:41.548,0.0035508568859003,-4.041098240600289,2,MB
2025-06-20 11:36:41.556,0.0035582697638201,-3.689903528880276,2,MB
2025-06-20 11:36:41.564,0.003567262888715,-3.33634176224,2,MB
2025-06-20 11:36:41.572,0.0035774606399439,-2.98225933226648,2,MB
2025-06-20 11:36:41.580,0.0035885465410857,-2.6292410813892984,2,MB
2025-06-20 11:36:41.588,0.0036002792360345,-2.2785865040754154,2,MB
2025-06-20 11:36:41.595,0.0036125192621303,-1.9313002948132347,2,MB
2025-06-20 11:36:41.603,0.0036252635816956,-1.588096874671723,2,MB
2025-06-20 11:36:41.611,0.0036386828439969,-1.2494180154464762,2,MB
2025-06-20 11:36:41.619,0.0036531550380054,-0.9154621952449352,2,MB
2025-06-20 11:36:41.627,0.0036692889872592,-0.586223873390045,2,MB
2025-06-20 11:36:41.634,0.0036879320391466,-0.261540483157945,2,MB
2025-06-20 11:36:41.642,0.0037101579539305,0.0588553690482063,2,MB
2025-06-20 11:36:41.650,0.0037372329846643,0.3752812159877548,2,MB
2025-06-20 11:36:41.658,0.0037705601769248,0.6880503529930755,2,MB
2025-06-20 11:36:41.666,0.00381160386128,0.9974205140821834,2,MB
2025-06-20 11:36:41.673,0.0038617980774306,1.3035481402475164,2,MB
2025-06-20 11:36:41.681,0.0039224441811429,1.6064504426941142,2,MB
2025-06-20 11:36:41.689,0.0039946040451915,1.9059770137106504,2,MB
2025-06-20 11:36:41.697,0.0040789959526666,2.2017922032871318,2,MB
2025-06-20 11:36:41.705,0.0041759004078379,2.493368894738463,2,MB
2025-06-20 11:36:41.713,0.004285082673923,2.779993716208472,2,MB
2025-06-20 11:36:41.720,0.0044057379943784,3.060783158186186,2,MB
2025-06-20 11:36:41.728,0.0045364642509036,3.334709568296005,2,MB
2025-06-20 11:36:41.736,0.0046752652724928,3.600635591918997,2,MB
2025-06-20 11:36:41.744,0.004819586163384,3.857355333555645,2,MB
2025-06-20 11:36:41.752,0.0049663799952317,4.103640325578125,2,MB
2025-06-20 11:36:41.759,0.0051122032127723,4.338288292094214,2,MB
2025-06-20 11:36:41.767,0.0052533353037614,4.560172665791446,2,MB
2025-06-20 11:36:41.775,0.0053859167833847,4.768290838720004,2,MB
2025-06-20 11:36:41.783,0.005506098419785,4.961809195182397,2,MB
2025-06-20 11:36:41.791,0.0056101939756769,5.140103081080766,2,MB
2025-06-20 11:36:41.798,0.0056948286121359,5.302790003944877,2,MB
2025-06-20 11:36:41.806,0.0057570754300131,5.449754528892846,2,MB
2025-06-20 11:36:41.814,0.0057945732883924,5.5811635445240935,2,MB
2025-06-20 11:36:41.822,0.0058056199801857,5.697470835457796,2,MB
2025-06-20 11:36:41.830,0.0057892360881258,5.79941023244384,2,MB
2025-06-20 11:36:41.838,0.0057451963951737,5.887977024321288,2,MB
2025-06-20 11:36:41.845,0.0056740274801261,5.964397800647967,2,MB
2025-06-20 11:36:41.853,0.0055769719091476,6.030089428058696,2,MB
2025-06-20 11:36:41.861,0.0054559210679715,6.08660841732584,2,MB
2025-06-20 11:36:41.869,0.0053133200807828,6.135592476585654,2,MB
2025-06-20 11:36:41.877,0.005152049427632,6.178696530898284,2,MB
2025-06-20 11:36:41.884,0.0049752888404823,6.217525880424367,2,MB
2025-06-20 11:36:41.892,0.0047863698506794,6.253569433828394,2,MB
2025-06-20 11:36:41.900,0.0045886239543468,6.288136063545218,2,MB
2025-06-20 11:36:41.908,0.0043852337028694,6.322297072708875,2,MB
2025-06-20 11:36:41.916,0.0041790940527552,6.356837542916012,2,MB
2025-06-20 11:36:41.923,0.0039726909661569,6.392218963241922,2,MB
2025-06-20 11:36:41.931,0.0037680035010149,6.428555048972142,2,MB
2025-06-20 11:36:41.939,0.0035664344629998,6.465602075866092,2,MB
2025-06-20 11:36:41.947,0.0033687731382532,6.502764418854764,2,MB
2025-06-20 11:36:41.955,0.0031751917362228,6.5391153266722855,2,MB
2025-06-20 11:36:41.963,0.0029852750182901,6.573432312460247,2,MB
2025-06-20 11:36:41.970,0.0027980802921388,6.60424591432154,2,MB
2025-06-20 11:36:41.978,0.0026122227353081,6.629899995411901,2,MB
2025-06-20 11:36:41.986,0.00242597922233,6.648621227715304,2,MB
2025-06-20 11:36:41.994,0.0022374028433275,6.65859495795315,2,MB
2025-06-20 11:36:42.002,0.0020444402950623,6.658044312782166,2,MB
2025-06-20 11:36:42.009,0.0018450451492315,6.645309190624988,2,MB
2025-06-20 11:36:42.017,0.0016372813105429,6.618921734470656,2,MB
2025-06-20 11:36:42.025,0.0014194124489424,6.577674999559788,2,MB
2025-06-20 11:36:42.033,0.0011899746334741,6.520681821095363,2,MB
2025-06-20 11:36:42.041,0.0009478307163468,6.447421332131816,2,MB
2025-06-20 11:36:42.048,0.0006922061703658,6.357771152648115,2,MB
2025-06-20 11:36:42.056,0.000422707046729,6.2520239360709455,2,MB
2025-06-20 11:36:42.064,0.0001393214812784,6.13088768469808,2,MB
2025-06-20 11:36:42.072,-0.0001575932580651,5.995469989946689,2,MB
2025-06-20 11:36:42.080,-0.0004673357883896,5.847247070877383,2,MB
2025-06-20 11:36:42.088,-0.0007888950167993,5.688019130063927,2,MB
2025-06-20 11:36:42.095,-0.0011209910823629,5.519854084532725,2,MB
2025-06-20 11:36:42.103,-0.001462119949421,5.345022140259893,2,MB
2025-06-20 11:36:42.111,-0.0018105988988416,5.165923953640503,2,MB
2025-06-20 11:36:42.119,-0.002164610443425,4.985015264351646,2,MB
2025-06-20 11:36:42.127,-0.0025222425739209,4.804730900052872,2,MB
2025-06-20 11:36:42.134,-0.0028815236977129,4.627410957282832,2,MB
2025-06-20 11:36:42.142,-0.0032404511700966,4.45523176833732,2,MB
2025-06-20 11:36:42.150,-0.0035970129248908,4.290143983847818,2,MB
2025-06-20 11:36:42.158,-0.0039492023146578,4.1338197491432975,2,MB
2025-06-20 11:36:42.166,-0.0042950267863348,3.9876105461974936,2,MB
2025-06-20 11:36:42.173,-0.004632511406766,3.8525168308345705,2,MB
2025-06-20 11:36:42.181,-0.0049596985048926,3.729170134120295,2,MB
2025-06-20 11:36:42.189,-0.0052746448037871,3.617827833165427,2,MB
2025-06-20 11:36:42.197,-0.0055754173981795,3.5183803479943547,2,MB
2025-06-20 11:36:42.205,-0.0058600898665512,3.4303701085904708,2,MB
2025-06-20 11:36:42.213,-0.0061267397577476,3.353021277231601,2,MB
2025-06-20 11:36:42.220,-0.006373448647563,3.285278914513319,2,MB
2025-06-20 11:36:42.228,-0.0065983058519779,3.2258560443934714,2,MB
2025-06-20 11:36:42.236,-0.0067994166714464,3.173286902444984,2,MB
2025-06-20 11:36:42.244,-0.0069749157542361,3.1259845383434977,2,MB
2025-06-20 11:36:42.252,-0.0071229858626916,3.082300880198884,2,MB
2025-06-20 11:36:42.259,-0.0072418820287541,3.04058734243587,2,MB
2025-06-20 11:36:42.267,-0.00732996077586,2.9992540597217228,2,MB
2025-06-20 11:36:42.275,-0.0073857137392344,2.9568258539231245,2,MB
2025-06-20 11:36:42.283,-0.0074078046438598,2.911993095761681,2,MB
2025-06-20 11:36:42.291,-0.0073951082461522,2.8636557201889623,2,MB
2025-06-20 11:36:42.298,-0.007346749569771,2.8109588075538148,2,MB
2025-06-20 11:36:42.306,-0.0072621416024647,2.7533183611396943,2,MB
2025-06-20 11:36:42.314,-0.0071410195706706,2.6904362010369582,2,MB
2025-06-20 11:36:42.322,-0.0069834699574984,2.622303255204071,2,MB
2025-06-20 11:36:42.330,-0.0067899525727982,2.549190954610254,2,MB
2025-06-20 11:36:42.338,-0.0065613142352487,2.471630915966553,2,MB
2025-06-20 11:36:42.345,-0.0062987929999367,2.390383601601496,2,MB
2025-06-20 11:36:42.353,-0.0060040123561212,2.306397155777976,2,MB
2025-06-20 11:36:42.361,-0.005678965417986,2.2207581008168056,2,MB
2025-06-20 11:36:42.369,-0.0053259898255751,2.134636003592572,2,MB
2025-06-20 11:36:42.377,-0.0049477348204551,2.0492245636684983,2,MB
2025-06-20 11:36:42.384,-0.0045471226567531,1.9656818040928836,2,MB
2025-06-20 11:36:42.392,-0.0041273069977938,1.8850721470004856,2,MB
2025-06-20 11:36:42.400,-0.0036916310698279,1.8083131172483289,2,MB
2025-06-20 11:36:42.408,-0.0032435880096968,1.7361292337915202,2,MB
2025-06-20 11:36:42.416,-0.0027867851058662,1.6690153255601887,2,MB
2025-06-20 11:36:42.423,-0.0023249126595039,1.6072110641121642,2,MB
2025-06-20 11:36:42.431,-0.0018617171765231,1.5506879692264397,2,MB
2025-06-20 11:36:42.439,-0.0014009777007798,1.4991495521144282,2,MB
2025-06-20 11:36:42.447,-0.00094648342427,1.452044648976852,2,MB
2025-06-20 11:36:42.455,-0.0005020103343226,1.4085933949952738,2,MB
2025-06-20 11:36:42.463,-7.129462539196413e-05,1.3678247214628343,2,MB
2025-06-20 11:36:42.470,0.0003419990761752,1.328623750211591,2,MB
2025-06-20 11:36:42.478,0.0007343160056097,1.2897870292893363,2,MB
2025-06-20 11:36:42.486,0.0011022565941237,1.2500832157954622,2,MB
2025-06-20 11:36:42.494,0.0014426284821076,1.2083165754716525,2,MB
2025-06-20 11:36:42.502,0.0017525039486407,1.1633905403808875,2,MB
2025-06-20 11:36:42.509,0.0020292806014989,1.1143685465761204,2,MB
2025-06-20 11:36:42.517,0.0022707423342155,1.0605294572320023,2,MB
2025-06-20 11:36:42.525,0.0024751169001647,1.0014150551744925,2,MB
2025-06-20 11:36:42.533,0.0026411261557911,0.9368673571123944,2,MB
2025-06-20 11:36:42.541,0.0027680252196558,0.8670538584249126,2,MB
2025-06-20 11:36:42.548,0.0028556274756014,0.7924792581206309,2,MB
2025-06-20 11:36:42.556,0.0029043133643605,0.713982726470466,2,MB
2025-06-20 11:36:42.564,0.0029150220496857,0.6327203426329508,2,MB
2025-06-20 11:36:42.572,0.002889226162536,0.5501329245943853,2,MB
2025-06-20 11:36:42.580,0.0028288908626485,0.4679000807440801,2,MB
2025-06-20 11:36:42.588,0.0027364193727035,0.3878819130425056,2,MB
2025-06-20 11:36:42.595,0.0026145878508109,0.3120503697389616,2,MB
2025-06-20 11:36:42.603,0.002466472892419,0.242412746386789,2,MB
2025-06-20 11:36:42.611,0.0022953750959143,0.1809302340677517,2,MB
2025-06-20 11:36:42.619,0.0021047420411653,0.129434690240038,2,MB
2025-06-20 11:36:42.627,0.0018980937578691,0.089546948929337,2,MB
2025-06-20 11:36:42.634,0.0016789533362231,0.0625999896220098,2,MB
2025-06-20 11:36:42.642,0.0014507848091901,0.0495701509619599,2,MB
2025-06-20 11:36:42.650,0.001216939860933,0.0510193149332378,2,MB
2025-06-20 11:36:42.658,0.0009806143041166,0.0670506132983265,2,MB
2025-06-20 11:36:42.666,0.0007448146216684,0.0972797375275618,2,MB
2025-06-20 11:36:42.673,0.0005123342347425,0.1408233849244481,2,MB
2025-06-20 11:36:42.681,0.0002857386429631,0.1963057658822534,2,MB
2025-06-20 11:36:42.689,6.735825543106675e-05,0.2618834468431188,2,MB
2025-06-20 11:36:42.697,-0.0001407124475283,0.3352881243149591,2,MB
2025-06-20 11:36:42.705,-0.0003366108889792,0.4138862304965704,2,MB
2025-06-20 11:36:42.713,-0.0005186990196738,0.4947535771632603,2,MB
2025-06-20 11:36:42.720,-0.0006855540513257,0.5747625738895966,2,MB
2025-06-20 11:36:42.728,-0.0008359585955647,0.6506789395388707,2,MB
2025-06-20 11:36:42.736,-0.0009688912749346,0.7192643006756623,2,MB
2025-06-20 11:36:42.744,-0.0010835186233819,0.7773806819362851,2,MB
2025-06-20 11:36:42.752,-0.0011791888492175,0.8220926875699373,2,MB
2025-06-20 11:36:42.759,-0.0012554277910792,0.8507631903458927,2,MB
2025-06-20 11:36:42.767,-0.0013119371469691,0.8611386074991119,2,MB
