Timestamp,GSR_Filtered,PPG_Filtered
2025-03-07 13:12:50.152,-0.0001599203367503247,-0.1355755447299157
2025-03-07 13:12:50.159,-0.00019993057501767962,5.5067184944636125
2025-03-07 13:12:50.167,-0.00023927093016912695,10.891899712816135
2025-03-07 13:12:50.175,-0.00027702011964648066,15.951285546749482
2025-03-07 13:12:50.183,-0.0003123137049630635,20.62377929382475
2025-03-07 13:12:50.191,-0.00034437310632318347,24.857018815024073
2025-03-07 13:12:50.199,-0.00037253060812846966,28.60826271675391
2025-03-07 13:12:50.206,-0.0003962495041972814,31.844996622620695
2025-03-07 13:12:50.214,-0.0004151387790633082,34.545252411602995
2025-03-07 13:12:50.222,-0.00042896194969786023,36.69764336257463
2025-03-07 13:12:50.230,-0.00043763990928725555,38.30112758449422
2025-03-07 13:12:50.238,-0.0004412478296411938,39.36452055636223
2025-03-07 13:12:50.245,-0.00044000640352388255,39.90578474385683
2025-03-07 13:12:50.253,-0.0004342679415694631,39.95112987049913
2025-03-07 13:12:50.261,-0.000424498056147551,39.533961363386375
2025-03-07 13:12:50.269,-0.0004112538408988704,38.69371673225798
2025-03-07 13:12:50.277,-0.0003951595796483241,37.474630237530235
2025-03-07 13:12:50.284,-0.0003768810832372493,35.92446529424683
2025-03-07 13:12:50.292,-0.0003570997452520066,34.09325182969913
2025-03-07 13:12:50.300,-0.00033648733346055773,32.032062479511744
2025-03-07 13:12:50.308,-0.0003156824214354797,29.791857310568712
2025-03-07 13:12:50.316,-0.00029526924314880797,27.422421953668337
2025-03-07 13:12:50.324,-0.00027575963572223797,24.971418867023424
2025-03-07 13:12:50.331,-0.0002575786180134537,22.483566169209805
2025-03-07 13:12:50.339,-0.00024105401576435275,19.99995328637789
2025-03-07 13:12:50.347,-0.0002264103696724484,17.557497732125107
2025-03-07 13:12:50.355,-0.0002137671630997791,15.188542821973039
2025-03-07 13:12:50.363,-0.0002031412214764384,12.920592123531119
2025-03-07 13:12:50.370,-0.00019445299215533173,10.776173035507446
2025-03-07 13:12:50.378,-0.0001875363003743668,8.772819133550255
2025-03-07 13:12:50.386,-0.00018215107364844503,6.923158861904531
2025-03-07 13:12:50.394,-0.00017799843386157927,5.235096805998346
2025-03-07 13:12:50.402,-0.00017473748539298262,3.7120731392765984
2025-03-07 13:12:50.409,-0.00017200307884164708,2.3533868526712567
2025-03-07 13:12:50.417,-0.00016942379330772575,1.1545689757511088
2025-03-07 13:12:50.425,-0.00016663936379329679,0.1077930935403968
2025-03-07 13:12:50.433,-0.00016331681805626283,-0.797688058853844
2025-03-07 13:12:50.441,-0.00015916469059082882,-1.5750894145776668
2025-03-07 13:12:50.449,-0.00015394480293689003,-2.2396314755255644
2025-03-07 13:12:50.456,-0.00014748118691979082,-2.8080752092995582
2025-03-07 13:12:50.464,-0.00013966579532422697,-3.2982583184375835
2025-03-07 13:12:50.472,-0.00013046075757109195,-3.7286360558859393
2025-03-07 13:12:50.480,-0.00011989713668755635,-4.1178289713862135
2025-03-07 13:12:50.488,-0.00010807040218789345,-4.48417962247579
2025-03-07 13:12:50.495,-9.513307756854654e-05,-4.845320354295331
2025-03-07 13:12:50.503,-8.128518733485472e-05,-5.21775469882544
2025-03-07 13:12:50.511,-6.67632015136032e-05,-5.616455703464083
2025-03-07 13:12:50.519,-5.182816782289288e-05,-6.054485495215483
2025-03-07 13:12:50.527,-3.675364487525547e-05,-6.542641532074444
2025-03-07 13:12:50.534,-2.181392935385682e-05,-7.089136186039326
2025-03-07 13:12:50.542,-7.272956960611631e-06,-7.699317428227528
2025-03-07 13:12:50.550,6.625808534324569e-06,-8.118725116445237
2025-03-07 13:12:50.558,1.96682123588559e-05,-8.645319712926101
2025-03-07 13:12:50.566,3.167672128654766e-05,-9.27698275975671
2025-03-07 13:12:50.574,4.2516025298634706e-05,-10.00632717963847
2025-03-07 13:12:50.581,5.209682131997723e-05,-10.820565074405657
2025-03-07 13:12:50.589,6.0377745490710174e-05,-11.701528676281509
2025-03-07 13:12:50.597,6.736548554822596e-05,-12.625855689884661
2025-03-07 13:12:50.605,7.311317252066708e-05,-13.565346001353198
2025-03-07 13:12:50.613,7.771722055262017e-05,-14.487491756483342
2025-03-07 13:12:50.620,8.131283191823125e-05,-15.356177245552384
2025-03-07 13:12:50.628,8.40683885039364e-05,-16.132539045180113
2025-03-07 13:12:50.636,8.617891461779747e-05,-16.775970671419078
2025-03-07 13:12:50.644,8.785874481823276e-05,-17.245249850753474
2025-03-07 13:12:50.652,8.93334989711554e-05,-17.49976070137526
2025-03-07 13:12:50.659,9.083148186030515e-05,-17.50077792649365
2025-03-07 13:12:50.667,9.257468684842138e-05,-17.212775832437345
2025-03-07 13:12:50.675,9.476966789511695e-05,-16.60472184631722
2025-03-07 13:12:50.683,9.759862606674479e-05,-15.65131242513221
2025-03-07 13:12:50.691,0.00010121112269422893,-14.334108961994842
2025-03-07 13:12:50.699,0.00010571687546963276,-12.642532572759679
2025-03-07 13:12:50.706,0.00011118010390987534,-10.574679479135584
2025-03-07 13:12:50.714,0.00011761584258912162,-8.137923015301427
2025-03-07 13:12:50.722,0.00012498851374541717,-5.3492739386522645
2025-03-07 13:12:50.730,0.00013321285840393838,-2.235477537825
2025-03-07 13:12:50.738,0.00014215711992521748,1.1671662193971377
2025-03-07 13:12:50.745,0.000151648215724837,4.813264821466297
2025-03-07 13:12:50.753,0.00016147854899154867,8.649074112847442
2025-03-07 13:12:50.761,0.00017141408471971878,12.613505484811775
2025-03-07 13:12:50.769,0.00018120330724182216,16.639378118854296
2025-03-07 13:12:50.777,0.0001905866776046135,20.654886762170854
2025-03-07 13:12:50.784,0.00019930622931419549,24.58524798910426
2025-03-07 13:12:50.792,0.0002071149710801772,28.354481382725123
2025-03-07 13:12:50.800,0.0002137857766484485,31.887276777257718
2025-03-07 13:12:50.808,0.00021911943647729294,35.110894821380164
2025-03-07 13:12:50.816,0.0002229515609461161,37.95704580193787
2025-03-07 13:12:50.824,0.00022515808201450076,40.363691013246346
2025-03-07 13:12:50.831,0.00022565918634290241,42.27671203426732
2025-03-07 13:12:50.839,0.00022442160544642413,43.65139611126629
2025-03-07 13:12:50.847,0.00022145927480801786,44.453690423317795
2025-03-07 13:12:50.855,0.00021683244337817827,44.6611842687149
2025-03-07 13:12:50.863,0.00021064535437344533,44.26378602559654
2025-03-07 13:12:50.870,0.00020304262878227168,43.26407091032112
2025-03-07 13:12:50.878,0.00019420448935418593,41.67728580538439
2025-03-07 13:12:50.886,0.00018434098998378707,39.53100840492416
2025-03-07 13:12:50.894,0.00017368546282000262,36.86446922161866
2025-03-07 13:12:50.902,0.00016248744048623538,33.72755617062207
2025-03-07 13:12:50.909,0.00015100532416024794,30.179532039788157
2025-03-07 13:12:50.917,0.00013949903618100731,26.287504725832804
2025-03-07 13:12:50.925,0.00012822284342330775,22.124698247727082
2025-03-07 13:12:50.933,0.00011741851323121143,17.768578880456356
2025-03-07 13:12:50.941,0.00010730898972052553,13.298895005051572
2025-03-07 13:12:50.949,9.809282939176254e-05,8.79569126891646
2025-03-07 13:12:50.956,8.993965691732148e-05,4.337357333915211
2025-03-07 13:12:50.964,8.298684768951141e-05,-0.0012310853591085901
2025-03-07 13:12:50.972,7.733751285215943e-05,-4.150425859754579
2025-03-07 13:12:50.980,7.305970462353626e-05,-8.047328228333459
2025-03-07 13:12:50.988,7.018662681917241e-05,-11.637080183273586
2025-03-07 13:12:50.995,6.87175509749159e-05,-14.873895984612965
2025-03-07 13:12:51.003,6.861911570703464e-05,-17.72181404318804
2025-03-07 13:12:51.011,6.982673855463855e-05,-20.155159317442795
2025-03-07 13:12:51.019,7.224598096582453e-05,-22.158716051177468
2025-03-07 13:12:51.027,7.575382901507092e-05,-23.72761975171459
2025-03-07 13:12:51.034,8.019994341484452e-05,-24.86698544245504
2025-03-07 13:12:51.042,8.540799940568084e-05,-25.591296157786356
2025-03-07 13:12:51.050,9.117730931261668e-05,-25.923581196827442
2025-03-07 13:12:51.058,9.72849862718016e-05,-25.894417717210928
2025-03-07 13:12:51.066,0.00010348891482972891,-25.540791820681033
2025-03-07 13:12:51.074,0.00010953172073854037,-24.90485642695168
2025-03-07 13:12:51.081,0.0001151458163792956,-24.03262308121631
2025-03-07 13:12:51.089,0.0001200594878101364,-22.972623568114088
2025-03-07 13:12:51.097,0.00012400389823452615,-21.774575012420154
2025-03-07 13:12:51.105,0.00012672080282662544,-20.488079247994104
2025-03-07 13:12:51.113,0.00012797069654056395,-19.161383843417802
2025-03-07 13:12:51.120,0.00012754105318869138,-17.8402284828879
2025-03-07 13:12:51.128,0.0001252542722437076,-16.566796588659148
2025-03-07 13:12:51.136,0.00012097494548002302,-15.378788283577926
2025-03-07 13:12:51.144,0.00011461609062603114,-14.308627149974312
2025-03-07 13:12:51.152,0.00010614405163517138,-13.38280984356692
2025-03-07 13:12:51.159,9.558181264913355e-05,-12.621404544984523
2025-03-07 13:12:51.167,8.301051611968095e-05,-12.037701524389005
2025-03-07 13:12:51.175,6.856902916745526e-05,-11.638016768072283
2025-03-07 13:12:51.183,5.245147524754096e-05,-11.421647647745178
2025-03-07 13:12:51.191,3.4902742517750504e-05,-11.380977956219224
2025-03-07 13:12:51.199,1.6212093793525975e-05,-11.501728223226717
2025-03-07 13:12:51.206,-3.2948755724112424e-06,-11.763345987565765
2025-03-07 13:12:51.214,-2.3265580884966235e-05,-12.139529554392833
2025-03-07 13:12:51.222,-4.333067794423571e-05,-12.59887761978969
2025-03-07 13:12:51.230,-6.311474500677903e-05,-13.105655903252165
2025-03-07 13:12:51.238,-8.224699025413458e-05,-13.620670498262278
2025-03-07 13:12:51.245,-0.00010037158462634833,-14.102235952660585
2025-03-07 13:12:51.253,-0.00011715726345671237,-14.50722407951248
2025-03-07 13:12:51.261,-0.00013230589780620342,-14.792177182868274
2025-03-07 13:12:51.269,-0.00014555980611668596,-14.914466827253642
2025-03-07 13:12:51.277,-0.00015670765714113962,-14.833476602929801
2025-03-07 13:12:51.284,-0.00016558889466477796,-14.511784697930775
2025-03-07 13:12:51.292,-0.000172096677395153,-13.916319665869537
2025-03-07 13:12:51.300,-0.00017617936509250286,-13.019460773181281
2025-03-07 13:12:51.308,-0.0001778405937474637,-11.800052921610124
2025-03-07 13:12:51.316,-0.00017713797201672683,-10.244305565654866
2025-03-07 13:12:51.324,-0.00017418041091326665,-8.346545457617536
2025-03-07 13:12:51.331,-0.00016912409504640953,-6.109794597887341
2025-03-07 13:12:51.339,-0.0001621671403526386,-3.546147531704944
2025-03-07 13:12:51.347,-0.00015354305316192204,-0.6769261280495619
2025-03-07 13:12:51.355,-0.00014351317244162826,2.467404865089012
2025-03-07 13:12:51.363,-0.00013235831791165185,5.847572006449977
2025-03-07 13:12:51.370,-0.00012036989472777023,9.416080571555945
2025-03-07 13:12:51.378,-0.0001078407422023781,13.11805100858345
2025-03-07 13:12:51.386,-9.505605934442878e-05,16.89229221803389
2025-03-07 13:12:51.394,-8.228477987326615e-05,20.672591284111537
2025-03-07 13:12:51.402,-6.977179283614491e-05,24.389191334684302
2025-03-07 13:12:51.409,-5.773139963993753e-05,27.97042178567059
2025-03-07 13:12:51.417,-4.634234272325033e-05,31.344438676829096
2025-03-07 13:12:51.425,-3.574462345806052e-05,34.441027460160264
2025-03-07 13:12:51.433,-2.603817322905054e-05,37.193416751659186
2025-03-07 13:12:51.441,-1.728330192715571e-05,39.54004942892367
2025-03-07 13:12:51.449,-9.502748739350392e-06,41.42625719552253
2025-03-07 13:12:51.456,-2.6850900954384836e-06,42.805786396637416
2025-03-07 13:12:51.464,3.210799740453698e-06,43.64212643640738
2025-03-07 13:12:51.472,8.250588185760238e-06,43.9095975127964
2025-03-07 13:12:51.480,1.2518992492484115e-05,43.59416136737192
2025-03-07 13:12:51.488,1.6114288138320155e-05,42.69392708942687
2025-03-07 13:12:51.495,1.9143070295360986e-05,41.21933340796626
2025-03-07 13:12:51.503,2.171544055305469e-05,39.192999010519436
2025-03-07 13:12:51.511,2.3940735295203666e-05,36.64924288261841
2025-03-07 13:12:51.519,2.5923871091658094e-05,33.63328708855424
2025-03-07 13:12:51.527,2.7762337143136298e-05,30.20016443120754
2025-03-07 13:12:51.535,2.954381735906475e-05,26.41336267090071
2025-03-07 13:12:51.542,3.1344390184662476e-05,22.343245119306463
2025-03-07 13:12:51.550,3.322724248661325e-05,18.065294167746224
2025-03-07 13:12:51.558,3.5241846859744335e-05,13.658229424496298
2025-03-07 13:12:51.566,3.7423587548436584e-05,9.202055452947766
2025-03-07 13:12:51.574,3.9793867626816546e-05,4.776095534935797
2025-03-07 13:12:51.581,4.2360762850010606e-05,0.45706743708293973
2025-03-07 13:12:51.589,4.512027339747458e-05,-3.682745077121572
2025-03-07 13:12:51.597,4.8058150992247805e-05,-7.577175113616665
2025-03-07 13:12:51.605,5.115217110457633e-05,-11.167665308359847
2025-03-07 13:12:51.613,5.437462776495437e-05,-14.404532174006528
2025-03-07 13:12:51.620,5.7694787999267e-05,-17.24797142557359
2025-03-07 13:12:51.628,6.108105732223505e-05,-19.66878163968496
2025-03-07 13:12:51.636,6.450266368709505e-05,-21.648792059933953
2025-03-07 13:12:51.644,6.793075314104697e-05,-23.180988957651735
2025-03-07 13:12:51.652,7.133889184073626e-05,-24.269343452442314
2025-03-07 13:12:51.660,7.470305978930647e-05,-24.92835187242005
2025-03-07 13:12:51.667,7.800127587072453e-05,-25.182307391478812
2025-03-07 13:12:51.675,8.121300986874923e-05,-25.064328633101045
2025-03-07 13:12:51.683,8.43185361470222e-05,-24.615176998835068
2025-03-07 13:12:51.691,8.729837899359347e-05,-23.88189950008148
2025-03-07 13:12:51.699,9.013297881967748e-05,-22.916337705779853
2025-03-07 13:12:51.706,9.280265303870773e-05,-21.773545968986237
2025-03-07 13:12:51.714,9.528784607807824e-05,-20.51016331813904
2025-03-07 13:12:51.722,9.756959869335435e-05,-19.182783305817196
2025-03-07 13:12:51.730,9.963014307326236e-05,-17.84636476290068
2025-03-07 13:12:51.738,0.0001014535353244393,-16.552723919106356
2025-03-07 13:12:51.745,0.0001030262481518376,-15.349144870103705
2025-03-07 13:12:51.753,0.00010433765407204361,-14.27714107454419
2025-03-07 13:12:51.761,0.00010538032531941099,-13.371395649330056
2025-03-07 13:12:51.769,0.00010615005651612059,-12.658902904862593
2025-03-07 13:12:51.777,0.0001066455042903313,-12.158328022670908
2025-03-07 13:12:51.785,0.00010686737119289494,-11.879596198541012
2025-03-07 13:12:51.792,0.00010681713884018291,-11.823717088218123
2025-03-07 13:12:51.800,0.00010649543906419505,-11.982845089973575
2025-03-07 13:12:51.808,0.00010590021821708173,-12.340570933243626
2025-03-07 13:12:51.816,0.0001050249080393195,-12.872435248167621
2025-03-07 13:12:51.824,0.00010385687626739988,-13.546650292477882
2025-03-07 13:12:51.831,0.00010237647483410222,-14.325011835633905
2025-03-07 13:12:51.839,0.00010055700068727598,-15.163979373648218
2025-03-07 13:12:51.847,9.836580971733745e-05,-16.015899401410437
2025-03-07 13:12:51.855,9.57666727789296e-05,-16.830343433392194
2025-03-07 13:12:51.863,9.272325151755395e-05,-17.555529872130286
2025-03-07 13:12:51.870,8.920335110998678e-05,-18.13979671503973
2025-03-07 13:12:51.878,8.518345401301837e-05,-18.533090508104802
2025-03-07 13:12:51.886,8.065300506616364e-05,-18.688435952437143
2025-03-07 13:12:51.894,7.561798438874038e-05,-18.56335021014978
2025-03-07 13:12:51.902,7.010340998172225e-05,-18.1211663131329
2025-03-07 13:12:51.910,6.415452266653592e-05,-17.332231227210755
2025-03-07 13:12:51.917,5.783652848681304e-05,-16.174946125604748
2025-03-07 13:12:51.925,5.123291578071342e-05,-14.636619311330069
2025-03-07 13:12:51.933,4.4442508501126405e-05,-12.714105995454062
2025-03-07 13:12:51.941,3.7575536818633076e-05,-10.414213754814279
2025-03-07 13:12:51.949,3.074908560081629e-05,-7.753857902178156
2025-03-07 13:12:51.956,2.408231063737751e-05,-4.759957117642071
2025-03-07 13:12:51.964,1.7691777924505365e-05,-1.4690663825017947
2025-03-07 13:12:51.972,1.1687194364843037e-05,2.073248657451229
2025-03-07 13:12:51.980,6.167707847903723e-06,5.813284526633206
2025-03-07 13:12:51.988,1.2188999311272982e-06,9.690301440465584
2025-03-07 13:12:51.995,-3.0894360766910624e-06,13.637828240965906
2025-03-07 13:12:52.003,-6.7046785195422705e-06,17.585139352177833
2025-03-07 13:12:52.011,-9.59192713425337e-06,21.4588670918648
2025-03-07 13:12:52.019,-1.1733787437625244e-05,25.184708435822607
2025-03-07 13:12:52.027,-1.312952386082598e-05,28.68918224722698
2025-03-07 13:12:52.035,-1.3793785450599612e-05,31.90139114223597
2025-03-07 13:12:52.042,-1.3755155372349128e-05,34.75474161384467
2025-03-07 13:12:52.050,-1.3054755614206312e-05,37.188576789463845
2025-03-07 13:12:52.058,-1.1745041313659067e-05,39.1496782242757
2025-03-07 13:12:52.066,-9.888794951149637e-06,40.59359636550024
2025-03-07 13:12:52.074,-7.558249712218082e-06,41.48577366621339
2025-03-07 13:12:52.081,-4.834260013199994e-06,41.80242966222499
2025-03-07 13:12:52.089,-1.8054541125336326e-06,41.5311835142582
2025-03-07 13:12:52.097,1.4327082709260188e-06,40.67139640989803
2025-03-07 13:12:52.105,4.7790920951912816e-06,39.234223655764815
2025-03-07 13:12:52.113,8.128396211650432e-06,37.24237409640351
2025-03-07 13:12:52.120,1.1373122334790516e-05,34.72958247460938
2025-03-07 13:12:52.128,1.4406038498194283e-05,31.73980827122013
2025-03-07 13:12:52.136,1.7123084138673173e-05,28.32618218178936
2025-03-07 13:12:52.144,1.942657366716318e-05,24.549728451204953
2025-03-07 13:12:52.152,2.1228477220375536e-05,20.477897562813208
2025-03-07 13:12:52.160,2.2453508990085695e-05,16.18294906777187
2025-03-07 13:12:52.167,2.3041745366818632e-05,11.74022848324162
2025-03-07 13:12:52.175,2.295052951336612e-05,7.226385059615698
2025-03-07 13:12:52.183,2.215549358576512e-05,2.71757872080621
2025-03-07 13:12:52.191,2.0650632798563245e-05,-1.7122754543294076
2025-03-07 13:12:52.199,1.8447471052226608e-05,-5.993178258927506
2025-03-07 13:12:52.206,1.5573440041805696e-05,-10.060588836722118
2025-03-07 13:12:52.214,1.2069648844902958e-05,-13.856798852234961
2025-03-07 13:12:52.222,7.988260785059055e-06,-17.33210413877234
2025-03-07 13:12:52.230,3.3897182163484337e-06,-20.445746177566104
2025-03-07 13:12:52.238,-1.6599494123419973e-06,-23.1666030648849
2025-03-07 13:12:52.245,-7.091532483457553e-06,-25.473617351786125
2025-03-07 13:12:52.253,-1.283460862515924e-05,-27.355955976832487
2025-03-07 13:12:52.261,-1.8818974830081866e-05,-28.812905148615222
2025-03-07 13:12:52.269,-2.4975529287831134e-05,-29.853510189239806
2025-03-07 13:12:52.277,-3.1236685998314974e-05,-30.495976783853393
2025-03-07 13:12:52.285,-3.753649399288774e-05,-30.766855621982973
2025-03-07 13:12:52.292,-4.381068627149366e-05,-30.700036964650312
2025-03-07 13:12:52.300,-4.9996889565920085e-05,-30.335585196364555
2025-03-07 13:12:52.308,-5.603518290751586e-05,-29.718445951478472
2025-03-07 13:12:52.316,-6.186910399915843e-05,-28.897060015921564
2025-03-07 13:12:52.324,-6.744708238834308e-05,-27.92191900466875
2025-03-07 13:12:52.331,-7.272416460198706e-05,-26.844097918107227
2025-03-07 13:12:52.339,-7.766383711735939e-05,-25.71379919417785
2025-03-07 13:12:52.347,-8.223976537583695e-05,-24.578941891333493
2025-03-07 13:12:52.355,-8.643731497051927e-05,-23.48382823885636
2025-03-07 13:12:52.363,-9.025475759951152e-05,-22.46791803445901
2025-03-07 13:12:52.370,-9.370407865041983e-05,-21.56473928386065
2025-03-07 13:12:52.378,-9.681130837782059e-05,-20.800961060744918
2025-03-07 13:12:52.386,-9.961630312734143e-05,-20.195651788138488
2025-03-07 13:12:52.394,-0.00010217191722350659,-19.75974295197609
2025-03-07 13:12:52.402,-0.00010454254477310568,-19.49571458721802
2025-03-07 13:12:52.410,-0.00010680207132185181,-19.39751465612423
2025-03-07 13:12:52.417,-0.00010903133358766625,-19.450719613323454
2025-03-07 13:12:52.425,-0.00011131521695806435,-19.632938005714287
2025-03-07 13:12:52.433,-0.0001137395162566658,-19.914452920894224
2025-03-07 13:12:52.441,-0.00011638765417998089,-20.259092570910077
2025-03-07 13:12:52.449,-0.00011933731807654117,-20.62531144198272
2025-03-07 13:12:52.456,-0.0001226570636652997,-20.967457488391766
2025-03-07 13:12:52.464,-0.00012640294604832726,-21.237194093170448
2025-03-07 13:12:52.472,-0.0001306152604664741,-21.38503929244364
2025-03-07 13:12:52.480,-0.0001353155066684664,-21.361979409121247
2025-03-07 13:12:52.488,-0.00014050374140545438,-21.12111009405162
2025-03-07 13:12:52.495,-0.00014615654130501317,-20.619255114912324
2025-03-07 13:12:52.503,-0.00015222582468422995,-19.818512285652826
2025-03-07 13:12:52.511,-0.00015863875130879465,-18.68767682801308
2025-03-07 13:12:52.519,-0.00016529884712163014,-17.20349523959269
2025-03-07 13:12:52.527,-0.00017208840969784594,-15.351707346080444
2025-03-07 13:12:52.535,-0.00017887214400560473,-13.127840476540962
2025-03-07 13:12:52.542,-0.00018550185871483697,-10.537727370964355
2025-03-07 13:12:52.550,-0.0001918219491906366,-7.5977281886364265
2025-03-07 13:12:52.558,-0.0001976753502932674,-4.33464646483035
2025-03-07 13:12:52.566,-0.0002029096746078747,-0.7853386691173069
2025-03-07 13:12:52.574,-0.00020738331294287499,3.003973238169104
2025-03-07 13:12:52.581,-0.0002109712950865739,6.97866754150705
2025-03-07 13:12:52.589,-0.0002135706668761998,11.07693954111786
2025-03-07 13:12:52.597,-0.00021510507288813213,15.23123461787407
2025-03-07 13:12:52.605,-0.00021552819992362525,19.369856664502333
2025-03-07 13:12:52.613,-0.00021482577021876066,23.41870622435463
2025-03-07 13:12:52.620,-0.0002130158769165477,27.303099476210026
2025-03-07 13:12:52.628,-0.0002101476028357116,30.94961753295708
2025-03-07 13:12:52.636,-0.00020629802059779948,34.28793534070385
2025-03-07 13:12:52.644,-0.0002015678092074897,37.252580698535276
2025-03-07 13:12:52.652,-0.00019607582605348368,39.78457646728099
2025-03-07 13:12:52.660,-0.00018995304011789658,41.832922771820655
2025-03-07 13:12:52.667,-0.00018333626090256733,43.35588077418541
2025-03-07 13:12:52.675,-0.00017636208835123613,44.32202523348453
2025-03-07 13:12:52.683,-0.00016916146317597953,44.7110393964643
2025-03-07 13:12:52.691,-0.0001618551168957939,44.51423260991308
2025-03-07 13:12:52.699,-0.00015455011163079235,43.734768257861205
2025-03-07 13:12:52.706,-0.00014733753533514022,42.38759705693236
2025-03-07 13:12:52.714,-0.00014029130614698912,40.49909824839383
2025-03-07 13:12:52.722,-0.0001334679650732374,38.10643866026865
2025-03-07 13:12:52.730,-0.00012690729367820182,35.25666683119252
2025-03-07 13:12:52.738,-0.00012063354989175551,32.00556623869283
2025-03-07 13:12:52.745,-0.00011465705878857936,28.41629799505968
2025-03-07 13:12:52.753,-0.0001089758638600242,24.557868985679406
2025-03-07 13:12:52.761,-0.00010357718280189957,20.503466142610765
2025-03-07 13:12:52.769,-9.843851854681265e-05,16.328701197144113
2025-03-07 13:12:52.777,-9.352841119914585e-05,12.10981269892137
2025-03-07 13:12:52.785,-8.880694190815693e-05,7.9218732306357404
2025-03-07 13:12:52.792,-8.422618953818144e-05,3.837049533486197
2025-03-07 13:12:52.800,-7.973086901368962e-05,-0.07703832891458533
2025-03-07 13:12:52.808,-7.525933231511445e-05,-3.7588155866145554
2025-03-07 13:12:52.816,-7.074501385657187e-05,-7.15407022818492
2025-03-07 13:12:52.824,-6.611830070585467e-05,-10.21705583628497
2025-03-07 13:12:52.831,-6.130873307220376e-05,-12.911352815555666
2025-03-07 13:12:52.839,-5.624739132567171e-05,-15.210468363341247
2025-03-07 13:12:52.847,-5.0869306103937225e-05,-17.09816341555399
2025-03-07 13:12:52.855,-4.511575009712139e-05,-18.568502920024407
2025-03-07 13:12:52.863,-3.893632351842027e-05,-19.625633826832384
2025-03-07 13:12:52.870,-3.229079258662466e-05,-20.283302839241045
2025-03-07 13:12:52.878,-2.515065743734777e-05,-20.564132974311665
2025-03-07 13:12:52.886,-1.7500425655170594e-05,-20.498684114999335
2025-03-07 13:12:52.894,-9.338571867052164e-06,-20.124327824944388
2025-03-07 13:12:52.902,-6.781730839921812e-07,-19.483970643096182
2025-03-07 13:12:52.910,8.45278892251006e-06,-18.624662855923592
2025-03-07 13:12:52.917,1.801147879291145e-05,-17.59613140364141
2025-03-07 13:12:52.925,2.7940648876459732e-05,-16.449276195515267
2025-03-07 13:12:52.933,3.8169504828429114e-05,-15.234668788521585
2025-03-07 13:12:52.941,4.861499525191915e-05,-14.00109123618718
2025-03-07 13:12:52.949,5.918348045832223e-05,-12.794151060012105
2025-03-07 13:12:52.956,6.977271739570132e-05,-11.655005847403817
2025-03-07 13:12:52.964,8.02741065632178e-05,-10.619228025940172
2025-03-07 13:12:52.972,9.057514734688044e-05,-9.71583695839987
2025-03-07 13:12:52.980,0.00010056202730116444,-8.966521670921999
2025-03-07 13:12:52.988,0.00011012225507738807,-8.385073276352584
2025-03-07 13:12:52.995,0.00011914725763832046,-7.9770414958845155
2025-03-07 13:12:53.003,0.00012753488672273875,-7.739624641737626
2025-03-07 13:12:53.011,0.00013519179533849664,-7.661797056841554
2025-03-07 13:12:53.019,0.00014203565207122418,-7.724672395977516
2025-03-07 13:12:53.027,0.00014799717074763877,-7.902095376679432
2025-03-07 13:12:53.035,0.0001530219440321985,-8.16144884101659
2025-03-07 13:12:53.042,0.0001570720625731512,-8.464657281751311
2025-03-07 13:12:53.050,0.00016012746436143432,-8.769362548504922
2025-03-07 13:12:53.058,0.0001621869154414271,-9.030242423668415
2025-03-07 13:12:53.066,0.00016326851140625724,-9.200438303994355
2025-03-07 13:12:53.074,0.00016340961229956548,-9.233054491499722
2025-03-07 13:12:53.081,0.00016266615413906843,-9.08268872580877
2025-03-07 13:12:53.089,0.00016111131004445424,-8.706951711806967
2025-03-07 13:12:53.097,0.0001588335158455808,-8.067932635100753
2025-03-07 13:12:53.105,0.0001559339268946645,-7.133568119083763
2025-03-07 13:12:53.113,0.00015252341898176804,-5.878873834155441
2025-03-07 13:12:53.120,0.0001487192793834232,-4.287001042445211
2025-03-07 13:12:53.128,0.00014464175367048983,-2.3500847029198826
2025-03-07 13:12:53.136,0.0001404106263453524,-0.06985525385511408
2025-03-07 13:12:53.144,0.00013614203164390756,2.542007345335358
2025-03-07 13:12:53.152,0.00013194570470209896,5.463791515558879
2025-03-07 13:12:53.160,0.00012792284835524533,8.663950397366406
2025-03-07 13:12:53.167,0.00012416468232766078,12.101575204281948
2025-03-07 13:12:53.175,0.0001207516008340658,15.727136324853365
2025-03-07 13:12:53.183,0.00011775276342550522,19.483475408880214
2025-03-07 13:12:53.191,0.00011522591828725705,23.307024735272115
2025-03-07 13:12:53.199,0.00011321729463880966,27.129223944183178
2025-03-07 13:12:53.206,0.00011176146854341624,30.8780988334438
2025-03-07 13:12:53.214,0.00011088116865880724,34.47996244026215
2025-03-07 13:12:53.222,0.00011058701958834919,37.86119510625081
2025-03-07 13:12:53.230,0.00011087722697547368,40.95005770504191
2025-03-07 13:12:53.238,0.00011173722374434242,43.67849074596926
2025-03-07 13:12:53.245,0.00011313933284738926,45.98385170287787
2025-03-07 13:12:53.253,0.00011504252247673485,47.810543700010754
2025-03-07 13:12:53.261,0.00011739229946213097,49.11149066034119
2025-03-07 13:12:53.269,0.00012012072893880772,49.84941721963103
2025-03-07 13:12:53.277,0.0001231465436063209,49.997896137484524
2025-03-07 13:12:53.285,0.00012637534376780645,49.54213155001722
2025-03-07 13:12:53.292,0.00012969996676401397,48.47945310501741
2025-03-07 13:12:53.300,0.00013300117403977328,46.81950364925556
2025-03-07 13:12:53.308,0.00013614883025738134,44.58411151432405
2025-03-07 13:12:53.316,0.00013900372857477601,41.80684735913841
2025-03-07 13:12:53.324,0.00014142017264116957,38.532274729545044
2025-03-07 13:12:53.331,0.00014324938154981,34.814912705102294
2025-03-07 13:12:53.339,0.00014434374038894916,30.717937895431586
2025-03-07 13:12:53.347,0.00014456185652689574,26.311661269721707
2025-03-07 13:12:53.355,0.00014377428160037593,21.671822497470895
2025-03-07 13:12:53.363,0.00014186963350754206,16.877750320570655
2025-03-07 13:12:53.370,0.0001387607425598619,12.01044169449579
2025-03-07 13:12:53.378,0.00013439038062404427,7.150614828968129
2025-03-07 13:12:53.386,0.00012873611179872423,2.376791712762544
2025-03-07 13:12:53.394,0.00012181382993625265,-2.2365357883253183
2025-03-07 13:12:53.402,0.00011367963561783146,-6.62060552365408
2025-03-07 13:12:53.410,0.00010442984163044184,-10.713904626715973
2025-03-07 13:12:53.417,9.41990408171762e-05,-14.463469787531354
2025-03-07 13:12:53.425,8.315629865144342e-05,-17.825936513354353
2025-03-07 13:12:53.433,7.149965344754259e-05,-20.768314016393624
2025-03-07 13:12:53.441,5.944922839251982e-05,-23.268471180183663
2025-03-07 13:12:53.449,4.723936393754602e-05,-25.31532798468625
2025-03-07 13:12:53.456,3.511023299166218e-05,-26.908755474848245
2025-03-07 13:12:53.464,2.3299381026687647e-05,-28.05919552554308
2025-03-07 13:12:53.472,1.2033541739496819e-05,-28.787019026820147
2025-03-07 13:12:53.480,1.5209527153923664e-06,-29.121647492516026
2025-03-07 13:12:53.488,-8.055705276979608e-06,-29.100468353382798
2025-03-07 13:12:53.495,-1.65456481262212e-05,-28.76757826202376
2025-03-07 13:12:53.503,-2.3835461833900673e-05,-28.172391592168264
2025-03-07 13:12:53.511,-2.9853487935111718e-05,-27.368152987442738
2025-03-07 13:12:53.519,-3.45728467108836e-05,-26.410393374962993
2025-03-07 13:12:53.527,-3.801281823417905e-05,-25.355368412916718
2025-03-07 13:12:53.535,-4.0238345876584945e-05,-24.258517023203478
2025-03-07 13:12:53.542,-4.135752207124757e-05,-23.172975621413634
2025-03-07 13:12:53.550,-4.1517050475429116e-05,-22.14818105189524
2025-03-07 13:12:53.558,-4.089582467268887e-05,-21.228592211804195
2025-03-07 13:12:53.566,-3.969689478235158e-05,-20.452557030864334
2025-03-07 13:12:53.574,-3.813819681171773e-05,-19.851347956109752
2025-03-07 13:12:53.581,-3.644249289035038e-05,-19.44838542441239
2025-03-07 13:12:53.589,-3.4827020228509396e-05,-19.258665001444506
2025-03-07 13:12:53.597,-3.3493384691230625e-05,-19.288399909186506
2025-03-07 13:12:53.605,-3.2618260206992724e-05,-19.53488653458355
2025-03-07 13:12:53.613,-3.234544401454498e-05,-19.986596202085448
2025-03-07 13:12:53.620,-3.277974711910679e-05,-20.623492021748252
2025-03-07 13:12:53.628,-3.3983072669149164e-05,-21.41756504265045
2025-03-07 13:12:53.636,-3.597287860722442e-05,-22.333579324774394
2025-03-07 13:12:53.644,-3.87230685807072e-05,-23.330010983123067
2025-03-07 13:12:53.652,-4.2167225410949405e-05,-24.360161855320513
2025-03-07 13:12:53.660,-4.6203976355729424e-05,-25.373424299423508
2025-03-07 13:12:53.667,-5.0704127753702055e-05,-26.316669834484593
2025-03-07 13:12:53.675,-5.551904230350082e-05,-27.135730963624713
2025-03-07 13:12:53.683,-6.048961863864818e-05,-27.776942613833896
2025-03-07 13:12:53.691,-6.545521718581004e-05,-28.188707220741406
2025-03-07 13:12:53.699,-7.026194701564225e-05,-28.32304562359041
2025-03-07 13:12:53.706,-7.476984828410668e-05,-28.137094694854127
2025-03-07 13:12:53.714,-7.885865794847291e-05,-27.594512132194723
2025-03-07 13:12:53.722,-8.243202720961776e-05,-26.666749233667815
2025-03-07 13:12:53.730,-8.542022876052844e-05,-25.334153900134126
2025-03-07 13:12:53.738,-8.778148622685216e-05,-23.58686867347344
2025-03-07 13:12:53.745,-8.950205346514561e-05,-21.42549239689541
2025-03-07 13:12:53.753,-9.059511454345944e-05,-18.861479093965286
2025-03-07 13:12:53.761,-9.109853637282993e-05,-15.917253859225825
2025-03-07 13:12:53.769,-9.107152033065006e-05,-12.626032813321226
2025-03-07 13:12:53.777,-9.059025603198221e-05,-9.031342303365323
2025-03-07 13:12:53.785,-8.974274763067995e-05,-5.186241266613642
2025-03-07 13:12:53.792,-8.862303463059645e-05,-1.1522597192633044
2025-03-07 13:12:53.800,-8.732505585719339e-05,3.0019246452192916
2025-03-07 13:12:53.808,-8.593641474764137e-05,7.202041097675001
2025-03-07 13:12:53.816,-8.4532319330983e-05,11.369973125940751
2025-03-07 13:12:53.824,-8.317001197380062e-05,15.425652696923446
2025-03-07 13:12:53.831,-8.188406076245434e-05,19.289050244738455
2025-03-07 13:12:53.839,-8.068290826036267e-05,22.882204945319998
2025-03-07 13:12:53.847,-7.954701896200502e-05,26.131237377102337
2025-03-07 13:12:53.855,-7.842883545046577e-05,28.968286010815383
2025-03-07 13:12:53.863,-7.725459317555552e-05,31.333310174490276
2025-03-07 13:12:53.871,-7.592790567509367e-05,33.17570520820109
2025-03-07 13:12:53.878,-7.433493007847081e-05,34.455680411649034
2025-03-07 13:12:53.886,-7.235083873446893e-05,35.145356996057984
2025-03-07 13:12:53.894,-6.984723812122484e-05,35.22955141895513
2025-03-07 13:12:53.902,-6.67000935530083e-05,34.706218977899155
2025-03-07 13:12:53.910,-6.279766168187307e-05,33.58654306576598
2025-03-07 13:12:53.917,-5.804792743380203e-05,31.894666674468613
2025-03-07 13:12:53.925,-5.238508844869012e-05,29.667074153385194
2025-03-07 13:12:53.933,-4.5774706138744434e-05,26.95164243805872
2025-03-07 13:12:53.941,-3.821723164552844e-05,23.80639151963599
2025-03-07 13:12:53.949,-2.9749718420826466e-05,20.297973399119936
2025-03-07 13:12:53.956,-2.0445646819489972e-05,16.499946774380522
2025-03-07 13:12:53.964,-1.0412886140914273e-05,12.490890922008997
2025-03-07 13:12:53.972,2.101091262327466e-07,8.35241643553173
2025-03-07 13:12:53.980,1.1259707770088162e-05,4.167132546347989
2025-03-07 13:12:53.988,2.2553863323985474e-05,0.016630663291989548
2025-03-07 13:12:53.996,3.389986363837551e-05,-4.020458411466388
2025-03-07 13:12:54.003,4.510261342999297e-05,-7.87028024882905
2025-03-07 13:12:54.011,5.597296588327532e-05,-11.465398025833077
2025-03-07 13:12:54.019,6.633564130464868e-05,-14.74621894388682
2025-03-07 13:12:54.027,7.603630843905078e-05,-17.662173838179395
2025-03-07 13:12:54.035,8.494745462417854e-05,-20.172626941230288
2025-03-07 13:12:54.042,9.297275927731523e-05,-22.24750200331882
2025-03-07 13:12:54.050,0.00010004980730588564,-23.867620125138707
2025-03-07 13:12:54.058,0.00010615109574507287,-25.024753381293248
2025-03-07 13:12:54.066,0.00011128337413973503,-25.721406300271678
2025-03-07 13:12:54.074,0.00011548542821104436,-25.970344258100862
2025-03-07 13:12:54.081,0.00011882448574694931,-25.793893646528076
2025-03-07 13:12:54.089,0.0001213914924340827,-25.22304318253124
2025-03-07 13:12:54.097,0.00012329555129445086,-24.296378908183264
2025-03-07 13:12:54.105,0.0001246578210275141,-23.058887331841134
2025-03-07 13:12:54.113,0.0001256051352150538,-21.560661873557564
2025-03-07 13:12:54.121,0.0001262635741337358,-19.855547416249966
2025-03-07 13:12:54.128,0.00012675221857739332,-17.999756463488215
2025-03-07 13:12:54.136,0.0001271773282458059,-16.05048831830012
2025-03-07 13:12:54.144,0.00012762719454728004,-14.064580001563685
2025-03-07 13:12:54.152,0.00012816791721530622,-12.097214516864897
2025-03-07 13:12:54.160,0.00012884034902022667,-10.200708736434107
2025-03-07 13:12:54.167,0.00012965842820376539,-8.423399809417162
2025-03-07 13:12:54.175,0.00013060905327940802,-6.8086457294879414
2025-03-07 13:12:54.183,0.00013165355128595837,-5.393952656827501
2025-03-07 13:12:54.191,0.00013273067438877736,-4.2102388429281
2025-03-07 13:12:54.199,0.0001337609556636312,-3.2812425895805317
2025-03-07 13:12:54.206,0.000134652167798507,-2.6230795848824755
2025-03-07 13:12:54.214,0.0001353055495836395,-2.2439531696785173
2025-03-07 13:12:54.222,0.00013562239695188397,-2.14401954665186
2025-03-07 13:12:54.230,0.0001355105814637627,-2.3154085861452116
2025-03-07 13:12:54.238,0.00013489057380378455,-2.7423996340103822
2025-03-07 13:12:54.246,0.00013370059163343283,-3.4017505096030725
2025-03-07 13:12:54.253,0.00013190053297106177,-4.263176618950349
2025-03-07 13:12:54.261,0.00012947441038841772,-5.289975726142874
2025-03-07 13:12:54.269,0.00012643110088005437,-6.439792358187387
2025-03-07 13:12:54.277,0.00012280336869617054,-7.665514003142976
2025-03-07 13:12:54.285,0.00011864526381935009,-8.916289144063112
2025-03-07 13:12:54.292,0.00011402812174314004,-10.138654713197518
2025-03-07 13:12:54.300,0.00010903549873795462,-11.277757738163462
2025-03-07 13:12:54.308,0.00010375747924201321,-12.278652804093973
2025-03-07 13:12:54.316,9.828487075362695e-05,-13.087653537866458
2025-03-07 13:12:54.324,9.270382335717715e-05,-13.65371275585295
2025-03-07 13:12:54.331,8.709135254678567e-05,-13.929802393103357
2025-03-07 13:12:54.339,8.151210927380389e-05,-13.874261091543087
2025-03-07 13:12:54.347,7.601656604062472e-05,-13.452074640941497
2025-03-07 13:12:54.355,7.06406242620821e-05,-12.63605261803587
2025-03-07 13:12:54.363,6.540652612494375e-05,-11.407863819537681
2025-03-07 13:12:54.371,6.032486479318232e-05,-9.758893663474945
2025-03-07 13:12:54.378,5.5397411621317806e-05,-7.69088881786513
2025-03-07 13:12:54.386,5.06204202934098e-05,-5.2163580121375865
2025-03-07 13:12:54.394,4.5988040241349574e-05,-2.358703314440041
2025-03-07 13:12:54.402,4.149548412588528e-05,0.8479369600145048
2025-03-07 13:12:54.410,3.714164751568619e-05,4.359144287240493
2025-03-07 13:12:54.417,3.293096942529595e-05,8.120976147847674
2025-03-07 13:12:54.425,2.8874436889782274e-05,12.07101358198749
2025-03-07 13:12:54.433,2.4989748243962077e-05,16.139680930318132
2025-03-07 13:12:54.441,2.130073139700972e-05,20.251808510328818
2025-03-07 13:12:54.449,1.783616061927507e-05,24.3283995859117
2025-03-07 13:12:54.456,1.4628139593771314e-05,28.288554727979726
2025-03-07 13:12:54.464,1.1710218953192424e-05,32.05149989032481
2025-03-07 13:12:54.472,9.115381902141289e-06,35.53865951298775
2025-03-07 13:12:54.480,6.873972900530307e-06,38.675712915777396
2025-03-07 13:12:54.488,5.011599703557258e-06,41.39457129390249
2025-03-07 13:12:54.496,3.5470326277094125e-06,43.63521385369023
2025-03-07 13:12:54.503,2.490143717811259e-06,45.34732504008273
2025-03-07 13:12:54.511,1.8399503277249785e-06,46.49168033951631
2025-03-07 13:12:54.519,1.5828496347359342e-06,47.04123563614937
2025-03-07 13:12:54.527,1.6911547426054887e-06,46.981884320223436
2025-03-07 13:12:54.535,2.1220532326153658e-06,46.312856987033264
2025-03-07 13:12:54.542,2.8170848631191385e-06,45.04675024951951
2025-03-07 13:12:54.550,3.7021867422671337e-06,43.20918348277213
2025-03-07 13:12:54.558,4.688326921762296e-06,40.83809474583131
2025-03-07 13:12:54.566,5.6727756092181e-06,37.98269918558904
2025-03-07 13:12:54.574,6.5411226174743445e-06,34.70214442551631
2025-03-07 13:12:54.581,7.170170702798407e-06,31.063907314526922
2025-03-07 13:12:54.589,7.4317718344922005e-06,27.141984548903856
2025-03-07 13:12:54.597,7.19755030565685e-06,23.014935752410906
2025-03-07 13:12:54.605,6.3443342983616205e-06,18.76384137684823
2025-03-07 13:12:54.613,4.760033138423197e-06,14.47023915230874
2025-03-07 13:12:54.621,2.3496429047159822e-06,10.214101776683313
2025-03-07 13:12:54.628,-9.589805017977148e-07,6.071915203542151
2025-03-07 13:12:54.636,-5.20997209198713e-06,2.1149114826911237
2025-03-07 13:12:54.644,-1.0415325797568673e-05,-1.592497068982026
2025-03-07 13:12:54.652,-1.6552137999809944e-05,-4.994044165972349
2025-03-07 13:12:54.660,-2.356151058351851e-05,-8.042667683223813
2025-03-07 13:12:54.667,-3.13492872596025e-05,-10.701281088116906
2025-03-07 13:12:54.675,-3.9788662991580065e-05,-12.943249873906346
2025-03-07 13:12:54.683,-4.8724575048098315e-05,-14.75257461647023
2025-03-07 13:12:54.691,-5.797968164160324e-05,-16.123791510398796
2025-03-07 13:12:54.699,-6.736166430634189e-05,-17.06160944958164
2025-03-07 13:12:54.706,-7.667153977064452e-05,-17.580309634415485
2025-03-07 13:12:54.714,-8.571262874681226e-05,-17.70293912544491
2025-03-07 13:12:54.722,-9.429980342838727e-05,-17.46033361610525
2025-03-07 13:12:54.730,-0.00010226862141309659,-16.890006938543664
2025-03-07 13:12:54.738,-0.00010948395167217816,-16.03494549765869
2025-03-07 13:12:54.746,-0.00011584770838675924,-14.942345076873698
2025-03-07 13:12:54.753,-0.00012130532305843995,-13.662325465445726
2025-03-07 13:12:54.761,-0.00012585059979984374,-12.246655351507123
2025-03-07 13:12:54.769,-0.0001295286284821426,-10.747516152350174
2025-03-07 13:12:54.777,-0.00013243649699806425,-9.216329157259395
2025-03-07 13:12:54.785,-0.00013472164645887834,-7.7026657751939585
2025-03-07 13:12:54.792,-0.00013657782681069587,-6.253256039064119
2025-03-07 13:12:54.800,-0.00013823871149267023,-4.911106040341913
2025-03-07 13:12:54.808,-0.0001399693163091112,-3.714730856193732
2025-03-07 13:12:54.816,-0.00014205545915009217,-2.697505959600922
2025-03-07 13:12:54.824,-0.00014479161425388887,-1.8871371959947982
2025-03-07 13:12:54.831,-0.00014846765392646495,-1.305247232029277
2025-03-07 13:12:54.839,-0.0001533551028844002,-0.9670749384794987
2025-03-07 13:12:54.847,-0.00015969361978034088,-0.881283419838351
2025-03-07 13:12:54.855,-0.00016767844034592524,-1.049872277134593
2025-03-07 13:12:54.863,-0.0001774494635406487,-1.4681900923367506
2025-03-07 13:12:54.871,-0.0001890825593629359,-2.125043931277838
2025-03-07 13:12:54.878,-0.00020258354918715327,-3.002903728967253
2025-03-07 13:12:54.886,-0.00021788516063395708,-4.078200573317417
2025-03-07 13:12:54.894,-0.00023484708864353636,-5.321718950572908
2025-03-07 13:12:54.902,-0.00025325912068301635,-6.699083764832138
2025-03-07 13:12:54.910,-0.00027284713151996993,-8.17134321716438
2025-03-07 13:12:54.917,-0.00029328162448086925,-9.695648282069282
2025-03-07 13:12:54.925,-0.00031418837248593865,-11.226028449367504
2025-03-07 13:12:54.933,-0.0003351605842459669,-12.714261555621519
2025-03-07 13:12:54.941,-0.0003557719144691383,-14.110832911337132
2025-03-07 13:12:54.949,-0.00037558959993052606,-15.365975598331918
2025-03-07 13:12:54.956,-0.0003941870672875698,-16.4307798884749
2025-03-07 13:12:54.964,-0.0004111555111536868,-17.25835540018144
2025-03-07 13:12:54.972,-0.0004261141311795218,-17.805025085959002
2025-03-07 13:12:54.980,-0.0004387188847757629,-18.031525688186324
2025-03-07 13:12:54.988,-0.00044866972675228515,-17.904185192274014
2025-03-07 13:12:54.996,-0.0004557163775995922,-17.396044346148287
2025-03-07 13:12:55.003,-0.0004596627028117256,-16.487886802996222
2025-03-07 13:12:55.011,-0.00046036979290783956,-15.169141154215675
2025-03-07 13:12:55.019,-0.00045775781205210664,-13.438618274598287
2025-03-07 13:12:55.027,-0.0004518066592383041,-11.305049160647167
2025-03-07 13:12:55.035,-0.0004425554771894839,-8.787391890757725
2025-03-07 13:12:55.042,-0.0004301010395681718,-5.914881471399318
2025-03-07 13:12:55.050,-0.00041459503093942666,-2.7268030566219865
2025-03-07 13:12:55.058,-0.0003962402102863083,0.7280228580975819
2025-03-07 13:12:55.066,-0.0003752854432424665,4.392045443125003
2025-03-07 13:12:55.074,-0.00035201962527975356,8.200070932607833
2025-03-07 13:12:55.081,-0.0003267645914835191,12.080614255046658
2025-03-07 13:12:55.089,-0.0002998671826081009,15.957486467984472
2025-03-07 13:12:55.097,-0.0002716906888818052,19.751579830490805
2025-03-07 13:12:55.105,-0.00024260593425392963,23.382803587928244
2025-03-07 13:12:55.113,-0.0002129823061931663,26.772116174639834
2025-03-07 13:12:55.121,-0.00018317905849907847,29.843593921065906
2025-03-07 13:12:55.128,-0.00015353719105416308,32.52647277666781
2025-03-07 13:12:55.136,-0.00012437215553245086,34.757098247300995
2025-03-07 13:12:55.144,-9.596758618659331e-05,36.480719828549375
2025-03-07 13:12:55.152,-6.857021318856309e-05,37.65306973576649
2025-03-07 13:12:55.160,-4.238605745457106e-05,38.24167162977084
2025-03-07 13:12:55.167,-1.7577933234761365e-05,38.2268331545409
2025-03-07 13:12:55.175,5.735766452997989e-06,37.60228617600454
2025-03-07 13:12:55.183,2.7481042885904914e-05,36.375450274430484
2025-03-07 13:12:55.191,4.7627073412475185e-05,34.56730784251961
2025-03-07 13:12:55.199,6.618387627987119e-05,32.2118925522688
2025-03-07 13:12:55.206,8.31989603434566e-05,29.355406407553836
2025-03-07 13:12:55.214,9.875307225255593e-05,26.05499351519642
2025-03-07 13:12:55.222,0.00011295514941294165,22.37721052298928
2025-03-07 13:12:55.230,0.0001259365828975764,18.396243874419
2025-03-07 13:12:55.238,0.00013784490076310688,14.191932178183588
2025-03-07 13:12:55.246,0.0001488370021476419,9.847657752408002
2025-03-07 13:12:55.253,0.00015907210697712156,5.448174575548294
2025-03-07 13:12:55.261,0.00016870463361134415,1.0774404001269235
2025-03-07 13:12:55.269,0.00017787726697495183,-3.183481253848721
2025-03-07 13:12:55.277,0.00018671450894552262,-7.258387902070608
2025-03-07 13:12:55.285,0.0001953169878776548,-11.077718810941416
2025-03-07 13:12:55.292,0.0002037567478537276,-14.580102847788053
2025-03-07 13:12:55.300,0.00021207367393445936,-17.713636051028697
2025-03-07 13:12:55.308,0.00022027317566839625,-20.436861688304905
2025-03-07 13:12:55.316,0.00022832525672010338,-22.71943614622463
2025-03-07 13:12:55.324,0.00023616511227293215,-24.54247454977627
2025-03-07 13:12:55.331,0.00024369537136784207,-25.8985801601291
2025-03-07 13:12:55.339,0.00025079001627037635,-26.791571009605796
2025-03-07 13:12:55.347,0.0002572998811722144,-27.235925619892278
2025-03-07 13:12:55.355,0.00026305949359903686,-27.255976788110143
2025-03-07 13:12:55.363,0.0002678949033856991,-26.88488814631471
2025-03-07 13:12:55.371,0.00027163206036391114,-26.163452397716583
2025-03-07 13:12:55.378,0.00027410525816994426,-25.13875277252289
2025-03-07 13:12:55.386,0.00027516516017329283,-23.862730361604928
2025-03-07 13:12:55.394,0.00027468596553925786,-22.39069966798399
2025-03-07 13:12:55.402,0.000272571358647744,-20.7798530983812
2025-03-07 13:12:55.410,0.00026875901031609534,-19.087792365553163
2025-03-07 13:12:55.417,0.0002632235503090036,-17.37112107449423
2025-03-07 13:12:55.425,0.0002559780713296903,-15.68412832574199
2025-03-07 13:12:55.433,0.00024707430647570697,-14.077588206500083
2025-03-07 13:12:55.441,0.0002366016231670848,-12.597694787305237
2025-03-07 13:12:55.449,0.00022468493015192738,-11.285146932938787
2025-03-07 13:12:55.456,0.0002114815631315762,-10.174392094414577
2025-03-07 13:12:55.464,0.00019717723323590952,-9.29303347554309
2025-03-07 13:12:55.472,0.00018198117130282046,-8.661400734474322
2025-03-07 13:12:55.480,0.00016612063583701305,-8.292280823184843
2025-03-07 13:12:55.488,0.00014983495127239606,-8.19080278031098
2025-03-07 13:12:55.496,0.00013336922032186057,-8.354468324157983
2025-03-07 13:12:55.503,0.00011696784119590249,-8.773318942693072
2025-03-07 13:12:55.511,0.00010086797343707569,-9.430229790278432
2025-03-07 13:12:55.519,8.529312222975924e-05,-10.301320960069125
2025-03-07 13:12:55.527,7.044702853742017e-05,-11.356477426264213
2025-03-07 13:12:55.535,5.650806069191889e-05,-12.559969908709943
2025-03-07 13:12:55.542,4.3624322694929115e-05,-13.87116984454593
2025-03-07 13:12:55.550,3.19097355557179e-05,-15.245352307189098
2025-03-07 13:12:55.558,2.1441385249691838e-05,-16.634580881470853
2025-03-07 13:12:55.566,1.2258416193267247e-05,-17.988668036512795
2025-03-07 13:12:55.574,4.3626507531676305e-06,-19.25620335911675
2025-03-07 13:12:55.581,-2.279054774409862e-06,-20.385640118867734
2025-03-07 13:12:55.589,-7.730898627058723e-06,-21.32642810197167
2025-03-07 13:12:55.597,-1.2082999006869281e-05,-22.030177609268478
2025-03-07 13:12:55.605,-1.54454425058414e-05,-22.451836154501475
2025-03-07 13:12:55.613,-1.7941915617952988e-05,-22.550855951364127
2025-03-07 13:12:55.621,-1.9703258384702968e-05,-22.292326996113157
2025-03-07 13:12:55.628,-2.086119742478619e-05,-21.64804769968029
2025-03-07 13:12:55.636,-2.154244307798828e-05,-20.597502855913216
2025-03-07 13:12:55.644,-2.1863285298439818e-05,-19.12871748791862
2025-03-07 13:12:55.652,-2.1924797547110408e-05,-17.238955001248986
2025-03-07 13:12:55.660,-2.1808758365098572e-05,-14.935229265570275
2025-03-07 13:12:55.667,-2.157441671335287e-05,-12.234602876931769
2025-03-07 13:12:55.675,-2.1256234273893858e-05,-9.16424799030019
2025-03-07 13:12:55.683,-2.0862713927689777e-05,-5.761251737559832
2025-03-07 13:12:55.691,-2.0376368996525548e-05,-2.07215523027144
2025-03-07 13:12:55.699,-1.9754825251670962e-05,1.8477767536685759
2025-03-07 13:12:55.706,-1.8933001728594867e-05,5.93554942161426
2025-03-07 13:12:55.714,-1.7826289825593875e-05,10.121679719542241
2025-03-07 13:12:55.722,-1.6334628801066933e-05,14.331661739789169
2025-03-07 13:12:55.730,-1.4347350163979327e-05,18.487622598445817
2025-03-07 13:12:55.738,-1.1748626031022611e-05,22.510127732895075
2025-03-07 13:12:55.746,-8.423295506189545e-06,26.32008792908315
2025-03-07 13:12:55.753,-4.26277061284726e-06,29.840715261852935
2025-03-07 13:12:55.761,8.29312192587042e-07,32.99947174365224
2025-03-07 13:12:55.769,6.931989805406861e-06,35.72995298189214
2025-03-07 13:12:55.777,1.4102616271176497e-05,37.97364962798714
2025-03-07 13:12:55.785,2.237333895816401e-05,39.6815318740374
2025-03-07 13:12:55.792,3.1748408347254226e-05,40.81540665494657
2025-03-07 13:12:55.800,4.220228447985779e-05,41.34900341450448
2025-03-07 13:12:55.808,5.367852505600583e-05,41.268752105658805
2025-03-07 13:12:55.816,6.608950872434929e-05,40.57422628100342
2025-03-07 13:12:55.824,7.931710457824302e-05,39.2782344041319
2025-03-07 13:12:55.831,9.321438315698477e-05,37.40655353874683
2025-03-07 13:12:55.839,0.00010760837467151589,34.9973109647008
2025-03-07 13:12:55.847,0.00012230377754715084,32.10003060741217
2025-03-07 13:12:55.855,0.00013708746126550361,28.77437200952154
2025-03-07 13:12:55.863,0.0001517336030069384,25.08859948259432
2025-03-07 13:12:55.871,0.00016600932601564675,21.1178276416294
2025-03-07 13:12:55.878,0.00017968073638507153,16.942096395527937
2025-03-07 13:12:55.886,0.000192519258285493,12.644333379446905
2025-03-07 13:12:55.894,0.00020430814536908534,8.308264610513252
2025-03-07 13:12:55.902,0.00021484902043670802,4.016334774160745
2025-03-07 13:12:55.910,0.00022396828095156982,-0.1523029467495803
2025-03-07 13:12:55.917,0.00023152319297438286,-4.12367106611574
2025-03-07 13:12:55.925,0.00023740746269944836,-7.830674829834423
2025-03-07 13:12:55.933,0.00024155603374879177,-11.214587669529214
2025-03-07 13:12:55.941,0.0002439488470618717,-14.226278612827684
2025-03-07 13:12:55.949,0.000244613333873152,-16.82715401509749
2025-03-07 13:12:55.956,0.00024362545584933208,-18.989795324288213
2025-03-07 13:12:55.964,0.00024110911657764496,-20.698284116067615
2025-03-07 13:12:55.972,0.00023723374885083724,-21.948215020882145
2025-03-07 13:12:55.980,0.00023220987971960512,-22.74640611993881
2025-03-07 13:12:55.988,0.00022628253658089003,-23.110324659487528
2025-03-07 13:12:55.996,0.00021972249409525345,-23.067253298933874
2025-03-07 13:12:56.003,0.0002128155493504112,-22.653228373992874
2025-03-07 13:12:56.011,0.00020585022180483287,-21.911786661183054
2025-03-07 13:12:56.019,0.00019910448736857434,-20.892560759922773
2025-03-07 13:12:56.027,0.00019283234597896907,-19.6497654074829
2025-03-07 13:12:56.035,0.00018725114348033543,-18.240617823053267
2025-03-07 13:12:56.042,0.0001825305859408689,-16.723734624528973
2025-03-07 13:12:56.050,0.00017878429479469037,-15.157546120180516
2025-03-07 13:12:56.058,0.0001760645695778231,-13.598766030085391
2025-03-07 13:12:56.066,0.00017436076646280414,-12.10095113801902
2025-03-07 13:12:56.074,0.00017360138600174842,-10.713181215870668
2025-03-07 13:12:56.081,0.00017365963620987748,-9.478885000579357
2025-03-07 13:12:56.089,0.00017436196262666322,-8.434833234130032
2025-03-07 13:12:56.097,0.00017549886881291173,-7.610314986246902
2025-03-07 13:12:56.105,0.0001768372929914697,-7.026508835583764
2025-03-07 13:12:56.113,0.00017813381551686912,-6.696056128912533
2025-03-07 13:12:56.121,0.00017914800013922862,-6.6228395666519795
2025-03-07 13:12:56.128,0.00017965520776799652,-6.8019668164918565
2025-03-07 13:12:56.136,0.00017945828235945875,-7.219955709753347
2025-03-07 13:12:56.144,0.00017839760544400454,-7.855114748479746
2025-03-07 13:12:56.152,0.00017635913256999452,-8.678110037660975
2025-03-07 13:12:56.160,0.00017328013701556236,-9.65270724960773
2025-03-07 13:12:56.167,0.00016915248902296575,-10.736674741208088
2025-03-07 13:12:56.175,0.00016402340333395194,-11.882831425930595
2025-03-07 13:12:56.183,0.00015799369185725065,-13.040220430998058
2025-03-07 13:12:56.191,0.000151213646885074,-14.155386961230885
2025-03-07 13:12:56.199,0.0001438767519931021,-15.173736195085926
2025-03-07 13:12:56.207,0.00013621148476036825,-16.040944534529444
2025-03-07 13:12:56.214,0.00012847153686284274,-16.704395214853502
2025-03-07 13:12:56.222,0.00012092481899351486,-17.114607263068798
2025-03-07 13:12:56.230,0.00011384164156047061,-17.226625205322012
2025-03-07 13:12:56.238,0.0001074824897857198,-17.00133592308384
2025-03-07 13:12:56.246,0.00010208586400439399,-16.40667881864791
2025-03-07 13:12:56.253,9.785672876525831e-05,-15.418716137432027
2025-03-07 13:12:56.261,9.49561732850333e-05,-14.022532034424207
2025-03-07 13:12:56.269,9.349288182096257e-05,-12.212931830776727
2025-03-07 13:12:56.277,9.351692122835653e-05,-9.994916877304517
2025-03-07 13:12:56.285,9.501619847378955e-05,-7.38391544422193
2025-03-07 13:12:56.292,9.791577214124367e-05,-4.405755944372336
2025-03-07 13:12:56.300,0.00010208005359571799,-1.0963753735998898
2025-03-07 13:12:56.308,0.00010731780982252511,2.498737108673237
2025-03-07 13:12:56.316,0.00011338976164119107,6.325354268044464
2025-03-07 13:12:56.324,0.0001200184368719009,10.32156809952808
2025-03-07 13:12:56.332,0.00012689979060270953,14.419068860937735
2025-03-07 13:12:56.339,0.00013371597173522616,18.5446177555108
2025-03-07 13:12:56.347,0.00014014853065387982,22.62167922686525
2025-03-07 13:12:56.355,0.0001458913518683807,26.572173687333912
2025-03-07 13:12:56.363,0.0001506626591177603,30.318307336713804
2025-03-07 13:12:56.371,0.00015421555330803584,33.78443268309894
2025-03-07 13:12:56.378,0.00015634667744247137,36.89889155760983
2025-03-07 13:12:56.386,0.00015690274178645146,39.59579188421496
2025-03-07 13:12:56.394,0.00015578476504126684,41.8166702460228
2025-03-07 13:12:56.402,0.00015294996271273786,43.51199437073631
2025-03-07 13:12:56.410,0.0001484112429815301,44.64246301092469
2025-03-07 13:12:56.417,0.0001422342999481039,45.180065273879364
2025-03-07 13:12:56.425,0.0001345323709581299,45.10886719618219
2025-03-07 13:12:56.433,0.00012545885639544726,44.4255001705648
2025-03-07 13:12:56.441,0.0001151981629281426,43.13933359993584
2025-03-07 13:12:56.449,0.00010395528798171652,41.27232272385682
2025-03-07 13:12:56.457,9.194477575959968e-05,38.858531738030685
2025-03-07 13:12:56.464,7.93797177178063e-05,35.94334185141439
2025-03-07 13:12:56.472,6.646144233938406e-05,32.58236348432194
2025-03-07 13:12:56.480,5.337046304499568e-05,28.840081046210493
2025-03-07 13:12:56.488,4.0259154797610374e-05,24.788267262861172
2025-03-07 13:12:56.496,2.7246514332511005e-05,20.504211470612162
2025-03-07 13:12:56.503,1.4415216502947362e-05,16.068812313158872
2025-03-07 13:12:56.511,1.8110158457858895e-06,11.564589580404201
2025-03-07 13:12:56.519,-1.0555614281097783e-05,7.073672321328339
2025-03-07 13:12:56.527,-2.270583557865012e-05,2.6758207408621617
2025-03-07 13:12:56.535,-3.46871002389003e-05,-1.5534622541411554
2025-03-07 13:12:56.542,-4.656645620159831e-05,-5.544677576005081
2025-03-07 13:12:56.550,-5.842287643781305e-05,-9.23588759693807
2025-03-07 13:12:56.558,-7.033902982562589e-05,-12.57404478690256
2025-03-07 13:12:56.566,-8.239298437781068e-05,-15.516059209578664
2025-03-07 13:12:56.574,-9.4650411752228e-05,-18.029581509967226
2025-03-07 13:12:56.582,-0.00010715789695635667,-20.0934872027565
2025-03-07 13:12:56.589,-0.00011993791511122577,-21.698057267592116
2025-03-07 13:12:56.597,-0.00013298591777956165,-22.8448589246643
2025-03-07 13:12:56.605,-0.00014626979174597014,-23.546338705230756
2025-03-07 13:12:56.613,-0.0001597317291921392,-23.825147319808803
2025-03-07 13:12:56.621,-0.00017329230072650077,-23.713222204105058
2025-03-07 13:12:56.628,-0.00018685629292953135,-23.25065889034162
2025-03-07 13:12:56.636,-0.00020031971363696822,-22.484406457067198
2025-03-07 13:12:56.644,-0.00021357730947776598,-21.466825240033327
2025-03-07 13:12:56.652,-0.00022652996050813226,-20.254146760504735
2025-03-07 13:12:56.660,-0.0002390913716164459,-18.904876495774435
2025-03-07 13:12:56.667,-0.00025119354704312654,-17.47817975631577
2025-03-07 13:12:56.675,-0.00026279063079436894,-16.03228964446877
2025-03-07 13:12:56.683,-0.00027386085368885004,-14.622973969461821
2025-03-07 13:12:56.691,-0.00028440654274637867,-13.302095215149818
2025-03-07 13:12:56.699,-0.00029445236850640465,-12.116294338416612
2025-03-07 13:12:56.707,-0.0003040421767889021,-11.10582545520655
2025-03-07 13:12:56.714,-0.00031323485064340073,-10.303564479782814
2025-03-07 13:12:56.722,-0.00032209967195319443,-9.734210642239445
2025-03-07 13:12:56.730,-0.0003307116090402058,-9.413695619425901
2025-03-07 13:12:56.738,-0.0003391468739309499,-9.348810843664728
2025-03-07 13:12:56.746,-0.0003474789976262118,-9.537059435147947
2025-03-07 13:12:56.753,-0.00035577556980839346,-9.966735138537917
2025-03-07 13:12:56.761,-0.000364095682138874,-10.617226608436402
2025-03-07 13:12:56.769,-0.0003724880208036792,-11.459541349532747
2025-03-07 13:12:56.777,-0.00038098949928598515,-12.457039556696005
2025-03-07 13:12:56.785,-0.00038962430880140945,-13.566364031682294
2025-03-07 13:12:56.792,-0.00039840326936885434,-14.73854832448238
2025-03-07 13:12:56.800,-0.0004073233679496549,-15.920281326204288
2025-03-07 13:12:56.808,-0.0004163673715760265,-17.055302795460793
2025-03-07 13:12:56.816,-0.0004255034242757621,-18.085900792952955
2025-03-07 13:12:56.824,-0.000434684597538576,-18.95447878876265
2025-03-07 13:12:56.832,-0.0004438484549134293,-19.60515736549006
2025-03-07 13:12:56.839,-0.0004529167731328755,-19.98537306802377
2025-03-07 13:12:56.847,-0.00046179560771580973,-20.047435185865858
2025-03-07 13:12:56.855,-0.00047037590212558103,-19.750000267818688
2025-03-07 13:12:56.863,-0.00047853481614780225,-19.059424144136592
2025-03-07 13:12:56.871,-0.0004861378794224161,-17.95095233325001
2025-03-07 13:12:56.878,-0.0004930419728206014,-16.409712059645884
2025-03-07 13:12:56.886,-0.0004990990453985584,-14.431472761273458
2025-03-07 13:12:56.894,-0.0005041604132987091,-12.023146897082267
2025-03-07 13:12:56.902,-0.0005080814492013777,-9.203008983985601
2025-03-07 13:12:56.910,-0.0005107264378888979,-6.000617946195027
2025-03-07 13:12:56.917,-0.0005119733393519663,-2.456435851647103
2025-03-07 13:12:56.925,-0.0005117181747595857,1.3788552980025945
2025-03-07 13:12:56.933,-0.0005098787497260141,5.445328142731382
2025-03-07 13:12:56.941,-0.0005063974652348153,9.675056394707287
2025-03-07 13:12:56.949,-0.0005012430399584638,13.993604997195394
2025-03-07 13:12:56.957,-0.0004944110762826321,18.321727909858186
2025-03-07 13:12:56.964,-0.00048592353447681136,22.577230398552782
2025-03-07 13:12:56.972,-0.0004758272998997143,26.67694692165967
2025-03-07 13:12:56.980,-0.00046419209721483855,30.53878137938974
2025-03-07 13:12:56.988,-0.0004511080148440146,34.08375378798294
2025-03-07 13:12:56.996,-0.0004366828753049476,37.23799644450153
2025-03-07 13:12:57.003,-0.00042103964855705925,39.93464337751684
2025-03-07 13:12:57.011,-0.0004043140675095377,42.11555929455329
2025-03-07 13:12:57.019,-0.0003866525624329196,43.732858255792486
2025-03-07 13:12:57.027,-0.0003682105661442401,44.750167811464934
2025-03-07 13:12:57.035,-0.00034915114533366363,45.14360120172649
2025-03-07 13:12:57.042,-0.0003296438113410977,44.902408275800816
2025-03-07 13:12:57.050,-0.0003098632985194737,44.029284854843155
2025-03-07 13:12:57.058,-0.0002899880833234677,42.540330111121506
2025-03-07 13:12:57.066,-0.00027019844094039507,40.46465188799577
2025-03-07 13:12:57.074,-0.0002506738985694985,37.84363042093355
2025-03-07 13:12:57.082,-0.0002315900469593493,34.72986128582692
2025-03-07 13:12:57.089,-0.00021311478681733175,31.185808221776973
2025-03-07 13:12:57.097,-0.0001954041744822208,27.282205372427697
2025-03-07 13:12:57.105,-0.0001785980789632458,23.096256106418867
2025-03-07 13:12:57.113,-0.00016281587974048854,18.709681605341824
2025-03-07 13:12:57.121,-0.0001481524224296299,14.206676604429715
2025-03-07 13:12:57.128,-0.00013467440441175072,9.67183187113577
2025-03-07 13:12:57.136,-0.00012241730874783572,5.188083127878136
2025-03-07 13:12:57.144,-0.00011138297920986457,0.8347441770689374
2025-03-07 13:12:57.152,-0.00010153793371342918,-3.3143219249685956
2025-03-07 13:12:57.160,-9.281251890280185e-05,-7.192345473112331
2025-03-07 13:12:57.167,-8.510100555557218e-05,-10.741065480658394
2025-03-07 13:12:57.175,-7.826272467788431e-05,-13.911885082625723
2025-03-07 13:12:57.183,-7.212434469323254e-05,-16.66674328981739
2025-03-07 13:12:57.191,-6.648337662785574e-05,-18.978688795882885
2025-03-07 13:12:57.199,-6.111296751026707e-05,-20.832150882505
2025-03-07 13:12:57.207,-5.57680135091909e-05,-22.222911411828495
2025-03-07 13:12:57.214,-5.019259198218846e-05,-23.1577901408303
2025-03-07 13:12:57.222,-4.4128654722606156e-05,-23.654062904378485
2025-03-07 13:12:57.230,-3.732582193394351e-05,-23.738638426566485
2025-03-07 13:12:57.238,-2.955197130561097e-05,-23.44702453589759
2025-03-07 13:12:57.246,-2.0604158866213233e-05,-22.82211834089177
2025-03-07 13:12:57.253,-1.0319276919345902e-05,-21.912857478628162
2025-03-07 13:12:57.261,1.4162140174712567e-06,-20.772770927190813
2025-03-07 13:12:57.269,1.4658129332332906e-05,-19.458468151350665
2025-03-07 13:12:57.277,2.9398557814972915e-05,-18.028104631090606
2025-03-07 13:12:57.285,4.5562502059479245e-05,-16.53986022558703
2025-03-07 13:12:57.292,6.300756243992467e-05,-15.050464482257672
2025-03-07 13:12:57.300,8.152694030168914e-05,-13.613800045923348
2025-03-07 13:12:57.308,0.00010085583446670804,-12.279611892831811
2025-03-07 13:12:57.316,0.000120681033582632,-11.092346346979175
2025-03-07 13:12:57.324,0.0001406532266550905,-10.090139872600178
2025-03-07 13:12:57.332,0.00016040134033923023,-9.303973613836192
2025-03-07 13:12:57.339,0.00017954809487597095,-8.757005695175398
2025-03-07 13:12:57.347,0.00019772592149186913,-8.46408950934405
2025-03-07 13:12:57.355,0.00021459236801536354,-8.431482683113718
2025-03-07 13:12:57.363,0.00022984415004294163,-8.656748178669417
2025-03-07 13:12:57.371,0.00024322911597172552,-9.128846084003705
2025-03-07 13:12:57.378,0.0002545555811983678,-9.828412069800214
2025-03-07 13:12:57.386,0.00026369870891917345,-10.72821621581823
2025-03-07 13:12:57.394,0.00027060383382908896,-11.793793878994075
2025-03-07 13:12:57.402,0.00027528681410168095,-12.98423839474468
2025-03-07 13:12:57.410,0.0002778316296330704,-14.25314354979143
2025-03-07 13:12:57.417,0.0002783855060251897,-15.549681811328552
2025-03-07 13:12:57.425,0.0002771518596995724,-16.819802143540336
2025-03-07 13:12:57.433,0.00027438138631135603,-18.00752884212495
2025-03-07 13:12:57.441,0.00027036168852974173,-19.056340183561375
2025-03-07 13:12:57.449,0.0002654059374330207,-19.91060287959101
2025-03-07 13:12:57.457,0.00025984111776865504,-20.517035447373697
2025-03-07 13:12:57.464,0.0002539963753887523,-20.826170785200617
2025-03-07 13:12:57.472,0.0002481918891347996,-20.793785650142
2025-03-07 13:12:57.480,0.0002427285925553692,-20.382262565903456
2025-03-07 13:12:57.488,0.00023787900823264946,-19.56184816697763
2025-03-07 13:12:57.496,0.00023387942021307735,-18.311771337472113
2025-03-07 13:12:57.503,0.00023092357794542701,-16.621184946505377
2025-03-07 13:12:57.511,0.00022915808888014506,-14.489896699802717
2025-03-07 13:12:57.519,0.0002286796150912249,-11.928857748745406
2025-03-07 13:12:57.527,0.0002295339421276707,-8.960382284805439
2025-03-07 13:12:57.535,0.00023171693595873364,-5.6180773820397665
2025-03-07 13:12:57.542,0.0002351773465687898,-1.9464697318980917
2025-03-07 13:12:57.550,0.0002398213531942594,1.9996755478821324
2025-03-07 13:12:57.558,0.00024551866882668876,6.156339437228655
2025-03-07 13:12:57.566,0.0002521099186333875,10.451522353994386
2025-03-07 13:12:57.574,0.0002594148823842082,14.806781771240008
2025-03-07 13:12:57.582,0.0002672410808374948,19.13899988004937
2025-03-07 13:12:57.589,0.00027539213913174986,23.362338122378265
2025-03-07 13:12:57.597,0.0002836754005141228,27.39032760866483
2025-03-07 13:12:57.605,0.0002919083764156389,31.13803810135438
2025-03-07 13:12:57.613,0.00029992376885864966,34.524263676772165
2025-03-07 13:12:57.621,0.00030757295878008586,37.47366060288336
2025-03-07 13:12:57.628,0.00031472800404848264,39.918772555364264
2025-03-07 13:12:57.636,0.00032128232573775864,41.80188013677455
2025-03-07 13:12:57.644,0.0003271503668261608,43.076615780992995
2025-03-07 13:12:57.652,0.0003322665583350961,43.70929144193246
2025-03-07 13:12:57.660,0.0003365839021957385,43.679894809040825
2025-03-07 13:12:57.667,0.00034007238986545087,42.98271989592013
2025-03-07 13:12:57.675,0.00034271737118403704,41.62660935957056
2025-03-07 13:12:57.683,0.00034451791993720434,39.634798398125795
2025-03-07 13:12:57.691,0.00034548522461310674,37.04436306106075
2025-03-07 13:12:57.699,0.0003456410439195041,33.905288775476194
2025-03-07 13:12:57.707,0.0003450162748824329,30.279187333015344
2025-03-07 13:12:57.714,0.0003436496566119258,26.237702009163208
2025-03-07 13:12:57.722,0.00034158656411929024,21.860650462186857
2025-03-07 13:12:57.730,0.0003388777685596537,17.2339632053062
2025-03-07 13:12:57.738,0.0003355780156279361,12.447481459182855
2025-03-07 13:12:57.746,0.00033174432738790354,7.592681858666659
2025-03-07 13:12:57.753,0.0003274340278079558,2.7603966955077692
2025-03-07 13:12:57.761,0.0003227025821912285,-1.9614028814438662
2025-03-07 13:12:57.769,0.0003176014116679406,-6.489696921698838
2025-03-07 13:12:57.777,0.0003121758957781536,-10.748322009528444
2025-03-07 13:12:57.785,0.00030646379310330605,-14.669641598745363
2025-03-07 13:12:57.792,0.0003004942724511596,-18.19594025575963
2025-03-07 13:12:57.800,0.0002942876654393839,-21.2805109824473
2025-03-07 13:12:57.808,0.0002878559648851918,-23.888415669555933
2025-03-07 13:12:57.816,0.00028120402870994714,-25.996909778712475
2025-03-07 13:12:57.824,0.00027433139595832987,-27.595533135760277
2025-03-07 13:12:57.832,0.0002672345612766636,-28.685878841499132
2025-03-07 13:12:57.839,0.0002599094895223737,-29.28106141537692
2025-03-07 13:12:57.847,0.00025235409908718484,-29.404913092824575
2025-03-07 13:12:57.855,0.0002445704134350452,-29.090943484769017
2025-03-07 13:12:57.863,0.0002365660885401974,-28.381102451529127
2025-03-07 13:12:57.871,0.00022835509106227642,-27.324389003529863
2025-03-07 13:12:57.878,0.00021995743797434566,-25.97535036482084
2025-03-07 13:12:57.886,0.00021139807622102172,-24.39251514702012
2025-03-07 13:12:57.894,0.000202705108717716,-22.636803062900643
2025-03-07 13:12:57.902,0.00019390761930763734,-20.769950971613294
2025-03-07 13:12:57.910,0.00018503333938344493,-18.852991511412874
2025-03-07 13:12:57.917,0.00017610637793069402,-16.944816361111183
2025-03-07 13:12:57.925,0.0001671452160787696,-15.100851496783987
2025-03-07 13:12:57.933,0.00015816113686885724,-13.371866887304057
2025-03-07 13:12:57.941,0.00014915722412599822,-11.80293809838609
2025-03-07 13:12:57.949,0.00014012803419434362,-10.432572427150312
2025-03-07 13:12:57.957,0.00013106002063224738,-9.29200762328042
2025-03-07 13:12:57.964,0.00012193275470124473,-8.40468710159645
2025-03-07 13:12:57.972,0.000112720912424289,-7.785911920178194
2025-03-07 13:12:57.980,0.00010339689506838602,-7.44266676010195
2025-03-07 13:12:57.988,9.393384274898596e-05,-7.373614729698984
2025-03-07 13:12:57.996,8.430872743807398e-05,-7.5692540166474735
2025-03-07 13:12:58.003,7.450520614953244e-05,-8.012228167791497
2025-03-07 13:12:58.011,6.451599124205574e-05,-8.677780987206413
2025-03-07 13:12:58.019,5.4344617814537526e-05,-9.53434656926093
2025-03-07 13:12:58.027,4.400658741682919e-05,-10.54426466681075
2025-03-07 13:12:58.035,3.352990240009179e-05,-11.664611277455045
2025-03-07 13:12:58.042,2.295500180267213e-05,-12.848133874969854
2025-03-07 13:12:58.050,1.233411273795599e-05,-14.04428001090319
2025-03-07 13:12:58.058,1.7300514346252301e-06,-15.200306986726991
2025-03-07 13:12:58.066,-8.785467487502388e-06,-16.262458904453176
2025-03-07 13:12:58.074,-1.9133934463051336e-05,-17.177195631544354
2025-03-07 13:12:58.082,-2.9232475388179347e-05,-17.892456090646192
2025-03-07 13:12:58.089,-3.899654282383111e-05,-18.358935872214907
2025-03-07 13:12:58.097,-4.834283498093198e-05,-18.53135657535958
2025-03-07 13:12:58.105,-5.7192410485052305e-05,-18.369701660706486
2025-03-07 13:12:58.113,-6.547390123040698e-05,-17.84039114815546
2025-03-07 13:12:58.121,-7.312661834303464e-05,-16.917365452343255
2025-03-07 13:12:58.128,-8.010326816347109e-05,-15.583047282333125
2025-03-07 13:12:58.136,-8.637199490773137e-05,-13.829150102736246
2025-03-07 13:12:58.144,-9.191753154938119e-05,-11.65730240129319
2025-03-07 13:12:58.152,-9.674132611881953e-05,-9.07945912010737
2025-03-07 13:12:58.160,-0.00010086059151912931,-6.118075184608454
2025-03-07 13:12:58.167,-0.00010430631202685275,-2.806021097318801
2025-03-07 13:12:58.175,-0.00010712034580682087,0.8137730619118326
2025-03-07 13:12:58.183,-0.00010935187845706889,4.688951367278439
2025-03-07 13:12:58.191,-0.00011105356814121902,8.758641232714378
2025-03-07 13:12:58.199,-0.00011227775262430494,12.954626757757238
2025-03-07 13:12:58.207,-0.00011307307299677267,17.202765661191656
2025-03-07 13:12:58.214,-0.00011348182172462677,21.424620078454414
2025-03-07 13:12:58.222,-0.00011353823421230565,25.539262892314586
2025-03-07 13:12:58.230,-0.00011326781317768136,29.465213619088328
2025-03-07 13:12:58.238,-0.00011268764580687444,33.122451558198485
2025-03-07 13:12:58.246,-0.00011180759326217721,36.43444924135267
2025-03-07 13:12:58.253,-0.00011063220319247308,39.330166427263265
2025-03-07 13:12:58.261,-0.00010916318320683787,41.74594414511291
2025-03-07 13:12:58.269,-0.00010740224751146774,43.62723968961396
2025-03-07 13:12:58.277,-0.00010535410902024241,44.930147029546234
2025-03-07 13:12:58.285,-0.0001030293576096841,45.62265273972635
2025-03-07 13:12:58.292,-0.00010044696561472,45.68558514200845
2025-03-07 13:12:58.300,-9.763619571111878e-05,45.11322359841828
2025-03-07 13:12:58.308,-9.463773974033711e-05,43.913545520704076
2025-03-07 13:12:58.316,-9.15039878912971e-05,42.108100264764154
2025-03-07 13:12:58.324,-8.829842481276568e-05,39.73151123186792
2025-03-07 13:12:58.332,-8.509425939291869e-05,36.830619730129875
2025-03-07 13:12:58.339,-8.197247825494354e-05,33.463295973603046
2025-03-07 13:12:58.347,-7.901954359564464e-05,29.69695353753552
2025-03-07 13:12:58.355,-7.632494565806483e-05,25.606813205184384
2025-03-07 13:12:58.363,-7.397879027414829e-05,21.273970046073487
2025-03-07 13:12:58.371,-7.206955502226573e-05,16.783323442021263
2025-03-07 13:12:58.378,-7.068208172837534e-05,12.22143340030673
2025-03-07 13:12:58.386,-6.989580489410115e-05,7.674367742960934
2025-03-07 13:12:58.394,-6.978316823826543e-05,3.22560363163635
2025-03-07 13:12:58.402,-7.040815756681662e-05,-1.0459565108329303
2025-03-07 13:12:58.410,-7.182486471619659e-05,-5.067800068211131
2025-03-07 13:12:58.417,-7.407599399138658e-05,-8.775402856384837
2025-03-07 13:12:58.425,-7.719124158437627e-05,-12.113572410266725
2025-03-07 13:12:58.433,-8.118551826783651e-05,-15.037506502455388
2025-03-07 13:12:58.441,-8.605703074560821e-05,-17.513547432519548
2025-03-07 13:12:58.449,-9.178528472499151e-05,-19.51962268409258
2025-03-07 13:12:58.457,-9.832913325017478e-05,-21.045372318506644
2025-03-07 13:12:58.464,-0.00010562506211683212,-22.091972627142855
2025-03-07 13:12:58.472,-0.00011358595378710094,-22.671673822236542
2025-03-07 13:12:58.480,-0.0001221005779412333,-22.80707669242911
2025-03-07 13:12:58.488,-0.00013103401918561044,-22.53017903807997
2025-03-07 13:12:58.496,-0.00014022919185588558,-21.88122725016003
2025-03-07 13:12:58.503,-0.0001495095321788347,-20.90741157700203
2025-03-07 13:12:58.511,-0.00015868290037683523,-19.661445450513135
2025-03-07 13:12:58.519,-0.00016754664956217393,-18.20006977236751
2025-03-07 13:12:58.527,-0.00017589371339360912,-16.58252238289292
2025-03-07 13:12:58.535,-0.0001835194483565824,-14.869011173329469
2025-03-07 13:12:58.542,-0.0001902288740473758,-13.119226599878028
2025-03-07 13:12:58.550,-0.00019584391212042272,-11.390925875372357
2025-03-07 13:12:58.558,-0.0002002102333728968,-9.738617029429557
2025-03-07 13:12:58.566,-0.00020320336179160657,-8.212366538884371
2025-03-07 13:12:58.574,-0.00020473373083186816,-6.856749546007726
2025-03-07 13:12:58.582,-0.00020475043850863063,-5.70995699968604
2025-03-07 13:12:58.589,-0.00020324351658361834,-4.803069541033961
2025-03-07 13:12:58.597,-0.00020024461432225656,-4.1595037417437535
2025-03-07 13:12:58.605,-0.00019582608459491424,-3.7946324953477766
2025-03-07 13:12:58.613,-0.0001900985465324292,-3.7155780434354555
2025-03-07 13:12:58.621,-0.0001832070864708363,-3.9211733565704434
2025-03-07 13:12:58.628,-0.00017532632337874626,-4.402085421749796
2025-03-07 13:12:58.636,-0.0001666545715986892,-5.141092415211927
2025-03-07 13:12:58.644,-0.00015740729378017833,-6.1135057175870156
2025-03-07 13:12:58.652,-0.00014781001194059566,-7.28772716941586
2025-03-07 13:12:58.660,-0.0001380908791535391,-8.625931738280872
2025-03-07 13:12:58.668,-0.0001284731868924445,-10.084865708366706
2025-03-07 13:12:58.675,-0.00011916813443437876,-11.616750422628828
2025-03-07 13:12:58.683,-0.00011036818272079727,-13.170281320307206
2025-03-07 13:12:58.691,-0.00010224126717297149,-14.691711355842141
2025-03-07 13:12:58.699,-9.492607643424307e-05,-16.126006743906004
2025-03-07 13:12:58.707,-8.852852857910798e-05,-17.41806129531955
2025-03-07 13:12:58.714,-8.311950474968537e-05,-18.513953401210916
2025-03-07 13:12:58.722,-7.873384871979845e-05,-19.362227061760947
2025-03-07 13:12:58.730,-7.53706086068119e-05,-19.915175374649966
2025-03-07 13:12:58.738,-7.299446255427789e-05,-20.13010178662937
2025-03-07 13:12:58.746,-7.153822057170325e-05,-19.970531411174814
2025-03-07 13:12:58.753,-7.0906243348488e-05,-19.407342110641785
2025-03-07 13:12:58.761,-7.097858753406427e-05,-18.4197831411022
2025-03-07 13:12:58.769,-7.161567567321852e-05,-16.996348261785737
2025-03-07 13:12:58.777,-7.266327593019143e-05,-15.135470573038278
2025-03-07 13:12:58.785,-7.395755018601847e-05,-12.846008149431395
2025-03-07 13:12:58.793,-7.532991059512179e-05,-10.147492879898653
2025-03-07 13:12:58.800,-7.66114503586482e-05,-7.070119836566878
2025-03-07 13:12:58.808,-7.763679294894106e-05,-3.6544609072533167
2025-03-07 13:12:58.816,-7.824730959654812e-05,0.0491058139992694
2025-03-07 13:12:58.824,-7.829376097314273e-05,3.9812505448148965
2025-03-07 13:12:58.832,-7.76385122697541e-05,8.074820357607713
2025-03-07 13:12:58.839,-7.615753525252099e-05,12.256222045554864
2025-03-07 13:12:58.847,-7.37424218050466e-05,16.447029988400747
2025-03-07 13:12:58.855,-7.030257176173714e-05,20.56578072920286
2025-03-07 13:12:58.863,-6.576759485453601e-05,24.529908081121775
2025-03-07 13:12:58.871,-6.0089833540640814e-05,28.257766128721546
2025-03-07 13:12:58.878,-5.324682203033603e-05,31.670682761270974
2025-03-07 13:12:58.886,-4.5243453256692555e-05,34.69498358281422
2025-03-07 13:12:58.894,-3.611360671277462e-05,37.26392531098284
2025-03-07 13:12:58.902,-2.5920989985643734e-05,39.31947915674926
2025-03-07 13:12:58.910,-1.4758978327545916e-05,40.81390815535879
2025-03-07 13:12:58.918,-2.749300122779319e-06,41.71108791325059
2025-03-07 13:12:58.925,9.960502140338615e-06,41.98752760282021
2025-03-07 13:12:58.933,2.3200807257548708e-05,41.63305706704866
2025-03-07 13:12:58.941,3.6784694408493915e-05,40.6511563035966
2025-03-07 13:12:58.949,5.051347751789357e-05,39.05891501398031
2025-03-07 13:12:58.957,6.41826088323575e-05,36.88662188860288
2025-03-07 13:12:58.964,7.758755292865538e-05,34.17699537503153
2025-03-07 13:12:58.972,9.052930423541727e-05,30.98407936564769
2025-03-07 13:12:58.980,0.00010281933049491065,27.371838088635048
2025-03-07 13:12:58.988,0.00011428382152536715,23.41249408050765
2025-03-07 13:12:58.996,0.00012476719383289173,19.184661091219837
2025-03-07 13:12:59.003,0.00013413486425620374,14.771329809943731
2025-03-07 13:12:59.011,0.00014227537112398848,10.257768161195257
2025-03-07 13:12:59.019,0.00014910197459959133,5.729399468366216
2025-03-07 13:12:59.027,0.0001545538866500599,1.2697209916518337
2025-03-07 13:12:59.035,0.00015859726398242694,-3.041677690541221
2025-03-07 13:12:59.043,0.00016122605897466198,-7.130942082663526
2025-03-07 13:12:59.050,0.00016246276656094495,-10.931578452488928
2025-03-07 13:12:59.058,0.000162359019418129,-14.385838572953757
2025-03-07 13:12:59.066,0.00016099587562389017,-17.44583358199113
2025-03-07 13:12:59.074,0.00015848354189015992,-20.074356823538793
2025-03-07 13:12:59.082,0.00015496021748285098,-22.245405415159162
2025-03-07 13:12:59.089,0.00015058975524300094,-23.944399822733672
2025-03-07 13:12:59.097,0.00014555791916140358,-25.168109546254573
2025-03-07 13:12:59.105,0.0001400671480007255,-25.924300845074544
2025-03-07 13:12:59.113,0.00013432988491217994,-26.231129053126487
2025-03-07 13:12:59.121,0.00012856069749234535,-26.11630333541286
2025-03-07 13:12:59.128,0.0001229675873990855,-25.61605567437867
2025-03-07 13:12:59.136,0.00011774304127956162,-24.773948475265243
2025-03-07 13:12:59.144,0.00011305544760501666,-23.639556528794316
2025-03-07 13:12:59.152,0.0001090414582464867,-22.267059298668887
2025-03-07 13:12:59.160,0.00010579973317194355,-20.7137787704889
2025-03-07 13:12:59.168,0.00010338634420406109,-19.03869658160538
2025-03-07 13:12:59.175,0.00010181198952591518,-17.300982026727173
2025-03-07 13:12:59.183,0.00010104109740893797,-15.558559982233355
2025-03-07 13:12:59.191,0.00010099285520159347,-13.866744992243785
2025-03-07 13:12:59.199,0.00010154415660953995,-12.276964879393143
2025-03-07 13:12:59.207,0.00010253439186077849,-10.835594425978243
2025-03-07 13:12:59.214,0.00010377191205738654,-9.582917024884013
2025-03-07 13:12:59.222,0.00010504190530614246,-8.552229791650952
2025-03-07 13:12:59.230,0.00010611535112325734,-7.769105479023631
2025-03-07 13:12:59.238,0.0001067586724042257,-7.250822609903103
2025-03-07 13:12:59.246,0.00010674366211328605,-7.005973458704915
2025-03-07 13:12:59.253,0.00010585721265586529,-7.034257740432707
2025-03-07 13:12:59.261,0.0001039103440100639,-7.326467968745545
2025-03-07 13:12:59.269,0.00010074605737563186,-7.864670281449781
2025-03-07 13:12:59.277,9.624564671347659e-05,-8.62258199237359
2025-03-07 13:12:59.285,9.033324214903779e-05,-9.56614414061169
2025-03-07 13:12:59.293,8.297848865381737e-05,-10.654283847187557
2025-03-07 13:12:59.300,7.419736580994857e-05,-11.839857380877081
2025-03-07 13:12:59.308,6.405123890408727e-05,-13.070760554490999
2025-03-07 13:12:59.316,5.264429659101121e-05,-14.291188541387465
2025-03-07 13:12:59.324,4.011956216278784e-05,-15.443022578895436
2025-03-07 13:12:59.332,2.6653666154553855e-05,-16.467316497018555
2025-03-07 13:12:59.339,1.2450561921552532e-05,-17.305851773907804
2025-03-07 13:12:59.347,-2.2656243106361898e-06,-17.902726064323943
2025-03-07 13:12:59.355,-1.7258390831804033e-05,-18.205937050657386
2025-03-07 13:12:59.363,-3.22870635436073e-05,-18.168921198222893
2025-03-07 13:12:59.371,-4.7115155715763565e-05,-17.752005728347378
2025-03-07 13:12:59.378,-6.151862323152146e-05,-16.923732020636518
2025-03-07 13:12:59.386,-7.529370367429204e-05,-15.662009864265437
2025-03-07 13:12:59.394,-8.826395098562894e-05,-13.955064599025533
2025-03-07 13:12:59.402,-0.00010028603706524915,-11.802143260541635
2025-03-07 13:12:59.410,-0.0001112539343317537,-9.213951333867586
2025-03-07 13:12:59.418,-0.00012110120750195025,-6.2127985022351435
2025-03-07 13:12:59.425,-0.0001298012903876083,-2.8324396442742112
2025-03-07 13:12:59.433,-0.00013736578126027433,0.8823939965854063
2025-03-07 13:12:59.441,-0.00014384094308931474,4.876769401074636
2025-03-07 13:12:59.449,-0.00014930271474710124,9.086618783031613
2025-03-07 13:12:59.457,-0.0001538506009937587,13.440076640612117
2025-03-07 13:12:59.464,-0.00015760081411855605,17.859055993730998
2025-03-07 13:12:59.472,-0.0001606790130897774,22.261025326834574
2025-03-07 13:12:59.480,-0.00016321295901849847,26.560941230013718
2025-03-07 13:12:59.488,-0.00016532539582727546,30.673286502831914
2025-03-07 13:12:59.496,-0.0001671274526577193,34.514159705553595
2025-03-07 13:12:59.503,-0.00016871281698892227,38.00335991006474
2025-03-07 13:12:59.511,-0.00017015285530013057,41.0664097587682
2025-03-07 13:12:59.519,-0.00017149281339435776,43.63646087522249
2025-03-07 13:12:59.527,-0.0001727492342780867,45.65602814571219
2025-03-07 13:12:59.535,-0.00017390875177249648,47.07850335611839
2025-03-07 13:12:59.543,-0.0001749284079676055,47.86940406700182
2025-03-07 13:12:59.550,-0.00017573759258832878,48.00732036197317
2025-03-07 13:12:59.558,-0.00017624162531402972,47.48453008318883
2025-03-07 13:12:59.566,-0.00017632691047920197,46.30726218938727
2025-03-07 13:12:59.574,-0.00017586750037966835,44.49559770459944
2025-03-07 13:12:59.582,-0.00017473282501468472,42.08300810313342
2025-03-07 13:12:59.589,-0.00017279628547479717,39.11554160322456
2025-03-07 13:12:59.597,-0.00016994434506191293,35.65067839371162
2025-03-07 13:12:59.605,-0.00016608566832584644,31.755885945786257
2025-03-07 13:12:59.613,-0.00016115976727618225,27.506914900896067
2025-03-07 13:12:59.621,-0.00015514455648711465,22.98588421258374
2025-03-07 13:12:59.628,-0.00014806222925742505,18.279210909667537
2025-03-07 13:12:59.636,-0.00013998294846179565,13.475444734652807
2025-03-07 13:12:59.644,-0.00013102597444202972,8.663070748615578
2025-03-07 13:12:59.652,-0.00012135800449086353,3.9283436197658648
2025-03-07 13:12:59.660,-0.00011118866919281555,-0.6467843277558762
2025-03-07 13:12:59.668,-0.0001007633258264026,-4.986583069142074
2025-03-07 13:12:59.675,-9.0353493372479e-05,-9.02326045613148
2025-03-07 13:12:59.683,-8.02454378522012e-05,-12.698428606043436
2025-03-07 13:12:59.691,-7.072750052661377e-05,-15.964285204827204
2025-03-07 13:12:59.699,-6.207678594004932e-05,-18.78448364960777
2025-03-07 13:12:59.707,-5.454584881849208e-05,-21.134676246522503
2025-03-07 13:12:59.714,-4.8350059105084904e-05,-23.002725006532117
2025-03-07 13:12:59.722,-4.36563469690441e-05,-24.388584543574407
2025-03-07 13:12:59.730,-4.057398881571822e-05,-25.303870818299973
2025-03-07 13:12:59.738,-3.9147981545499965e-05,-25.771137697619668
2025-03-07 13:12:59.746,-3.935538917942971e-05,-25.822890315820523
2025-03-07 13:12:59.753,-4.110486187395942e-05,-25.500369918739228
2025-03-07 13:12:59.761,-4.423934468648648e-05,-24.85214921623568
2025-03-07 13:12:59.769,-4.8541831155552154e-05,-23.93258028481609
2025-03-07 13:12:59.777,-5.374387993766272e-05,-22.800138816057288
2025-03-07 13:12:59.785,-5.95364910184412e-05,-21.51570908540667
2025-03-07 13:12:59.793,-6.558283207667515e-05,-20.140853520597755
2025-03-07 13:12:59.800,-7.153223214892242e-05,-18.73610929039311
2025-03-07 13:12:59.808,-7.703482013510141e-05,-17.359352036702145
2025-03-07 13:12:59.816,-8.175616583356607e-05,-16.064263871358985
2025-03-07 13:12:59.824,-8.539128313351084e-05,-14.898939188527889
2025-03-07 13:12:59.832,-8.767739192876357e-05,-13.90465782915787
2025-03-07 13:12:59.839,-8.84049050898283e-05,-13.114850784315237
2025-03-07 13:12:59.847,-8.742619521513576e-05,-12.554279036799652
2025-03-07 13:12:59.855,-8.46617933439382e-05,-12.238441402470748
2025-03-07 13:12:59.863,-8.010377543050404e-05,-12.173222416974996
2025-03-07 13:12:59.871,-7.381620098264275e-05,-12.354786470450344
2025-03-07 13:12:59.878,-6.593258074805219e-05,-12.769719547616853
2025-03-07 13:12:59.886,-5.6650465564233285e-05,-13.395415092958583
2025-03-07 13:12:59.894,-4.622336362425975e-05,-14.200695702282252
2025-03-07 13:12:59.902,-3.49502989936437e-05,-15.146657570783738
2025-03-07 13:12:59.910,-2.316340605560021e-05,-16.187719948398293
2025-03-07 13:12:59.918,-1.1214012078424403e-05,-17.272857319648093
2025-03-07 13:12:59.925,5.422840139746802e-07,-18.346987698346208
2025-03-07 13:12:59.933,1.1760952088928166e-05,-19.352486380469244
2025-03-07 13:12:59.941,2.2123612331114163e-05,-20.230790825412374
2025-03-07 13:12:59.949,3.1352096729390435e-05,-20.924059159726472
2025-03-07 13:12:59.957,3.922070117870379e-05,-21.376842271028085
2025-03-07 13:12:59.964,4.556591297598692e-05,-21.537727752693947
2025-03-07 13:12:59.972,5.029308668924923e-05,-21.36091323443254
2025-03-07 13:12:59.980,5.33797929538122e-05,-20.807667019485997
2025-03-07 13:12:59.988,5.4875804208047126e-05,-19.847635525330517
2025-03-07 13:12:59.996,5.489986978065675e-05,-18.459959812462955
2025-03-07 13:13:00.003,5.363357555363321e-05,-16.63416745071096
2025-03-07 13:13:00.011,5.131269113671722e-05,-14.370811034713753
2025-03-07 13:13:00.019,4.821647553326483e-05,-11.681830705842303
2025-03-07 13:13:00.027,4.4655442219921996e-05,-8.59062492396064
2025-03-07 13:13:00.035,4.095810019837763e-05,-5.131821286369066
2025-03-07 13:13:00.043,3.74572127852426e-05,-1.3507472081355827
2025-03-07 13:13:00.050,3.447614926596759e-05,2.6973914787654927
2025-03-07 13:13:00.058,3.231592259951472e-05,6.948607741323018
2025-03-07 13:13:00.066,3.124347755133856e-05,11.331482204357417
2025-03-07 13:13:00.074,3.148169577251096e-05,15.768732133197664
2025-03-07 13:13:00.082,3.3201429938466186e-05,20.178962460095544
2025-03-07 13:13:00.089,3.651571812931818e-05,24.478555193945507
2025-03-07 13:13:00.097,4.1476212060215654e-05,28.583649115297543
2025-03-07 13:13:00.105,4.807179068113336e-05,32.412158496199716
2025-03-07 13:13:00.113,5.6229302929249874e-05,35.88577779804851
2025-03-07 13:13:00.121,6.581636583116727e-05,38.93191895542954
2025-03-07 13:13:00.128,7.664612510990732e-05,41.485528975779154
2025-03-07 13:13:00.136,8.848385996897758e-05,43.490738161175216
2025-03-07 13:13:00.144,0.00010105527232696774,44.90229324146524
2025-03-07 13:13:00.152,0.0001140562299372604,45.68673501368416
2025-03-07 13:13:00.160,0.0001271636334662343,45.823286592588566
2025-03-07 13:13:00.168,0.00014004697487508946,45.30442594177205
2025-03-07 13:13:00.175,0.00015238007570341527,44.1361248012971
2025-03-07 13:13:00.183,0.00016385245136496488,42.337745260112655
2025-03-07 13:13:00.191,0.0001741797527417358,39.9415948095039
2025-03-07 13:13:00.199,0.00018311280418006158,36.99215048014614
2025-03-07 13:13:00.207,0.00019044488427006514,33.54497228777534
2025-03-07 13:13:00.214,0.00019601705475777602,29.66533534470536
2025-03-07 13:13:00.222,0.00019972149688347445,25.426618294144067
2025-03-07 13:13:00.230,0.00020150292880466376,20.90849287846112
2025-03-07 13:13:00.238,0.00020135823603786783,16.19496519790419
2025-03-07 13:13:00.246,0.00019933447063167622,11.372323354188971
2025-03-07 13:13:00.253,0.0001955254016822262,6.527048576134497
2025-03-07 13:13:00.261,0.0001900668331417998,1.7437475310286277
2025-03-07 13:13:00.269,0.00018313091998176052,-2.8968376661487993
2025-03-07 13:13:00.277,0.00017491971417777619,-7.319688166649157
2025-03-07 13:13:00.285,0.00016565819246860294,-11.457186798734773
2025-03-07 13:13:00.293,0.000155587061247311,-15.250573130149514
2025-03-07 13:13:00.300,0.00014495564340818778,-18.651139298004086
2025-03-07 13:13:00.308,0.00013401507327962678,-21.621138780887165
2025-03-07 13:13:00.316,0.000123011884276556,-24.13438895398227
2025-03-07 13:13:00.324,0.00011218195566585273,-26.176557250554524
2025-03-07 13:13:00.332,0.00010174474223244173,-27.745129764843476
2025-03-07 13:13:00.339,9.189772944236558e-05,-28.849069891314553
2025-03-07 13:13:00.347,8.281111520858901e-05,-29.50818284036337
2025-03-07 13:13:00.355,7.462281849103111e-05,-29.752209369235157
2025-03-07 13:13:00.363,6.743403918618868e-05,-29.619678629372242
2025-03-07 13:13:00.371,6.130569871002598e-05,-29.15655551743529
2025-03-07 13:13:00.378,5.625614060130486e-05,-28.414722240870702
2025-03-07 13:13:00.386,5.226045264542785e-05,-27.450336937596997
2025-03-07 13:13:00.394,4.925168424802541e-05,-26.322114136499078
2025-03-07 13:13:00.402,4.7124086792864926e-05,-25.089572657379314
2025-03-07 13:13:00.410,4.5738330624361203e-05,-23.811296290885068
2025-03-07 13:13:00.418,4.492848616632692e-05,-22.54325134245422
2025-03-07 13:13:00.425,4.4510426221307115e-05,-21.33720294133363
2025-03-07 13:13:00.433,4.429121703479503e-05,-20.239268978104548
2025-03-07 13:13:00.441,4.407899852247949e-05,-19.288646719622246
2025-03-07 13:13:00.449,4.369279804422958e-05,-18.51654264944185
2025-03-07 13:13:00.457,4.29717003006203e-05,-17.945330999273367
2025-03-07 13:13:00.464,4.1782835361792666e-05,-17.58796088530372
2025-03-07 13:13:00.472,4.0027733597875034e-05,-17.447626055273115
2025-03-07 13:13:00.480,3.764669390058948e-05,-17.517705098145363
2025-03-07 13:13:00.488,3.462091770569367e-05,-17.78197367771169
2025-03-07 13:13:00.496,3.097230932361341e-05,-18.2150840382895
2025-03-07 13:13:00.503,2.6761047011034673e-05,-18.783300812503217
2025-03-07 13:13:00.511,2.2081250598258454e-05,-19.445476150067755
2025-03-07 13:13:00.519,1.7055236973539873e-05,-20.154241477339088
2025-03-07 13:13:00.527,1.182690437100627e-05,-20.857387865569237
2025-03-07 13:13:00.535,6.554718209345639e-06,-21.499402096985815
2025-03-07 13:13:00.543,1.404636271321508e-06,-22.02312114122172
2025-03-07 13:13:00.550,-3.4568291864272873e-06,-22.37146397446236
2025-03-07 13:13:00.558,-7.869311843157034e-06,-22.48919660084123
2025-03-07 13:13:00.566,-1.1684979024888725e-05,-22.324683917209942
2025-03-07 13:13:00.574,-1.4774493778250694e-05,-21.831580876516927
2025-03-07 13:13:00.582,-1.7032384715765178e-05,-20.970415432945224
2025-03-07 13:13:00.589,-1.8381635400032217e-05,-19.710017139183837
2025-03-07 13:13:00.597,-1.877732652015892e-05,-18.028748092667055
2025-03-07 13:13:00.605,-1.8209207436323196e-05,-15.915497197528834
2025-03-07 13:13:00.613,-1.670311521080144e-05,-13.37040435518577
2025-03-07 13:13:00.621,-1.4321188592639581e-05,-10.405288088269318
2025-03-07 13:13:00.628,-1.1160839863043118e-05,-7.043758052472393
2025-03-07 13:13:00.636,-7.352451111660456e-06,-3.3210026607094427
2025-03-07 13:13:00.644,-3.05576413180114e-06,0.7167486451676214
2025-03-07 13:13:00.652,1.5450415617079863e-06,5.013079396826163
2025-03-07 13:13:00.660,6.247518932133346e-06,9.502537851018216
2025-03-07 13:13:00.668,1.0838205158178545e-05,14.112058949913719
2025-03-07 13:13:00.675,1.5100690480815766e-05,18.762620687727143
2025-03-07 13:13:00.683,1.8824173427065817e-05,23.37109185552871
2025-03-07 13:13:00.691,2.1812126299251196e-05,27.852222175377072
2025-03-07 13:13:00.699,2.38906512549688e-05,32.12072131003974
2025-03-07 13:13:00.707,2.4916069533416588e-05,36.09337026420003
2025-03-07 13:13:00.714,2.478127971224658e-05,39.69110734662278
2025-03-07 13:13:00.722,2.342047630321273e-05,42.84103116251495
2025-03-07 13:13:00.730,2.081195018945247e-05,45.47826503178459
2025-03-07 13:13:00.738,1.6978861903809943e-05,47.54763072823685
2025-03-07 13:13:00.746,1.1988016629544922e-05,49.00508442246815
2025-03-07 13:13:00.753,5.946737429463587e-06,49.81887407066506
2025-03-07 13:13:00.761,-1.0020337294747083e-06,49.97038507020024
2025-03-07 13:13:00.769,-8.686212831323465e-06,49.454649609755364
2025-03-07 13:13:00.777,-1.691231517037305e-05,48.280504547026624
2025-03-07 13:13:00.785,-2.547401279774279e-05,46.47039258810736
2025-03-07 13:13:00.793,-3.4160965744208804e-05,44.05981173455452
2025-03-07 13:13:00.800,-4.276736673311394e-05,41.09642811116187
2025-03-07 13:13:00.808,-5.1099698374492594e-05,37.63887708756881
2025-03-07 13:13:00.816,-5.898331272288239e-05,33.755286750546624
2025-03-07 13:13:00.824,-6.626756860375182e-05,29.521565955297266
2025-03-07 13:13:00.832,-7.282937485884717e-05,25.019506072740732
2025-03-07 13:13:00.839,-7.857508381263351e-05,20.334750873449032
2025-03-07 13:13:00.847,-8.344077541301041e-05,15.554692523832186
2025-03-07 13:13:00.855,-8.739107890142575e-05,10.76635327711068
2025-03-07 13:13:00.863,-9.041677131047168e-05,6.054312077932398
2025-03-07 13:13:00.871,-9.253143391183876e-05,1.4987330147706825
2025-03-07 13:13:00.878,-9.376744648374178e-05,-2.8264515237094128
2025-03-07 13:13:00.886,-9.417160469486454e-05,-6.855155810602861
2025-03-07 13:13:00.894,-9.380067971419398e-05,-10.53051371520139
2025-03-07 13:13:00.902,-9.271726485005871e-05,-13.80597755967775
2025-03-07 13:13:00.910,-9.098622707515542e-05,-16.646119690366284
2025-03-07 13:13:00.918,-8.867199480977838e-05,-19.02712281826506
2025-03-07 13:13:00.925,-8.583679182714579e-05,-20.936954541295414
2025-03-07 13:13:00.933,-8.253980609857922e-05,-22.375230604436357
2025-03-07 13:13:00.941,-7.883719066176284e-05,-23.3527800961551
2025-03-07 13:13:00.949,-7.47827360474143e-05,-23.890933663523775
2025-03-07 13:13:00.957,-7.042901932659787e-05,-24.020562732082432
2025-03-07 13:13:00.964,-6.582882282997204e-05,-23.780903457844403
2025-03-07 13:13:00.972,-6.103662947572627e-05,-23.218203580419644
2025-03-07 13:13:00.980,-5.611001790105198e-05,-22.384233400473153
2025-03-07 13:13:00.988,-5.111076430711564e-05,-21.33470374127264
2025-03-07 13:13:00.996,-4.610541944067749e-05,-20.12763400727211
2025-03-07 13:13:01.004,-4.116512851105619e-05,-18.821712424159166
2025-03-07 13:13:01.011,-3.636454146479638e-05,-17.47468839954167
2025-03-07 13:13:01.019,-3.177979678097672e-05,-16.141833900422412
2025-03-07 13:13:01.027,-2.7485691704706444e-05,-14.874507057529524
2025-03-07 13:13:01.035,-2.3552238072847844e-05,-13.718847137786174
2025-03-07 13:13:01.043,-2.004085357320975e-05,-12.714625806916196
2025-03-07 13:13:01.050,-1.700047238397443e-05,-11.894275414841905
2025-03-07 13:13:01.058,-1.4463874958912672e-05,-11.282110996378945
2025-03-07 13:13:01.066,-1.2444521679980964e-05,-10.893758845489304
2025-03-07 13:13:01.074,-1.0934130625770308e-05,-10.735800890586775
2025-03-07 13:13:01.082,-9.901187707955303e-06,-10.805640620616972
2025-03-07 13:13:01.089,-9.29054156911465e-06,-11.091592907184284
2025-03-07 13:13:01.097,-9.024216047856927e-06,-11.573196647110299
2025-03-07 13:13:01.105,-9.00354634197714e-06,-12.221745626546078
2025-03-07 13:13:01.113,-9.112688108177416e-06,-13.001029311481204
2025-03-07 13:13:01.121,-9.22345432184057e-06,-13.868271358315553
2025-03-07 13:13:01.129,-9.201313273233039e-06,-14.77524951346377
2025-03-07 13:13:01.136,-8.91225891176339e-06,-15.66957628567517
2025-03-07 13:13:01.144,-8.230168408763788e-06,-16.496115429430635
2025-03-07 13:13:01.152,-7.044195951277114e-06,-17.19850500894929
2025-03-07 13:13:01.160,-5.265705561596663e-06,-17.720753783238433
2025-03-07 13:13:01.168,-2.8342225445836116e-06,-18.008874048760738
2025-03-07 13:13:01.175,2.78093002764584e-07,-18.012511099548494
2025-03-07 13:13:01.183,4.063855427093093e-06,-17.68652732181723
2025-03-07 13:13:01.191,8.479993199715665e-06,-16.9924978290513
2025-03-07 13:13:01.199,1.3449471938895721e-05,-15.900074638768032
2025-03-07 13:13:01.207,1.8865059910599475e-05,-14.388177829857895
2025-03-07 13:13:01.214,2.4594832973827296e-05,-12.445974979388915
2025-03-07 13:13:01.222,3.0489000116295712e-05,-10.073614467354849
2025-03-07 13:13:01.230,3.638756627471299e-05,-7.282683884484961
2025-03-07 13:13:01.238,4.2128337718846616e-05,-4.096371635661971
2025-03-07 13:13:01.246,4.7554815209390456e-05,-0.549317695865088
2025-03-07 13:13:01.254,5.2523598330183825e-05,3.312851897798997
2025-03-07 13:13:01.261,5.6911007123276115e-05,7.4343031200031255
2025-03-07 13:13:01.269,6.061867599919214e-05,11.750071594244906
2025-03-07 13:13:01.277,6.357788885172975e-05,16.187417606421644
2025-03-07 13:13:01.285,6.575244791612736e-05,20.6674275589114
2025-03-07 13:13:01.293,6.713993843122502e-05,25.10682291672673
2025-03-07 13:13:01.300,6.777135245767409e-05,29.41993070163543
2025-03-07 13:13:01.308,6.770913184943591e-05,33.520763855167964
2025-03-07 13:13:01.316,6.70437705663949e-05,37.32515551284162
2025-03-07 13:13:01.324,6.588919019062745e-05,40.752888549897364
2025-03-07 13:13:01.332,6.437716837569567e-05,43.72976076033351
2025-03-07 13:13:01.339,6.265114222514748e-05,46.18952676109923
2025-03-07 13:13:01.347,6.085971866960305e-05,48.07566018784906
2025-03-07 13:13:01.355,5.915020232381864e-05,49.34288395708514
2025-03-07 13:13:01.363,5.76623995487678e-05,49.958422263146176
2025-03-07 13:13:01.371,5.6522887667638225e-05,49.90293545162168
2025-03-07 13:13:01.379,5.583987770748638e-05,49.17110778547654
2025-03-07 13:13:01.386,5.569877102169838e-05,47.77186814265079
2025-03-07 13:13:01.394,5.615851542353109e-05,45.72823453512669
2025-03-07 13:13:01.402,5.724888312715535e-05,43.076784657173704
2025-03-07 13:13:01.410,5.8968796711682896e-05,39.86676607295745
2025-03-07 13:13:01.418,6.128581785027148e-05,36.15887075627164
2025-03-07 13:13:01.425,6.413689915106895e-05,32.02370911819169
2025-03-07 13:13:01.433,6.74304800007748e-05,27.540028031108132
2025-03-07 13:13:01.441,7.104995965513516e-05,22.792725323256544
2025-03-07 13:13:01.449,7.48584862075111e-05,17.870719448076166
2025-03-07 13:13:01.457,7.870487087624084e-05,12.864737253308807
2025-03-07 13:13:01.464,8.243032129633643e-05,7.865084796958952
2025-03-07 13:13:01.472,8.58756344801842e-05,2.959465899853991
2025-03-07 13:13:01.480,8.888850301055985e-05,-1.7690893813132393
2025-03-07 13:13:01.488,9.133062870980391e-05,-6.244128795700879
2025-03-07 13:13:01.496,9.308437406743301e-05,-10.39746339674229
2025-03-07 13:13:01.504,9.40587023022906e-05,-14.170591534326741
2025-03-07 13:13:01.511,9.419416031105614e-05,-17.515827708588326
2025-03-07 13:13:01.519,9.346665384005067e-05,-20.39711283256613
2025-03-07 13:13:01.527,9.188976863697034e-05,-22.790493072979448
2025-03-07 13:13:01.535,8.95154160635769e-05,-24.684265092331223
2025-03-07 13:13:01.543,8.643263540062146e-05,-26.07879580215989
2025-03-07 13:13:01.550,8.276448043035419e-05,-26.98603428377096
2025-03-07 13:13:01.558,7.866304470512039e-05,-27.42874200667079
2025-03-07 13:13:01.566,7.430279917542093e-05,-27.439474598148603
2025-03-07 13:13:01.574,6.987250985361148e-05,-27.059353983010464
2025-03-07 13:13:01.582,6.556609566207741e-05,-26.336673599705904
2025-03-07 13:13:01.589,6.157288643511125e-05,-25.325381581280595
2025-03-07 13:13:01.597,5.806780930144097e-05,-24.08348732909325
2025-03-07 13:13:01.605,5.520203191686699e-05,-22.67143593950992
2025-03-07 13:13:01.613,5.3094537798569794e-05,-21.150492657165998
2025-03-07 13:13:01.621,5.1825046188177583e-05,-19.58117614574874
2025-03-07 13:13:01.629,5.142864074259579e-05,-18.021775131850678
2025-03-07 13:13:01.636,5.189242549926221e-05,-16.526978142599752
2025-03-07 13:13:01.644,5.3154453898638035e-05,-15.14664087775117
2025-03-07 13:13:01.652,5.510506515111658e-05,-13.924710475667608
2025-03-07 13:13:01.660,5.759063539496165e-05,-12.898320771515717
2025-03-07 13:13:01.668,6.041964593366306e-05,-12.097067795811563
2025-03-07 13:13:01.675,6.337088943048098e-05,-11.542470379473162
2025-03-07 13:13:01.683,6.620353464768042e-05,-11.247616938766903
2025-03-07 13:13:01.691,6.866861925919069e-05,-11.216996385790702
2025-03-07 13:13:01.699,7.052136741807132e-05,-11.446508664580394
2025-03-07 13:13:01.707,7.153360504743537e-05,-11.92364859921304
2025-03-07 13:13:01.714,7.15055212493418e-05,-12.627855446421067
2025-03-07 13:13:01.722,7.027608856719167e-05,-13.53101961823621
2025-03-07 13:13:01.730,6.77315624429057e-05,-14.5981373118248
2025-03-07 13:13:01.738,6.381160541698514e-05,-15.788103092461006
2025-03-07 13:13:01.746,5.851273269549101e-05,-17.05462968176271
2025-03-07 13:13:01.754,5.188895865807874e-05,-18.347283196266293
2025-03-07 13:13:01.761,4.4049712821012745e-05,-19.612620779449898
2025-03-07 13:13:01.769,3.515524806045473e-05,-20.79541591634561
2025-03-07 13:13:01.777,2.5409868627953274e-05,-21.839954681694916
2025-03-07 13:13:01.785,1.5053371917089392e-05,-22.691383754541615
2025-03-07 13:13:01.793,4.35112720141844e-06,-23.297088292740277
2025-03-07 13:13:01.800,-6.416797589177559e-06,-23.608074822003328
2025-03-07 13:13:01.808,-1.6967077314060385e-05,-23.580331335165408
2025-03-07 13:13:01.816,-2.702475865030421e-05,-23.176134040554373
2025-03-07 13:13:01.824,-3.6334667842052827e-05,-22.365267893899546
2025-03-07 13:13:01.832,-4.467215101489371e-05,-21.12612645934468
2025-03-07 13:13:01.839,-5.1852677634141295e-05,-19.4466560312862
2025-03-07 13:13:01.847,-5.773984173073928e-05,-17.325109547147225
2025-03-07 13:13:01.855,-6.225132980140304e-05,-14.77057782773034
2025-03-07 13:13:01.863,-6.536248774270994e-05,-11.803269229270773
2025-03-07 13:13:01.871,-6.71072132302381e-05,-8.45451392622792
2025-03-07 13:13:01.879,-6.75760235191381e-05,-4.7664757096492485
2025-03-07 13:13:01.886,-6.691129969268321e-05,-0.791562219666707
2025-03-07 13:13:01.894,-6.529989203010027e-05,3.4084663274523224
2025-03-07 13:13:01.902,-6.296348467903685e-05,7.763679946740228
2025-03-07 13:13:01.910,-6.014732133919708e-05,12.19743297645995
2025-03-07 13:13:01.918,-5.710801649997974e-05,16.628058999308124
2025-03-07 13:13:01.925,-5.410118021807479e-05,20.970766468835212
2025-03-07 13:13:01.933,-5.136951195227702e-05,25.13968623976562
2025-03-07 13:13:01.941,-4.913194573690527e-05,29.050014933313975
2025-03-07 13:13:01.949,-4.7574367784275984e-05,32.62019256865343
2025-03-07 13:13:01.957,-4.684233334554677e-05,35.77404944572859
2025-03-07 13:13:01.964,-4.703606403067746e-05,38.442856083026115
2025-03-07 13:13:01.972,-4.8207841880680764e-05,40.56721122607432
2025-03-07 13:13:01.980,-5.036176647152091e-05,42.098706588280514
2025-03-07 13:13:01.988,-5.3455720097230883e-05,43.001313006351545
2025-03-07 13:13:01.996,-5.7405298177807366e-05,43.252440922226036
2025-03-07 13:13:02.004,-6.208940097787292e-05,42.843638265907714
2025-03-07 13:13:02.011,-6.735713458726908e-05,41.780900526832845
2025-03-07 13:13:02.019,-7.303563431693068e-05,40.08458059484749
2025-03-07 13:13:02.027,-7.89384153654811e-05,37.788899296589996
2025-03-07 13:13:02.035,-8.487387324604923e-05,34.941070898455635
2025-03-07 13:13:02.043,-9.065358578054763e-05,31.600070653822744
2025-03-07 13:13:02.050,-9.610010812131545e-05,27.835083235871934
2025-03-07 13:13:02.058,-0.00010105401221908729,23.72368116816074
2025-03-07 13:13:02.066,-0.0001053799907896469,19.349790762056692
2025-03-07 13:13:02.074,-0.00010897188708301948,14.801509293512513
2025-03-07 13:13:02.082,-0.00011175651205195771,10.168840994300888
2025-03-07 13:13:02.089,-0.00011369610688712729,5.54142078877966
2025-03-07 13:13:02.097,-0.00011478934684633333,1.0062935768882948
2025-03-07 13:13:02.105,-0.00011507086198468438,-3.354186644187331
2025-03-07 13:13:02.113,-0.0001146093346115519,-7.464279199976434
2025-03-07 13:13:02.121,-0.00011350429124120581,-11.256549612187214
2025-03-07 13:13:02.129,-0.00011188173467572872,-14.67329085313996
2025-03-07 13:13:02.136,-0.00010988877323489456,-17.667640990928692
2025-03-07 13:13:02.144,-0.00010768741150038619,-20.204375948421813
2025-03-07 13:13:02.152,-0.00010544768110763463,-22.260367009226282
2025-03-07 13:13:02.160,-0.00010334033283571088,-23.824703393509434
2025-03-07 13:13:02.168,-0.00010152939475011634,-24.89849031110068
2025-03-07 13:13:02.175,-0.00010016499027088682,-25.49434203914218
2025-03-07 13:13:02.183,-9.93768430442797e-05,-25.63559748696122
2025-03-07 13:13:02.191,-9.926884992253156e-05,-25.355292196763195
2025-03-07 13:13:02.199,-9.991501475647353e-05,-24.69492566782401
2025-03-07 13:13:02.207,-0.00010135695075883335,-23.703066257788052
2025-03-07 13:13:02.214,-0.00010360309001703991,-22.43383775906208
2025-03-07 13:13:02.222,-0.00010662966570903598,-20.94533217395412
2025-03-07 13:13:02.230,-0.00011038343446898197,-19.297992347401618
2025-03-07 13:13:02.238,-0.00011478597748527651,-17.55300610267511
2025-03-07 13:13:02.246,-0.00011973927111619323,-15.77075052001755
2025-03-07 13:13:02.254,-0.0001251320800361256,-14.00932117601363
2025-03-07 13:13:02.261,-0.00013084663509210277,-12.323176712566529
2025-03-07 13:13:02.269,-0.000136765039770499,-10.761924222307032
2025-03-07 13:13:02.277,-0.0001427749038034802,-9.369265808766006
2025-03-07 13:13:02.285,-0.00014877380671473117,-8.182121478477086
2025-03-07 13:13:02.293,-0.00015467232153127685,-7.229938404891297
2025-03-07 13:13:02.300,-0.0001603954735283351,-6.534191708100618
2025-03-07 13:13:02.308,-0.00016588267735028804,-6.108077342633261
2025-03-07 13:13:02.316,-0.0001710863712358816,-5.956393591662383
2025-03-07 13:13:02.324,-0.00017596969970757852,-6.075604132292028
2025-03-07 13:13:02.332,-0.00018050364607305,-6.454072742567782
2025-03-07 13:13:02.339,-0.00018466399545165872,-7.072457507726086
2025-03-07 13:13:02.347,-0.0001884284633103983,-7.904250843153707
2025-03-07 13:13:02.355,-0.00019177427887913484,-8.916450726061067
2025-03-07 13:13:02.363,-0.00019467645657952188,-10.070348113901067
2025-03-07 13:13:02.371,-0.0001971069047789565,-11.322415486685877
2025-03-07 13:13:02.379,-0.00019903441329205252,-12.625281619405134
2025-03-07 13:13:02.386,-0.00020042545464454324,-13.928777896087231
2025-03-07 13:13:02.394,-0.000201245656300178,-15.181041554489777
2025-03-07 13:13:02.402,-0.00020146175673202204,-16.32966106860766
2025-03-07 13:13:02.410,-0.00020104383644090916,-17.322848356141307
2025-03-07 13:13:02.418,-0.00019996761706983593,-18.110621621121517
2025-03-07 13:13:02.425,-0.0001982166594925065,-18.645981446100908
2025-03-07 13:13:02.433,-0.00019578435299226338,-18.88606132013134
2025-03-07 13:13:02.441,-0.00019267562689900738,-18.79323225491519
2025-03-07 13:13:02.449,-0.00018890829854230627,-18.33613965984392
2025-03-07 13:13:02.457,-0.00018451392155223055,-17.490649393709557
2025-03-07 13:13:02.464,-0.0001795379844476117,-16.24067907035334
2025-03-07 13:13:02.472,-0.00017403936853029964,-14.578890449058358
2025-03-07 13:13:02.480,-0.0001680890694111167,-12.507219256809426
2025-03-07 13:13:02.488,-0.00016176825040094728,-10.037220208640933
2025-03-07 13:13:02.496,-0.00015516570435495503,-7.190207409855256
2025-03-07 13:13:02.504,-0.00014837478822886526,-3.9971737820323496
2025-03-07 13:13:02.511,-0.00014148990693962227,-0.49847763931959466
2025-03-07 13:13:02.519,-0.00013460267023559779,3.256710018067189
2025-03-07 13:13:02.527,-0.00012779790588983715,7.211197655837334
2025-03-07 13:13:02.535,-0.00012114976006461384,11.300798041830245
2025-03-07 13:13:02.543,-0.00011471813825621481,15.455571644237358
2025-03-07 13:13:02.550,-0.00010854572732620526,19.601266919296357
2025-03-07 13:13:02.558,-0.00010265577984648348,23.660928351389824
2025-03-07 13:13:02.566,-9.705074820104738e-05,27.556636035263118
2025-03-07 13:13:02.574,-9.171177482204542e-05,31.21133424101246
2025-03-07 13:13:02.582,-8.659901508711193e-05,34.55070112020505
2025-03-07 13:13:02.589,-8.165277030013052e-05,37.50500781931402
2025-03-07 13:13:02.597,-7.679539049664149e-05,40.01091304008807
2025-03-07 13:13:02.605,-7.193386264056177e-05,42.013138732146864
2025-03-07 13:13:02.613,-6.696296456965296e-05,43.46597424370685
2025-03-07 13:13:02.621,-6.176886100068646e-05,44.33455992040767
2025-03-07 13:13:02.629,-5.6233031971811004e-05,44.59590676066704
2025-03-07 13:13:02.636,-5.0236436147529766e-05,44.23961614569216
2025-03-07 13:13:02.644,-4.366381941444366e-05,43.26827261226643
2025-03-07 13:13:02.652,-3.640809443671752e-05,41.69749279516916
2025-03-07 13:13:02.660,-2.8374739078436706e-05,39.555624633804925
2025-03-07 13:13:02.668,-1.948616769508173e-05,36.88310226854809
2025-03-07 13:13:02.675,-9.685996873525276e-06,33.73147328383765
2025-03-07 13:13:02.683,1.0569400822978006e-06,30.162125636004998
2025-03-07 13:13:02.691,1.2745051459669372e-05,26.244751317109866
2025-03-07 13:13:02.699,2.5349189251002003e-05,22.0555921856686
2025-03-07 13:13:02.707,3.880686166175282e-05,17.675520139407606
2025-03-07 13:13:02.714,5.302166311423241e-05,13.188008687786823
2025-03-07 13:13:02.722,6.78640379423283e-05,8.677055858511203
2025-03-07 13:13:02.730,8.317339808199217e-05,4.2251191787599565
2025-03-07 13:13:02.738,9.876153431276039e-05,-0.08887778040298827
2025-03-07 13:13:02.746,0.0001144172113328574,-4.191411036396143
2025-03-07 13:13:02.754,0.00012991181974647583,-8.016042794597366
2025-03-07 13:13:02.761,0.00014500594966089866,-11.504884454026174
2025-03-07 13:13:02.769,0.00015945672766976048,-14.609799421532859
2025-03-07 13:13:02.777,0.00017302572177063874,-17.29331808262455
2025-03-07 13:13:02.785,0.00018548717970342819,-19.529246838504513
2025-03-07 13:13:02.793,0.00019663632679037724,-21.302962909456447
2025-03-07 13:13:02.800,0.00020629740008221956,-22.611396241406364
2025-03-07 13:13:02.808,0.00021433103907936152,-23.4627089839254
2025-03-07 13:13:02.816,0.0002206406155443,-23.875691337078123
2025-03-07 13:13:02.824,0.0002251770916417004,-23.878899858314007
2025-03-07 13:13:02.832,0.00022794204838967933,-23.50957040822475
2025-03-07 13:13:02.839,0.0002289886122517682,-22.812342681955315
2025-03-07 13:13:02.847,0.00022842011756386436,-21.837836662603692
2025-03-07 13:13:02.855,0.0002263864730419528,-20.641123339911104
2025-03-07 13:13:02.863,0.00022307834941908097,-19.28013271076371
2025-03-07 13:13:02.871,0.00021871946749865378,-17.81404151159712
2025-03-07 13:13:02.879,0.00021355742794869196,-16.301681452749108
2025-03-07 13:13:02.886,0.0002078536574484959,-14.800006077190028
2025-03-07 13:13:02.894,0.00020187311438804457,-13.36265091125165
2025-03-07 13:13:02.902,0.00019587437708096965,-12.03861748589316
2025-03-07 13:13:02.910,0.00019010063160651604,-10.871107266808558
2025-03-07 13:13:02.918,0.00018477192026699574,-9.896526727369462
2025-03-07 13:13:02.925,0.00018007885667174466,-9.143679909368029
2025-03-07 13:13:02.933,0.0001761778894673686,-8.633159999963858
2025-03-07 13:13:02.941,0.00017318809461054985,-8.376946832897309
2025-03-07 13:13:02.949,0.00017118937910182773,-8.378212885559055
2025-03-07 13:13:02.957,0.00017022189945351644,-8.631336348929247
2025-03-07 13:13:02.964,0.00017028647167034277,-9.122116231002323
2025-03-07 13:13:02.972,0.00017134579688522048,-9.82818122992215
2025-03-07 13:13:02.980,0.00017332642357260151,-10.71958126333955
2025-03-07 13:13:02.988,0.00017612146110167242,-11.759548013593328
2025-03-07 13:13:02.996,0.0001795941127263426,-12.905408570705195
2025-03-07 13:13:03.004,0.00018358209577505846,-14.109634154951447
2025-03-07 13:13:03.011,0.00018790296156403601,-15.321003924977218
2025-03-07 13:13:03.019,0.00019236023630279765,-16.485861997318658
2025-03-07 13:13:03.027,0.0001967502169295624,-17.54944401383252
2025-03-07 13:13:03.035,0.00020086919773537135,-18.45724791362533
2025-03-07 13:13:03.043,0.00020452086345568258,-19.15642203915945
2025-03-07 13:13:03.050,0.0002075235423221031,-19.597142402000987
2025-03-07 13:13:03.058,0.00020971697163185975,-19.733949946974004
2025-03-07 13:13:03.066,0.00021096821339887883,-19.527018097401335
2025-03-07 13:13:03.074,0.00021117639912064846,-18.943320857314138
2025-03-07 13:13:03.082,0.00021027609299979568,-17.95767239717638
2025-03-07 13:13:03.089,0.00020823920652364675,-16.55361044063976
2025-03-07 13:13:03.097,0.00020507550332786082,-14.724097951209346
2025-03-07 13:13:03.105,0.0002008317634650044,-12.472020608487746
2025-03-07 13:13:03.113,0.00019558966686810026,-9.810461355852215
2025-03-07 13:13:03.121,0.00018946247406953972,-6.762737858943744
2025-03-07 13:13:03.129,0.00018259065182436765,-3.3621939680577264
2025-03-07 13:13:03.136,0.00017513667687744466,0.34825787796886004
2025-03-07 13:13:03.144,0.0001672793068348114,4.316840074255008
2025-03-07 13:13:03.152,0.00015920762054583024,8.483849296330586
2025-03-07 13:13:03.160,0.0001511151133293893,12.782815527177327
2025-03-07 13:13:03.168,0.00014319408607379398,17.141857737854536
2025-03-07 13:13:03.175,0.00013563048247521183,21.485207202602524
2025-03-07 13:13:03.183,0.00012859922022239232,25.734863949512178
2025-03-07 13:13:03.191,0.0001222599777591402,29.812347172810846
2025-03-07 13:13:03.199,0.0001167533770480726,33.64049671959277
2025-03-07 13:13:03.207,0.00011219753179397044,37.145280134107786
2025-03-07 13:13:03.214,0.00010868496413559771,40.257558290102644
2025-03-07 13:13:03.222,0.0001062799059926387,42.914762443419356
2025-03-07 13:13:03.230,0.00010501600563298873,45.06243666078729
2025-03-07 13:13:03.238,0.00010489447555818544,46.65560207771399
2025-03-07 13:13:03.246,0.00010588275253557207,47.659903325116694
2025-03-07 13:13:03.254,0.00010791379198232878,48.052502703778764
2025-03-07 13:13:03.261,0.00011088617388411985,47.82269417548156
2025-03-07 13:13:03.269,0.00011466522974216945,46.97221681045058
2025-03-07 13:13:03.277,0.00011908538424808825,45.5152557551662
2025-03-07 13:13:03.285,0.00012395383903328588,43.47812779312231
2025-03-07 13:13:03.293,0.0001290556247246533,40.898657869014976
2025-03-07 13:13:03.300,0.00013415992401013768,37.82526222586457
2025-03-07 13:13:03.308,0.00013902743584717664,34.31576274831867
2025-03-07 13:13:03.316,0.0001434184379110317,30.435965392924526
2025-03-07 13:13:03.324,0.00014710113736298507,26.258042900173386
2025-03-07 13:13:03.332,0.0001498598813026486,21.858768024119428
2025-03-07 13:13:03.340,0.0001515028156427511,17.317648019953545
2025-03-07 13:13:03.347,0.00015186862628314865,12.715013890723785
2025-03-07 13:13:03.355,0.0001508320652420319,8.130118780329871
2025-03-07 13:13:03.363,0.0001483080472830518,3.6392988725180904
2025-03-07 13:13:03.371,0.0001442541849135843,-0.6857527245873422
2025-03-07 13:13:03.379,0.00013867170844009442,-4.779553208451526
2025-03-07 13:13:03.386,0.00013160480339529748,-8.584198573684324
2025-03-07 13:13:03.394,0.00012313848076758973,-12.050500734057918
2025-03-07 13:13:03.402,0.00011339513922393178,-15.138868705732353
2025-03-07 13:13:03.410,0.00010252997034457695,-17.819917826779875
2025-03-07 13:13:03.418,9.072533753831995e-05,-20.07479965196909
2025-03-07 13:13:03.425,7.818427336584162e-05,-21.895253593378406
2025-03-07 13:13:03.433,6.512329773383473e-05,-23.283389252351572
2025-03-07 13:13:03.441,5.176483887391366e-05,-24.251215427798048
2025-03-07 13:13:03.449,3.8329607327809915e-05,-24.81993777803915
2025-03-07 13:13:03.457,2.502930244756328e-05,-25.019051931126466
2025-03-07 13:13:03.465,1.2060010738044986e-05,-24.8852624434619
2025-03-07 13:13:03.472,-4.0341177870378033e-07,-24.46126043906803
2025-03-07 13:13:03.480,-1.2211782997349487e-05,-23.794394123801226
2025-03-07 13:13:03.488,-2.324477634532781e-05,-22.9352668028329
2025-03-07 13:13:03.496,-3.34128155663695e-05,-21.9362966965208
2025-03-07 13:13:03.504,-4.265767895771954e-05,-20.85027190482239
2025-03-07 13:13:03.511,-5.095182556899561e-05,-19.72893244577659
2025-03-07 13:13:03.519,-5.829649054600068e-05,-18.62160949074396
2025-03-07 13:13:03.527,-6.471864516791508e-05,-17.57394981193373
2025-03-07 13:13:03.535,-7.026697226662347e-05,-16.62675109961993
2025-03-07 13:13:03.543,-7.50070689173065e-05,-15.81493123574456
2025-03-07 13:13:03.550,-7.901615125524423e-05,-15.166651854661655
2025-03-07 13:13:03.558,-8.237758999421374e-05,-14.702613601018522
2025-03-07 13:13:03.566,-8.517562748120892e-05,-14.435537425503394
2025-03-07 13:13:03.574,-8.749059509828234e-05,-14.369843051988425
2025-03-07 13:13:03.582,-8.939487348297325e-05,-14.501532404891389
2025-03-07 13:13:03.590,-9.09497581288302e-05,-14.818282291974477
2025-03-07 13:13:03.597,-9.220333387100614e-05,-15.299746976838941
2025-03-07 13:13:03.605,-9.318941447893677e-05,-15.918067431475828
2025-03-07 13:13:03.613,-9.392755676860555e-05,-16.638580030639485
2025-03-07 13:13:03.621,-9.442411715874896e-05,-17.420713257387586
2025-03-07 13:13:03.629,-9.467428214239226e-05,-18.219056680383325
2025-03-07 13:13:03.636,-9.466495272972508e-05,-18.984582108994456
2025-03-07 13:13:03.644,-9.437828529647156e-05,-19.66599251670172
2025-03-07 13:13:03.652,-9.37956130737023e-05,-20.211170142775998
2025-03-07 13:13:03.660,-9.290143251768899e-05,-20.568691253282644
2025-03-07 13:13:03.668,-9.168714841682063e-05,-20.68937151855406
2025-03-07 13:13:03.675,-9.015431769700903e-05,-20.527803040661684
2025-03-07 13:13:03.683,-8.83172033265285e-05,-20.04384196262277
2025-03-07 13:13:03.691,-8.620453611653095e-05,-19.204004529089456
2025-03-07 13:13:03.699,-8.386046457398143e-05,-17.98272963457424
2025-03-07 13:13:03.707,-8.134473901469141e-05,-16.36346743355347
2025-03-07 13:13:03.715,-7.873222400847749e-05,-14.339556583615881
2025-03-07 13:13:03.722,-7.611185194937988e-05,-11.914857163957882
2025-03-07 13:13:03.730,-7.358510535998069e-05,-9.104112193210042
2025-03-07 13:13:03.738,-7.126405120757567e-05,-5.933017819579464
2025-03-07 13:13:03.746,-6.926887274744415e-05,-2.437990454882391
2025-03-07 13:13:03.754,-6.772478750984171e-05,1.3343719124308742
2025-03-07 13:13:03.761,-6.675823092043127e-05,5.328127598919854
2025-03-07 13:13:03.769,-6.649222590475026e-05,9.479112223175003
2025-03-07 13:13:03.777,-6.70409352385548e-05,13.71631759120224
2025-03-07 13:13:03.785,-6.85035024562653e-05,17.96349474444431
2025-03-07 13:13:03.793,-7.095743587779286e-05,22.140939898773237
2025-03-07 13:13:03.800,-7.445196131098193e-05,26.16741566502626
2025-03-07 13:13:03.808,-7.900190951691186e-05,29.962155018322164
2025-03-07 13:13:03.816,-8.458276275933613e-05,33.4468921340074
2025-03-07 13:13:03.824,-9.112744752317101e-05,36.54786254747338
2025-03-07 13:13:03.832,-9.852534890077445e-05,39.197715194101896
2025-03-07 13:13:03.840,-0.00010662386157156812,41.33728076829821
2025-03-07 13:13:03.847,-0.00011523259679806921,42.917144475661644
2025-03-07 13:13:03.855,-0.00012413014325105988,43.89897654392328
2025-03-07 13:13:03.863,-0.00013307304814757283,44.2565806464036
2025-03-07 13:13:03.871,-0.00014180647573343362,43.97662846561989
2025-03-07 13:13:03.879,-0.00015007585177236873,43.059057740100414
2025-03-07 13:13:03.886,-0.00015763874293103693,41.51712102783849
2025-03-07 13:13:03.894,-0.00016427624897409122,39.377082796455404
2025-03-07 13:13:03.902,-0.00016980327155451466,36.6775729976751
2025-03-07 13:13:03.910,-0.00017407711951995965,33.46861566268316
2025-03-07 13:13:03.918,-0.0001770039999073889,29.810360916362875
2025-03-07 13:13:03.925,-0.00017854305856200543,25.771557811242403
2025-03-07 13:13:03.933,-0.0001787078063898653,21.427813203387945
2025-03-07 13:13:03.941,-0.00017756496956983068,16.859688234072177
2025-03-07 13:13:03.949,-0.0001752309707470995,12.150688582566595
2025-03-07 13:13:03.957,-0.00017186634843152282,7.385207318604875
2025-03-07 13:13:03.965,-0.00016766846352368083,2.6464797978757093
2025-03-07 13:13:03.972,-0.0001628628485724627,-1.9853913933876968
2025-03-07 13:13:03.980,-0.00015769354836271725,-6.43528682139548
2025-03-07 13:13:03.988,-0.0001524128061505015,-10.634746415438672
2025-03-07 13:13:03.996,-0.0001472704905794058,-14.523428594117403
2025-03-07 13:13:04.004,-0.00014250372361110597,-18.05031713328326
2025-03-07 13:13:04.011,-0.0001383272120924796,-21.174649165176703
2025-03-07 13:13:04.019,-0.0001349247593330825,-23.866546761577204
2025-03-07 13:13:04.027,-0.000132442338882118,-26.107343790377573
2025-03-07 13:13:04.035,-0.00013098299730489676,-27.889608817220815
2025-03-07 13:13:04.043,-0.0001306037633414574,-29.216873435605816
2025-03-07 13:13:04.050,-0.0001313146793224275,-30.103083265805108
2025-03-07 13:13:04.058,-0.0001330799954515199,-30.571795732437234
2025-03-07 13:13:04.066,-0.00013582144377125106,-30.65515444934707
2025-03-07 13:13:04.074,-0.00013942335217573024,-30.39267452647856
2025-03-07 13:13:04.082,-0.00014373921945053732,-29.829876362968495
2025-03-07 13:13:04.090,-0.00014859928622373305,-29.01680755798904
2025-03-07 13:13:04.097,-0.0001538186138980333,-28.006493540893374
2025-03-07 13:13:04.105,-0.00015920521730223888,-26.853357491540393
2025-03-07 13:13:04.113,-0.0001645678620452075,-25.611649192165732
2025-03-07 13:13:04.121,-0.0001697232069953406,-24.33392073074184
2025-03-07 13:13:04.129,-0.0001745020431574792,-23.06958457264615
2025-03-07 13:13:04.136,-0.00017875446298770256,-21.863586543320306
2025-03-07 13:13:04.144,-0.00018235388296077156,-20.75522283001734
2025-03-07 13:13:04.152,-0.00018519991320124868,-19.77712632522048
2025-03-07 13:13:04.160,-0.0001872200999478148,-18.954443600337783
2025-03-07 13:13:04.168,-0.0001883705676039666,-18.304219600339525
2025-03-07 13:13:04.175,-0.00018863560228433356,-17.83500284345931
2025-03-07 13:13:04.183,-0.00018802628460754128,-17.54667951620252
2025-03-07 13:13:04.191,-0.0001865783720130377,-17.430540365933556
2025-03-07 13:13:04.199,-0.00018434968922992286,-17.469579690332637
2025-03-07 13:13:04.207,-0.0001814172777302649,-17.639020985935197
2025-03-07 13:13:04.215,-0.00017787449383495238,-17.9070589469015
2025-03-07 13:13:04.222,-0.00017382815672669315,-18.235802536157045
2025-03-07 13:13:04.230,-0.00016939575576688422,-18.58239886332809
2025-03-07 13:13:04.238,-0.0001647026599051939,-18.90031271336906
2025-03-07 13:13:04.246,-0.00015987925495986312,-19.140731917165457
2025-03-07 13:13:04.254,-0.00015505796018214923,-19.254064499501464
2025-03-07 13:13:04.261,-0.00015037010745964325,-19.191489856369838
2025-03-07 13:13:04.269,-0.00014594268109947517,-18.906523292971585
2025-03-07 13:13:04.277,-0.00014189492606240457,-18.35655129155426
2025-03-07 13:13:04.285,-0.00013833485870187146,-17.504294060213738
2025-03-07 13:13:04.293,-0.0001353557555182511,-16.319152397920153
2025-03-07 13:13:04.300,-0.00013303273744905633,-14.77839780820616
2025-03-07 13:13:04.308,-0.00013141959977181744,-12.868168148033938
2025-03-07 13:13:04.316,-0.00013054605751023924,-10.584235871169255
2025-03-07 13:13:04.324,-0.00013041558198836423,-7.932521993489021
2025-03-07 13:13:04.332,-0.00013100399495418095,-4.929336071118087
