Timestamp,ECG_test1_ECGtoHR_LA_RA_CAL,Lead I (LA-RA),Lead II (LL-LA),Lead III (LL-RA),Vx-RL
2025-03-08 14:57:02.112,84.39560439560441,-0.1276897079545186,-0.0348424123500093,-0.1625319343677853,4.901656191491279e-07
2025-03-08 14:57:02.114,84.39560439560441,-0.0795697621664962,-0.0367631927878067,-0.1163327681163659,5.042577198190858e-07
2025-03-08 14:57:02.116,84.39560439560441,-0.0376122951738003,-0.0409416985817329,-0.0785538060610032,5.183482672518689e-07
2025-03-08 14:57:02.118,84.39560439560441,-0.0098588065036806,-0.047742487495544,-0.0576011054638515,5.325763797719931e-07
2025-03-08 14:57:02.120,84.39560439560441,-0.0017509396583335,-0.0562648595411492,-0.0580156098088673,5.469870039608851e-07
2025-03-08 14:57:02.122,84.39560439560441,-0.0135807637005581,-0.0648322221482551,-0.0784127955728832,5.615097705323638e-07
2025-03-08 14:57:02.124,84.39560439560441,-0.039554560622175,-0.071830055430474,-0.111384424867122,5.759974471907513e-07
2025-03-08 14:57:02.125,84.39560439560441,-0.0698105038762826,-0.0763954816975441,-0.1462057934768137,5.903027492852566e-07
2025-03-08 14:57:02.127,84.39560439560441,-0.0948120197184972,-0.078620151004142,-0.1734319777380295,6.043531163883271e-07
2025-03-08 14:57:02.129,84.39560439560441,-0.1096846874232,-0.0792848949620984,-0.1889693885523102,6.1818518770588e-07
2025-03-08 14:57:02.131,84.39560439560441,-0.1159105915573932,-0.0793878959863919,-0.1952982928995714,6.319224517188128e-07
2025-03-08 14:57:02.133,84.39560439560441,-0.1195503110609845,-0.0797229157166417,-0.1992730313429961,6.457091714149187e-07
2025-03-08 14:57:02.135,84.39560439560441,-0.1273909324769257,-0.0806326515912492,-0.2080233878438739,6.596357229204053e-07
2025-03-08 14:57:02.137,84.39560439560441,-0.1434404945261798,-0.0819646152180277,-0.2254049127186505,6.736938159734792e-07
2025-03-08 14:57:02.139,84.39560439560441,-0.1675472495929972,-0.0832143380445272,-0.2507613898003654,6.877835422622183e-07
2025-03-08 14:57:02.141,84.39560439560441,-0.1964044254027585,-0.0837992890237679,-0.2802035157796804,7.017669376721256e-07
2025-03-08 14:57:02.143,84.39560439560441,-0.2258832637934015,-0.0833624113507078,-0.3092454757041536,7.155391049612132e-07
2025-03-08 14:57:02.145,84.39560439560441,-0.25315522416502,-0.0819891377793137,-0.3351441617359016,7.290799517200603e-07
2025-03-08 14:57:02.147,84.39560439560441,-0.2774821788205036,-0.0802420792191335,-0.3577240570848869,7.424608257610564e-07
2025-03-08 14:57:02.149,84.39560439560441,-0.2995312343282544,-0.078967077011496,-0.3784981096509652,7.558043355789309e-07
2025-03-08 14:57:02.151,84.39560439560441,-0.3200129661607103,-0.0789105382114428,-0.3989233019519988,7.692196418792085e-07
2025-03-08 14:57:02.153,84.39560439560441,-0.3387039396413677,-0.0803039456860328,-0.4190076821761022,7.827471817633336e-07
2025-03-08 14:57:02.155,84.39560439560441,-0.3543373884879607,-0.0826559408500784,-0.4369931254621551,7.963406209743771e-07
2025-03-08 14:57:02.157,84.39560439560441,-0.3650713046432133,-0.0849415053234555,-0.4500126053831545,8.09893685055505e-07
2025-03-08 14:57:02.159,84.39560439560441,-0.3690469157970054,-0.0861533700595675,-0.4552000805890248,8.232962902228874e-07
2025-03-08 14:57:02.161,84.39560439560441,-0.3649237384421267,-0.0859153544640028,-0.4508388869754509,8.36490114313012e-07
2025-03-08 14:57:02.163,84.39560439560441,-0.3525528941626114,-0.0847661209537521,-0.4373188085321159,8.494953539812889e-07
2025-03-08 14:57:02.165,84.39560439560441,-0.3337140755170578,-0.083899689316402,-0.4176135575922043,8.623963892503883e-07
2025-03-08 14:57:02.166,84.39560439560441,-0.3123880055602039,-0.0844902646175095,-0.396878062270467,8.752955942197846e-07
2025-03-08 14:57:02.168,84.39560439560441,-0.2939659204188878,-0.0870033654618673,-0.3809690773057634,8.882603207188977e-07
2025-03-08 14:57:02.170,84.39560439560441,-0.2833486409309541,-0.0909076134796432,-0.3742560451836335,9.012903292102564e-07
2025-03-08 14:57:02.172,84.39560439560441,-0.28270017019695,-0.0949475854365188,-0.3776475457885333,9.143211548216808e-07
2025-03-08 14:57:02.174,84.39560439560441,-0.2900780650903676,-0.097807035350161,-0.3878848900191043,9.272598046894048e-07
2025-03-08 14:57:02.176,84.39560439560441,-0.2998876291209453,-0.0988021564843281,-0.3986895746392855,9.40032924648121e-07
2025-03-08 14:57:02.178,84.39560439560441,-0.305197973847651,-0.0982799761930097,-0.4034777385388108,9.52622315086068e-07
2025-03-08 14:57:02.180,84.39560439560441,-0.3009157577255412,-0.0975722279977273,-0.3984877736694835,9.650705151273647e-07
2025-03-08 14:57:02.182,84.39560439560441,-0.2862537582052933,-0.0985336328265181,-0.3847871783982386,9.77455381386439e-07
2025-03-08 14:57:02.184,84.39560439560441,-0.2652168284900194,-0.1028239852134849,-0.3680406004720794,9.898484046027244e-07
2025-03-08 14:57:02.186,84.39560439560441,-0.2448138335346635,-0.1111871213390174,-0.3560007410546238,1.0022788730508762e-06
2025-03-08 14:57:02.188,84.39560439560441,-0.231827485149386,-0.1230059121452619,-0.3548331829308591,1.014721644848024e-06
2025-03-08 14:57:02.190,84.39560439560441,-0.2296329634828774,-0.1363157998880631,-0.3659485485243606,1.0271131693301289e-06
2025-03-08 14:57:02.192,84.39560439560441,-0.2364724937111871,-0.1482612412312067,-0.3847335196683652,1.0393857564887617e-06
2025-03-08 14:57:02.194,84.39560439560441,-0.2458873788011605,-0.1557827631647102,-0.4016699262889042,1.0515015124430518e-06
2025-03-08 14:57:02.196,84.39560439560441,-0.249056433780378,-0.1562292057145849,-0.4052854233996484,1.063468821912418e-06
2025-03-08 14:57:02.198,84.39560439560441,-0.2380208350409513,-0.1476509682189582,-0.3856715867033036,1.0753343351827122e-06
2025-03-08 14:57:02.200,84.39560439560441,-0.2084882480841891,-0.128731658350069,-0.3372196893745448,1.0871563553664757e-06
2025-03-08 14:57:02.202,84.39560439560441,-0.1611670435676556,-0.0985517656285782,-0.2597185916229987,1.098974502532037e-06
2025-03-08 14:57:02.204,84.39560439560441,-0.101219240976374,-0.0564868809218024,-0.1577059038477059,1.1107912547329603e-06
2025-03-08 14:57:02.206,84.39560439560441,-0.0361263285769824,-0.0024425662574277,-0.0385686763806033,1.1225736888608818e-06
2025-03-08 14:57:02.208,84.39560439560441,0.0272444297242981,0.0626115119826368,0.0898561604826179,1.1342728147057908e-06
2025-03-08 14:57:02.209,84.39560439560441,0.0853876902365166,0.1360781512256041,0.2214660605065209,1.145849202252604e-06
2025-03-08 14:57:02.211,84.39560439560441,0.1397728082973157,0.2135136457133989,0.3532866733214507,1.157291413377339e-06
2025-03-08 14:57:02.213,84.39560439560441,0.1966164963517589,0.2890462120331435,0.4856629280065353,1.1686186328759383e-06
2025-03-08 14:57:02.215,84.39560439560441,0.2645960572772108,0.3564566370665248,0.6210529143383745,1.1798677234663237e-06
2025-03-08 14:57:02.217,84.39560439560441,0.3509338553199131,0.4105414365497808,0.76147551227672,1.1910728121623194e-06
2025-03-08 14:57:02.219,84.39560439560441,0.4568538187726119,0.4480595787033394,0.9049136182820984,1.2022484846855885e-06
2025-03-08 14:57:02.221,84.39560439560441,0.5737806304500432,0.4677291075384083,1.0415099591247876,1.2133846634707905e-06
2025-03-08 14:57:02.223,84.39560439560441,0.6819317943909852,0.4695063847180128,1.151438400477489,1.224454415552153e-06
2025-03-08 14:57:02.225,84.39560439560441,0.7529827648835633,0.454118661808362,1.2071016482084194,1.2354292049661365e-06
2025-03-08 14:57:02.227,84.39560439560441,0.7575625432212046,0.4236096526243986,1.181172417476784,1.2462929519615914e-06
2025-03-08 14:57:02.229,84.39560439560441,0.676043809970043,0.3824165385397625,1.058460570284172,1.2570479370687055e-06
2025-03-08 14:57:02.231,84.39560439560441,0.5084170202717312,0.3373987242866189,0.8458159665446443,1.2677106705293396e-06
2025-03-08 14:57:02.233,84.39560439560441,0.2781192809257866,0.2956786515466197,0.5737981547361529,1.278301271622898e-06
2025-03-08 14:57:02.235,84.39560439560441,0.0269184500703724,0.2611456177041837,0.2880642903353381,1.2888327651938708e-06
2025-03-08 14:57:02.237,84.39560439560441,-0.1976626132565007,0.2322280330391345,0.0345656425948357,1.2993058032619765e-06
2025-03-08 14:57:02.239,84.39560439560441,-0.3571361207324276,0.2031099673948083,-0.1540259303699457,1.3097106225145991e-06
2025-03-08 14:57:02.241,84.39560439560441,-0.4329216882649669,0.1680157480246066,-0.2649057172218302,1.3200339198160453e-06
2025-03-08 14:57:02.243,84.39560439560441,-0.4293418235163286,0.1257060058985132,-0.3036355946149178,1.3302660797957623e-06
2025-03-08 14:57:02.245,84.39560439560441,-0.3685494780535614,0.0810704903259856,-0.2874787647414394,1.3404048038211365e-06
2025-03-08 14:57:02.247,84.39560439560441,-0.280615529743295,0.0427940110009466,-0.2378212957156542,1.3504539206828326e-06
2025-03-08 14:57:02.249,84.39560439560441,-0.1934881246722447,0.0187547365641196,-0.1747331649627967,1.3604191462590738e-06
2025-03-08 14:57:02.250,84.39560439560441,-0.1265461805427196,0.0121070643514452,-0.1144388928772603,1.3703040224150809e-06
2025-03-08 14:57:02.252,84.39560439560441,-0.0888905775116841,0.020198428748022,-0.0686919252931403,1.3801085358232829e-06
2025-03-08 14:57:02.254,84.39560439560441,-0.0810659456500288,0.0364448218022949,-0.0446209002966817,1.3898307231891774e-06
2025-03-08 14:57:02.256,84.39560439560441,-0.0979226036952912,0.0535914692972299,-0.044330910874335,1.3994694659766171e-06
2025-03-08 14:57:02.258,84.39560439560441,-0.1309854812965725,0.0663980791808103,-0.0645871787105138,1.4090260245915957e-06
2025-03-08 14:57:02.260,84.39560439560441,-0.1700996391189793,0.0726172330047,-0.0974821828622961,1.418502988089361e-06
2025-03-08 14:57:02.262,84.39560439560441,-0.2050564620453188,0.0723770680838525,-0.1326791708312318,1.4279013685754816e-06
2025-03-08 14:57:02.264,84.39560439560441,-0.2277182730481496,0.0668978154158832,-0.1608202345507786,1.437218109280074e-06
2025-03-08 14:57:02.266,84.39560439560441,-0.2341930622048668,0.0575004546829955,-0.176692384420921,1.4464462183359553e-06
2025-03-08 14:57:02.268,84.39560439560441,-0.2258642441547242,0.045327670334014,-0.1805363506801425,1.4555780621389472e-06
2025-03-08 14:57:02.270,84.39560439560441,-0.2083453313046258,0.031584958106197,-0.1767601500637338,1.464610113657439e-06
2025-03-08 14:57:02.272,84.39560439560441,-0.1886086826668876,0.0177917849159167,-0.1708166747163021,1.473546135510382e-06
2025-03-08 14:57:02.274,84.39560439560441,-0.1717338419683082,0.0056300776423542,-0.1661035414919428,1.4823963484905114e-06
2025-03-08 14:57:02.276,84.39560439560441,-0.1590082628515476,-0.0036187602695172,-0.1626268005499075,1.491172396758202e-06
2025-03-08 14:57:02.278,84.39560439560441,-0.1482870547714688,-0.0096567494823932,-0.1579435819452403,1.4998805781538228e-06
2025-03-08 14:57:02.280,84.39560439560441,-0.1361849656873034,-0.0133068221199033,-0.1494915657072902,1.5085172202686772e-06
2025-03-08 14:57:02.282,84.39560439560441,-0.1206959398688425,-0.0160405809367188,-0.1367362988437578,1.5170692560043829e-06
2025-03-08 14:57:02.284,84.39560439560441,-0.1027226238139762,-0.0191478325869442,-0.1218702345345833,1.5255202888876752e-06
2025-03-08 14:57:02.286,84.39560439560441,-0.085711289345263,-0.0230302535121666,-0.1087413211009388,1.533859234624371e-06
2025-03-08 14:57:02.288,84.39560439560441,-0.0736908140402567,-0.0270300797710123,-0.1007206722346039,1.5420868477801307e-06
2025-03-08 14:57:02.290,84.39560439560441,-0.0689046576236141,-0.0298969938443605,-0.0988014301662375,1.5502162433043156e-06
2025-03-08 14:57:02.291,84.39560439560441,-0.0704096127911595,-0.0306256276182204,-0.1010350194599583,1.5582666223032137e-06
2025-03-08 14:57:02.293,84.39560439560441,-0.0744153365419735,-0.029173937861995,-0.1035890538341054,1.5662531826853845e-06
2025-03-08 14:57:02.295,84.39560439560441,-0.0761525985523951,-0.0266371462845936,-0.1027895246184897,1.5741785315561905e-06
2025-03-08 14:57:02.297,84.39560439560441,-0.0722607060537056,-0.0247635907789081,-0.0970240769057041,1.5820304140984577e-06
2025-03-08 14:57:02.299,84.39560439560441,-0.0624558036298683,-0.0250672549832773,-0.087522838926111,1.5897873628166758e-06
2025-03-08 14:57:02.301,84.39560439560441,-0.0496328239906716,-0.0280114430747965,-0.0776440476087856,1.5974296076720686e-06
2025-03-08 14:57:02.303,84.39560439560441,-0.0383470143701053,-0.032707383766631,-0.0710541789539395,1.6049495874589005e-06
2025-03-08 14:57:02.305,84.39560439560441,-0.0324365220452629,-0.0373171381216268,-0.0697534413372096,1.6123563736077193e-06
2025-03-08 14:57:02.307,84.39560439560441,-0.0329952771122976,-0.0399815284236632,-0.0729765871388208,1.6196713896946983e-06
2025-03-08 14:57:02.309,84.39560439560441,-0.0377576387944703,-0.0397793094404435,-0.0775367303155976,1.6269174128647146e-06
2025-03-08 14:57:02.311,84.39560439560441,-0.0422493449865877,-0.0371713316631965,-0.0794204592043237,1.6341065199316987e-06
2025-03-08 14:57:02.313,84.39560439560441,-0.042116053715357,-0.0336854613422227,-0.0758012980441287,1.641233370207374e-06
2025-03-08 14:57:02.315,84.39560439560441,-0.0353804080770105,-0.0310622541365139,-0.0664424455832185,1.64827752898575e-06
2025-03-08 14:57:02.317,84.39560439560441,-0.0234178424604824,-0.0303694232405834,-0.0537870494313103,1.6552138003980828e-06
2025-03-08 14:57:02.319,84.39560439560441,-0.010162886118168,-0.0315472355767952,-0.041709905807446,1.6620252589560449e-06
2025-03-08 14:57:02.321,84.39560439560441,-1.651019271592391e-05,-0.0335694824497766,-0.0335857771970042,1.668712146556688e-06
2025-03-08 14:57:02.323,84.39560439560441,0.0044138532825401,-0.0350812433554941,-0.0306671751412963,1.6752918913792035e-06
2025-03-08 14:57:02.325,84.39560439560441,0.0035680755636306,-0.0351501104543633,-0.0315818205254104,1.6817901385354391e-06
2025-03-08 14:57:02.327,84.39560439560441,0.0005806560309425,-0.0337334273405251,-0.0331525575241468,1.6882274207268628e-06
2025-03-08 14:57:02.329,84.39560439560441,-0.0004127197498405,-0.0316342914847057,-0.0320467980055403,1.6946084255440478e-06
2025-03-08 14:57:02.331,84.39560439560441,0.0036320024645921,-0.030000907944911,-0.0263686927688193,1.7009194862285543e-06
2025-03-08 14:57:02.333,84.39560439560441,0.0132565904658736,-0.0296639225209113,-0.0164071198353952,1.7071356240621612e-06
2025-03-08 14:57:02.334,84.39560439560441,0.026438908874661,-0.0306817042677511,-0.0042425836731642,1.7132334676627674e-06
2025-03-08 14:57:02.336,84.39560439560441,0.0398284948792886,-0.032340074764837,0.0074886312920099,1.7192033050412003e-06
2025-03-08 14:57:02.338,84.39560439560441,0.0505666915601315,-0.0335968937102879,0.0169700084250541,1.7250539998565463e-06
2025-03-08 14:57:02.340,84.39560439560441,0.0576995448795985,-0.033708849311882,0.0239909054891921,1.7308082594549327e-06
2025-03-08 14:57:02.342,84.39560439560441,0.0624375798046214,-0.0326674531868959,0.0297703358626792,1.7364907878850655e-06
2025-03-08 14:57:02.344,84.39560439560441,0.0671663064341596,-0.0311819284982326,0.0359845865137473,1.7421155372042342e-06
2025-03-08 14:57:02.346,84.39560439560441,0.0738181118154265,-0.0302328919066904,0.0435854278469941,1.7476786713894349e-06
2025-03-08 14:57:02.348,84.39560439560441,0.0825751152178596,-0.0304942673153886,0.0520810552238021,1.7531608065448604e-06
2025-03-08 14:57:02.350,84.39560439560441,0.0916614135436535,-0.0319808144665381,0.0596808057799816,1.758537227418335e-06
2025-03-08 14:57:02.352,84.39560439560441,0.0983261055783994,-0.0340992385670383,0.0642270730649834,1.7637906679836806e-06
2025-03-08 14:57:02.354,84.39560439560441,0.1004209859704311,-0.0360173565570242,0.0644038347689411,1.7689200138554482e-06
2025-03-08 14:57:02.356,84.39560439560441,0.0976671912879704,-0.0371006472446432,0.0605667486543834,1.773940524414971e-06
2025-03-08 14:57:02.358,84.39560439560441,0.0919549924553403,-0.0371856352642305,0.0547695610319179,1.778875648495475e-06
2025-03-08 14:57:02.360,84.39560439560441,0.0866193596312236,-0.03660798722365,0.0500115754789308,1.7837448451881894e-06
2025-03-08 14:57:02.362,84.39560439560441,0.0851483314195593,-0.0360342831757289,0.0491142505641394,1.7885537721111628e-06
2025-03-08 14:57:02.364,84.39560439560441,0.0899198048153128,-0.0361864718792473,0.0537335345231079,1.7932918150025389e-06
2025-03-08 14:57:02.366,84.39560439560441,0.1013845167026661,-0.0375496683585865,0.0638350491980208,1.7979380129650767e-06
2025-03-08 14:57:02.368,84.39560439560441,0.1178767294479488,-0.0401644270304949,0.0777125025144255,1.8024720838273055e-06
2025-03-08 14:57:02.370,84.39560439560441,0.1360883862587499,-0.043592917612604,0.0924956679454786,1.8068847370967956e-06
2025-03-08 14:57:02.372,84.39560439560441,0.1521155428763417,-0.0470864409929083,0.1050293003439153,1.8111820213810613e-06
2025-03-08 14:57:02.374,84.39560439560441,0.1627794641271314,-0.049895665152248,0.1128839965706108,1.8153816981848604e-06
2025-03-08 14:57:02.375,84.39560439560441,0.166741500606562,-0.0515980221701592,0.1151436751634207,1.8195037961830048e-06
2025-03-08 14:57:02.377,84.39560439560441,0.1649819081231799,-0.052301564172836,0.112680539820771,1.8235603987763528e-06
2025-03-08 14:57:02.379,84.39560439560441,0.1605196709032942,-0.0526351694230548,0.1078846965076797,1.827549906692111e-06
2025-03-08 14:57:02.381,84.39560439560441,0.1575807669510794,-0.0535270047813571,0.1040539563544668,1.8314585072494416e-06
2025-03-08 14:57:02.383,84.39560439560441,0.1605342907204827,-0.0558574242656175,0.1046770597771559,1.835267777480072e-06
2025-03-08 14:57:02.385,84.39560439560441,0.1727948394104352,-0.0601198007847442,0.1126752310504749,1.8389642635716712e-06
2025-03-08 14:57:02.387,84.39560439560441,0.1957544431822408,-0.0662234226312077,0.1295312120410848,1.842546068236104e-06
2025-03-08 14:57:02.389,84.39560439560441,0.2278914458011212,-0.0735162258058459,0.1543754105250229,1.8460232505234285e-06
2025-03-08 14:57:02.391,84.39560439560441,0.2644747726027392,-0.0810103145722884,0.1834646475927725,1.8494121619938e-06
2025-03-08 14:57:02.393,84.39560439560441,0.2983904197059667,-0.0877161940920138,0.2106744142164498,1.8527269258435525e-06
2025-03-08 14:57:02.395,84.39560439560441,0.32222995548356,-0.0929647811270713,0.2292653620097498,1.8559725417267408e-06
2025-03-08 14:57:02.397,84.39560439560441,0.3310019301338206,-0.0966016980629275,0.2344004187756192,1.8591430125594264e-06
2025-03-08 14:57:02.399,84.39560439560441,0.3242160902202895,-0.0989670425108331,0.2252492334496461,1.862225131698214e-06
2025-03-08 14:57:02.401,84.39560439560441,0.3062100954629834,-0.1006574916612614,0.205552788547438,1.865205652043936e-06
2025-03-08 14:57:02.403,84.39560439560441,0.2844752461399678,-0.1022028187629188,0.1822726110948024,1.8680779880015595e-06
2025-03-08 14:57:02.405,84.39560439560441,0.2667992498923966,-0.1038668891761188,0.162932543380923,1.8708450969557213e-06
2025-03-08 14:57:02.407,84.39560439560441,0.2585624113720591,-0.1056865669148114,0.1528760260587239,1.873517359709713e-06
2025-03-08 14:57:02.409,84.39560439560441,0.2612729099148265,-0.1076482679741557,0.1536248224821098,1.8761069018752595e-06
2025-03-08 14:57:02.411,84.39560439560441,0.2727317726884198,-0.1097925169076427,0.1629394352694665,1.878621494724234e-06
2025-03-08 14:57:02.413,84.39560439560441,0.2885150946873884,-0.1121522213494139,0.1763630517745535,1.8810611422636125e-06
2025-03-08 14:57:02.415,84.39560439560441,0.3039998933138598,-0.1146248185451397,0.1893752521406937,1.8834188479287567e-06
2025-03-08 14:57:02.417,84.39560439560441,0.3160652629463092,-0.1169366266327609,0.1991288125964802,1.885684810540974e-06
2025-03-08 14:57:02.418,84.39560439560441,0.3239069332030471,-0.118757462771545,0.2051496455967963,1.8878516277141876e-06
2025-03-08 14:57:02.420,84.39560439560441,0.3289095138806308,-0.119897239940236,0.2090124479649628,1.889917796005061e-06
2025-03-08 14:57:02.422,84.39560439560441,0.3338501780403294,-0.1204578417227349,0.2133925091899065,1.8918879184238856e-06
2025-03-08 14:57:02.424,84.39560439560441,0.3417104369678861,-0.1208282005303155,0.2208824081569127,1.8937698564255768e-06
2025-03-08 14:57:02.426,84.39560439560441,0.3543154845174571,-0.1214812046425171,0.2328344504446866,1.895570587669087e-06
2025-03-08 14:57:02.428,84.39560439560441,0.3711828176049072,-0.1226429175786075,0.2485400694453287,1.8972929959311464e-06
2025-03-08 14:57:02.430,84.39560439560441,0.3891676305001635,-0.1240068333088435,0.2651609654485269,1.898935093214369e-06
2025-03-08 14:57:02.432,84.39560439560441,0.4033103758746384,-0.1246784555020086,0.2786320874474952,1.90049175907224e-06
2025-03-08 14:57:02.434,84.39560439560441,0.4086701519871322,-0.1234328172315096,0.2852375006242082,1.9019577898509816e-06
2025-03-08 14:57:02.436,84.39560439560441,0.4023377344205713,-0.1192111784627033,0.2831267206005385,1.9033305408889923e-06
2025-03-08 14:57:02.438,84.39560439560441,0.3847172733689731,-0.1116504555120758,0.2730669812632175,1.904610891176383e-06
2025-03-08 14:57:02.440,84.39560439560441,0.3595377350064891,-0.1013794069373716,0.2581584902371649,1.905802308361231e-06
2025-03-08 14:57:02.442,84.39560439560441,0.332593585992278,-0.0898783868772709,0.2427153600456668,1.9069088083292776e-06
2025-03-08 14:57:02.444,84.39560439560441,0.3096906501685149,-0.0789080223821947,0.230782787476052,1.907933048742142e-06
2025-03-08 14:57:02.446,84.39560439560441,0.2946065449686603,-0.0697747360173884,0.2248319673876835,1.9088755092439968e-06
2025-03-08 14:57:02.448,84.39560439560441,0.2879274017605413,-0.0628267247227735,0.2251008342006401,1.9097349551050206e-06
2025-03-08 14:57:02.450,84.39560439560441,0.2872286044344696,-0.0574423004508693,0.2297864598507654,1.9105096455708425e-06
2025-03-08 14:57:02.452,84.39560439560441,0.2883683893281083,-0.0524674484423124,0.2359010954403707,1.911198446330939e-06
2025-03-08 14:57:02.454,84.39560439560441,0.2871426892945757,-0.0468078110111067,0.2403350315180981,1.911801245494508e-06
2025-03-08 14:57:02.456,84.39560439560441,0.2805580786763863,-0.0398544778775291,0.2407037527143203,1.912318628847107e-06
2025-03-08 14:57:02.458,84.39560439560441,0.2673897756100964,-0.0315982024096924,0.2357917237992373,1.912751254608686e-06
2025-03-08 14:57:02.459,84.39560439560441,0.2481196669639929,-0.022488753617395,0.2256310626253764,1.9130994818803007e-06
2025-03-08 14:57:02.461,84.39560439560441,0.2245458631656014,-0.0131873788217453,0.2113586322887235,1.913363518743917e-06
2025-03-08 14:57:02.463,84.39560439560441,0.1993009559365033,-0.0043451940414468,0.1949559084833499,1.9135438998784804e-06
2025-03-08 14:57:02.465,84.39560439560441,0.1753201493681381,0.003517642695084,0.1788379372705523,1.9136418123801817e-06
2025-03-08 14:57:02.467,84.39560439560441,0.1551543732207838,0.0100301145778489,0.1651846316075214,1.913658871147666e-06
2025-03-08 14:57:02.469,84.39560439560441,0.140128940427654,0.0149459821532056,0.1550750649859245,1.913596350651904e-06
2025-03-08 14:57:02.471,84.39560439560441,0.1296853643247701,0.01814292873245,0.1478284340636581,1.9134543310124446e-06
2025-03-08 14:57:02.473,84.39560439560441,0.1214498151648527,0.0196668589213506,0.1411168137020513,1.9132313905881275e-06
2025-03-08 14:57:02.475,84.39560439560441,0.1122716753343848,0.0197991998023686,0.1320710133630444,1.912925220610663e-06
2025-03-08 14:57:02.477,84.39560439560441,0.0997843382553243,0.01909326057482,0.1188777356545152,1.9125339752327617e-06
2025-03-08 14:57:02.479,84.39560439560441,0.0835499244507256,0.0183014355895685,0.1018514954379186,1.9120576434661384e-06
2025-03-08 14:57:02.481,84.39560439560441,0.0650425524765974,0.0181512957077119,0.0831939821260543,1.9114985884997145e-06
2025-03-08 14:57:02.483,84.39560439560441,0.0465026460871661,0.0190538148281888,0.0655565933789491,1.9108607823179203e-06
2025-03-08 14:57:02.485,84.39560439560441,0.0294719478923363,0.0209315450924148,0.0504036239628259,1.910147990608944e-06
2025-03-08 14:57:02.487,84.39560439560441,0.0139971688907172,0.0232994000434722,0.0372966984345012,1.909361825335542e-06
2025-03-08 14:57:02.489,84.39560439560441,-0.0010601788971645,0.0255452435967149,0.0244851927368362,1.908500772213958e-06
2025-03-08 14:57:02.491,84.39560439560441,-0.0169858048122973,0.0272205181927843,0.0102348399640536,1.90756085786208e-06
2025-03-08 14:57:02.493,84.39560439560441,-0.0342495340129389,0.0281809010862478,-0.0060685078029739,1.9065377487430931e-06
2025-03-08 14:57:02.495,84.39560439560441,-0.0521868006485271,0.0285485247554782,-0.0236381522526986,1.905429242009449e-06
2025-03-08 14:57:02.497,84.39560439560441,-0.0693180595476888,0.0285603006577942,-0.0407576367662543,1.9042367992157792e-06
2025-03-08 14:57:02.499,84.39560439560441,-0.0839139069609404,0.0283869010011948,-0.0555268853826295,1.902965202652121e-06
2025-03-08 14:57:02.500,84.39560439560441,-0.0944486678907459,0.0280158069911656,-0.0664327418831875,1.9016203887761397e-06
2025-03-08 14:57:02.502,84.39560439560441,-0.0998448283853115,0.027286336953004,-0.072558373971059,1.9002065211896425e-06
2025-03-08 14:57:02.504,84.39560439560441,-0.0996015616410501,0.0260735406231659,-0.0735279050927695,1.898723846482188e-06
2025-03-08 14:57:02.506,84.39560439560441,-0.0939225427318878,0.0244745414600814,-0.0694478868641991,1.89716853481176e-06
2025-03-08 14:57:02.508,84.39560439560441,-0.0838727850498356,0.0228133031466522,-0.0610593690089118,1.895534690449239e-06
2025-03-08 14:57:02.510,84.39560439560441,-0.0714722988170737,0.0214268747997728,-0.0500453126533752,1.8938175525458957e-06
2025-03-08 14:57:02.512,84.39560439560441,-0.0595322990613316,0.0204032241413301,-0.0391289651201266,1.8920162235112737e-06
2025-03-08 14:57:02.514,84.39560439560441,-0.0510597547179762,0.0195036739896577,-0.0315559725292613,1.8901344520006136e-06
2025-03-08 14:57:02.516,84.39560439560441,-0.0482866220094782,0.018353260554587,-0.0299332548807595,1.8881789875002503e-06
2025-03-08 14:57:02.518,84.39560439560441,-0.0517210669713195,0.0167574798434445,-0.0349634821806851,1.8861563046106893e-06
2025-03-08 14:57:02.520,84.39560439560441,-0.0597757616282256,0.0149018212049771,-0.0448738370849951,1.884069386010377e-06
2025-03-08 14:57:02.522,84.39560439560441,-0.0692909013683581,0.0132831279475089,-0.0560076716662427,1.8819162652127043e-06
2025-03-08 14:57:02.524,84.39560439560441,-0.0767579531967597,0.0124215673224156,-0.0643362856876555,1.8796911363455416e-06
2025-03-08 14:57:02.526,84.39560439560441,-0.0796440614112117,0.0125547899862037,-0.067089172812124,1.8773874967119384e-06
2025-03-08 14:57:02.528,84.39560439560441,-0.0772209176655585,0.0135148880099672,-0.0637059326447736,1.8750017055321283e-06
2025-03-08 14:57:02.530,84.39560439560441,-0.0706627415608869,0.0148460481884432,-0.0558165980031964,1.8725350987891456e-06
2025-03-08 14:57:02.532,84.39560439560441,-0.0625468031988585,0.0160490139879949,-0.0464976955166397,1.8699935360928828e-06
2025-03-08 14:57:02.534,84.39560439560441,-0.0560065233877871,0.0167680045956964,-0.0392384267859296,1.8673845922278336e-06
2025-03-08 14:57:02.536,84.39560439560441,-0.0537499765855055,0.0168225322754475,-0.0369273539808052,1.8647138424479588e-06
2025-03-08 14:57:02.538,84.39560439560441,-0.0572082584525231,0.0161495869333863,-0.041058582840362,1.8619821733823955e-06
2025-03-08 14:57:02.540,84.39560439560441,-0.0661816227930706,0.0147963768049114,-0.0513851589351692,1.8591855223689548e-06
2025-03-08 14:57:02.542,84.39560439560441,-0.0792024936532945,0.0130093768534383,-0.0661930313658669,1.856317182513453e-06
2025-03-08 14:57:02.543,84.39560439560441,-0.0943737737680743,0.0113026476804671,-0.0830710422905261,1.8533714729981e-06
2025-03-08 14:57:02.545,84.39560439560441,-0.110081475633993,0.0103439495308882,-0.0997374439793011,1.8503468660179453e-06
2025-03-08 14:57:02.547,84.39560439560441,-0.1251232839002839,0.0106422262619685,-0.1144809772266295,1.8472469523966328e-06
2025-03-08 14:57:02.549,84.39560439560441,-0.1383270948380663,0.0122181897475374,-0.1261088264149425,1.8440787606579105e-06
2025-03-08 14:57:02.551,84.39560439560441,-0.1481778037343676,0.0144947699840185,-0.1336829568104529,1.8408493216910864e-06
2025-03-08 14:57:02.553,84.39560439560441,-0.1529603879090629,0.0165123479679683,-0.136447964715367,1.83756227220319e-06
2025-03-08 14:57:02.555,84.39560439560441,-0.1514871045688261,0.0173728381108399,-0.1341141929181175,1.8342162498401344e-06
2025-03-08 14:57:02.557,84.39560439560441,-0.1439696734546891,0.0166796667412798,-0.1272899348420791,1.830805882997217e-06
2025-03-08 14:57:02.559,84.39560439560441,-0.1324165335615337,0.0147336036844136,-0.1176828596798443,1.8273248251298212e-06
2025-03-08 14:57:02.561,84.39560439560441,-0.1201869242537869,0.0123725829513367,-0.1078142728073038,1.8237692363733967e-06
2025-03-08 14:57:02.563,84.39560439560441,-0.1108093461568825,0.0105438738195972,-0.1002654055827508,1.8201399133434284e-06
2025-03-08 14:57:02.565,84.39560439560441,-0.1065796035354773,0.0098443459831099,-0.0967351925698258,1.816442000485707e-06
2025-03-08 14:57:02.567,84.39560439560441,-0.1076102018567862,0.0102633017703334,-0.0973468368865894,1.812682484837043e-06
2025-03-08 14:57:02.569,84.39560439560441,-0.1118380968032837,0.0112304767460731,-0.1006075586274354,1.8088668120034149e-06
2025-03-08 14:57:02.571,82.35924932975871,-0.1160348745851241,0.0119091872731424,-0.1041256276260637,1.8049963799476727e-06
2025-03-08 14:57:02.573,82.35924932975871,-0.1173137865669306,0.0115719453696748,-0.1057417832319071,1.8010681700228777e-06
2025-03-08 14:57:02.575,82.35924932975871,-0.1143533302984646,0.009886986090124,-0.1044662879579068,1.797076642434566e-06
2025-03-08 14:57:02.577,82.35924932975871,-0.1077559096359321,0.0070091987973381,-0.1007466563201516,1.7930168581758142e-06
2025-03-08 14:57:02.579,82.35924932975871,-0.0994760648930855,0.0034639669226534,-0.0960120452168011,1.7888871934359735e-06
2025-03-08 14:57:02.581,82.35924932975871,-0.0917491858651368,-9.82316534315561e-05,-0.0918473665631745,1.784690274913672e-06
2025-03-08 14:57:02.583,82.35924932975871,-0.086154207036717,-0.0031428891614123,-0.089297047059875,1.7804317219616618e-06
2025-03-08 14:57:02.584,82.35924932975871,-0.0832533857663826,-0.005368638472719,-0.0886219769152218,1.776117417411447e-06
2025-03-08 14:57:02.586,82.35924932975871,-0.0827987508297956,-0.0066774687007271,-0.0894761740009949,1.7717507528491658e-06
2025-03-08 14:57:02.588,82.35924932975871,-0.0840986032251123,-0.0070884523811919,-0.0911870118471826,1.7673312497436932e-06
2025-03-08 14:57:02.590,82.35924932975871,-0.0861116811722173,-0.0067066811782798,-0.0928183203488843,1.7628551982546416e-06
2025-03-08 14:57:02.592,82.35924932975871,-0.0872206757437007,-0.0057667143481386,-0.0929873498545262,1.7583178998565252e-06
2025-03-08 14:57:02.594,82.35924932975871,-0.0851019987855106,-0.004673848203066,-0.0897758085399595,1.753716302160126e-06
2025-03-08 14:57:02.596,82.35924932975871,-0.0772148821656632,-0.0039622109881748,-0.0811770565245439,1.7490506719710028e-06
2025-03-08 14:57:02.598,82.35924932975871,-0.0620267666906028,-0.0041464774933136,-0.0661732093964742,1.7443245081834476e-06
2025-03-08 14:57:02.600,82.35924932975871,-0.0404414600858604,-0.00550430069638,-0.0459457278415272,1.7395428311988512e-06
2025-03-08 14:57:02.602,82.35924932975871,-0.0164830175563757,-0.0078832192207737,-0.0243662056705518,1.734709802390511e-06
2025-03-08 14:57:02.604,82.35924932975871,0.0035179442928955,-0.0106578153648052,-0.0071398417787805,1.7298269141081866e-06
2025-03-08 14:57:02.606,82.35924932975871,0.0131873919111093,-0.0129144736854743,0.0002729457206257,1.7248926300950648e-06
2025-03-08 14:57:02.608,82.35924932975871,0.0088160085235489,-0.0138140975926802,-0.0049980633721852,1.719903568991625e-06
2025-03-08 14:57:02.610,82.35924932975871,-0.0089279734534221,-0.0129601134049849,-0.0218880629759042,1.71485653687373e-06
2025-03-08 14:57:02.612,82.35924932975871,-0.0352491599550177,-0.0105716195323819,-0.0458207574444631,1.7097503299258577e-06
2025-03-08 14:57:02.614,82.35924932975871,-0.0633004766068868,-0.0073709763267118,-0.0706714327518516,1.704586416274336e-06
2025-03-08 14:57:02.616,82.35924932975871,-0.0869483227380797,-0.0042811976144612,-0.0912295020402726,1.699368233476906e-06
2025-03-08 14:57:02.618,82.35924932975871,-0.1028159907053718,-0.0021312490177858,-0.1049472232731926,1.6940995556532775e-06
2025-03-08 14:57:02.620,82.35924932975871,-0.1107260832847883,-0.0014914917478678,-0.1122175604288191,1.688782819733524e-06
2025-03-08 14:57:02.622,82.35924932975871,-0.1126249354509226,-0.002614652974865,-0.1152395756540624,1.6834182522396688e-06
2025-03-08 14:57:02.624,82.35924932975871,-0.1108879819568557,-0.0054059057407723,-0.116293876755617,1.6780041672775852e-06
2025-03-08 14:57:02.625,82.35924932975871,-0.1070928699985793,-0.009403756153691,-0.1164966170516987,1.6725381859800576e-06
2025-03-08 14:57:02.627,82.35924932975871,-0.1018285640248591,-0.013822378416788,-0.1156509352027174,1.6670186859225243e-06
2025-03-08 14:57:02.629,82.35924932975871,-0.0953085987574349,-0.0177158580219731,-0.1130244514204549,1.6614457361718052e-06
2025-03-08 14:57:02.631,82.35924932975871,-0.0880723339676478,-0.0202632341844808,-0.1083355646806209,1.6558211025139262e-06
2025-03-08 14:57:02.633,82.35924932975871,-0.0811702889049663,-0.0210691294658057,-0.1022394167808188,1.650147415412459e-06
2025-03-08 14:57:02.635,82.35924932975871,-0.0757439689096399,-0.0203113537419122,-0.0960553229292454,1.644427003933636e-06
2025-03-08 14:57:02.637,82.35924932975871,-0.07239860452071,-0.0186318579550936,-0.091030464609172,1.6386610119495142e-06
2025-03-08 14:57:02.639,82.35924932975871,-0.0708994656463452,-0.016832653713952,-0.0877321233479892,1.632849201311622e-06
2025-03-08 14:57:02.641,82.35924932975871,-0.0704524035989935,-0.0155554790572242,-0.086007888509781,1.626990453868053e-06
2025-03-08 14:57:02.643,82.35924932975871,-0.0703692826747887,-0.0150960857884901,-0.0854653762016522,1.62108363220522e-06
2025-03-08 14:57:02.645,82.35924932975871,-0.0705879170706957,-0.0153934527485745,-0.0859813794586781,1.6151283240044698e-06
2025-03-08 14:57:02.647,82.35924932975871,-0.0715831594601159,-0.016150874852573,-0.0877340458579023,1.6091251197638837e-06
2025-03-08 14:57:02.649,82.35924932975871,-0.0737074439704684,-0.0170134980772812,-0.0907209554899897,1.6030753603193468e-06
2025-03-08 14:57:02.651,82.35924932975871,-0.0765718757639311,-0.0177178650183649,-0.0942897561052584,1.5969805682358169e-06
2025-03-08 14:57:02.653,82.35924932975871,-0.0791509175158084,-0.0181464990982274,-0.097297433804726,1.5908419015042372e-06
2025-03-08 14:57:02.655,82.35924932975871,-0.0806800033085078,-0.0182800572371116,-0.0989600796037085,1.5846598958479924e-06
2025-03-08 14:57:02.657,82.35924932975871,-0.0816292922899654,-0.018113862574883,-0.0997431758048642,1.578434562197539e-06
2025-03-08 14:57:02.659,82.35924932975871,-0.0838170349427605,-0.0176301510834925,-0.1014472088709126,1.5721657074311376e-06
2025-03-08 14:57:02.661,82.35924932975871,-0.0893108233849834,-0.016856643529282,-0.1061674916824167,1.565853258489505e-06
2025-03-08 14:57:02.663,82.35924932975871,-0.098718425636557,-0.0159472295482306,-0.1146656818807958,1.5594974225656683e-06
2025-03-08 14:57:02.665,82.35924932975871,-0.1100866876832488,-0.0151906102925769,-0.1252773265867758,1.553098653231977e-06
2025-03-08 14:57:02.667,82.35924932975871,-0.119405255618829,-0.0149194710526373,-0.1343247571743299,1.5466575162219715e-06
2025-03-08 14:57:02.668,82.35924932975871,-0.1226714956425728,-0.0153783891339609,-0.1380499171517583,1.540174584070682e-06
2025-03-08 14:57:02.670,82.35924932975871,-0.1182939186997104,-0.0166250625015374,-0.1349190154452781,1.533650427658246e-06
2025-03-08 14:57:02.672,82.35924932975871,-0.1082551060753535,-0.0184938720660276,-0.1267490142707743,1.527085671457778e-06
2025-03-08 14:57:02.674,82.35924932975871,-0.097270164128611,-0.020615449840594,-0.1178856520133951,1.5204810165446757e-06
2025-03-08 14:57:02.676,82.35924932975871,-0.0904903084004459,-0.0224923535521662,-0.1129827019387162,1.5138371577195738e-06
2025-03-08 14:57:02.678,82.35924932975871,-0.091117670488259,-0.0236389565613892,-0.1147566689874778,1.5071546123476368e-06
2025-03-08 14:57:02.680,82.35924932975871,-0.0991852995986244,-0.023759694261524,-0.1229450377359799,1.500433571652542e-06
2025-03-08 14:57:02.682,82.35924932975871,-0.1119647058434519,-0.0228855404173902,-0.1348502920440523,1.4936739076264049e-06
2025-03-08 14:57:02.684,82.35924932975871,-0.1255442870105831,-0.021379929487912,-0.1469242641581412,1.48687539232904e-06
2025-03-08 14:57:02.686,82.35924932975871,-0.1365923556379105,-0.0197938602485403,-0.1563862654090906,1.4800380501282003e-06
2025-03-08 14:57:02.688,82.35924932975871,-0.1434186409501,-0.0186508877817435,-0.1620695801306824,1.473162452849858e-06
2025-03-08 14:57:02.690,82.35924932975871,-0.1460244459257058,-0.0182854964867918,-0.1643099957222191,1.466249762128871e-06
2025-03-08 14:57:02.692,82.35924932975871,-0.145453662772417,-0.0187973707307994,-0.1642510887625276,1.4593014428036018e-06
2025-03-08 14:57:02.694,82.35924932975871,-0.143025086467076,-0.0200851652605277,-0.1631103089584722,1.4523187581988748e-06
2025-03-08 14:57:02.696,82.35924932975871,-0.1398555145937505,-0.0218932143433804,-0.1617487881320168,1.44530230531792e-06
2025-03-08 14:57:02.698,82.35924932975871,-0.1367205660297041,-0.0238597425119834,-0.1605803696662557,1.4382518604617936e-06
2025-03-08 14:57:02.700,82.35924932975871,-0.1340681984192952,-0.0256080907315251,-0.159676352161472,1.431166660466899e-06
2025-03-08 14:57:02.702,82.35924932975871,-0.1320234537368751,-0.0268914915702121,-0.1589150101744732,1.424046010482564e-06
2025-03-08 14:57:02.704,82.35924932975871,-0.1303820758302789,-0.0277139194897527,-0.158096062045971,1.416889913661727e-06
2025-03-08 14:57:02.706,82.35924932975871,-0.128690118850192,-0.0283188532611111,-0.157009040729522,1.4096993773758444e-06
2025-03-08 14:57:02.708,82.35924932975871,-0.1264634724689372,-0.0290259059635293,-0.1554894489919508,1.402476200671464e-06
2025-03-08 14:57:02.709,82.35924932975871,-0.1234775999365521,-0.0300241143358396,-0.1535017868115918,1.395222318479089e-06
2025-03-08 14:57:02.711,82.35924932975871,-0.1199668526655692,-0.031269017476598,-0.1512359446676628,1.3879390264264427e-06
2025-03-08 14:57:02.713,82.35924932975871,-0.1165856594921232,-0.0325406986766774,-0.1491264346502285,1.380626496497778e-06
2025-03-08 14:57:02.715,82.35924932975871,-0.114102524289918,-0.0335912772052522,-0.1476938798798948,1.3732838608018371e-06
2025-03-08 14:57:02.717,82.35924932975871,-0.112966179179828,-0.0342603372459981,-0.1472265966662512,1.3659098492765782e-06
2025-03-08 14:57:02.719,82.35924932975871,-0.1129981276476301,-0.0345006799949899,-0.1474988897218836,1.3585036684906715e-06
2025-03-08 14:57:02.721,82.35924932975871,-0.1134221629270683,-0.0343634397592123,-0.1477856866283632,1.3510656650324491e-06
2025-03-08 14:57:02.723,82.35924932975871,-0.1132355538970801,-0.0340211924170703,-0.1472568321723155,1.343597412899773e-06
2025-03-08 14:57:02.725,82.35924932975871,-0.111703314302623,-0.0338133933229898,-0.1455167954545808,1.3361011574610835e-06
2025-03-08 14:57:02.727,82.35924932975871,-0.1086975451652482,-0.0341942633496576,-0.142891898341157,1.3285788882436365e-06
2025-03-08 14:57:02.729,82.35924932975871,-0.1047381364162135,-0.035509237179586,-0.1402474654019324,1.3210315182757265e-06
2025-03-08 14:57:02.731,82.35924932975871,-0.1007585509301155,-0.0377099125232587,-0.1384685571854348,1.3134586049280866e-06
2025-03-08 14:57:02.733,82.35924932975871,-0.0976774317865051,-0.0402445704976939,-0.1379220978788311,1.30585877213911e-06
2025-03-08 14:57:02.735,82.35924932975871,-0.0958730885214731,-0.0422768462339368,-0.1381500321729044,1.298230627496582e-06
2025-03-08 14:57:02.737,82.35924932975871,-0.0947814481241282,-0.0431407210020747,-0.1379222683718974,1.2905737029676e-06
2025-03-08 14:57:02.739,82.35924932975871,-0.0929890839574205,-0.0427402760349434,-0.1357294611145481,1.2828889275784807e-06
2025-03-08 14:57:02.741,82.35924932975871,-0.0890696253454849,-0.0416175272597417,-0.1306872556699578,1.2751783787353455e-06
2025-03-08 14:57:02.743,82.35924932975871,-0.0828830029843709,-0.0406342578676367,-0.1235173659076362,1.2674444335985612e-06
2025-03-08 14:57:02.745,82.35924932975871,-0.0764676377037545,-0.0404754481847468,-0.1169431929385881,1.259688756871259e-06
2025-03-08 14:57:02.747,82.35924932975871,-0.0736215198355499,-0.0412918058833082,-0.1149134347181859,1.2519116501804053e-06
2025-03-08 14:57:02.749,82.35924932975871,-0.0780586118070702,-0.0426876278380223,-0.120746350521514,1.2441121026120698e-06
2025-03-08 14:57:02.751,82.35924932975871,-0.0911385671915479,-0.0440220114908179,-0.1351606913734964,1.2362885179428763e-06
2025-03-08 14:57:02.752,82.35924932975871,-0.1106638880064741,-0.0448004914607515,-0.1554644939528028,1.2284397420273188e-06
2025-03-08 14:57:02.754,82.35924932975871,-0.1316315692239434,-0.0449142226279555,-0.1765459081644806,1.2205658580899717e-06
2025-03-08 14:57:02.756,82.35924932975871,-0.1485561466684345,-0.0446233444608915,-0.1931796093371414,1.2126683395990747e-06
2025-03-08 14:57:02.758,82.35924932975871,-0.1579949120048343,-0.0443500546180911,-0.2023450867933614,1.2047494854550449e-06
2025-03-08 14:57:02.760,82.35924932975871,-0.1598578631338401,-0.044426104460028,-0.2042840897565449,1.1968114345604246e-06
2025-03-08 14:57:02.762,82.35924932975871,-0.1569143066205106,-0.0449253282358361,-0.2018397589853429,1.1888552721254466e-06
2025-03-08 14:57:02.764,82.35924932975871,-0.1529959739129645,-0.0456564859514839,-0.1986525858894724,1.1808806875422651e-06
2025-03-08 14:57:02.766,82.35924932975871,-0.1510418548274818,-0.0463118792737177,-0.1973538619423654,1.1728863534026286e-06
2025-03-08 14:57:02.768,82.35924932975871,-0.1520098510343799,-0.0466776280786295,-0.1986876087212897,1.164870820873599e-06
2025-03-08 14:57:02.770,82.35924932975871,-0.1550060268293467,-0.0467687974292719,-0.2017749556407221,1.1568334635712378e-06
2025-03-08 14:57:02.772,82.35924932975871,-0.1582600772458742,-0.0468023168106163,-0.2050625272707672,1.1487749848749291e-06
2025-03-08 14:57:02.774,82.35924932975871,-0.1602224961712869,-0.0470367098862128,-0.2072593411825357,1.1406972369328887e-06
2025-03-08 14:57:02.776,82.35924932975871,-0.1601886917039446,-0.0476020467674007,-0.2077908755633248,1.1326024580804726e-06
2025-03-08 14:57:02.778,82.35924932975871,-0.1582923729715011,-0.0484358826056857,-0.2067283946382653,1.1244923314308215e-06
2025-03-08 14:57:02.780,82.35924932975871,-0.1551289014662468,-0.0493423471716067,-0.204471389612337,1.116367349692725e-06
2025-03-08 14:57:02.782,82.35924932975871,-0.1513957852838626,-0.0501020008712702,-0.2014979289558898,1.1082268023971255e-06
2025-03-08 14:57:02.784,82.35924932975871,-0.1477439361673113,-0.0505526543192227,-0.198296735038223,1.100069374914906e-06
2025-03-08 14:57:02.786,82.35924932975871,-0.1447529279309067,-0.0506127709900391,-0.1953658451976246,1.0918940362426974e-06
2025-03-08 14:57:02.788,82.35924932975871,-0.1428407710998668,-0.0502722481078132,-0.1931131672450086,1.0837007546290957e-06
2025-03-08 14:57:02.790,82.35924932975871,-0.1420452324650343,-0.0495961521237721,-0.191641534464116,1.0754906823560086e-06
2025-03-08 14:57:02.792,82.35924932975871,-0.1418137336346885,-0.048756274316387,-0.1905701597413217,1.067265733552906e-06
2025-03-08 14:57:02.793,82.35924932975871,-0.1410282264870936,-0.0480406911428803,-0.189069071369298,1.0590277911181986e-06
2025-03-08 14:57:02.795,82.35924932975871,-0.138392269359113,-0.0477667783243959,-0.1861592033425926,1.0507779595536317e-06
2025-03-08 14:57:02.797,82.35924932975871,-0.1330769854128753,-0.0480936489464546,-0.1811707918575786,1.042516241669677e-06
2025-03-08 14:57:02.799,82.35924932975871,-0.1253068620734579,-0.0488455262478137,-0.1741525475658163,1.0342417866025866e-06
2025-03-08 14:57:02.801,82.35924932975871,-0.1165138604970894,-0.0494987202900794,-0.1660127417186014,1.025953559891555e-06
2025-03-08 14:57:02.803,82.35924932975871,-0.1088606363994587,-0.049392899399512,-0.1582536984200167,1.0176510781411117e-06
2025-03-08 14:57:02.805,82.35924932975871,-0.1042595577552037,-0.0480702042038115,-0.1523299263310381,1.0093348338064788e-06
2025-03-08 14:57:02.807,82.35924932975871,-0.1033281269475877,-0.0455485459388612,-0.1488768390953385,1.0010062100029402e-06
2025-03-08 14:57:02.809,82.35924932975871,-0.1048544374185023,-0.0423735938502988,-0.1472281993777798,9.92666953016876e-07
2025-03-08 14:57:02.811,82.35924932975871,-0.106192450538434,-0.0394379646812338,-0.1456305852334897,9.843184903848458e-07
2025-03-08 14:57:02.813,82.35924932975871,-0.1045724122536206,-0.0376818089789384,-0.1422543930917965,9.759614453605922e-07
2025-03-08 14:57:02.815,82.35924932975871,-0.0987641324841374,-0.0377928869031243,-0.1365571929958114,9.675955804904305e-07
2025-03-08 14:57:02.817,82.35924932975871,-0.0901693724138114,-0.0399557912920665,-0.1301253389775469,9.59220173588628e-07
2025-03-08 14:57:02.819,82.35924932975871,-0.0825346798383319,-0.0436894411828576,-0.1262242979212438,9.508346113657986e-07
2025-03-08 14:57:02.821,82.35924932975871,-0.0801621647333893,-0.0478661155531746,-0.1280284588466701,9.42438889433822e-07
2025-03-08 14:57:02.823,82.35924932975871,-0.0854720143070677,-0.0509970109754865,-0.1364692055813222,9.34033774215939e-07
2025-03-08 14:57:02.825,82.35924932975871,-0.0973798724520716,-0.0517370203851568,-0.1491170749564061,9.256205683830236e-07
2025-03-08 14:57:02.827,82.35924932975871,-0.1115962739276236,-0.049407844039078,-0.1610043019457,9.172006246247644e-07
2025-03-08 14:57:02.829,82.35924932975871,-0.1227364258841316,-0.0442999016700181,-0.1670365133664158,9.087748686566292e-07
2025-03-08 14:57:02.831,82.35924932975871,-0.1269341434474648,-0.0376104423244293,-0.1645447733352904,9.003435686711943e-07
2025-03-08 14:57:02.833,82.35924932975871,-0.1234054070362514,-0.0310350058814699,-0.1544406021334397,8.919064470700252e-07
2025-03-08 14:57:02.834,82.35924932975871,-0.1142296528909919,-0.0261777874300541,-0.1404076311208599,8.834630515629675e-07
2025-03-08 14:57:02.836,82.35924932975871,-0.1027985304732256,-0.0240250784806881,-0.1268238013313779,8.750131799525363e-07
2025-03-08 14:57:02.838,82.35924932975871,-0.0920633406198434,-0.0246920705562745,-0.1167556051857646,8.665571438083683e-07
2025-03-08 14:57:02.840,82.35924932975871,-0.0835496186347385,-0.0275167460868131,-0.1110665604467529,8.580957558859634e-07
2025-03-08 14:57:02.842,82.35924932975871,-0.077399836410502,-0.0314085222284974,-0.108808556145287,8.496300745575774e-07
2025-03-08 14:57:02.844,82.35924932975871,-0.0730532350341179,-0.0352584582219924,-0.108311892554052,8.411610560044896e-07
2025-03-08 14:57:02.846,82.35924932975871,-0.0699854113471555,-0.0382342077545115,-0.1082198201382106,8.326892948918089e-07
2025-03-08 14:57:02.848,82.35924932975871,-0.0681576295512706,-0.0398868168553663,-0.1080446490889855,8.242149704387718e-07
2025-03-08 14:57:02.850,82.35924932975871,-0.0681185902127888,-0.0401093884475689,-0.1082281828997148,8.157379995958372e-07
2025-03-08 14:57:02.852,82.35924932975871,-0.0708157830507938,-0.0390489442071216,-0.1098649330104658,8.072582965215651e-07
2025-03-08 14:57:02.854,82.35924932975871,-0.0771656145357518,-0.0370608001512411,-0.1142266219712763,7.987759980601125e-07
2025-03-08 14:57:02.856,82.35924932975871,-0.0874868047599685,-0.0347131383561584,-0.122200151998376,7.902915506012473e-07
2025-03-08 14:57:02.858,82.35924932975871,-0.101050789708567,-0.0327470952871483,-0.1337980955512125,7.818056366779833e-07
2025-03-08 14:57:02.860,82.35924932975871,-0.11606741407556,-0.0318845346200133,-0.1479521609661191,7.733190014176572e-07
2025-03-08 14:57:02.862,82.35924932975871,-0.1302450331595063,-0.0325138794113905,-0.1627591265400302,7.648322782322622e-07
2025-03-08 14:57:02.864,82.35924932975871,-0.141706208433069,-0.0344510730715272,-0.1761574971027201,7.563458963531648e-07
2025-03-08 14:57:02.866,82.35924932975871,-0.1497454525747597,-0.0369701382353864,-0.1867158079462792,7.478600974873435e-07
2025-03-08 14:57:02.868,82.35924932975871,-0.1549296062697326,-0.0391148626825586,-0.1940446875557762,7.393750300425664e-07
2025-03-08 14:57:02.870,82.35924932975871,-0.1584368818572254,-0.0401230317716373,-0.1985601336797589,7.308908583590329e-07
2025-03-08 14:57:02.872,82.35924932975871,-0.1610672227950726,-0.0397551934133657,-0.2008226377415963,7.224078323085387e-07
2025-03-08 14:57:02.874,82.35924932975871,-0.1626078194527116,-0.0383979424508474,-0.2010059849850422,7.139262973057742e-07
2025-03-08 14:57:02.876,82.35924932975871,-0.1619966723963004,-0.0369183945535976,-0.1989152916383544,7.054466612345999e-07
2025-03-08 14:57:02.877,82.35924932975871,-0.1581945518960957,-0.0363321630961423,-0.1945269413050149,6.96969351713213e-07
2025-03-08 14:57:02.879,82.35924932975871,-0.1512160161791997,-0.0374041204606996,-0.1886203645407075,6.88494788976708e-07
2025-03-08 14:57:02.881,82.35924932975871,-0.1426434227817734,-0.0403227573112883,-0.1829664095066833,6.800233776253078e-07
2025-03-08 14:57:02.883,82.35924932975871,-0.1352279288226411,-0.0445660615424719,-0.1797942212109586,6.715555030066505e-07
2025-03-08 14:57:02.885,82.35924932975871,-0.1317162369537798,-0.0490203351094723,-0.1807368042904528,6.630915177599792e-07
2025-03-08 14:57:02.887,82.35924932975871,-0.1335037732305863,-0.0523424833741954,-0.1858464902113333,6.546317196768494e-07
2025-03-08 14:57:02.889,82.35924932975871,-0.13982489585008,-0.0534733014345288,-0.1932984323116193,6.461763396573766e-07
2025-03-08 14:57:02.891,82.35924932975871,-0.1479087973036174,-0.0521178673296,-0.200026901137959,6.377255621230756e-07
2025-03-08 14:57:02.893,82.35924932975871,-0.154041132069586,-0.0489608458211726,-0.2030022159125719,6.292795835772972e-07
2025-03-08 14:57:02.895,82.35924932975871,-0.1550457448781808,-0.0454587356740429,-0.2005047200883339,6.208386870935516e-07
2025-03-08 14:57:02.897,82.35924932975871,-0.1495396192474725,-0.0432475699010009,-0.1927874301512713,6.124032904387062e-07
2025-03-08 14:57:02.899,82.35924932975871,-0.1384512300535602,-0.0434067124241383,-0.1818581848740534,6.039739298682043e-07
2025-03-08 14:57:02.901,82.35924932975871,-0.1246152159434339,-0.0459126744256136,-0.1705281340913954,5.955511726115554e-07
2025-03-08 14:57:02.903,82.35924932975871,-0.1116203208905463,-0.0495728500652382,-0.1611934159693513,5.871354933939421e-07
2025-03-08 14:57:02.905,82.35924932975871,-0.1023916064487737,-0.0525475438177212,-0.1549393965794925,5.787271789885458e-07
2025-03-08 14:57:02.907,82.35924932975871,-0.0981381911677723,-0.0532674137732302,-0.1514058525934288,5.70326319661337e-07
2025-03-08 14:57:02.909,82.35924932975871,-0.0981682835258002,-0.0512763743632512,-0.1494449069262989,5.619329053662322e-07
2025-03-08 14:57:02.911,82.35924932975871,-0.1006281054950475,-0.04751366761268,-0.1481420235523514,5.53546987188502e-07
2025-03-08 14:57:02.913,82.35924932975871,-0.1036919123519211,-0.0438603390573293,-0.1475525032446589,5.451688226579644e-07
2025-03-08 14:57:02.915,82.35924932975871,-0.1064960044770286,-0.0421929112860273,-0.1486891689366344,5.367989233793932e-07
2025-03-08 14:57:02.917,82.35924932975871,-0.1093251978001997,-0.0434340292777357,-0.1527594815214735,5.284379693891451e-07
2025-03-08 14:57:02.918,82.35924932975871,-0.1130292837140322,-0.04707374486847,-0.1601032842395157,5.200866249515711e-07
2025-03-08 14:57:02.920,82.35924932975871,-0.1180637226530326,-0.0514105289769459,-0.1694745084765271,5.117453475721983e-07
2025-03-08 14:57:02.922,82.35924932975871,-0.123729138213532,-0.0544189800945332,-0.1781483763571911,5.034142927440008e-07
2025-03-08 14:57:02.924,82.35924932975871,-0.1280959608457443,-0.0548251390748303,-0.1829213592086398,4.950933720182112e-07
2025-03-08 14:57:02.926,82.35924932975871,-0.1288013085972114,-0.0528361068592588,-0.1816376760184261,4.86782442659524e-07
2025-03-08 14:57:02.928,82.35924932975871,-0.1244763483491014,-0.0501329706938592,-0.1746095808887453,4.784815350077596e-07
2025-03-08 14:57:02.930,82.35924932975871,-0.1161188848958682,-0.0491201960140394,-0.1652393440133613,4.701909984887288e-07
2025-03-08 14:57:02.932,82.35924932975871,-0.1075107438802998,-0.0518118572680527,-0.1593228654537917,4.619114849395544e-07
2025-03-08 14:57:02.934,82.35924932975871,-0.1040918401570109,-0.0589069078764864,-0.1629990134764761,4.536437709797727e-07
2025-03-08 14:57:02.936,82.35924932975871,-0.1105357470965512,-0.0694698142991517,-0.180005827927673,4.453885067171102e-07
2025-03-08 14:57:02.938,82.35924932975871,-0.1281218368587388,-0.0812752591068144,-0.2093973635703687,4.3714602029933597e-07
2025-03-08 14:57:02.940,82.35924932975871,-0.1532593440613813,-0.0915280052092978,-0.2447876179649702,4.289162826852649e-07
2025-03-08 14:57:02.942,82.35924932975871,-0.1780138876222165,-0.0975587933999562,-0.2755729508395353,4.2069905585757794e-07
2025-03-08 14:57:02.944,82.35924932975871,-0.1925293700244299,-0.0972523331276532,-0.2897819741189396,4.124941520322022e-07
2025-03-08 14:57:02.946,82.35924932975871,-0.1883340877390716,-0.0891916002144325,-0.2775259600685562,4.043016715110934e-07
2025-03-08 14:57:02.948,82.35924932975871,-0.1611260477003143,-0.0726113080020011,-0.2337376289297278,3.961220951695922e-07
2025-03-08 14:57:02.950,82.35924932975871,-0.1119494322755613,-0.0472338452481689,-0.15918355180341,3.879561810733663e-07
2025-03-08 14:57:02.952,82.35924932975871,-0.0464805093742456,-0.0130219217988537,-0.0595027064429642,3.798047157475325e-07
2025-03-08 14:57:02.954,82.35924932975871,0.0270615695456207,0.0300817907026598,0.057143084029147,3.71668246653462e-07
2025-03-08 14:57:02.956,82.35924932975871,0.1004657663324379,0.0822306086098859,0.1826960977812376,3.6354693355343787e-07
2025-03-08 14:57:02.958,82.35924932975871,0.1677244320817856,0.1432889712206987,0.3110131251777522,3.554405961949061e-07
2025-03-08 14:57:02.959,82.35924932975871,0.2264834078595201,0.2119136936517135,0.4383968223915268,3.473489348029799e-07
2025-03-08 14:57:02.961,82.35924932975871,0.2787143256524588,0.284532817158969,0.5632468626801866,3.39271810455547e-07
2025-03-08 14:57:02.963,82.35924932975871,0.3304657438755499,0.3550579138845723,0.6855233766325888,3.312094411433333e-07
2025-03-08 14:57:02.965,82.35924932975871,0.390158760098469,0.4159292319446561,0.8060877099672601,3.23162412712777e-07
2025-03-08 14:57:02.967,82.35924932975871,0.4649854789330943,0.4601781667901542,0.925163362763974,3.151314995800062e-07
2025-03-08 14:57:02.969,82.35924932975871,0.5559615585930016,0.483361729162642,1.039323003970441,3.071173883966073e-07
2025-03-08 14:57:02.971,82.35924932975871,0.6535626879211697,0.4843647087024048,1.137927112041992,2.991204476313384e-07
2025-03-08 14:57:02.973,82.35924932975871,0.7366444793531427,0.4651149139851916,1.2017591079560015,2.911406614726921e-07
2025-03-08 14:57:02.975,82.35924932975871,0.7766766449537089,0.4301154862202979,1.206791844964267,2.8317776056970065e-07
2025-03-08 14:57:02.977,82.35924932975871,0.7470209962806595,0.3863599906281796,1.1333806998459524,2.752314800178857e-07
2025-03-08 14:57:02.979,82.35924932975871,0.6340105476476481,0.3429241563682014,0.9769344160976984,2.6730181008265524e-07
2025-03-08 14:57:02.981,82.35924932975871,0.4448645728470407,0.3088685594035216,0.7537328435090638,2.593891108518476e-07
2025-03-08 14:57:02.983,82.35924932975871,0.2084099602085949,0.2893344258956096,0.4977440965980723,2.514940342672305e-07
2025-03-08 14:57:02.985,82.35924932975871,-0.0322507338058515,0.2820518189566089,0.2498007949444669,2.4361729710543945e-07
2025-03-08 14:57:02.987,82.35924932975871,-0.2324481138505363,0.2773387667613301,0.0448903620507514,2.357594241533531e-07
2025-03-08 14:57:02.989,82.35924932975871,-0.3592433373165097,0.2626391249875989,-0.096604503828619,2.279205935783131e-07
2025-03-08 14:57:02.991,82.35924932975871,-0.4005099814689287,0.2293032147866261,-0.1712070588372806,2.201006611952228e-07
2025-03-08 14:57:02.993,82.35924932975871,-0.3667304978953089,0.1775333696448406,-0.1891974210880239,2.1229934703264658e-07
2025-03-08 14:57:02.995,82.35924932975871,-0.2851838510957577,0.116536838777573,-0.1686473058534882,2.045164851937594e-07
2025-03-08 14:57:02.997,82.35924932975871,-0.1891033638508563,0.0599579019745826,-0.1291457560951025,1.9675220850793427e-07
2025-03-08 14:57:02.999,82.35924932975871,-0.1063540185012721,0.0194494754997322,-0.0869048378584733,1.890069765007317e-07
2025-03-08 14:57:03.001,82.35924932975871,-0.052160407456764,3.919668529685574e-05,-0.0521215062042416,1.8128143779729178e-07
2025-03-08 14:57:03.002,82.35924932975871,-0.0282003237226027,-0.0005678502577804,-0.0287684699327102,1.7357620247795429e-07
2025-03-08 14:57:03.004,82.35924932975871,-0.0270787569396873,0.0107864239039693,-0.0162926294765998,1.6589164288540654e-07
2025-03-08 14:57:03.006,82.35924932975871,-0.0387209012448778,0.0266100540896942,-0.0121111440847933,1.5822782245753765e-07
2025-03-08 14:57:03.008,82.35924932975871,-0.0550312849826225,0.0413867997246358,-0.0136447826973461,1.505845833280758e-07
2025-03-08 14:57:03.010,82.35924932975871,-0.071174820281299,0.0520421945545424,-0.0191329236969076,1.4296174177110996e-07
2025-03-08 14:57:03.012,82.35924932975871,-0.0844130324618048,0.0570210961490156,-0.0273922348144809,1.3535928818238594e-07
2025-03-08 14:57:03.014,82.35924932975871,-0.0927003521062703,0.0553421395087856,-0.0373585116018639,1.2777749057631478e-07
2025-03-08 14:57:03.016,82.35924932975871,-0.0945661379694648,0.0464311900856963,-0.0481352473385964,1.2021685391715194e-07
2025-03-08 14:57:03.018,82.35924932975871,-0.0900856866445801,0.0305774679426006,-0.0595085185497226,1.1267796253079953e-07
2025-03-08 14:57:03.020,82.35924932975871,-0.0815393173265341,0.0092725905661919,-0.0722670269584385,1.0516129034678912e-07
2025-03-08 14:57:03.022,82.35924932975871,-0.0726225314979938,-0.0151680407764318,-0.0877908728071934,9.766707557921774e-08
2025-03-08 14:57:03.024,82.35924932975871,-0.0664237416509415,-0.0405971860882256,-0.1070212286154884,9.019531902663205e-08
2025-03-08 14:57:03.026,82.35924932975871,-0.06354925452798,-0.065874472684171,-0.1294240284506344,8.274589999282207e-08
2025-03-08 14:57:03.028,82.35924932975871,-0.0617855859530638,-0.0908031149408779,-0.1525890025036913,7.531874533970542e-08
2025-03-08 14:57:03.030,82.35924932975871,-0.0576467831440359,-0.1151604325770115,-0.1728075176881379,6.79139644630743e-08
2025-03-08 14:57:03.032,82.35924932975871,-0.0488763700329559,-0.1376271504339231,-0.1865038227532792,6.053188531440236e-08
2025-03-08 14:57:03.034,82.35924932975871,-0.0362792081692521,-0.1555549447202069,-0.1918344554444075,5.3172979963252994e-08
2025-03-08 14:57:03.036,82.35924932975871,-0.0235859119068499,-0.1658789755808531,-0.1894651902650887,4.583772382814218e-08
2025-03-08 14:57:03.038,82.35924932975871,-0.0152870266546791,-0.1666579225385032,-0.1819452521656628,3.8526462567705925e-08
2025-03-08 14:57:03.040,82.35924932975871,-0.0137696454581181,-0.1583363322534764,-0.1721062808743304,3.1239351514097014e-08
2025-03-08 14:57:03.042,82.35924932975871,-0.0176246276315988,-0.1440415876117512,-0.1616665186059883,2.3976391704580377e-08
2025-03-08 14:57:03.043,82.35924932975871,-0.0222109028680491,-0.128769210938101,-0.1509804173778723,1.6737536758511594e-08
2025-03-08 14:57:03.045,82.35924932975871,-0.0220712647247815,-0.1177920684538536,-0.139863636954433,9.522811735078432e-09
2025-03-08 14:57:03.047,82.35924932975871,-0.0137214023171687,-0.1148756614497108,-0.1285973677221102,2.3323840617428303e-09
2025-03-08 14:57:03.049,82.35924932975871,0.0026862350492272,-0.1209342541166033,-0.1182483231628955,-4.8334443784922415e-09
2025-03-08 14:57:03.051,82.35924932975871,0.0235318793016671,-0.1336650361745094,-0.1101334610673201,-1.1974312947216597e-08
2025-03-08 14:57:03.053,82.35924932975871,0.043479589319335,-0.1484019555836218,-0.1049226705267415,-1.9089901963934812e-08
2025-03-08 14:57:03.055,82.35924932975871,0.0578904328801961,-0.1599433811579872,-0.102053252593735,-2.61800047988382e-08
2025-03-08 14:57:03.057,82.35924932975871,0.0647728552791457,-0.164624234342316,-0.0998516834315995,-3.3244539370634585e-08
2025-03-08 14:57:03.059,82.35924932975871,0.0654180524994001,-0.1617192017372718,-0.0963014536614205,-4.028349936054666e-08
2025-03-08 14:57:03.061,82.35924932975871,0.0634938216719382,-0.1535423586785891,-0.0900488414807342,-4.7296875221704064e-08
2025-03-08 14:57:03.063,82.35924932975871,0.0630826568217306,-0.1442304075057324,-0.0811480551908946,-5.428458667441489e-08
2025-03-08 14:57:03.065,82.35924932975871,0.0666493667796416,-0.1378212028880987,-0.0711721406191256,-6.124645784620616e-08
2025-03-08 14:57:03.067,82.35924932975871,0.0739734196195252,-0.1365338957246467,-0.0625607805871469,-6.818224135040924e-08
2025-03-08 14:57:03.069,82.35924932975871,0.0825934113464766,-0.1400074590259267,-0.057414352106107,-7.509167275398371e-08
2025-03-08 14:57:03.071,82.35924932975871,0.0894833249607156,-0.1457825149566164,-0.0562994943511538,-8.197452468262046e-08
2025-03-08 14:57:03.073,82.35924932975871,0.0929775047446494,-0.150738381082143,-0.0577611806143652,-8.883063468668984e-08
2025-03-08 14:57:03.075,82.35924932975871,0.0938199801153872,-0.152747405504205,-0.0589277295825891,-9.565989789928565e-08
2025-03-08 14:57:03.077,82.35924932975871,0.0947350239903954,-0.1516969342552445,-0.0569622143655019,-1.0246223395830333e-07
2025-03-08 14:57:03.079,82.35924932975871,0.0987952657118828,-0.1493683803602492,-0.0505734186368971,-1.0923754807450388e-07
2025-03-08 14:57:03.081,82.35924932975871,0.1075633545084732,-0.1483008885768831,-0.0407378379190974,-1.1598570474244029e-07
2025-03-08 14:57:03.083,82.35924932975871,0.1200730323942554,-0.1503177383959259,-0.0302450096886623,-1.2270652249449844e-07
2025-03-08 14:57:03.085,82.35924932975871,0.133183158809607,-0.1555229697028084,-0.0223401143971362,-1.2939978642399184e-07
2025-03-08 14:57:03.086,82.35924932975871,0.1430705915691304,-0.1622540789152066,-0.0191837906564848,-1.3606526844295333e-07
2025-03-08 14:57:03.088,82.35924932975871,0.1470754551701634,-0.1679522737298035,-0.0208771216715132,-1.4270274560437048e-07
2025-03-08 14:57:03.090,82.35924932975871,0.1450003344929431,-0.1704830243631537,-0.0254829927767867,-1.4931201182557532e-07
2025-03-08 14:57:03.092,82.35924932975871,0.1392718323672836,-0.1692685251269817,-0.0299969954459785,-1.558928834408935e-07
2025-03-08 14:57:03.094,82.35924932975871,0.1339347863489505,-0.1656957761196359,-0.0317612922119042,-1.624452008821247e-07
2025-03-08 14:57:03.096,82.35924932975871,0.1330101012501685,-0.162582837450154,-0.0295730383663527,-1.689688272180568e-07
2025-03-08 14:57:03.098,82.35924932975871,0.1390246564981805,-0.1629153962754808,-0.0238910416424925,-1.7546364183750609e-07
2025-03-08 14:57:03.100,82.35924932975871,0.15237243898643,-0.1684419149283994,-0.0160697774903583,-1.8192952748683448e-07
2025-03-08 14:57:03.102,82.35924932975871,0.1716818573445871,-0.178841148206897,-0.0071595920903516,-1.8836635243680397e-07
2025-03-08 14:57:03.104,82.35924932975871,0.1948000812903382,-0.1919093909415996,0.002890389438307,-1.947739546898615e-07
2025-03-08 14:57:03.106,82.35924932975871,0.2196689043753129,-0.2046347762746082,0.0150338275089928,-2.0115213770410577e-07
2025-03-08 14:57:03.108,82.35924932975871,0.2445009460751555,-0.2144982238517293,0.0300024219641858,-2.0750068395809169e-07
2025-03-08 14:57:03.110,82.35924932975871,0.2672525170713056,-0.2202699930854288,0.0469822240876779,-2.138193842092983e-07
2025-03-08 14:57:03.112,82.35924932975871,0.2850401303609536,-0.2220117781510265,0.0630280527099076,-2.201080706596334e-07
2025-03-08 14:57:03.114,82.35924932975871,0.2943310330822213,-0.2205661686960844,0.0737645653182619,-2.2636663728118787e-07
2025-03-08 14:57:03.116,82.35924932975871,0.2922370075806283,-0.217051763793697,0.075184945171044,-2.3259503444384578e-07
2025-03-08 14:57:03.118,82.35924932975871,0.2783642452546074,-0.2126616913552701,0.0657022557372365,-2.38793237128828e-07
2025-03-08 14:57:03.120,82.35924932975871,0.2560523680468438,-0.2086749566971151,0.0473771136309392,-2.449612005338443e-07
2025-03-08 14:57:03.122,82.35924932975871,0.231997309947144,-0.2064013369702609,0.0255956756915132,-2.5109882553565897e-07
2025-03-08 14:57:03.124,82.35924932975871,0.2141605376653484,-0.2068957727590631,0.0072644680583007,-2.5720595345022744e-07
2025-03-08 14:57:03.126,82.35924932975871,0.2088555489917387,-0.2105240763840975,-0.0016688237786804,-2.632823952201676e-07
2025-03-08 14:57:03.127,82.35924932975871,0.2182983832534548,-0.2166331108690641,0.0016649765001197,-2.693279815829735e-07
2025-03-08 14:57:03.129,82.35924932975871,0.2396586307844505,-0.2236002790744493,0.0160580563712076,-2.7534260806915946e-07
2025-03-08 14:57:03.131,82.35924932975871,0.2660822046564226,-0.2293997735268914,0.0366821363673898,-2.8132624949447654e-07
2025-03-08 14:57:03.133,82.35924932975871,0.2894299642522945,-0.2325375470351665,0.0568921230411213,-2.872789335126011e-07
2025-03-08 14:57:03.135,82.35924932975871,0.3036734608667937,-0.2329061847164834,0.0707669825498335,-2.9320068448247145e-07
2025-03-08 14:57:03.137,82.35924932975871,0.3074232747979614,-0.2320476906635373,0.0753752910909083,-2.990914658477423e-07
2025-03-08 14:57:03.139,82.35924932975871,0.3043996147650399,-0.2326196275591947,0.0717796947092991,-3.049511518784281e-07
2025-03-08 14:57:03.141,82.35924932975871,0.3016746781795379,-0.2373417187525424,0.06433266748842,-3.107795457930403e-07
2025-03-08 14:57:03.143,82.35924932975871,0.3065546788303696,-0.2479698922633117,0.0585844952202069,-3.165764376109441e-07
2025-03-08 14:57:03.145,82.35924932975871,0.3234649634059314,-0.2647236228799638,0.0587410498173944,-3.223416738105901e-07
2025-03-08 14:57:03.147,82.35924932975871,0.3520821900261041,-0.2862785155636929,0.0658033844348119,-3.280752034160259e-07
2025-03-08 14:57:03.149,82.35924932975871,0.3874184567462224,-0.3102155786581629,0.0772025887654255,-3.3377707595789505e-07
2025-03-08 14:57:03.151,82.35924932975871,0.421792506360252,-0.3337360709973381,0.0880561467451007,-3.3944739078599135e-07
2025-03-08 14:57:03.153,82.35924932975871,0.4478472522935257,-0.3543946114898136,0.0934523528731902,-3.450862222616781e-07
2025-03-08 14:57:03.155,82.35924932975871,0.4613190111313712,-0.3705818148969376,0.0907369089717503,-3.50693558309696e-07
2025-03-08 14:57:03.157,82.35924932975871,0.4623982759991299,-0.3816101169640088,0.0807878724351884,-3.562692835395624e-07
2025-03-08 14:57:03.159,82.35924932975871,0.4552221125569072,-0.3874908828354785,0.0677309438024043,-3.618132155409592e-07
2025-03-08 14:57:03.161,82.35924932975871,0.4459375736450031,-0.3886404929710043,0.057296795474376,-3.673251756367924e-07
2025-03-08 14:57:03.163,82.35924932975871,0.4403522566198756,-0.3856941487299922,0.0546578234554203,-3.728050576330473e-07
2025-03-08 14:57:03.165,82.35924932975871,0.4421425174443648,-0.3794298239118139,0.0627124098997784,-3.782528592367291e-07
2025-03-08 14:57:03.167,82.35924932975871,0.4520911392591858,-0.370693661011468,0.0813971954323533,-3.8366866020452585e-07
2025-03-08 14:57:03.168,82.35924932975871,0.4683117997246115,-0.3602510115879319,0.1080605061326149,-3.890525588278055e-07
2025-03-08 14:57:03.170,82.35924932975871,0.4871700031825283,-0.3485968440152598,0.1385728779563411,-3.944045997762488e-07
2025-03-08 14:57:03.172,82.35924932975871,0.5045891622467863,-0.3358379088652164,0.1687509729489324,-3.997247305946768e-07
2025-03-08 14:57:03.174,82.35924932975871,0.5174287165430981,-0.321748815854294,0.1956796210360847,-4.0501280920422353e-07
2025-03-08 14:57:03.176,82.35924932975871,0.5245166663629255,-0.3060066638178166,0.2185097236949508,-4.1026865840175676e-07
2025-03-08 14:57:03.178,82.35924932975871,0.5268433083565246,-0.2884859312537192,0.2383570990929051,-4.154921391324662e-07
2025-03-08 14:57:03.180,82.35924932975871,0.526661013624503,-0.2694429017326811,0.2572178347618735,-4.2068320464183933e-07
2025-03-08 14:57:03.182,82.35924932975871,0.5258369058952632,-0.2494827562107691,0.2763538734627843,-4.258419074584035e-07
2025-03-08 14:57:03.184,82.35924932975871,0.5243648607944209,-0.2293362128399906,0.2950283726506445,-4.309683554284015e-07
2025-03-08 14:57:03.186,82.35924932975871,0.5199644692644178,-0.2095860745664312,0.3103781203053576,-4.3606263914776076e-07
2025-03-08 14:57:03.188,82.35924932975871,0.5091174641127434,-0.1905024726393442,0.3186147179785943,-4.411247676183349e-07
2025-03-08 14:57:03.190,82.35924932975871,0.4890765995140225,-0.1720463875498517,0.3170299393596654,-4.4615464445784653e-07
2025-03-08 14:57:03.192,82.35924932975871,0.4597674770364223,-0.1539561427757329,0.3058110625535383,-4.511520960585747e-07
2025-03-08 14:57:03.194,82.35924932975871,0.42445254455025,-0.1357916583840399,0.2886606153793008,-4.5611693659095693e-07
2025-03-08 14:57:03.196,82.35924932975871,0.3886678859970962,-0.1169451544922263,0.2717224616706445,-4.6104903622885683e-07
2025-03-08 14:57:03.198,82.35924932975871,0.3579435039515693,-0.0967790107855337,0.2611642243162358,-4.659483578358314e-07
2025-03-08 14:57:03.200,82.35924932975871,0.3355225375619167,-0.0749908717329603,0.2605313979855133,-4.7081494404027277e-07
2025-03-08 14:57:03.202,82.35924932975871,0.321241228612766,-0.0520397092201577,0.269201252563808,-4.756488623070661e-07
2025-03-08 14:57:03.204,82.35924932975871,0.3119987117240029,-0.0292743270864941,0.2827241188207368,-4.804501368503036e-07
2025-03-08 14:57:03.206,82.35924932975871,0.3033724612252816,-0.0085317588419615,0.2948404375725297,-4.852187021720825e-07
2025-03-08 14:57:03.208,82.35924932975871,0.2914890119449008,0.0086434827499597,0.300132230888925,-4.899544010500843e-07
2025-03-08 14:57:03.210,82.35924932975871,0.2743902571091619,0.0216873890391314,0.2960773833563646,-4.946570267210621e-07
2025-03-08 14:57:03.211,82.35924932975871,0.2525451616314277,0.0311673671917325,0.2837122670648881,-4.993263870525933e-07
2025-03-08 14:57:03.213,82.35924932975871,0.2284942451767953,0.0383160828917807,0.2668100673695857,-5.03962358597143e-07
2025-03-08 14:57:03.215,82.35924932975871,0.2057984503271775,0.0442892478776301,0.25008743858994,-5.085649047697207e-07
2025-03-08 14:57:03.217,82.35924932975871,0.1876153987694741,0.0496668341188279,0.2372819743758697,-5.131340510484746e-07
2025-03-08 14:57:03.219,82.35924932975871,0.175397478620066,0.0545256306388244,0.2299228518583848,-5.176698315056137e-07
2025-03-08 14:57:03.221,82.35924932975871,0.1682505684871128,0.058971395943331,0.2272217081443269,-5.221722345918182e-07
2025-03-08 14:57:03.223,82.35924932975871,0.1632352099404124,0.0636646987263704,0.2268996534951126,-5.266411753809635e-07
2025-03-08 14:57:03.225,82.35924932975871,0.156430892069228,0.0698931191573595,0.2263237571721336,-5.310765071808879e-07
2025-03-08 14:57:03.227,82.35924932975871,0.1442703954660864,0.0790889786083902,0.223359121146061,-5.354780651662137e-07
2025-03-08 14:57:03.229,82.35924932975871,0.1246887378621051,0.0920572218469085,0.2167457079218789,-5.398457189017112e-07
2025-03-08 14:57:03.231,82.35924932975871,0.0978365417742865,0.1083296434759591,0.2061659346236912,-5.441794071167669e-07
2025-03-08 14:57:03.233,82.35924932975871,0.0662023962340206,0.1260004412334963,0.1922025880211578,-5.484791382582571e-07
2025-03-08 14:57:03.235,82.35924932975871,0.0340003187566088,0.1422064214806318,0.1762064919876034,-5.527449585208883e-07
2025-03-08 14:57:03.237,82.35924932975871,0.0058544140382612,0.154122016741149,0.1599761837381635,-5.569769054926451e-07
2025-03-08 14:57:03.239,82.35924932975871,-0.0147978199222408,0.1600283171010007,0.1452302513530095,-5.611749717495239e-07
2025-03-08 14:57:03.241,82.35924932975871,-0.0268507129026958,0.1599180052652807,0.1330670477568084,-5.653390959667342e-07
2025-03-08 14:57:03.243,82.35924932975871,-0.031600752855857,0.1553642716330441,0.1237632753958675,-5.694691836558612e-07
2025-03-08 14:57:03.245,82.35924932975871,-0.0316896923360085,0.1488169894313588,0.1171270549453084,-5.735651441312601e-07
2025-03-08 14:57:03.247,82.35924932975871,-0.0295507041267756,0.1427400113855686,0.1131890663504842,-5.776269228573602e-07
2025-03-08 14:57:03.249,82.35924932975871,-0.0262902979330057,0.1389531885611378,0.1126626509755937,-5.81654512210032e-07
2025-03-08 14:57:03.251,82.35924932975871,-0.0216322170380477,0.1383429062482998,0.116710450829807,-5.856479360749055e-07
2025-03-08 14:57:03.252,82.35924932975871,-0.0148606679410654,0.1409182767970907,0.1260573717641852,-5.896072175654217e-07
2025-03-08 14:57:03.254,82.35924932975871,-0.0061046342859676,0.1460822153930159,0.1399773453182918,-5.935323471339788e-07
2025-03-08 14:57:03.256,82.35924932975871,0.0028561584086818,0.1529658222536453,0.1558217461875077,-5.974232668675128e-07
2025-03-08 14:57:03.258,82.35924932975871,0.0087995285145356,0.1607075491813553,0.1695068445419053,-6.012798775464955e-07
2025-03-08 14:57:03.260,82.35924932975871,0.0082935286140561,0.1686060037469197,0.1768993005319524,-6.051020634939895e-07
2025-03-08 14:57:03.262,82.35924932975871,-0.0005915435522468,0.1761386020117164,0.1755468279591776,-6.08889722133474e-07
2025-03-08 14:57:03.264,82.35924932975871,-0.017016228363938,0.1829200793613953,0.1659036218320649,-6.126427840180972e-07
2025-03-08 14:57:03.266,82.35924932975871,-0.0374193443885427,0.1887198112148578,0.1513002390063222,-6.163612148815749e-07
2025-03-08 14:57:03.268,82.35924932975871,-0.0570947586016565,0.1935912988560303,0.1364963137947347,-6.200450006756417e-07
2025-03-08 14:57:03.270,82.35924932975871,-0.0725066810191696,0.1980060777146594,0.1254991716136542,-6.236941246520491e-07
2025-03-08 14:57:03.272,82.35924932975871,-0.0829172185557442,0.2027836463371046,0.1198662040939296,-6.273085484118446e-07
2025-03-08 14:57:03.274,82.35924932975871,-0.0902716645343839,0.2087262946070056,0.1184544077920939,-6.308882056667105e-07
2025-03-08 14:57:03.276,82.35924932975871,-0.097474963514605,0.2161313191745034,0.118656134793096,-6.344330105163018e-07
2025-03-08 14:57:03.278,82.35924932975871,-0.1062515063798513,0.2245061354268389,0.1182544095960899,-6.379428750263665e-07
2025-03-08 14:57:03.280,82.35924932975871,-0.115930120839671,0.2327156231727325,0.1167852842989349,-6.414177269681371e-07
2025-03-08 14:57:03.282,82.35924932975871,-0.1237682144863744,0.2395306436660443,0.1157622125659873,-6.448575192352109e-07
2025-03-08 14:57:03.284,82.35924932975871,-0.1264600463252979,0.2442861388360647,0.117825877326886,-6.482622270742714e-07
2025-03-08 14:57:03.286,82.35924932975871,-0.121913845258499,0.2472558140325915,0.1253417550351632,-6.516318353637499e-07
2025-03-08 14:57:03.288,82.35924932975871,-0.1104433321468563,0.2495034989664853,0.1390599545437295,-6.549663225656594e-07
2025-03-08 14:57:03.290,82.35924932975871,-0.0949371271026403,0.252294116712967,0.1573567788139623,-6.582656486235714e-07
2025-03-08 14:57:03.292,82.35924932975871,-0.0799938913361978,0.2564165158622166,0.1764224152202279,-6.615297512088809e-07
2025-03-08 14:57:03.293,82.35924932975871,-0.0703452577129289,0.2618134683332385,0.191468002809397,-6.647585503553631e-07
2025-03-08 14:57:03.295,82.35924932975871,-0.0691600632120719,0.2677093709324432,0.1985491014039897,-6.679519580661273e-07
2025-03-08 14:57:03.297,82.35924932975871,-0.0769189356660967,0.2731110280521749,0.1961918875636459,-6.711098883147475e-07
2025-03-08 14:57:03.299,82.35924932975871,-0.0913150324900012,0.2773549756412203,0.1860397398264085,-6.742322638543708e-07
2025-03-08 14:57:03.301,82.35924932975871,-0.1081608965526591,0.2804030223000768,0.1722419239303655,-6.773190183026515e-07
2025-03-08 14:57:03.303,82.35924932975871,-0.1228564256200054,0.2827617293333544,0.1599051034194057,-6.803700939551778e-07
2025-03-08 14:57:03.305,82.35924932975871,-0.1318082512641392,0.2850861060994732,0.1532776560810076,-6.83385436987096e-07
2025-03-08 14:57:03.307,82.35924932975871,-0.133300160430943,0.2876736374218632,0.1543732797891757,-6.863649919580653e-07
2025-03-08 14:57:03.309,82.35924932975871,-0.127621024533538,0.2901353027664629,0.1625140825903591,-6.893086971796896e-07
2025-03-08 14:57:03.311,82.35924932975871,-0.1166100767854276,0.2914698643785178,0.1748595935104941,-6.922164820683558e-07
2025-03-08 14:57:03.313,82.35924932975871,-0.1029460461375187,0.290539512602624,0.1875932739410769,-6.950882673318578e-07
2025-03-08 14:57:03.315,82.35924932975871,-0.0893921922302585,0.2866819441891484,0.197289560994503,-6.979239684819884e-07
2025-03-08 14:57:03.317,82.35924932975871,-0.0780428913314451,0.2800977636056493,0.2020546828761704,-7.007235022973023e-07
2025-03-08 14:57:03.319,82.35924932975871,-0.0696881080061516,0.2717981427527945,0.2021098469272468,-7.034867944955995e-07
2025-03-08 14:57:03.321,82.35924932975871,-0.0636418373538625,0.2631752785254401,0.1995332549454632,-7.062137857779968e-07
2025-03-08 14:57:03.323,82.35924932975871,-0.0583686025912343,0.2554726351695728,0.1971038479579709,-7.08904433523788e-07
2025-03-08 14:57:03.325,82.35924932975871,-0.0527657720822352,0.2494447746186089,0.1966788195287366,-7.115587079869774e-07
2025-03-08 14:57:03.327,82.35924932975871,-0.0473240442122509,0.2453163904183271,0.1979921648124586,-7.141765841773365e-07
2025-03-08 14:57:03.329,80.0,-0.0442269006618375,0.2429320513192969,0.1987049708764373,-7.167580326281409e-07
2025-03-08 14:57:03.331,80.0,-0.0460934567386813,0.241913046903933,0.1958194119971535,-7.193030130959849e-07
2025-03-08 14:57:03.333,80.0,-0.0540895187727718,0.2417347302888048,0.1876450349663341,-7.218114744299756e-07
2025-03-08 14:57:03.335,80.0,-0.0666819269842135,0.2417641970196024,0.1750820951150855,-7.242833613916891e-07
2025-03-08 14:57:03.336,80.0,-0.0799488774660157,0.2413340919023218,0.1613850411590413,-7.267186258462061e-07
2025-03-08 14:57:03.338,80.0,-0.0893679128558439,0.2398905500189459,0.1505224655406728,-7.291172370086584e-07
2025-03-08 14:57:03.340,80.0,-0.0920469108547415,0.237190097503375,0.1451430166874509,-7.314791850398816e-07
2025-03-08 14:57:03.342,80.0,-0.0880665771014714,0.2334476285573221,0.1453808831563983,-7.338044750775409e-07
2025-03-08 14:57:03.344,80.0,-0.0802331061440335,0.2293124690416063,0.1490791962572176,-7.360931138313361e-07
2025-03-08 14:57:03.346,80.0,-0.0726727217702859,0.225643236197395,0.1529703494447143,-7.383450954685148e-07
2025-03-08 14:57:03.348,80.0,-0.0693489225139061,0.223203344936815,0.153854259102651,-7.40560394643142e-07
2025-03-08 14:57:03.350,80.0,-0.0731734749752397,0.2224421270651273,0.1492684904420913,-7.427389710491207e-07
2025-03-08 14:57:03.352,80.0,-0.0855155046182402,0.2234121409185779,0.1378964763387929,-7.448807836447542e-07
2025-03-08 14:57:03.354,80.0,-0.105653480519691,0.2257466164316655,0.1200929776491727,-7.469858073121316e-07
2025-03-08 14:57:03.356,80.0,-0.13026251024454,0.2286434967508775,0.0983808299492594,-7.490540431978297e-07
2025-03-08 14:57:03.358,80.0,-0.1536022937681504,0.2309414552064382,0.0773390065870996,-7.510855171049779e-07
2025-03-08 14:57:03.360,80.0,-0.1689319145654023,0.2314170086190113,0.0624849409040373,-7.53080266390056e-07
2025-03-08 14:57:03.362,80.0,-0.1708777553381181,0.2292618246011027,0.0583839178111139,-7.550383217667187e-07
2025-03-08 14:57:03.364,80.0,-0.1577000290147434,0.2244826509973891,0.0667824722295436,-7.569596932913508e-07
2025-03-08 14:57:03.366,80.0,-0.1322819330861812,0.2179601371332231,0.0856780560007008,-7.588443680902035e-07
2025-03-08 14:57:03.368,80.0,-0.1012796938303604,0.2111295328461793,0.1098496926893548,-7.606923216614351e-07
2025-03-08 14:57:03.370,80.0,-0.0727884288871063,0.2054855812131268,0.1326970077330852,-7.625035374623427e-07
2025-03-08 14:57:03.372,80.0,-0.0535794913130039,0.2021677269240942,0.1485880927609341,-7.642780246545052e-07
2025-03-08 14:57:03.374,80.0,-0.0471189596852251,0.201756900721407,0.1546377999309725,-7.660158242326406e-07
2025-03-08 14:57:03.376,80.0,-0.0531182603043381,0.2042624785874918,0.1511440789189471,-7.677169995718816e-07
2025-03-08 14:57:03.377,80.0,-0.0685486032453712,0.2092079924148557,0.1406592515403238,-7.693816157591242e-07
2025-03-08 14:57:03.379,80.0,-0.0893300802185792,0.2157283588833967,0.1263981427678179,-7.710097182750385e-07
2025-03-08 14:57:03.381,80.0,-0.111664200189041,0.222625622526505,0.110961288176274,-7.726013221044103e-07
2025-03-08 14:57:03.383,80.0,-0.1323478508644813,0.2283855872426557,0.0960376039630752,-7.741564169183537e-07
2025-03-08 14:57:03.385,80.0,-0.1482378011430849,0.231234158343433,0.0829962265449974,-7.756749856424939e-07
2025-03-08 14:57:03.387,80.0,-0.1558187387962429,0.2293676350294986,0.0735487673497649,-7.771570269086057e-07
2025-03-08 14:57:03.389,80.0,-0.1518521916240258,0.2214378339329059,0.0695855152037036,-7.786025700045015e-07
2025-03-08 14:57:03.391,80.0,-0.1351227191763459,0.2071795790377893,0.0720567345340879,-7.800116748430816e-07
2025-03-08 14:57:03.393,80.0,-0.1081084987287577,0.1878656029892225,0.0797569807055822,-7.813844171341422e-07
2025-03-08 14:57:03.395,80.0,-0.077104358559938,0.1662537963189423,0.08914931597077,-7.827208664772521e-07
2025-03-08 14:57:03.397,80.0,-0.0502521196867826,0.1459065920470131,0.0956543523368341,-7.840210686953635e-07
2025-03-08 14:57:03.399,80.0,-0.0343402525939936,0.1300914611206941,0.0957510902727998,-7.852850415508585e-07
2025-03-08 14:57:03.401,80.0,-0.0320559485890473,0.1207248749028042,0.0886688098397928,-7.865127860774131e-07
2025-03-08 14:57:03.403,80.0,-0.0411185037720221,0.1178487801201184,0.0767301616668863,-7.877043076748755e-07
2025-03-08 14:57:03.405,80.0,-0.0556857472778576,0.1198912701675784,0.0642054100120022,-7.888596361801478e-07
2025-03-08 14:57:03.407,80.0,-0.0692367984661297,0.1245574563648941,0.0553205468297795,-7.899788350048516e-07
2025-03-08 14:57:03.409,80.0,-0.0773877390935622,0.1298394918758662,0.0524516435209571,-7.910619955167769e-07
2025-03-08 14:57:03.411,80.0,-0.0792337430458142,0.134585145022121,0.0553512945171977,-7.921092206821152e-07
2025-03-08 14:57:03.413,80.0,-0.0768129726864031,0.1384040582027445,0.0615909798536773,-7.93120607274907e-07
2025-03-08 14:57:03.415,80.0,-0.0734241187524658,0.141170412398224,0.0677461897773458,-7.94096235991064e-07
2025-03-08 14:57:03.417,80.0,-0.0719428243934745,0.1426122994120597,0.0706693729481349,-7.950361739837624e-07
2025-03-08 14:57:03.419,80.0,-0.0738716637975413,0.1423067053073967,0.0684349412466308,-7.959404876218338e-07
2025-03-08 14:57:03.420,80.0,-0.0792103205544765,0.1400190983093614,0.0608086793109107,-7.968092581393273e-07
2025-03-08 14:57:03.422,80.0,-0.086837427040777,0.1360565433138191,0.0492190196591301,-7.976425915986313e-07
2025-03-08 14:57:03.424,80.0,-0.095034024399227,0.1313157388809224,0.0362816197040136,-7.984406176302934e-07
2025-03-08 14:57:03.426,80.0,-0.1019453567401175,0.1269501288615769,0.0250046791801001,-7.992034771320201e-07
2025-03-08 14:57:03.428,80.0,-0.1059943574033121,0.1238605656847001,0.0178661171715266,-7.999313046205663e-07
2025-03-08 14:57:03.430,80.0,-0.1063079278121052,0.1223339085017294,0.0160258914047694,-8.006242135704446e-07
2025-03-08 14:57:03.432,80.0,-0.1030490885388086,0.1220319065757323,0.0189827305728968,-8.01282291683189e-07
2025-03-08 14:57:03.434,80.0,-0.0974011052342306,0.1222714738646105,0.0248702829883619,-8.019056083375015e-07
2025-03-08 14:57:03.436,80.0,-0.0910787155384409,0.1223628143161708,0.0312840149650853,-8.024942307331559e-07
2025-03-08 14:57:03.438,80.0,-0.085577778523194,0.1218170936423184,0.0362392331476011,-8.030482412349884e-07
2025-03-08 14:57:03.440,80.0,-0.0815820643366338,0.1203936762173677,0.0388115317627045,-8.035677480260734e-07
2025-03-08 14:57:03.442,80.0,-0.0788324039730525,0.1180486921537742,0.0392162099249666,-8.040528844899797e-07
2025-03-08 14:57:03.444,80.0,-0.0764797184811807,0.1148598698677888,0.0383800749954099,-8.045037981512959e-07
2025-03-08 14:57:03.446,80.0,-0.0737198409245887,0.1110080595546677,0.0372881440989622,-8.049206348863451e-07
2025-03-08 14:57:03.448,80.0,-0.0704007195848862,0.1068545413050549,0.0364537490405852,-8.053035260185695e-07
2025-03-08 14:57:03.450,80.0,-0.0672899140300053,0.1030247767827558,0.035734791916763,-8.056525839508151e-07
2025-03-08 14:57:03.452,80.0,-0.065837470756545,0.1003186241325533,0.0344810843810524,-8.059679074381113e-07
2025-03-08 14:57:03.454,80.0,-0.0675354813841845,0.0993560055576682,0.03182045702507,-8.062495930156671e-07
2025-03-08 14:57:03.456,80.0,-0.0731860535350023,0.1000914972965055,0.0269053784724394,-8.064977466717914e-07
2025-03-08 14:57:03.458,80.0,-0.0824216187912006,0.1015191332656851,0.0190974510606473,-8.067124904340988e-07
2025-03-08 14:57:03.460,80.0,-0.0937072334128923,0.1018805925999277,0.0081732976613233,-8.068939614971348e-07
2025-03-08 14:57:03.461,80.0,-0.1048415963097784,0.0994163480136469,-0.0054253079290053,-8.070423052725897e-07
2025-03-08 14:57:03.463,80.0,-0.113713363856687,0.0932885980102753,-0.0204248235917439,-8.071576665018516e-07
2025-03-08 14:57:03.465,80.0,-0.1189399460721144,0.0840927806116433,-0.0348472213308047,-8.072401830724972e-07
2025-03-08 14:57:03.467,80.0,-0.1201616734981614,0.0736097883825006,-0.0465519391243076,-8.072899852737214e-07
2025-03-08 14:57:03.469,80.0,-0.1180180708833991,0.0639735159319264,-0.0540446071050875,-8.073072000650133e-07
2025-03-08 14:57:03.471,80.0,-0.1139067921283664,0.0567903520935551,-0.0571164903285364,-8.072919573200804e-07
2025-03-08 14:57:03.473,80.0,-0.109543163303977,0.0526787629169112,-0.0568644488048669,-8.072443943052754e-07
2025-03-08 14:57:03.475,80.0,-0.1063565268595876,0.0513399495703291,-0.0550166238097774,-8.071646560779098e-07
2025-03-08 14:57:03.477,80.0,-0.1049259695029289,0.0519500484247844,-0.0529759656836974,-8.070528920156505e-07
2025-03-08 14:57:03.479,80.0,-0.1047612027970504,0.0535691414609832,-0.0511921040206194,-8.069092507097737e-07
2025-03-08 14:57:03.481,80.0,-0.1046218648280016,0.0553760719745242,-0.0492458336255392,-8.067338759485775e-07
2025-03-08 14:57:03.483,80.0,-0.1032855834089731,0.056738053616834,-0.0465475686706848,-8.065269055467022e-07
2025-03-08 14:57:03.485,80.0,-0.1003909726561717,0.0572603209813255,-0.0431306886796884,-8.062884730895296e-07
2025-03-08 14:57:03.487,80.0,-0.0968829785469593,0.0569174976239795,-0.0399655160639561,-8.06018711149466e-07
2025-03-08 14:57:03.489,80.0,-0.0947507375345984,0.0561703956303852,-0.0385803751745371,-8.05717753880627e-07
2025-03-08 14:57:03.491,80.0,-0.0961005994458492,0.0558414095430186,-0.0402592212803147,-8.053857373534561e-07
2025-03-08 14:57:03.493,80.0,-0.1019966679364431,0.0566729732403872,-0.0453237241522282,-8.05022797295426e-07
2025-03-08 14:57:03.495,80.0,-0.1117155328397652,0.0588213314431714,-0.0528942289096919,-8.046290654288655e-07
2025-03-08 14:57:03.497,80.0,-0.1229013873487561,0.0616814037111758,-0.0612200092030966,-8.042046665190033e-07
2025-03-08 14:57:03.499,80.0,-0.1325931724279429,0.0642138609639604,-0.0683793350971802,-8.037497179368969e-07
2025-03-08 14:57:03.501,80.0,-0.1385457663274458,0.065557709969947,-0.0729880780860296,-8.032643321428549e-07
2025-03-08 14:57:03.502,80.0,-0.1400820396510728,0.0655055270614166,-0.0745765324393707,-8.027486209693621e-07
2025-03-08 14:57:03.504,80.0,-0.1380424328368044,0.0645382727474136,-0.0735041780701792,-8.02202699913098e-07
2025-03-08 14:57:03.506,80.0,-0.1340005956266701,0.0634330847959296,-0.0705675269296981,-8.016266910297167e-07
2025-03-08 14:57:03.508,80.0,-0.1293360015546687,0.0627280309219595,-0.0666079848186153,-8.010207238975742e-07
2025-03-08 14:57:03.510,80.0,-0.1247072983715459,0.0623822860789661,-0.0623250245300686,-8.003849347900015e-07
2025-03-08 14:57:03.512,80.0,-0.1200596105490232,0.0618083537331431,-0.0582512670825446,-7.997194644373119e-07
2025-03-08 14:57:03.514,80.0,-0.1149174897786613,0.0602159150781938,-0.0547015829982103,-7.990244548511857e-07
2025-03-08 14:57:03.516,80.0,-0.1086784996202943,0.0570535972364132,-0.0516249087383175,-7.983000459139351e-07
2025-03-08 14:57:03.518,80.0,-0.100871433046912,0.0523308542364802,-0.0485405832580286,-7.975463726555887e-07
2025-03-08 14:57:03.520,80.0,-0.0915054699136451,0.0466920419877338,-0.0448134304949181,-7.967635640215889e-07
2025-03-08 14:57:03.522,80.0,-0.0814604868501081,0.0412089161268552,-0.0402515714180291,-7.959517434588028e-07
2025-03-08 14:57:03.524,80.0,-0.0725757874725042,0.0369526447824534,-0.0356231414870874,-7.951110311074824e-07
2025-03-08 14:57:03.526,80.0,-0.0671321160819452,0.0345375212899344,-0.0325945916502342,-7.942415470014988e-07
2025-03-08 14:57:03.528,80.0,-0.0668713872985545,0.0339096032099349,-0.0329617789692219,-7.933434144089536e-07
2025-03-08 14:57:03.530,80.0,-0.0721385322770065,0.0345288945607169,-0.0376096306021514,-7.92416762206115e-07
2025-03-08 14:57:03.532,80.0,-0.0817117878192998,0.0357952608029831,-0.0459165179208921,-7.914617252021998e-07
2025-03-08 14:57:03.534,80.0,-0.0934065636015088,0.0373690101000383,-0.0560375424621167,-7.904784420188504e-07
2025-03-08 14:57:03.536,80.0,-0.1050162216252708,0.0391551465933254,-0.0658610620906228,-7.894670513486305e-07
2025-03-08 14:57:03.538,80.0,-0.1150152188179659,0.0410432037014068,-0.0739720002975438,-7.884276883460712e-07
2025-03-08 14:57:03.540,80.0,-0.1227325492882276,0.0426997022253674,-0.0800328303590007,-7.873604828259023e-07
2025-03-08 14:57:03.542,80.0,-0.1281060396553831,0.0436297644637952,-0.0844762565665398,-7.862655599758167e-07
2025-03-08 14:57:03.544,80.0,-0.1313639361597443,0.0434806904869118,-0.0878832250785606,-7.851430431326391e-07
2025-03-08 14:57:03.545,80.0,-0.1329433742128596,0.0423667112502578,-0.0905766403634188,-7.839930573926914e-07
2025-03-08 14:57:03.547,80.0,-0.1336747020397564,0.0409606222304733,-0.0927140552000231,-7.828157326232956e-07
2025-03-08 14:57:03.549,80.0,-0.1349238030490381,0.0402283150516841,-0.0946954614060348,-7.816112047816423e-07
2025-03-08 14:57:03.551,80.0,-0.1383017428992914,0.0409146267504201,-0.0973870876221041,-7.803796152134975e-07
2025-03-08 14:57:03.553,80.0,-0.1448617364643688,0.0430849451441911,-0.1017767608986001,-7.791211085753519e-07
2025-03-08 14:57:03.555,80.0,-0.1541788157268031,0.046022158365776,-0.1081566250574292,-7.77835830767593e-07
2025-03-08 14:57:03.557,80.0,-0.1639568913773726,0.0485476720319075,-0.1154091851371122,-7.765239282998062e-07
2025-03-08 14:57:03.559,80.0,-0.1706108051855572,0.0495638295603634,-0.1210469394646047,-7.751855496926538e-07
2025-03-08 14:57:03.561,80.0,-0.1707190844065289,0.0485130640378058,-0.1222059822075334,-7.738208482300558e-07
2025-03-08 14:57:03.563,80.0,-0.1626745860948867,0.045541644834296,-0.1171329010741595,-7.72429984355971e-07
2025-03-08 14:57:03.565,80.0,-0.14765080059177,0.0413305661970013,-0.1063201921946231,-7.710131259483655e-07
2025-03-08 14:57:03.567,80.0,-0.1293192929273642,0.036721482719746,-0.0925977660350574,-7.695704457158522e-07
2025-03-08 14:57:03.569,80.0,-0.1124302622405022,0.0323658227484056,-0.0800643933961292,-7.681021165416951e-07
2025-03-08 14:57:03.571,80.0,-0.1009784271697299,0.0285950190215321,-0.0723833601592812,-7.66608306941434e-07
2025-03-08 14:57:03.573,80.0,-0.096826472941439,0.0255406065721524,-0.0712858164826629,-7.650891791209793e-07
2025-03-08 14:57:03.575,80.0,-0.0993014096949469,0.0233462806539419,-0.0759550772184753,-7.635448910881299e-07
2025-03-08 14:57:03.577,80.0,-0.1057377588801894,0.0222698828240959,-0.0834678222453932,-7.619756023503352e-07
2025-03-08 14:57:03.579,80.0,-0.112578292797314,0.0225957354722947,-0.0899825014866404,-7.60381480963517e-07
2025-03-08 14:57:03.581,80.0,-0.1165636831031378,0.0244309319121356,-0.0921326933183131,-7.587627090334948e-07
2025-03-08 14:57:03.583,80.0,-0.115639426109321,0.0275179228104392,-0.0881214434208929,-7.571194844954063e-07
2025-03-08 14:57:03.585,80.0,-0.1093715062077725,0.0311732616102787,-0.0781981827627871,-7.554520185962311e-07
2025-03-08 14:57:03.586,80.0,-0.0988480500039551,0.0344247087155575,-0.0644232775387408,-7.537605301502254e-07
2025-03-08 14:57:03.588,80.0,-0.0862112613956325,0.0363542233197749,-0.049856972423511,-7.52045238749845e-07
2025-03-08 14:57:03.590,80.0,-0.0740384732457512,0.0365216690210095,-0.0375167366455055,-7.5030635941015e-07
2025-03-08 14:57:03.592,80.0,-0.0647286800656177,0.0352158727987244,-0.0295127377125461,-7.485441004219098e-07
2025-03-08 14:57:03.594,80.0,-0.0599288149577374,0.0333178510862636,-0.0266108922949046,-7.467586646242706e-07
2025-03-08 14:57:03.596,80.0,-0.060017600194945,0.0318073993924954,-0.0282101271820172,-7.449502525819174e-07
2025-03-08 14:57:03.598,80.0,-0.0638151150091483,0.031219969788087,-0.0325950695711681,-7.431190652340277e-07
2025-03-08 14:57:03.600,80.0,-0.0688362996602853,0.031430705776016,-0.0374055162465703,-7.412653041005603e-07
2025-03-08 14:57:03.602,80.0,-0.0722829061007669,0.0319297546896284,-0.0403530718312231,-7.393891689012901e-07
2025-03-08 14:57:03.604,80.0,-0.0724853721367757,0.0323934885301031,-0.0400918021088432,-7.374908544050641e-07
2025-03-08 14:57:03.606,80.0,-0.0699884050607706,0.0331138167597089,-0.036874504874793,-7.355705491328417e-07
2025-03-08 14:57:03.608,80.0,-0.0674634160053246,0.0349285550189154,-0.0325347755916956,-7.336284375397274e-07
2025-03-08 14:57:03.610,80.0,-0.0683026115592517,0.0386524049816126,-0.0296501191661919,-7.316647050670489e-07
2025-03-08 14:57:03.612,80.0,-0.0746321783267749,0.0443639500342199,-0.0302681388332473,-7.29679543432588e-07
2025-03-08 14:57:03.614,80.0,-0.0859070425164552,0.051010923324822,-0.0348960276863565,-7.276731531243389e-07
2025-03-08 14:57:03.616,80.0,-0.0989486770790048,0.0566189243946975,-0.0423296591656955,-7.256457416169927e-07
2025-03-08 14:57:03.618,80.0,-0.1094804705846584,0.0590592377014955,-0.0504211373955623,-7.235975182653046e-07
2025-03-08 14:57:03.620,80.0,-0.11435154740915,0.0570172200722565,-0.0573342299110933,-7.215286885100558e-07
2025-03-08 14:57:03.622,80.0,-0.1131961975110134,0.0506522100287913,-0.0625438881178198,-7.19439450056224e-07
2025-03-08 14:57:03.624,80.0,-0.1085746387154263,0.0415644539138638,-0.0670100834665889,-7.173299923968842e-07
2025-03-08 14:57:03.626,80.0,-0.1045672549921384,0.0320690907626215,-0.0724980608774329,-7.152004994845783e-07
2025-03-08 14:57:03.627,80.0,-0.1047298678771933,0.0241968442355803,-0.0805329182362269,-7.130511542540477e-07
2025-03-08 14:57:03.629,80.0,-0.1105961737589256,0.0189823090581052,-0.0916137572353282,-7.108821432509319e-07
2025-03-08 14:57:03.631,80.0,-0.1214088149333728,0.0163468708840645,-0.1050618345489291,-7.086936597462676e-07
2025-03-08 14:57:03.633,80.0,-0.1349444774742657,0.0154605220558257,-0.1194838439252034,-7.064859043029857e-07
2025-03-08 14:57:03.635,80.0,-0.1487569910284031,0.0152382995820884,-0.1335185779944614,-7.042590826122846e-07
2025-03-08 14:57:03.637,80.0,-0.1611242839004171,0.0147166173376921,-0.1464075511584084,-7.02013401358665e-07
2025-03-08 14:57:03.639,80.0,-0.1712955505227717,0.0132598907118805,-0.1580355424275253,-6.997490637436158e-07
2025-03-08 14:57:03.641,80.0,-0.1790546551814772,0.0106433723611564,-0.1684111634122504,-6.974662666802843e-07
2025-03-08 14:57:03.643,80.0,-0.1839906287118717,0.0070396093107463,-0.1769508979280867,-6.951652010778897e-07
2025-03-08 14:57:03.645,80.0,-0.185056581803424,0.0029207978802995,-0.1821356603718721,-6.928460551983933e-07
2025-03-08 14:57:03.647,80.0,-0.1808610328537544,-0.0010839722711915,-0.1819448795158789,-6.905090195821849e-07
2025-03-08 14:57:03.649,80.0,-0.1706704210105492,-0.0043272481685411,-0.1749975415539779,-6.881542912847376e-07
2025-03-08 14:57:03.651,80.0,-0.1555604731421684,-0.006258381870924,-0.1618187254105392,-6.857820754819816e-07
2025-03-08 14:57:03.653,80.0,-0.1389189381939411,-0.0065126027019737,-0.1454314093281638,-6.833925837452271e-07
2025-03-08 14:57:03.655,80.0,-0.1257695631490843,-0.0049546784266333,-0.1307241080198478,-6.80986029860028e-07
2025-03-08 14:57:03.657,80.0,-0.1209918845362513,-0.0016706981137995,-0.1226624470587825,-6.785626251340155e-07
2025-03-08 14:57:03.659,80.0,-0.1271219911592489,0.0030414291041606,-0.1240804243815257,-6.761225751421229e-07
2025-03-08 14:57:03.661,80.0,-0.1427783963093656,0.0086231837420763,-0.1341550727900288,-6.736660788804429e-07
2025-03-08 14:57:03.663,80.0,-0.1626625906628912,0.0141845566113648,-0.148477892186071,-6.711933299635975e-07
2025-03-08 14:57:03.665,80.0,-0.1794285313652148,0.0185567950975442,-0.1608715923574374,-6.687045185896964e-07
2025-03-08 14:57:03.667,80.0,-0.1867313589106579,0.0205938451191664,-0.1661373678829203,-6.661998330645489e-07
2025-03-08 14:57:03.669,80.0,-0.1820235723840441,0.0196720590333075,-0.1623513654659656,-6.636794606119616e-07
2025-03-08 14:57:03.670,80.0,-0.167677857672735,0.016142804676189,-0.1515349031188009,-6.611435881903594e-07
2025-03-08 14:57:03.672,80.0,-0.1498437151366057,0.0114458355854194,-0.1383977276313492,-6.58592404276622e-07
2025-03-08 14:57:03.674,80.0,-0.1356330663051804,0.0077453653320575,-0.1278875469544287,-6.560261019806669e-07
2025-03-08 14:57:03.676,80.0,-0.1300686473351933,0.0072064551452614,-0.1228620360376369,-6.534448829514798e-07
2025-03-08 14:57:03.678,80.0,-0.1342359208219909,0.0112078026423566,-0.1230279598994223,-6.508489608508834e-07
2025-03-08 14:57:03.680,80.0,-0.145337039504739,0.0197763080376236,-0.1255605711017867,-6.482385629604565e-07
2025-03-08 14:57:03.682,80.0,-0.158374462650155,0.0313918157258457,-0.1269824845299637,-6.456139288471071e-07
2025-03-08 14:57:03.684,80.0,-0.1685122993914521,0.0431977999568139,-0.1253143350488354,-6.429753058773446e-07
2025-03-08 14:57:03.686,80.0,-0.173007104230243,0.0516077561685965,-0.1213991816807334,-6.403229424388239e-07
2025-03-08 14:57:03.688,80.0,-0.1719243566990351,0.0532264669991788,-0.1186977212780765,-6.376570805880215e-07
2025-03-08 14:57:03.690,80.0,-0.1674640707643582,0.045869428296951,-0.121594471938857,-6.349779501867215e-07
2025-03-08 14:57:03.692,80.0,-0.1623476247965662,0.0293689918948257,-0.132978460213849,-6.322857662891245e-07
2025-03-08 14:57:03.694,80.0,-0.1581125241103785,0.005897244287793,-0.1522151049632814,-6.295807305693913e-07
2025-03-08 14:57:03.696,80.0,-0.1541503693503187,-0.0203315547781902,-0.174481747132243,-6.26863036066216e-07
2025-03-08 14:57:03.698,80.0,-0.1479176104711927,-0.0439442067016415,-0.1918616381017018,-6.241328730382939e-07
2025-03-08 14:57:03.700,80.0,-0.1361624511523121,-0.0596066803512497,-0.1957689504130935,-6.213904332171345e-07
2025-03-08 14:57:03.702,80.0,-0.1165232013507249,-0.0630542870261486,-0.1795773052844922,-6.186359107556272e-07
2025-03-08 14:57:03.704,80.0,-0.0886612615883575,-0.051541431774473,-0.1402025082359119,-6.15869500135862e-07
2025-03-08 14:57:03.706,80.0,-0.0542894103857813,-0.0237191603952705,-0.0780083835513786,-6.130913928768334e-07
2025-03-08 14:57:03.708,80.0,-0.0160158273971431,0.0206354478672503,0.0046198098726619,-6.103017751442631e-07
2025-03-08 14:57:03.710,80.0,0.0243965568533673,0.0805935465320442,0.1049902949974971,-6.075008274898202e-07
2025-03-08 14:57:03.711,80.0,0.0673804229283963,0.1536545202882622,0.2210351370230837,-6.046887267493597e-07
2025-03-08 14:57:03.713,80.0,0.1157856269110659,0.2352393083243328,0.3510251311778101,-6.01865649265007e-07
2025-03-08 14:57:03.715,80.0,0.1739504809163207,0.3186301086894249,0.4925807876142309,-5.990317742465762e-07
2025-03-08 14:57:03.717,80.0,0.2462255031009677,0.3957983386088005,0.6420240417411209,-5.961872861343135e-07
2025-03-08 14:57:03.719,80.0,0.3355496356877848,0.4590995859322285,0.7946494236826578,-5.933323751892397e-07
2025-03-08 14:57:03.721,80.0,0.4421262086852252,0.5031825629564852,0.945308975794006,-5.904672362050643e-07
2025-03-08 14:57:03.723,80.0,0.5617927690060727,0.5261445006420714,1.087937475970548,-5.875920659424777e-07
2025-03-08 14:57:03.725,80.0,0.683940427580714,0.5293419785983082,1.213282614734262,-5.847070602128538e-07
2025-03-08 14:57:03.727,80.0,0.7898857820089593,0.516154756172605,1.3060407489834092,-5.818124114345533e-07
2025-03-08 14:57:03.729,80.0,0.8537488670748508,0.4907116038302418,1.3444606839120967,-5.789083072498906e-07
2025-03-08 14:57:03.731,80.0,0.8478484651763497,0.4574664908164923,1.305315171130675,-5.759949305444966e-07
2025-03-08 14:57:03.733,80.0,0.7524552669012615,0.4215258312739623,1.1739813153764036,-5.730724608546745e-07
2025-03-08 14:57:03.735,80.0,0.5662894639613284,0.3885640657530984,0.9548537489550666,-5.701410767297773e-07
2025-03-08 14:57:03.737,80.0,0.3120571674107654,0.3632052797663317,0.6752626684915584,-5.672009583755408e-07
2025-03-08 14:57:03.739,80.0,0.0328232559099261,0.3463006763482721,0.3791241557237924,-5.642522899644754e-07
2025-03-08 14:57:03.741,80.0,-0.2203822981688205,0.3332934647451362,0.1129113922756609,-5.612952611690772e-07
2025-03-08 14:57:03.743,80.0,-0.4046282816304071,0.3157805041833921,-0.0888475494667464,-5.583300675119219e-07
2025-03-08 14:57:03.745,80.0,-0.4978742122007932,0.2860554504945216,-0.2118185314562264,-5.553569091524524e-07
2025-03-08 14:57:03.747,80.0,-0.503378960506776,0.2418826144897491,-0.2614961135597535,-5.52375988095858e-07
2025-03-08 14:57:03.749,80.0,-0.4447894444361126,0.1883376088829821,-0.2564516009692351,-5.493875045306499e-07
2025-03-08 14:57:03.751,80.0,-0.3551457359058161,0.1355526334832452,-0.219592865767923,-5.463916535599018e-07
2025-03-08 14:57:03.753,80.0,-0.2651059521059716,0.0939010457054359,-0.1712046676759401,-5.433886234559091e-07
2025-03-08 14:57:03.754,80.0,-0.1949298108437395,0.0695565470263269,-0.1253730229663488,-5.403785957994082e-07
2025-03-08 14:57:03.756,80.0,-0.1521396618541306,0.0627049835423484,-0.0894344352474631,-5.373617470385555e-07
2025-03-08 14:57:03.758,80.0,-0.1340273584550408,0.0687469855157175,-0.0652801275872958,-5.343382506087953e-07
2025-03-08 14:57:03.760,80.0,-0.1325399864551782,0.0811051164931634,-0.051434622296545,-5.313082788324251e-07
2025-03-08 14:57:03.762,80.0,-0.1389160784754584,0.0937820189164372,-0.0451338096146697,-5.282720041189486e-07
2025-03-08 14:57:03.764,80.0,-0.1464434121433898,0.1025901523333437,-0.0438530076625236,-5.252295993328175e-07
2025-03-08 14:57:03.766,80.0,-0.1511312519228403,0.1051553843411033,-0.0459756133078371,-5.221812375770334e-07
2025-03-08 14:57:03.768,80.0,-0.1511118671873313,0.100472225209318,-0.0506393856150849,-5.191270919684825e-07
2025-03-08 14:57:03.770,80.0,-0.1458040682644205,0.0886560326345514,-0.0571477771554647,-5.160673360018826e-07
2025-03-08 14:57:03.772,80.0,-0.1354638669713543,0.0709834669471782,-0.0644801393661526,-5.130021447623661e-07
2025-03-08 14:57:03.774,80.0,-0.1211459660937799,0.0498835261702263,-0.0712621769953419,-5.099316968107858e-07
2025-03-08 14:57:03.776,80.0,-0.1046739533047194,0.0285011189156605,-0.0761725691320435,-5.068561762889071e-07
2025-03-08 14:57:03.778,80.0,-0.0882015785722458,0.0097685330482174,-0.0784327779354852,-5.037757747494941e-07
2025-03-08 14:57:03.780,80.0,-0.0733749850833269,-0.0046325207313933,-0.0780072359472625,-5.006906923396031e-07
2025-03-08 14:57:03.782,80.0,-0.0606684278621181,-0.0147920850395328,-0.0754602408347176,-4.97601138123662e-07
2025-03-08 14:57:03.784,80.0,-0.0495846791684929,-0.0221820053545041,-0.0717664103210874,-4.945073294546399e-07
2025-03-08 14:57:03.786,80.0,-0.0397702100389967,-0.0285716382384062,-0.0683415719563175,-4.914094904052233e-07
2025-03-08 14:57:03.788,80.0,-0.032183827827211,-0.0349575330396965,-0.0671410823849472,-4.883078493614612e-07
2025-03-08 14:57:03.790,80.0,-0.0292068405981729,-0.0411532550715419,-0.0703598149479495,-4.852026359521836e-07
2025-03-08 14:57:03.792,80.0,-0.0333241269845541,-0.0461706665750129,-0.079494510520545,-4.820940775931147e-07
2025-03-08 14:57:03.794,80.0,-0.0451126910088194,-0.0490341545457736,-0.0941465601597243,-4.789823961188299e-07
2025-03-08 14:57:03.795,80.0,-0.0618740915551179,-0.0495196832015954,-0.1113934870235495,-4.758678051891075e-07
2025-03-08 14:57:03.797,80.0,-0.0779618493189798,-0.0484505841511397,-0.1264121434612032,-4.727505091774982e-07
2025-03-08 14:57:03.799,80.0,-0.0868919277781095,-0.0474306441236001,-0.134322279691115,-4.696307039061184e-07
2025-03-08 14:57:03.801,80.0,-0.0842382151557657,-0.0481492318126389,-0.132387152603178,-4.665085789650668e-07
2025-03-08 14:57:03.803,80.0,-0.0697572957623901,-0.0515968591574183,-0.1213538583957182,-4.633843207186193e-07
2025-03-08 14:57:03.805,80.0,-0.0475419134680247,-0.0576044320446673,-0.1051460467761011,-4.602581147054542e-07
2025-03-08 14:57:03.807,80.0,-0.0240758246732485,-0.0649876707865139,-0.0890631944340916,-4.5713014623591203e-07
2025-03-08 14:57:03.809,80.0,-0.0052133983986808,-0.0722406026488036,-0.0774536976704839,-4.540005987421792e-07
2025-03-08 14:57:03.811,80.0,0.0063203654728355,-0.0783561281420985,-0.0720354569222575,-4.508696505918391e-07
2025-03-08 14:57:03.813,80.0,0.0116492067311576,-0.0832593714855371,-0.0716098566691523,-4.4773747198453683e-07
2025-03-08 14:57:03.815,80.0,0.014471823428787,-0.0876359895264163,-0.0731638557381316,-4.446042236403002e-07
2025-03-08 14:57:03.817,80.0,0.0186763442474898,-0.0923605878218984,-0.0736839310030804,-4.414700581333924e-07
2025-03-08 14:57:03.819,80.0,0.0262021399881969,-0.0979220264335921,-0.0717195716912291,-4.383351233777728e-07
2025-03-08 14:57:03.821,80.0,0.0362048815221885,-0.1041315006916652,-0.0679263022135617,-4.351995667247601e-07
2025-03-08 14:57:03.823,80.0,0.045815953935361,-0.1101795428213873,-0.0643632696711522,-4.320635379904274e-07
2025-03-08 14:57:03.825,80.0,0.0519916618075144,-0.1149576794550271,-0.062965696106312,-4.289271904845358e-07
2025-03-08 14:57:03.827,80.0,0.0534279246864452,-0.1175061446503021,-0.0640778960510178,-4.257906802260521e-07
2025-03-08 14:57:03.829,80.0,0.0514731242561122,-0.1174324439943572,-0.0659589934508464,-4.226541643492066e-07
2025-03-08 14:57:03.831,80.0,0.0494926301963954,-0.1151319976468795,-0.0656390388269184,-4.1951779986321366e-07
2025-03-08 14:57:03.833,80.0,0.0510193230348577,-0.1116680492633992,-0.0606483953273362,-4.163817434446737e-07
2025-03-08 14:57:03.835,80.0,0.0577388823839245,-0.1082916728985231,-0.0505524573842147,-4.132461520931503e-07
2025-03-08 14:57:03.836,80.0,0.0684344662176621,-0.1057855409230332,-0.0373507393600207,-4.101111837661614e-07
2025-03-08 14:57:03.838,80.0,0.0794423460203788,-0.1039785297339757,-0.0245358461265814,-4.069769970462061e-07
2025-03-08 14:57:03.840,80.0,0.0863597363445547,-0.1017681019165224,-0.015408025689072,-4.038437495301568e-07
2025-03-08 14:57:03.842,80.0,0.0861695333833402,-0.0977546171825858,-0.0115847415649105,-4.007115954486866e-07
2025-03-08 14:57:03.844,80.0,0.0788444114882767,-0.0912283831180278,-0.0123836270128913,-3.97580683438378e-07
2025-03-08 14:57:03.846,80.0,0.0677935480579422,-0.0829704385061821,-0.0151765434553066,-3.944511552669192e-07
2025-03-08 14:57:03.848,80.0,0.0589575956812587,-0.0753377718238289,-0.016379826812113,-3.91323145925239e-07
2025-03-08 14:57:03.850,80.0,0.0587609359175684,-0.0714490169356278,-0.0126877294001421,-3.881967850845874e-07
2025-03-08 14:57:03.852,80.0,0.0715217770097501,-0.0738057891633139,-0.002283658284477,-3.850721995142621e-07
2025-03-08 14:57:03.854,80.0,0.0972882841747795,-0.0830627139301705,0.0142259263601017,-3.8194951578578827e-07
2025-03-08 14:57:03.856,80.0,0.1311420177945315,-0.0976069816098808,0.0335353945753889,-3.788288626403391e-07
2025-03-08 14:57:03.858,80.0,0.1645312418714233,-0.1141354505337697,0.0503961520520998,-3.757103726897139e-07
2025-03-08 14:57:03.860,80.0,0.1882996187974402,-0.1288750510708576,0.0594249308100127,-3.725941833531038e-07
2025-03-08 14:57:03.862,80.0,0.1962071767335298,-0.1388367782997297,0.057370763907771,-3.6948043697647445e-07
2025-03-08 14:57:03.864,80.0,0.1873592133143778,-0.1425954374961166,0.0447641436719723,-3.6636928007986097e-07
2025-03-08 14:57:03.866,80.0,0.1663618367223257,-0.1404073569357194,0.0259548499838331,-3.632608617985418e-07
2025-03-08 14:57:03.868,80.0,0.1411498114465618,-0.1338285503116899,0.0073216336327076,-3.60155331864839e-07
2025-03-08 14:57:03.870,80.0,0.1196856543142489,-0.1251668049639881,-0.0054807758795174,-3.570528387598597e-07
2025-03-08 14:57:03.872,80.0,0.1072550957047695,-0.1169786873862427,-0.0097232146385567,-3.539535286577023e-07
2025-03-08 14:57:03.874,80.0,0.1055136517410921,-0.1115833149790773,-0.0060692838935375,-3.508575453438438e-07
2025-03-08 14:57:03.876,80.0,0.113278529889871,-0.110531145461678,0.0027477661180081,-3.47765030621395e-07
2025-03-08 14:57:03.878,80.0,0.1281707149768113,-0.1141696399754751,0.0140014590749734,-3.446761242718061e-07
2025-03-08 14:57:03.879,80.0,0.1480239756166896,-0.1215693524785844,0.0264550096111623,-3.41590962781467e-07
2025-03-08 14:57:03.881,80.0,0.1713744322428493,-0.1309063417461193,0.0404684793555987,-3.385096767818068e-07
2025-03-08 14:57:03.883,80.0,0.1970252607159044,-0.1401196542233196,0.0569059977020855,-3.354323880638757e-07
2025-03-08 14:57:03.885,80.0,0.2232961778511085,-0.1475493363354547,0.0757472350368661,-3.323592075300307e-07
2025-03-08 14:57:03.887,80.0,0.2477329036600946,-0.1523378257722275,0.0953954736975755,-3.292902351373098e-07
2025-03-08 14:57:03.889,80.0,0.2676337071676733,-0.1545038883204618,0.1131302169496643,-3.262255618739607e-07
2025-03-08 14:57:03.891,80.0,0.2810877198208822,-0.1547017334241358,0.1263863868221272,-3.2316527270718135e-07
2025-03-08 14:57:03.893,80.0,0.2878490476358686,-0.1537844512325354,0.1340649991936899,-3.201094489815861e-07
2025-03-08 14:57:03.895,80.0,0.289529389765548,-0.1523916638777748,0.1371381310771774,-3.170581692649162e-07
2025-03-08 14:57:03.897,80.0,0.2890568211743017,-0.1507795415096083,0.1382776872632267,-3.1401150878853945e-07
2025-03-08 14:57:03.899,80.0,0.2897217960478302,-0.148949708024297,0.140772498012925,-3.109695386188953e-07
2025-03-08 14:57:03.901,80.0,0.2942204096313467,-0.1469292798090487,0.1472915421654385,-3.079323258755554e-07
2025-03-08 14:57:03.903,80.0,0.3039928599644722,-0.1449874447199281,0.1590058299043224,-3.0489993566246305e-07
2025-03-08 14:57:03.905,80.0,0.3189895623958892,-0.1436630436564252,0.1753269356977149,-3.01872434412646e-07
2025-03-08 14:57:03.907,80.0,0.3378457648243626,-0.1435984918481494,0.1942476922433635,-2.988498936638747e-07
2025-03-08 14:57:03.909,80.0,0.358332247652367,-0.1452530622466079,0.2130796070162486,-2.9583239320436186e-07
2025-03-08 14:57:03.911,80.0,0.3779082338394516,-0.1486188935335649,0.2292897643014968,-2.928200229354613e-07
2025-03-08 14:57:03.913,80.0,0.394250054279454,-0.1530963597064338,0.2411541209823686,-2.898128833073909e-07
2025-03-08 14:57:03.915,80.0,0.4057160191223591,-0.15765886145926,0.2480575864876344,-2.868110845378472e-07
2025-03-08 14:57:03.917,80.0,0.4117329059355925,-0.1612953274742089,0.2504380096750586,-2.838147450216838e-07
2025-03-08 14:57:03.919,80.0,0.4130165241265336,-0.1635034713084742,0.2495134863809628,-2.8082398941821496e-07
2025-03-08 14:57:03.920,80.0,0.4114762450868983,-0.1645096655750619,0.2469670153909065,-2.7783894680711905e-07
2025-03-08 14:57:03.922,80.0,0.4097201127798462,-0.1650611542989493,0.2446593966671212,-2.748597490175468e-07
2025-03-08 14:57:03.924,80.0,0.4102355656317693,-0.16594226338073,0.2442937427642817,-2.718865289222456e-07
2025-03-08 14:57:03.926,80.0,0.4144676119811343,-0.1675174581551373,0.2469505967049498,-2.689194184288716e-07
2025-03-08 14:57:03.928,80.0,0.4221322726465319,-0.1694998683874366,0.2526328495415668,-2.659585462321391e-07
2025-03-08 14:57:03.930,80.0,0.4311472841171702,-0.1709638986246549,0.2601838331962942,-2.630040359173579e-07
2025-03-08 14:57:03.932,80.0,0.4383786041837474,-0.1705613064891992,0.2678177478087706,-2.600560052688476e-07
2025-03-08 14:57:03.934,80.0,0.4409552697796497,-0.1669337943736873,0.2740219278973882,-2.571145672519065e-07
2025-03-08 14:57:03.936,80.0,0.4374947121652595,-0.1592729772109783,0.2782221897850565,-2.541798322213439e-07
2025-03-08 14:57:03.938,80.0,0.4285907797499527,-0.1478228501321471,0.2807683867652976,-2.512519101039073e-07
2025-03-08 14:57:03.940,80.0,0.4163736129768814,-0.1340262124219632,0.2823478600232386,-2.483309112125197e-07
2025-03-08 14:57:03.942,80.0,0.4034677909856805,-0.1201477197258604,0.2833205330771685,-2.4541694503576937e-07
2025-03-08 14:57:03.944,80.0,0.3918844227220368,-0.1084921223604853,0.2833927645650689,-2.425101173509379e-07
2025-03-08 14:57:03.946,80.0,0.382288894689944,-0.1005596390882881,0.2817297222180038,-2.396105267700498e-07
2025-03-08 14:57:03.948,80.0,0.37389962330916,-0.0965090122356961,0.2773910801054047,-2.367182620488848e-07
2025-03-08 14:57:03.950,80.0,0.3650594206502721,-0.0951495426800931,0.2699103493960171,-2.338334011766214e-07
2025-03-08 14:57:03.952,80.0,0.3542223627381963,-0.0944412865702758,0.2597815499537128,-2.309560125798325e-07
2025-03-08 14:57:03.954,80.0,0.3408081732326217,-0.092253074319348,0.2485555750310052,-2.2808615801141974e-07
2025-03-08 14:57:03.956,80.0,0.3253660207662016,-0.0870277941503218,0.238338705057871,-2.2522389621482145e-07
2025-03-08 14:57:03.958,80.0,0.3089156784029523,-0.0781064914999623,0.2308096676850943,-2.2236928638470098e-07
2025-03-08 14:57:03.960,80.0,0.2919524993999267,-0.065705760551657,0.2262472220005786,-2.1952239061514202e-07
2025-03-08 14:57:03.961,80.0,0.2738962138545183,-0.0507309709301384,0.2231657284747998,-2.1668327481812493e-07
2025-03-08 14:57:03.963,80.0,0.2534471895520774,-0.0345888439858265,0.2188588335258951,-2.138520080608343e-07
2025-03-08 14:57:03.965,80.0,0.2296383531842732,-0.0190026415136204,0.2106362020286948,-2.110286608422852e-07
2025-03-08 14:57:03.967,80.0,0.2028636843556634,-0.0057332429275501,0.1971309341584359,-2.082133032000645e-07
2025-03-08 14:57:03.969,80.0,0.1751760461404837,0.0038254824314268,0.1790020236475274,-2.0540600342764922e-07
2025-03-08 14:57:03.971,80.0,0.1496353603343226,0.0090545627188701,0.1586904204604421,-2.026068276770567e-07
2025-03-08 14:57:03.973,80.0,0.1290843055840233,0.0103120313503224,0.1393968366793062,-1.9981584024583686e-07
2025-03-08 14:57:03.975,80.0,0.1150191002425791,0.0087946642848713,0.123814266631496,-1.9703310424006e-07
2025-03-08 14:57:03.977,80.0,0.1070649878921759,0.0061127839537123,0.1131782763332498,-1.9425868248113465e-07
2025-03-08 14:57:03.979,80.0,0.103161342977858,0.0037861223401254,0.1069479722023576,-1.9149263863710125e-07
2025-03-08 14:57:03.981,80.0,0.1002304549265045,0.0028698286112115,0.103100792815175,-1.88735038416746e-07
2025-03-08 14:57:03.983,80.0,0.0950208244833657,0.0037852852794945,0.098806621414608,-1.859859503996207e-07
2025-03-08 14:57:03.985,80.0,0.084927527172684,0.0063085951109282,0.0912366362866502,-1.832454459538551e-07
2025-03-08 14:57:03.987,80.0,0.0687134103006574,0.0096745974670368,0.078388524107245,-1.805135978780881e-07
2025-03-08 14:57:03.989,80.0,0.0470397501178076,0.0128193403467058,0.0598596091413459,-1.777904778749938e-07
2025-03-08 14:57:03.991,80.0,0.0225987339511106,0.0147582893921153,0.0373575443720921,-1.750761535389987e-07
2025-03-08 14:57:03.993,80.0,-0.0003965344445079,0.0149709942387474,0.0145749831946489,-1.7237068594804557e-07
2025-03-08 14:57:03.995,80.0,-0.0174288383717835,0.0135897277390297,-0.0038385848480295,-1.6967412894269285e-07
2025-03-08 14:57:03.997,80.0,-0.0253118088220033,0.0112847406979709,-0.0140265399562867,-1.6698653061750965e-07
2025-03-08 14:57:03.999,80.0,-0.0236325506717478,0.0089346974116883,-0.0146973227238994,-1.643079365600937e-07
2025-03-08 14:57:04.001,80.0,-0.0153274211571767,0.0072930402169308,-0.0080338480554607,-1.616383934671953e-07
2025-03-08 14:57:04.003,80.0,-0.0059973261516226,0.0068094602585538,0.0008126693261086,-1.589779516106307e-07
2025-03-08 14:57:04.004,80.0,-0.0020874753735867,0.0076158549714265,0.0055289171499998,-1.5632666543157586e-07
2025-03-08 14:57:04.006,80.0,-0.0085875834117378,0.0095958863601075,0.0010088428447453,-1.5368459273911292e-07
2025-03-08 14:57:04.008,80.0,-0.0272012875283686,0.0124754303131014,-0.0147253149581441,-1.510517936966818e-07
2025-03-08 14:57:04.010,80.0,-0.055789008974536,0.0159082995309421,-0.0398801648141152,-1.4842833058542374e-07
2025-03-08 14:57:04.012,80.0,-0.0892913490832791,0.0195253292433648,-0.069765472838689,-1.458142684840126e-07
2025-03-08 14:57:04.014,80.0,-0.1215922820565671,0.0229170385799967,-0.0986746941167281,-1.4320967610358772e-07
2025-03-08 14:57:04.016,80.0,-0.1473888060665972,0.0255799648411999,-0.1218082895258247,-1.4061462565860786e-07
2025-03-08 14:57:04.018,80.0,-0.1633601712852725,0.0269196559930487,-0.1364399612676168,-1.3802919110691237e-07
2025-03-08 14:57:04.020,80.0,-0.1684881177206145,0.0263840204076511,-0.1421035409663203,-1.3545344513409618e-07
2025-03-08 14:57:04.022,80.0,-0.1637580068081033,0.0236973409894712,-0.1400601071403893,-1.3288745626890414e-07
2025-03-08 14:57:04.024,80.0,-0.1515156890810015,0.0190662226843816,-0.1324489053708884,-1.3033128778379025e-07
2025-03-08 14:57:04.026,80.0,-0.1347064123575216,0.0132257011661064,-0.1214801478058094,-1.2778499924759874e-07
2025-03-08 14:57:04.028,80.0,-0.1162379933744595,0.0072847817193317,-0.1089526459086985,-1.252486502231491e-07
2025-03-08 14:57:04.030,80.0,-0.0986691156885399,0.0024332390588274,-0.0962353085345685,-1.2272230455268468e-07
2025-03-08 14:57:04.032,80.0,-0.0842279674429005,-0.0003741061738097,-0.0846015031924133,-1.202060335425342e-07
2025-03-08 14:57:04.034,80.0,-0.0749415844257876,-0.0006448692555842,-0.0755858809451805,-1.1769991707917933e-07
2025-03-08 14:57:04.036,80.0,-0.0725726567221876,0.0015613871277344,-0.0710106945527721,-1.15204042699994e-07
2025-03-08 14:57:04.038,80.0,-0.0781839457875316,0.0056598111282784,-0.0725235573049872,-1.1271850327338605e-07
2025-03-08 14:57:04.040,80.0,-0.0914551952722204,0.0106482722507493,-0.0808063433387525,-1.102433940997908e-07
2025-03-08 14:57:04.042,80.0,-0.1102051946872746,0.015298809444731,-0.0949058032162912,-1.0777881022005473e-07
2025-03-08 14:57:04.044,80.0,-0.1306353499106056,0.0184339664602662,-0.1122007990754873,-1.0532484456928357e-07
2025-03-08 14:57:04.045,80.0,-0.1484411726447623,0.0192251526314906,-0.1292154332986956,-1.0288158713856353e-07
2025-03-08 14:57:04.047,80.0,-0.1603336680113994,0.0174104239375812,-0.1429226550388443,-1.0044912465480836e-07
2025-03-08 14:57:04.049,80.0,-0.1651405425658109,0.0133706042373465,-0.1517693469938223,-9.802754003264185e-08
2025-03-08 14:57:04.051,80.0,-0.1638540079840294,0.008052706639939,-0.155800707722123,-9.561691125803307e-08
2025-03-08 14:57:04.053,80.0,-0.1586573659783834,0.0027330677630182,-0.1559237023046685,-9.321731004274724e-08
2025-03-08 14:57:04.055,80.0,-0.1516206043654214,-0.0013557563402154,-0.152975762492936,-9.082880099563477e-08
2025-03-08 14:57:04.057,80.0,-0.1439167036523143,-0.0034137043274682,-0.1473298074480352,-8.845144195414783e-08
2025-03-08 14:57:04.059,80.0,-0.1359578069781824,-0.0033091965770355,-0.1392664006936981,-8.608528560430298e-08
2025-03-08 14:57:04.061,80.0,-0.1281486325762347,-0.0015672448781175,-0.1297152722654646,-8.373038188535052e-08
2025-03-08 14:57:04.063,80.0,-0.1215441555447003,0.0008784600931672,-0.1206650879508546,-8.138678026718473e-08
2025-03-08 14:57:04.065,80.0,-0.1178338493041757,0.0030874576061162,-0.1147457819076377,-7.905453108404836e-08
2025-03-08 14:57:04.067,80.0,-0.1185909937919104,0.0045230438815393,-0.1140673378487816,-7.673368569200003e-08
2025-03-08 14:57:04.069,80.0,-0.124266684815092,0.0052856726473609,-0.1189803978420187,-7.442429579174261e-08
2025-03-08 14:57:04.071,80.0,-0.1336331721779894,0.0060423330917034,-0.1275902224898683,-7.212641234843304e-08
2025-03-08 14:57:04.073,80.0,-0.1441052465514664,0.0076657616618482,-0.1364388660071334,-6.984008431151837e-08
2025-03-08 14:57:04.075,80.0,-0.1527583149403967,0.0107238366661371,-0.1420338570907932,-6.756535725459147e-08
2025-03-08 14:57:04.077,80.0,-0.1574013666424288,0.0150331110787954,-0.1423676320735942,-6.530227218635993e-08
2025-03-08 14:57:04.079,80.0,-0.157125309851869,0.0195086397486386,-0.1376160443144318,-6.30508648537639e-08
2025-03-08 14:57:04.081,80.0,-0.152220936397608,0.0224562086869373,-0.1297640996416864,-6.081116573421278e-08
2025-03-08 14:57:04.083,80.0,-0.1437823467109914,0.022239789720696,-0.1215419266625855,-5.858320069626122e-08
2025-03-08 14:57:04.085,80.0,-0.1333521043405856,0.0180260600480783,-0.1153254117213672,-5.6366992122414785e-08
2025-03-08 14:57:04.087,80.0,-0.122717018696312,0.0102340056065144,-0.1124823782786277,-5.4162560182081927e-08
2025-03-08 14:57:04.088,80.0,-0.1137376647340914,0.0004629092777977,-0.1132741183968784,-5.1969923896192324e-08
