Timestamp,GSR_Filtered,PPG_Filtered
2025-03-08 14:57:02.153,0.000224106879952,50.90074291955132
2025-03-08 14:57:02.172,0.0001965156342878,52.59852732705343
2025-03-08 14:57:02.192,0.0001671368631466,53.13788896834797
2025-03-08 14:57:02.211,0.0001364419055753,52.48615893534225
2025-03-08 14:57:02.231,0.0001036234363795,50.69133237867344
2025-03-08 14:57:02.250,6.664512456802374e-05,47.8791062268362
2025-03-08 14:57:02.270,2.272838777896666e-05,44.24155856222613
2025-03-08 14:57:02.289,-3.0927266409589305e-05,40.01827028743532
2025-03-08 14:57:02.309,-9.642251036005804e-05,35.47205736186755
2025-03-08 14:57:02.328,-0.0001746061486048,30.862581127829348
2025-03-08 14:57:02.348,-0.0002647970273289,26.4215798704466
2025-03-08 14:57:02.367,-0.0003648513432209,22.33315050411437
2025-03-08 14:57:02.387,-0.0004716049759079,18.72149239646047
2025-03-08 14:57:02.406,-0.0005816042689436,15.647099324146044
2025-03-08 14:57:02.426,-0.0006918736652713,13.110929740778516
2025-03-08 14:57:02.446,-0.0008003941731489,11.064928527156525
2025-03-08 14:57:02.465,-0.0009060924135986,9.426592628680964
2025-03-08 14:57:02.485,-0.0010084012579672,8.095078290732959
2025-03-08 14:57:02.504,-0.0011066625672449,6.966551949270774
2025-03-08 14:57:02.524,-0.0011996720623943,5.9469934629422285
2025-03-08 14:57:02.543,-0.001285539681288,4.961382661906588
2025-03-08 14:57:02.563,-0.0013618691275864,3.9590112722089934
2025-03-08 14:57:02.582,-0.0014261472148416,2.9153607522355163
2025-03-08 14:57:02.602,-0.0014762117511737,1.831357347104067
2025-03-08 14:57:02.621,-0.0015107004374435,0.7307615800857914
2025-03-08 14:57:02.641,-0.0015294041290315,-0.3439155254793418
2025-03-08 14:57:02.660,-0.0015334319809302,-1.3369649643757868
2025-03-08 14:57:02.680,-0.001525094076171,-2.186608819505342
2025-03-08 14:57:02.699,-0.0015074698513809,-2.833525102628606
2025-03-08 14:57:02.719,-0.0014837337326633,-3.2300151533625923
2025-03-08 14:57:02.738,-0.0014563844965934,-3.3484806652172816
2025-03-08 14:57:02.758,-0.001426542224871,-3.1875710627195657
2025-03-08 14:57:02.778,-0.0013934695655343,-2.7744971415138204
2025-03-08 14:57:02.797,-0.0013544771574218,-2.1626059306709604
2025-03-08 14:57:02.817,-0.0013053542119674,-1.424264738978564
2025-03-08 14:57:02.836,-0.0012413540421357,-0.6401818484345333
2025-03-08 14:57:02.856,-0.0011585530151561,0.1128137986835905
2025-03-08 14:57:02.875,-0.0010551846917079,0.7730973200522085
2025-03-08 14:57:02.895,-0.000932467039832,1.302453015856469
2025-03-08 14:57:02.914,-0.0007945727271386,1.6897020101977678
2025-03-08 14:57:02.934,-0.0006476932037019,1.9493680920019487
2025-03-08 14:57:02.953,-0.0004984589258966,2.1160678485883144
2025-03-08 14:57:02.973,-0.0003521563666708,2.236098880689025
2025-03-08 14:57:02.992,-0.0002112028227419,2.3580287507782502
2025-03-08 14:57:03.012,-7.427536600688732e-05,2.523942520087532
2025-03-08 14:57:03.031,6.360238987599736e-05,2.762538480835438
2025-03-08 14:57:03.051,0.0002098582927145,3.084700384885165
2025-03-08 14:57:03.071,0.0003721544523246,3.4817111877716407
2025-03-08 14:57:03.090,0.000555616443157,3.925993810453061
2025-03-08 14:57:03.110,0.0007603205467259,4.374150658882131
2025-03-08 14:57:03.129,0.0009800054294118,4.772033666833779
2025-03-08 14:57:03.149,0.0012027898438442,5.465696141687381
2025-03-08 14:57:03.168,0.0014141591857099,5.844113020001037
2025-03-08 14:57:03.188,0.0016018030165596,5.872741270958584
2025-03-08 14:57:03.207,0.001761273100563,5.548683138119965
2025-03-08 14:57:03.227,0.0019010465918857,4.903685277752608
2025-03-08 14:57:03.246,0.0020454829583098,4.002862336889869
2025-03-08 14:57:03.266,0.002234371720551,2.938770525299858
2025-03-08 14:57:03.285,0.0025182888504338,1.8212138492842305
2025-03-08 14:57:03.305,0.002949801159868,0.7640145082143345
2025-03-08 14:57:03.324,0.0035715836065649,-0.1292662509258907
2025-03-08 14:57:03.344,0.0044034770538904,-0.7782440708779932
2025-03-08 14:57:03.364,0.0054310383234732,-1.1349604548037815
2025-03-08 14:57:03.383,0.0065980276963632,-1.1878636640471356
2025-03-08 14:57:03.403,0.0078047401600975,-0.9600460674615376
2025-03-08 14:57:03.422,0.0089134749305236,-0.5024619856472562
2025-03-08 14:57:03.442,0.0097618275494923,0.1162346564752725
2025-03-08 14:57:03.461,0.0101835795882067,0.8211593520545951
2025-03-08 14:57:03.481,0.0100354493171211,1.5419294803330612
2025-03-08 14:57:03.500,0.0092259667352475,2.2209672582141
2025-03-08 14:57:03.520,0.0077408818290232,2.818215362539745
2025-03-08 14:57:03.539,0.0056586815350312,3.3117792471865446
2025-03-08 14:57:03.559,0.0031506321916497,3.6948201470720585
2025-03-08 14:57:03.578,0.0004624009240144,3.969905640646954
2025-03-08 14:57:03.598,-0.0021216681422226,4.142762007255524
2025-03-08 14:57:03.617,-0.0043259797813488,4.217640774362832
2025-03-08 14:57:03.637,-0.0059333318755267,4.196061261792812
2025-03-08 14:57:03.656,-0.006825686583898,4.07953408883499
2025-03-08 14:57:03.676,-0.0070065755963374,3.875343798750874
2025-03-08 14:57:03.696,-0.0066000126555733,3.6031213929119104
2025-03-08 14:57:03.715,-0.0058262080422882,3.299303239801327
2025-03-08 14:57:03.735,-0.0049590984132143,3.016938192886822
2025-03-08 14:57:03.754,-0.0042738677895339,2.819590612727968
2025-03-08 14:57:03.774,-0.003994153474117,2.769887065647717
2025-03-08 14:57:03.793,-0.0042486295501895,2.914995335075945
2025-03-08 14:57:03.813,-0.005045248186815,3.272467926706597
2025-03-08 14:57:03.832,-0.0062686929716319,3.820092623253229
2025-03-08 14:57:03.852,-0.0077026803207202,4.492618187310156
2025-03-08 14:57:03.871,-0.0090739089756166,5.18668745620651
2025-03-08 14:57:03.891,-0.0101093431549994,5.773433853080646
2025-03-08 14:57:03.910,-0.0105942737135627,6.116478289868752
2025-03-08 14:57:03.930,-0.0104168981139496,6.0919389012847525
2025-03-08 14:57:03.949,-0.0095876634828502,5.606795864418801
2025-03-08 14:57:03.969,-0.0082286163419075,4.612547187099816
2025-03-08 14:57:03.989,-0.0065372092439585,3.112301671992863
2025-03-08 14:57:04.008,-0.0047364434727844,1.1608695563414675
2025-03-08 14:57:04.028,-0.0030258540446405,-1.1413751646975758
2025-03-08 14:57:04.047,-0.0015454013705376,-3.659313036706089
2025-03-08 14:57:04.067,-0.0003587891352015,-6.236728614992571
2025-03-08 14:57:04.086,0.0005433904895641,-8.711009266446961
2025-03-08 14:57:04.106,0.0012250928481436,-10.92740639434984
2025-03-08 14:57:04.125,0.0017778738637376,-12.751758877915991
2025-03-08 14:57:04.145,0.0022930066338825,-14.080934596039008
2025-03-08 14:57:04.164,0.0028387711158792,-14.850482608507148
2025-03-08 14:57:04.184,0.003446665210939,-15.03909548831175
2025-03-08 14:57:04.203,0.0041076997717419,-14.669539465465723
2025-03-08 14:57:04.223,0.0047777813504509,-13.80583476456067
2025-03-08 14:57:04.242,0.005389775271881,-12.546727921947706
2025-03-08 14:57:04.262,0.0058691693353678,-11.015878001313173
2025-03-08 14:57:04.282,0.0061501393557083,-9.349604317135793
2025-03-08 14:57:04.301,0.0061890774163119,-7.68341626289898
2025-03-08 14:57:04.321,0.005973237488846,-6.13877518954175
2025-03-08 14:57:04.340,0.0055231228102244,-4.811564054593321
2025-03-08 14:57:04.360,0.0048885440716511,-3.7635508898991614
2025-03-08 14:57:04.379,0.0041396500739255,-3.0177650932673066
2025-03-08 14:57:04.399,0.0033552082571418,-2.5582329946993485
2025-03-08 14:57:04.418,0.0026106012223231,-2.3340183183405814
2025-03-08 14:57:04.438,0.0019674496877591,-2.267041217812208
2025-03-08 14:57:04.457,0.0014659734756842,-2.2627430428719726
2025-03-08 14:57:04.477,0.0011206596317887,-2.2223614911340657
2025-03-08 14:57:04.496,0.0009195791448836,-2.055432050096308
2025-03-08 14:57:04.516,0.0008275013282235,-1.6911672419306796
2025-03-08 14:57:04.535,0.0007925895817903,-1.0875524905243872
2025-03-08 14:57:04.555,0.0007559455551702,-0.2372403766659538
2025-03-08 14:57:04.574,0.0006627025202437,0.8304632060439132
2025-03-08 14:57:04.594,0.0004728204573559,2.052030484487847
2025-03-08 14:57:04.614,0.0001693269157238,3.336756400684734
2025-03-08 14:57:04.633,-0.0002382176324565,4.578047588618031
2025-03-08 14:57:04.653,-0.0007163963763905,5.66778497592836
2025-03-08 14:57:04.672,-0.001216396458287,6.511753737695918
2025-03-08 14:57:04.692,-0.0016859172914109,7.0435690135064295
2025-03-08 14:57:04.711,-0.0020809968680709,7.234489770204463
2025-03-08 14:57:04.731,-0.0023744758241813,7.097111454468222
2025-03-08 14:57:04.750,-0.0025592718530911,6.682069550037288
2025-03-08 14:57:04.770,-0.0026464508614617,6.068310314000939
2025-03-08 14:57:04.789,-0.0026594903359692,5.348840038033522
2025-03-08 14:57:04.809,-0.0026267969702778,4.614805799137588
2025-03-08 14:57:04.828,-0.0025745044167114,3.9410478357021175
2025-03-08 14:57:04.848,-0.0025210730052124,3.3758303587181886
2025-03-08 14:57:04.867,-0.0024745065602105,2.9364259685597576
2025-03-08 14:57:04.887,-0.00243230029047,2.610862658853068
2025-03-08 14:57:04.907,-0.0023836794266618,2.3647854317492625
2025-03-08 14:57:04.926,-0.0023133461640476,2.1513946831050497
2025-03-08 14:57:04.946,-0.0022058084178778,1.922064619875641
2025-03-08 14:57:04.965,-0.0020493836514347,1.6355618608515974
2025-03-08 14:57:04.985,-0.0018391411834232,1.2645700527679924
2025-03-08 14:57:05.004,-0.001578316407965,0.7991339804289843
2025-03-08 14:57:05.024,-0.0012779916716216,0.2473515228906655
2025-03-08 14:57:05.043,-0.0009550469150544,-0.3660040364738119
2025-03-08 14:57:05.063,-0.0006286367500639,-1.002253017391348
2025-03-08 14:57:05.082,-0.000315845986078,-1.6125207512565596
2025-03-08 14:57:05.102,-2.760529678531312e-05,-2.142206640749244
2025-03-08 14:57:05.121,0.0002338873046045,-2.536158441581045
2025-03-08 14:57:05.141,0.0004753362970876,-2.7444205045713854
2025-03-08 14:57:05.160,0.0007099880436954,-2.728168331610976
2025-03-08 14:57:05.180,0.0009534702678771,-2.46513083346494
2025-03-08 14:57:05.200,0.0012190836335629,-1.9535900506274595
2025-03-08 14:57:05.219,0.001513817091706,-1.214060908040544
2025-03-08 14:57:05.239,0.0018359932113848,-0.2880430515491286
2025-03-08 14:57:05.258,0.002174943863632,0.7662399133234514
2025-03-08 14:57:05.278,0.0025126428901983,1.8805681647783152
2025-03-08 14:57:05.297,0.0028268316725056,2.984810389459029
2025-03-08 14:57:05.317,0.003094886334853,4.014932844715243
2025-03-08 14:57:05.336,0.0032975598044411,4.919542868236928
2025-03-08 14:57:05.356,0.003421868670914,5.663983966887597
2025-03-08 14:57:05.375,0.0034627560104812,6.231616968053737
2025-03-08 14:57:05.395,0.0034235542815958,6.622526702633402
2025-03-08 14:57:05.414,0.0033154694318237,6.85032912201368
2025-03-08 14:57:05.434,0.0031562581702598,6.937976145025528
2025-03-08 14:57:05.453,0.0029681553908569,6.913479601404588
2025-03-08 14:57:05.473,0.0027751509914741,6.8063210474743
2025-03-08 14:57:05.492,0.0025999364934364,6.64500919606171
2025-03-08 14:57:05.512,0.0024610361101715,6.455845679588134
2025-03-08 14:57:05.532,0.0023706056881848,6.262545791542243
2025-03-08 14:57:05.551,0.0023331526834258,6.08604599660413
2025-03-08 14:57:05.571,0.0023452010741337,5.943743453637581
2025-03-08 14:57:05.590,0.0023958451853727,5.847644617049246
2025-03-08 14:57:05.610,0.0024681678639873,5.801424655202732
2025-03-08 14:57:05.629,0.0025414800573889,5.797044490232455
2025-03-08 14:57:05.649,0.0025941611665269,5.812073341446689
2025-03-08 14:57:05.668,0.0026066141406527,5.808987429553955
2025-03-08 14:57:05.688,0.0025637095715757,5.737371417521266
2025-03-08 14:57:05.707,0.0024562421474151,5.539232422152859
2025-03-08 14:57:05.727,0.0022813014458187,5.156774523811679
2025-03-08 14:57:05.746,0.0020418168601422,4.541246800711363
2025-03-08 14:57:05.766,0.0017456499601033,3.661102201759338
2025-03-08 14:57:05.785,0.0014044702736998,2.5078129658044186
2025-03-08 14:57:05.805,0.0010324608432079,1.0982545933398558
2025-03-08 14:57:05.825,0.0006448627025509,-0.5265818979944245
2025-03-08 14:57:05.844,0.000256489964494,-2.305928069676221
2025-03-08 14:57:05.864,-0.0001195559725763,-4.165396234220935
2025-03-08 14:57:05.883,-0.0004728342402781,-6.023554502017869
2025-03-08 14:57:05.903,-0.0007962642040109,-7.797819980512124
2025-03-08 14:57:05.922,-0.0010868273095419,-9.409215965696816
2025-03-08 14:57:05.942,-0.0013464566739729,-10.78622440070756
2025-03-08 14:57:05.961,-0.0015830495890957,-11.868350542344476
2025-03-08 14:57:05.981,-0.0018112707334148,-12.609909885577595
2025-03-08 14:57:06.000,-0.0020526490419706,-12.984024297226895
2025-03-08 14:57:06.020,-0.0023344114830186,-12.98617410699888
2025-03-08 14:57:06.039,-0.0026865227203609,-12.636242702851709
2025-03-08 14:57:06.059,-0.0031365745353462,-11.978022296044069
2025-03-08 14:57:06.078,-0.0037026269115419,-11.075612937997766
2025-03-08 14:57:06.098,-0.0043849027406065,-10.006848443909416
2025-03-08 14:57:06.118,-0.0051581914774608,-8.854570925861573
2025-03-08 14:57:06.137,-0.0059674871329779,-7.697053641602915
2025-03-08 14:57:06.157,-0.0067293355846139,-6.599049661881703
2025-03-08 14:57:06.176,-0.0073404291803943,-5.604834920638585
2025-03-08 14:57:06.196,-0.0076933180423899,-4.734296323335353
2025-03-08 14:57:06.215,-0.007697068255995,-3.982671168502241
2025-03-08 14:57:06.235,-0.0072987608862689,-3.3240230069175123
2025-03-08 14:57:06.254,-0.0065004507270394,-2.717976922036084
2025-03-08 14:57:06.274,-0.0053662000492014,-2.1186985240329874
2025-03-08 14:57:06.293,-0.0040155916336703,-1.4846864939178763
2025-03-08 14:57:06.313,-0.0026037482069816,-0.7877583357718337
2025-03-08 14:57:06.332,-0.0012923513270013,-0.0197009788616753
2025-03-08 14:57:06.352,-0.0002194501356669,0.8045708983368326
2025-03-08 14:57:06.371,0.0005238403048147,1.647918564811811
2025-03-08 14:57:06.391,0.0009044566860444,2.455819428703021
2025-03-08 14:57:06.410,0.0009453083189268,3.1643405369597413
2025-03-08 14:57:06.430,0.0007127221212721,3.709895593857119
2025-03-08 14:57:06.450,0.0002981513121831,4.039108398851966
2025-03-08 14:57:06.469,-0.0002009004489101,4.117065866360464
2025-03-08 14:57:06.489,-0.0006968277155407,3.932535825875661
2025-03-08 14:57:06.508,-0.0011224379727273,3.4993302859812148
2025-03-08 14:57:06.528,-0.0014353904032211,2.8537945233111315
2025-03-08 14:57:06.547,-0.0016173483913796,2.0491980670824
2025-03-08 14:57:06.567,-0.001669616372243,1.1483931077308278
2025-03-08 14:57:06.586,-0.0016073586325841,0.2163435029012883
2025-03-08 14:57:06.606,-0.0014541151922273,-0.6860513598530348
2025-03-08 14:57:06.625,-0.0012374783514515,-1.505968420124017
2025-03-08 14:57:06.645,-0.0009859311774042,-2.20039845363251
2025-03-08 14:57:06.664,-0.0007263781513742,-2.7361967045204256
2025-03-08 14:57:06.684,-0.0004819413701124,-3.089421751333102
2025-03-08 14:57:06.703,-0.0002699769680867,-3.244896203053281
2025-03-08 14:57:06.723,-0.0001006558537937,-3.1964992998620723
2025-03-08 14:57:06.743,2.342537335134029e-05,-2.9480866129357133
2025-03-08 14:57:06.762,0.0001063460815285,-2.514399470422007
2025-03-08 14:57:06.782,0.0001568037128796,-1.9211241322420616
2025-03-08 14:57:06.801,0.0001853702223776,-1.2034799431396772
2025-03-08 14:57:06.821,0.0002017349431141,-0.4032327964675693
2025-03-08 14:57:06.840,0.0002126679353631,0.4354208996495915
2025-03-08 14:57:06.860,0.0002213567898155,1.270316816716942
2025-03-08 14:57:06.879,0.0002284482203751,2.0653105161456278
2025-03-08 14:57:06.899,0.0002345234879019,2.793162054516381
2025-03-08 14:57:06.918,0.0002430596164088,3.4369835658692143
2025-03-08 14:57:06.938,0.0002625684068723,3.9902043158786737
2025-03-08 14:57:06.957,0.0003068376649714,4.455228566080694
2025-03-08 14:57:06.977,0.0003929326399289,4.841096597822961
2025-03-08 14:57:06.996,0.0005374598207363,5.160523161277873
2025-03-08 14:57:07.016,0.000752180058192,5.426710408293315
2025-03-08 14:57:07.036,0.0010402497598396,5.65033913928605
2025-03-08 14:57:07.055,0.0013941990425181,5.837138339971447
2025-03-08 14:57:07.075,0.0017962909249869,5.986394551339362
2025-03-08 14:57:07.094,0.0022212581133821,6.09064911863452
2025-03-08 14:57:07.114,0.0026407704009629,6.136630694608936
2025-03-08 14:57:07.133,0.003028538047307,6.107230334504282
2025-03-08 14:57:07.153,0.0033648220668703,5.984129392848258
2025-03-08 14:57:07.172,0.0036393251200861,5.750601004478377
2025-03-08 14:57:07.192,0.0038519050541308,5.394043839274762
2025-03-08 14:57:07.211,0.0040111252668554,4.907946625847031
2025-03-08 14:57:07.231,0.004131143721363,4.293164440031302
2025-03-08 14:57:07.250,0.0042277315553336,3.5585403449182134
2025-03-08 14:57:07.270,0.0043143042657239,2.7209722098864884
2025-03-08 14:57:07.289,0.004398803927515,1.8049935830113608
2025-03-08 14:57:07.309,0.0044821156140205,0.8418540631309742
2025-03-08 14:57:07.329,0.0045583959129866,-0.1319800110167965
2025-03-08 14:57:07.348,0.0046172193888123,-1.0769845397415403
2025-03-08 14:57:07.368,0.0046469294756392,-1.9534151885662652
2025-03-08 14:57:07.387,0.0046382409605495,-2.724731435130024
2025-03-08 14:57:07.407,0.0045871406426411,-3.361339251896424
2025-03-08 14:57:07.426,0.0044964257217939,-3.8441331543842328
2025-03-08 14:57:07.446,0.0043756082545026,-4.167065191828312
2025-03-08 14:57:07.465,0.0042392326906446,-4.337892826964475
2025-03-08 14:57:07.485,0.0041038944928786,-4.376538148794908
2025-03-08 14:57:07.504,0.0039844933427054,-4.311139493863517
2025-03-08 14:57:07.524,0.0038905069112452,-4.1726650347654175
2025-03-08 14:57:07.543,0.0038232027547002,-3.989519774910359
2025-03-08 14:57:07.563,0.0037745714209018,-3.783619925763466
2025-03-08 14:57:07.582,0.0037283364576242,-3.5688823219099404
2025-03-08 14:57:07.602,0.0036628206130044,-3.352195844179434
2025-03-08 14:57:07.621,0.0035549703011164,-3.136068110116671
2025-03-08 14:57:07.641,0.0033846462837645,-2.921612354781445
2025-03-08 14:57:07.661,0.0031383689107781,-2.710536188956717
2025-03-08 14:57:07.680,0.0028119116656612,-2.505287875026708
2025-03-08 14:57:07.700,0.0024113385743562,-2.3073097702426564
2025-03-08 14:57:07.719,0.001952270199776,-2.1141606037188367
2025-03-08 14:57:07.739,0.0014574143608517,-1.916821820315672
2025-03-08 14:57:07.758,0.0009527441677259,-1.6986079645411016
2025-03-08 14:57:07.778,0.0004630477289352,-1.4367121478429048
2025-03-08 14:57:07.797,7.745112071657426e-06,-1.106649786105682
2025-03-08 14:57:07.817,-0.0004022077135747,-0.688942523327857
2025-03-08 14:57:07.836,-0.0007657655204361,-0.1765618926445066
2025-03-08 14:57:07.856,-0.0010913533057518,0.4188551424427932
2025-03-08 14:57:07.875,-0.0013946382474193,1.0640418714208413
2025-03-08 14:57:07.895,-0.001694964572322,1.7058935309197991
2025-03-08 14:57:07.914,-0.0020112273660408,2.278485204543747
2025-03-08 14:57:07.934,-0.0023581377150841,2.7144339573286618
2025-03-08 14:57:07.954,-0.0027437249506722,2.958400599897105
2025-03-08 14:57:07.973,-0.0031685186590366,2.9796428981021803
2025-03-08 14:57:07.993,-0.0036263243168164,2.7804271903158257
2025-03-08 14:57:08.012,-0.0041061084483624,2.3979086777704595
2025-03-08 14:57:08.032,-0.0045943844312314,1.898629465843
2025-03-08 14:57:08.051,-0.0050775822863973,1.3666135879168118
2025-03-08 14:57:08.071,-0.0055440402045716,0.8876143732273181
2025-03-08 14:57:08.090,-0.0059853532755055,0.5329617822903131
2025-03-08 14:57:08.110,-0.0063968525913245,0.3464840651096165
2025-03-08 14:57:08.129,-0.006777082660877,0.3372072418481467
2025-03-08 14:57:08.149,-0.0071263942124695,0.479205814589996
2025-03-08 14:57:08.168,-0.0074450735757767,0.7184094287877117
2025-03-08 14:57:08.188,-0.0077315606167562,0.984703566091794
2025-03-08 14:57:08.207,-0.0079811759345091,1.2066102648695844
2025-03-08 14:57:08.227,-0.0081855303944097,1.3254211531485072
2025-03-08 14:57:08.247,-0.0083326201234538,1.305949337750905
2025-03-08 14:57:08.266,-0.008407566781755,1.141955351103122
2025-03-08 14:57:08.286,-0.0083939590606117,0.8555284854816216
2025-03-08 14:57:08.305,-0.008275701579408,0.4909667913575454
2025-03-08 14:57:08.325,-0.0080391735756116,0.1047489442424587
2025-03-08 14:57:08.344,-0.0076753785819705,-0.2461305812815015
2025-03-08 14:57:08.364,-0.007181689435722,-0.5149790399801876
2025-03-08 14:57:08.383,-0.0065628473121625,-0.673184155537444
2025-03-08 14:57:08.403,-0.0058310831355819,-0.7135167941595256
2025-03-08 14:57:08.422,-0.0050054783052641,-0.6485860978215093
2025-03-08 14:57:08.442,-0.0041108053627523,-0.5052157505977113
2025-03-08 14:57:08.461,-0.0031760322246897,-0.3164545747441304
2025-03-08 14:57:08.481,-0.0022325249000594,-0.1134441573376086
2025-03-08 14:57:08.500,-0.0013118936068766,0.0807048327030353
2025-03-08 14:57:08.520,-0.0004434876934731,0.2535241657942234
2025-03-08 14:57:08.539,0.0003482767137275,0.4018425501916292
2025-03-08 14:57:08.559,0.0010463818810261,0.5272256018014105
2025-03-08 14:57:08.579,0.0016429716952078,0.629940026807588
2025-03-08 14:57:08.598,0.0021399069099493,0.7036908381809275
2025-03-08 14:57:08.618,0.0025477438599604,0.733200560809965
2025-03-08 14:57:08.637,0.0028830920483084,0.6958097095809203
2025-03-08 14:57:08.657,0.0031647721811988,0.5669099349937246
2025-03-08 14:57:08.676,0.0034096198644554,0.3276225384406639
2025-03-08 14:57:08.696,0.0036289246559815,-0.0277819619542244
2025-03-08 14:57:08.715,0.003826273881881,-0.4872903717207139
2025-03-08 14:57:08.735,0.0039971410756456,-1.0210925439231473
2025-03-08 14:57:08.754,0.0041301683374903,-1.58630341811653
2025-03-08 14:57:08.774,0.0042098660119624,-2.13514063555916
2025-03-08 14:57:08.793,0.004220339591494,-2.624160174042801
2025-03-08 14:57:08.813,0.0041495387870046,-3.021920554267556
2025-03-08 14:57:08.832,0.0039933676619601,-3.313091613457218
2025-03-08 14:57:08.852,0.0037588713436968,-3.498251800240594
2025-03-08 14:57:08.872,0.003465746002531,-3.589946578026876
2025-03-08 14:57:08.891,0.0031456608623269,-3.6065508680660345
2025-03-08 14:57:08.911,0.0028392661972662,-3.5658298399573103
2025-03-08 14:57:08.930,0.0025911644048207,-3.479831172019645
2025-03-08 14:57:08.950,0.0024434694146693,-3.3520924299440438
2025-03-08 14:57:08.969,0.00242887757925,-3.1774167092754144
2025-03-08 14:57:08.989,0.0025644283308159,-2.9438943088919154
2025-03-08 14:57:09.008,0.0028472601831275,-2.6365049242262524
2025-03-08 14:57:09.028,0.0032534955397935,-2.24146988096876
2025-03-08 14:57:09.047,0.0037408111798554,-1.7504633681630355
2025-03-08 14:57:09.067,0.0042543822195202,-1.1638311877495655
2025-03-08 14:57:09.086,0.0047350319859959,-0.4921570335127809
2025-03-08 14:57:09.106,0.0051279041760944,0.2441203807451528
2025-03-08 14:57:09.125,0.0053899530152667,1.016868129303563
2025-03-08 14:57:09.145,0.0054949385671831,1.793581914280415
2025-03-08 14:57:09.165,0.0054352081764853,2.540968350430718
2025-03-08 14:57:09.184,0.0052201853466715,3.2278651867074517
2025-03-08 14:57:09.204,0.004872119425311,3.8268749615008266
2025-03-08 14:57:09.223,0.0044202178166047,4.314630479136223
2025-03-08 14:57:09.243,0.003894643309211,4.671196311087915
2025-03-08 14:57:09.262,0.0033218314708676,4.879483932158213
2025-03-08 14:57:09.282,0.0027221042729111,4.9255433320506805
2025-03-08 14:57:09.301,0.0021097817462896,4.800188062677613
2025-03-08 14:57:09.321,0.0014952266475242,4.501785485890852
2025-03-08 14:57:09.340,0.0008877755717384,4.03945705765612
2025-03-08 14:57:09.360,0.0002984303629661,3.4355985178920263
2025-03-08 14:57:09.379,-0.0002585674811827,2.72663197447301
2025-03-08 14:57:09.399,-0.0007657549048742,1.9612114265689709
2025-03-08 14:57:09.418,-0.0012041163581708,1.1956451116500633
2025-03-08 14:57:09.438,-0.0015560779720986,0.4869837408044185
2025-03-08 14:57:09.457,-0.0018091738927771,-0.1150775302298384
2025-03-08 14:57:09.477,-0.001959509472777,-0.5758174780431341
2025-03-08 14:57:09.497,-0.002014066877926,-0.8808293677334977
2025-03-08 14:57:09.516,-0.0019909953919475,-1.0376545667538617
2025-03-08 14:57:09.536,-0.0019173698423004,-1.0731064280965057
2025-03-08 14:57:09.555,-0.0018245213737306,-1.026765063965255
2025-03-08 14:57:09.575,-0.0017418092905748,-0.9421603461873198
2025-03-08 14:57:09.594,-0.0016903189450915,-0.8578229242705109
2025-03-08 14:57:09.614,-0.0016781724194725,-0.8004300019112869
2025-03-08 14:57:09.633,-0.0016988308942964,-0.7816562075997797
2025-03-08 14:57:09.653,-0.0017330343696607,-0.7992409085577057
2025-03-08 14:57:09.672,-0.0017540643382489,-0.8415510758116195
2025-03-08 14:57:09.692,-0.0017350786324528,-0.8939500647070164
2025-03-08 14:57:09.711,-0.0016566140576497,-0.9448819030049868
2025-03-08 14:57:09.731,-0.0015122034879406,-0.9898490193993644
2025-03-08 14:57:09.750,-0.0013105262721745,-1.0322683796002068
2025-03-08 14:57:09.770,-0.0010735228761886,-1.081242305801347
2025-03-08 14:57:09.790,-0.0008311237613336,-1.1472346046651214
2025-03-08 14:57:09.809,-0.0006142019199367,-1.2372209553495668
2025-03-08 14:57:09.829,-0.0004477324654718,-1.350938939572555
2025-03-08 14:57:09.848,-0.0003459047447144,-1.479416278026459
2025-03-08 14:57:09.868,-0.0003102611567504,-1.6061814762042688
2025-03-08 14:57:09.887,-0.0003310613545971,-1.7107319766800628
2025-03-08 14:57:09.907,-0.0003912096647532,-1.773214673073292
2025-03-08 14:57:09.926,-0.0004714453218586,-1.7790188481758704
2025-03-08 14:57:09.946,-0.0005552611256123,-1.7221059642209662
2025-03-08 14:57:09.965,-0.0006322546784323,-1.6063033734727497
2025-03-08 14:57:09.985,-0.0006991993864201,-1.444316488064472
2025-03-08 14:57:10.004,-0.0007588028464604,-1.2547265974213502
2025-03-08 14:57:10.024,-0.0008167091032133,-1.0576590885919828
2025-03-08 14:57:10.043,-0.000877726955284,-0.8701027463237171
2025-03-08 14:57:10.063,-0.0009424861440072,-0.7020015355391652
2025-03-08 14:57:10.083,-0.001005656492932,-0.5541449403843106
2025-03-08 14:57:10.102,-0.001056452967645,-0.4184842358259042
2025-03-08 14:57:10.122,-0.0010814547258399,-0.280853441977766
2025-03-08 14:57:10.141,-0.0010689867436471,-0.1253694612369636
2025-03-08 14:57:10.161,-0.0010137070374551,0.0607304549316425
2025-03-08 14:57:10.180,-0.0009198403303445,0.2832026872464396
2025-03-08 14:57:10.200,-0.0008018171534672,0.5389716389851509
2025-03-08 14:57:10.219,-0.0006818399521386,0.8168484487034672
2025-03-08 14:57:10.239,-0.0005848348066815,1.100506960418815
2025-03-08 14:57:10.258,-0.0005320286773457,1.3727667445442202
2025-03-08 14:57:10.278,-0.0005347996493746,1.619888918400872
2025-03-08 14:57:10.297,-0.0005904350995673,1.8346526823461011
2025-03-08 14:57:10.317,-0.0006810533611081,2.017395345246525
2025-03-08 14:57:10.336,-0.0007762685049997,2.1748171497593427
2025-03-08 14:57:10.356,-0.0008392951781225,2.316991404260015
2025-03-08 14:57:10.375,-0.0008352724818465,2.4535092911917347
2025-03-08 14:57:10.395,-0.0007398964625733,2.5899020561245902
2025-03-08 14:57:10.415,-0.000546231319551,2.725372630327252
2025-03-08 14:57:10.434,-0.0002678950689277,2.8524773537339576
2025-03-08 14:57:10.454,6.239441564686895e-05,2.958842482546973
2025-03-08 14:57:10.473,0.0003987981468335,3.030426725620472
2025-03-08 14:57:10.493,0.0006914859420406,3.0553903912266698
2025-03-08 14:57:10.512,0.0008965723674603,3.027415986384322
2025-03-08 14:57:10.532,0.0009843095084875,2.9474193163820104
2025-03-08 14:57:10.551,0.0009436952752092,2.823016135191566
2025-03-08 14:57:10.571,0.0007829163042307,2.6657973496561964
2025-03-08 14:57:10.590,0.0005262717102682,2.4872245750311044
2025-03-08 14:57:10.610,0.0002089767439827,2.294513987923337
2025-03-08 14:57:10.629,-0.0001286379172137,2.087987229742017
2025-03-08 14:57:10.649,-0.0004464313288989,1.8609462452790648
2025-03-08 14:57:10.668,-0.000708784983691,1.6023027818524194
2025-03-08 14:57:10.688,-0.000887936759725,1.3012589920186497
2025-03-08 14:57:10.708,-0.0009663947083937,0.9526212093776544
2025-03-08 14:57:10.727,-0.0009383908940011,0.5610587933543002
2025-03-08 14:57:10.747,-0.0008102295125904,0.1428606428217616
2025-03-08 14:57:10.766,-0.0005994114869108,-0.2755780357341376
2025-03-08 14:57:10.786,-0.0003325424993471,-0.6623710179857446
2025-03-08 14:57:10.805,-4.216910007233383e-05,-0.9867774112998644
2025-03-08 14:57:10.825,0.0002371881340354,-1.2261845837268768
2025-03-08 14:57:10.844,0.0004733964606205,-1.371679899798855
2025-03-08 14:57:10.864,0.0006409045779017,-1.4308752468269523
2025-03-08 14:57:10.883,0.0007241050045669,-1.4274007324787152
2025-03-08 14:57:10.903,0.0007192534140677,-1.3973150462422048
2025-03-08 14:57:10.922,0.0006345594935777,-1.383343548684892
2025-03-08 14:57:10.942,0.0004883923100068,-1.4281834989283937
2025-03-08 14:57:10.961,0.0003058726238476,-1.5680843473939725
2025-03-08 14:57:10.981,0.0001143984717304,-1.8276370810875664
2025-03-08 14:57:11.001,-6.114927796182038e-05,-2.2163572519037102
2025-03-08 14:57:11.020,-0.0002026638141541,-2.7273331153917697
2025-03-08 14:57:11.040,-0.0003016760817668,-3.337960678495908
2025-03-08 14:57:11.059,-0.0003601232256193,-4.0125841167689815
2025-03-08 14:57:11.079,-0.000388691676942,-4.706680555229917
2025-03-08 14:57:11.098,-0.0004030257552902,-5.372057664645294
2025-03-08 14:57:11.118,-0.0004188077591075,-5.962375523235736
2025-03-08 14:57:11.137,-0.0004471608613855,-6.438205948992244
2025-03-08 14:57:11.157,-0.0004917014100963,-6.770879906756803
2025-03-08 14:57:11.176,-0.0005479387470189,-6.944595216544997
2025-03-08 14:57:11.196,-0.000604948667013,-6.95662406311896
2025-03-08 14:57:11.215,-0.0006486477592486,-6.815853584671112
2025-03-08 14:57:11.235,-0.0006656838332216,-6.540180685295487
2025-03-08 14:57:11.254,-0.0006469314341031,-6.153390198218664
2025-03-08 14:57:11.274,-0.0005897980646949,-5.682084712312004
2025-03-08 14:57:11.294,-0.0004989111246041,-5.153070885456463
2025-03-08 14:57:11.313,-0.0003851471681648,-4.5914097113518935
2025-03-08 14:57:11.333,-0.0002632992939233,-4.019151396134162
2025-03-08 14:57:11.352,-0.0001489227180905,-3.4546266372417618
2025-03-08 14:57:11.372,-5.504514280777856e-05,-2.9120787746736108
2025-03-08 14:57:11.391,1.0530126310975813e-05,-2.4014118356284526
2025-03-08 14:57:11.411,4.668038508800639e-05,-1.9278940930045196
2025-03-08 14:57:11.430,5.875515406562485e-05,-1.4917713913095954
2025-03-08 14:57:11.450,5.6660574114101314e-05,-1.0878813408158765
2025-03-08 14:57:11.469,5.1691423733343806e-05,-0.7054925375256641
2025-03-08 14:57:11.489,5.302545851223282e-05,-0.3286780776430281
2025-03-08 14:57:11.508,6.497844513949337e-05,0.0624992045236317
2025-03-08 14:57:11.528,8.58797307932736e-05,0.4899063751476658
2025-03-08 14:57:11.547,0.0001088693150309,0.9745927083804464
2025-03-08 14:57:11.567,0.0001243088166463,1.533895569274186
2025-03-08 14:57:11.586,0.0001230661358272,2.179050986240834
2025-03-08 14:57:11.606,9.975741190555032e-05,2.9138584052663226
2025-03-08 14:57:11.626,5.508182945649742e-05,3.734650105671377
2025-03-08 14:57:11.645,-3.40817767437624e-06,4.631431404145285
2025-03-08 14:57:11.665,-6.244843830449662e-05,5.589726391972466
2025-03-08 14:57:11.684,-0.0001060344949741,6.592495284103008
2025-03-08 14:57:11.704,-0.0001195764740504,7.62152986085455
2025-03-08 14:57:11.723,-9.402836057577884e-05,8.657958465242897
2025-03-08 14:57:11.743,-2.854464350061132e-05,9.681816960773505
2025-03-08 14:57:11.762,6.942696412398328e-05,10.670953540878122
2025-03-08 14:57:11.782,0.0001868111471052,11.59974076936257
2025-03-08 14:57:11.801,0.0003094608907875,12.438130178437074
2025-03-08 14:57:11.821,0.0004269830599254,13.151512017309877
2025-03-08 14:57:11.840,0.0005360962308525,13.701660376797763
2025-03-08 14:57:11.860,0.0006413145004615,14.048781596682357
2025-03-08 14:57:11.879,0.0007526685776545,14.154389136333732
2025-03-08 14:57:11.899,0.0008811603444892,13.98447688523444
2025-03-08 14:57:11.919,0.0010334438201391,13.51234962015411
2025-03-08 14:57:11.938,0.0012075957857461,12.720575895034797
2025-03-08 14:57:11.958,0.0013915872418304,11.601871123507394
2025-03-08 14:57:11.977,0.0015651924345357,10.15919566086047
2025-03-08 14:57:11.997,0.0017048569967375,8.405752669209695
2025-03-08 14:57:12.016,0.001789970804092,6.365660027918858
2025-03-08 14:57:12.036,0.0018085120449427,4.075724116933063
2025-03-08 14:57:12.055,0.0017603253090312,1.588043700472108
2025-03-08 14:57:12.075,0.0016571730374829,-1.027596745989915
2025-03-08 14:57:12.094,0.0015197450540928,-3.683073710437891
2025-03-08 14:57:12.114,0.0013726453538518,-6.274501798334558
2025-03-08 14:57:12.133,0.0012387944821541,-8.688901917973887
2025-03-08 14:57:12.153,0.0011346653700398,-10.814723893561638
2025-03-08 14:57:12.172,0.0010674023195201,-12.554715139115016
2025-03-08 14:57:12.192,0.0010343071884837,-13.838591513961594
2025-03-08 14:57:12.212,0.0010245861202075,-14.632575783982036
2025-03-08 14:57:12.231,0.0010227806808016,-14.94336612427718
2025-03-08 14:57:12.251,0.001013024796414,-14.81542211205404
2025-03-08 14:57:12.270,0.0009831558416629,-14.322211304771663
2025-03-08 14:57:12.290,0.0009277283324208,-13.553634907473276
2025-03-08 14:57:12.309,0.0008491552537953,-12.60267804475956
2025-03-08 14:57:12.329,0.0007566126082594,-11.5541426933674
2025-03-08 14:57:12.348,0.0006629835690778,-10.47727417872244
2025-03-08 14:57:12.368,0.0005807864617924,-9.422673776454836
2025-03-08 14:57:12.387,0.0005184089511424,-8.422676713271816
2025-03-08 14:57:12.407,0.0004778493360418,-7.493761230354938
2025-03-08 14:57:12.426,0.0004545811976957,-6.639605122783321
2025-03-08 14:57:12.446,0.0004393697906636,-5.853896987377754
2025-03-08 14:57:12.465,0.0004212219099973,-5.122606333871947
2025-03-08 14:57:12.485,0.0003903990213695,-4.425867655870683
2025-03-08 14:57:12.504,0.0003406094748336,-3.739854451719185
2025-03-08 14:57:12.524,0.0002699528786441,-3.039045909967817
2025-03-08 14:57:12.544,0.0001806588491707,-2.299173188243434
2025-03-08 14:57:12.563,7.795314790395105e-05,-1.5008900017435036
2025-03-08 14:57:12.583,-3.153002913792272e-05,-0.6338601983564025
2025-03-08 14:57:12.602,-0.0001413941002629,0.2994245806524355
2025-03-08 14:57:12.622,-0.0002468303049469,1.2810318563660874
2025-03-08 14:57:12.641,-0.0003453728066012,2.2770712950897822
2025-03-08 14:57:12.661,-0.0004368759854323,3.239788426866275
2025-03-08 14:57:12.680,-0.0005227330178568,4.112201487356044
2025-03-08 14:57:12.700,-0.0006046032896305,4.834650365361667
2025-03-08 14:57:12.719,-0.0006831132031945,5.35226347151318
2025-03-08 14:57:12.739,-0.0007570271779454,5.622244343764569
2025-03-08 14:57:12.758,-0.0008232105190187,5.619996963113181
2025-03-08 14:57:12.778,-0.0008773998325028,5.343366209244092
2025-03-08 14:57:12.797,-0.0009155022175474,4.814567262501575
2025-03-08 14:57:12.817,-0.0009349791064126,4.079624787256559
2025-03-08 14:57:12.837,-0.0009358781943797,3.205317863567095
2025-03-08 14:57:12.856,-0.0009212211858007,2.2737904364486576
2025-03-08 14:57:12.876,-0.0008966531524809,1.375202762505174
2025-03-08 14:57:12.895,-0.000869446925762,0.5990510610776683
2025-03-08 14:57:12.915,-0.0008471127127499,0.0249947678877141
2025-03-08 14:57:12.934,-0.0008359709814396,-0.2858517525931219
2025-03-08 14:57:12.954,-0.0008400655882006,-0.2981859449280628
2025-03-08 14:57:12.973,-0.0008606955127469,-0.0074243656600993
2025-03-08 14:57:12.993,-0.0008966498564712,0.5585295579899504
2025-03-08 14:57:13.012,-0.0009450216162037,1.3411982626813093
2025-03-08 14:57:13.032,-0.0010023389430899,2.257295918770704
2025-03-08 14:57:13.051,-0.0010657033213771,3.208022780474169
2025-03-08 14:57:13.071,-0.0011336154740861,4.0909955511401614
2025-03-08 14:57:13.090,-0.0012062103578479,4.813400022507099
2025-03-08 14:57:13.110,-0.0012847890311877,5.304607963302402
2025-03-08 14:57:13.130,-0.0013708186793204,5.52641417466402
2025-03-08 14:57:13.149,-0.0014648172760989,5.4792312789817945
2025-03-08 14:57:13.169,-0.0015655888616462,5.203005368342255
2025-03-08 14:57:13.188,-0.0016701078929305,4.7722729823820895
2025-03-08 14:57:13.208,-0.00177407433099,4.285651381834815
2025-03-08 14:57:13.227,-0.0018729230694384,3.8510456429424575
2025-03-08 14:57:13.247,-0.001962961814066,3.5687563804954165
2025-03-08 14:57:13.266,-0.0020423164404477,3.5152121713243503
2025-03-08 14:57:13.286,-0.0021114156547779,3.730041924958893
2025-03-08 14:57:13.305,-0.0021728173391733,4.208640876464263
2025-03-08 14:57:13.325,-0.0022302982524517,4.901437635485808
2025-03-08 14:57:13.344,-0.0022873247806688,5.719969005583296
2025-03-08 14:57:13.364,-0.0023452470440404,6.5488021093730415
2025-03-08 14:57:13.383,-0.0024017097100698,7.261430871359072
2025-03-08 14:57:13.403,-0.0024497802163399,7.737616001960154
2025-03-08 14:57:13.422,-0.002478149484097,7.879359543802673
2025-03-08 14:57:13.442,-0.0024724931489708,7.622939192409103
2025-03-08 14:57:13.462,-0.0024177706071899,6.94522194615984
2025-03-08 14:57:13.481,-0.0023010005592117,5.8636946857350845
2025-03-08 14:57:13.501,-0.002113966420883,4.430959113572644
2025-03-08 14:57:13.520,-0.0018553494487647,2.725433373243126
2025-03-08 14:57:13.540,-0.0015318747734391,0.8403921866179614
2025-03-08 14:57:13.559,-0.0011581667034741,-1.1267687906435695
2025-03-08 14:57:13.579,-0.0007552203229086,-3.083804053355235
2025-03-08 14:57:13.598,-0.0003477245253097,-4.950865481003493
2025-03-08 14:57:13.618,3.922242968023975e-05,-6.66559696062144
2025-03-08 14:57:13.637,0.0003833542440221,-8.186059409735266
2025-03-08 14:57:13.657,0.0006679015021912,-9.491400515044614
2025-03-08 14:57:13.676,0.0008833631057039,-10.58014222676433
2025-03-08 14:57:13.696,0.0010282396752543,-11.46608574748294
2025-03-08 14:57:13.715,0.0011086885655882,-12.172163402512616
2025-03-08 14:57:13.735,0.001137173372923,-12.723055529172392
2025-03-08 14:57:13.755,0.0011303542949828,-13.13791032295028
2025-03-08 14:57:13.774,0.0011066403191211,-13.424813861267532
2025-03-08 14:57:13.794,0.0010838783824553,-13.578471171836076
2025-03-08 14:57:13.813,0.0010775248629652,-13.581753135641096
2025-03-08 14:57:13.833,0.0010993980976331,-13.410547387846211
2025-03-08 14:57:13.852,0.0011569030537084,-13.040220113582205
2025-03-08 14:57:13.872,0.0012525736223995,-12.45148351933418
2025-03-08 14:57:13.891,0.0013838857484723,-11.633860937613589
2025-03-08 14:57:13.911,0.0015434348401453,-10.586124761577596
2025-03-08 14:57:13.930,0.0017196272872554,-9.314534162749458
2025-03-08 14:57:13.950,0.0018979820274106,-7.830738002328743
2025-03-08 14:57:13.969,0.0020630136131314,-6.151332275751349
2025-03-08 14:57:13.989,0.002200515690399,-4.300203655678439
2025-03-08 14:57:14.008,0.0022999122838784,-2.313328921716432
2025-03-08 14:57:14.028,0.002356228510605,-0.244250661405604
2025-03-08 14:57:14.048,0.0023712022428365,1.8324062971673487
2025-03-08 14:57:14.067,0.0023531671195117,3.821929522692528
2025-03-08 14:57:14.087,0.002315607669825,5.6165233389398885
2025-03-08 14:57:14.106,0.0022746595091796,7.108085720699507
2025-03-08 14:57:14.126,0.002246143541645,8.204636835727635
2025-03-08 14:57:14.145,0.0022428159250098,8.846863907629022
2025-03-08 14:57:14.165,0.0022723569066042,9.020777837103813
2025-03-08 14:57:14.184,0.0023363511350738,8.763127217287854
2025-03-08 14:57:14.204,0.0024302951339098,8.157824609293794
2025-03-08 14:57:14.223,0.0025445584028623,7.323770647705854
2025-03-08 14:57:14.243,0.002666166078285,6.396511766211356
2025-03-08 14:57:14.262,0.0027811747398383,5.507545276571356
2025-03-08 14:57:14.282,0.0028772425343,4.765415711593379
2025-03-08 14:57:14.301,0.0029458199508151,4.242009707085851
2025-03-08 14:57:14.321,0.0029833606387717,3.965982177163463
2025-03-08 14:57:14.340,0.002991194294183,3.923558004429982
2025-03-08 14:57:14.360,0.0029741699397903,4.065548243423059
2025-03-08 14:57:14.380,0.0029386311272259,4.318584319982669
2025-03-08 14:57:14.399,0.0028904675989465,4.598326534346284
2025-03-08 14:57:14.419,0.0028338352554707,4.822579139373323
2025-03-08 14:57:14.438,0.002770792864212,4.922637952319809
2025-03-08 14:57:14.458,0.0027017570330726,4.85166450741051
2025-03-08 14:57:14.477,0.0026264141510235,4.589363656499077
2025-03-08 14:57:14.497,0.0025445661935022,4.142729684670341
2025-03-08 14:57:14.516,0.0024563929973939,3.5431106312287994
2025-03-08 14:57:14.536,0.0023618862086481,2.8402795833486745
2025-03-08 14:57:14.555,0.0022596916328511,2.094524996631556
2025-03-08 14:57:14.575,0.0021460058226102,1.3679298109792433
2025-03-08 14:57:14.594,0.0020142253494199,0.7160188482765731
2025-03-08 14:57:14.614,0.0018557078547548,0.180877393818369
2025-03-08 14:57:14.633,0.0016615036820884,-0.2132998852883225
2025-03-08 14:57:14.653,0.0014245560322886,-0.4615494782086747
2025-03-08 14:57:14.673,0.0011417829000556,-0.5761842875046335
2025-03-08 14:57:14.692,0.0008155555587816,-0.5820361757586027
2025-03-08 14:57:14.712,0.0004542194578154,-0.5100508065705235
2025-03-08 14:57:14.731,7.142198796315251e-05,-0.3907767812486598
2025-03-08 14:57:14.751,-0.0003158101911607,-0.249238227654182
2025-03-08 14:57:14.770,-0.0006900073225091,-0.1022078865893727
2025-03-08 14:57:14.790,-0.0010366158066254,0.0418168146440311
2025-03-08 14:57:14.809,-0.001346945843078,0.1803510769715251
2025-03-08 14:57:14.829,-0.001619912283846,0.3133120128915123
2025-03-08 14:57:14.848,-0.0018621202849315,0.4392243476556871
2025-03-08 14:57:14.868,-0.0020863241760766,0.5523452451530768
2025-03-08 14:57:14.887,-0.0023086684053916,0.6415340307257503
2025-03-08 14:57:14.907,-0.0025453196438467,0.69127768667164
2025-03-08 14:57:14.926,-0.0028091782654212,0.684784423396834
2025-03-08 14:57:14.946,-0.0031073575112186,0.6085315260971912
2025-03-08 14:57:14.966,-0.0034399870752008,0.4572014743822841
2025-03-08 14:57:14.985,-0.0038005750600076,0.237700441853514
2025-03-08 14:57:15.005,-0.0041776976046086,-0.0289741093662264
2025-03-08 14:57:15.024,-0.0045573611247272,-0.3088689016807041
2025-03-08 14:57:15.044,-0.0049252168205697,-0.5594697265456562
2025-03-08 14:57:15.063,-0.0052679972290319,-0.7369177759499247
2025-03-08 14:57:15.083,-0.005573983472376,-0.8049192871981379
2025-03-08 14:57:15.102,-0.0058327632325339,-0.7436504457701042
2025-03-08 14:57:15.122,-0.0060347906601238,-0.5566705343532463
2025-03-08 14:57:15.141,-0.006171235844775,-0.2740143837814254
2025-03-08 14:57:15.161,-0.0062343853880709,0.049694415352539
2025-03-08 14:57:15.180,-0.0062185740941432,0.3422088896133343
2025-03-08 14:57:15.200,-0.0061214209734862,0.5246513133894389
2025-03-08 14:57:15.219,-0.0059450485538581,0.5245818123650584
2025-03-08 14:57:15.239,-0.0056969377598446,0.288768936576019
2025-03-08 14:57:15.258,-0.0053900842590053,-0.2066231723082645
2025-03-08 14:57:15.278,-0.0050422108737375,-0.950226216444096
2025-03-08 14:57:15.298,-0.004673979969227,-1.895089769630776
2025-03-08 14:57:15.317,-0.0043063987962548,-2.9639044946451896
2025-03-08 14:57:15.337,-0.0039578306093506,-4.059057268528816
2025-03-08 14:57:15.356,-0.0036411386578704,-5.0758535589625415
2025-03-08 14:57:15.376,-0.0033614986249788,-5.916575691715723
2025-03-08 14:57:15.395,-0.0031153688599849,-6.502842932724049
2025-03-08 14:57:15.415,-0.0028909973127725,-6.7841531134006665
2025-03-08 14:57:15.434,-0.0026705821636666,-6.741452376308888
2025-03-08 14:57:15.454,-0.0024337668767483,-6.385805582271799
2025-03-08 14:57:15.473,-0.0021616924745555,-5.753317419770418
2025-03-08 14:57:15.493,-0.0018405991072806,-4.898039115055578
2025-03-08 14:57:15.512,-0.0014641161164029,-3.884560310116367
2025-03-08 14:57:15.532,-0.0010338362788834,-2.7814686509723856
2025-03-08 14:57:15.551,-0.0005582990890799,-1.6561706145494366
2025-03-08 14:57:15.571,-5.0875451841576846e-05,-0.5710070019831737
2025-03-08 14:57:15.591,0.0004728284294702,0.4196792062460413
2025-03-08 14:57:15.610,0.0009974686341944,1.2718596610584694
2025-03-08 14:57:15.630,0.0015098880252528,1.9536639884566207
2025-03-08 14:57:15.649,0.002000160708971,2.446627632696332
2025-03-08 14:57:15.669,0.0024617141133432,2.7460304150017856
2025-03-08 14:57:15.688,0.0028907888552141,2.860028114859927
2025-03-08 14:57:15.708,0.0032856801760374,2.807546085569448
2025-03-08 14:57:15.727,0.0036461547798172,2.615294049868136
2025-03-08 14:57:15.747,0.003973195673765,2.3145345387047254
2025-03-08 14:57:15.766,0.0042689616275169,1.9382197159229744
2025-03-08 14:57:15.786,0.0045367114730363,1.518825984478959
2025-03-08 14:57:15.805,0.0047804743140536,1.0868477228682396
2025-03-08 14:57:15.825,0.0050043739426167,0.6696685934641105
2025-03-08 14:57:15.844,0.0052116473459618,0.2905276848462931
2025-03-08 14:57:15.864,0.0054034996741086,-0.0324834738278728
2025-03-08 14:57:15.884,0.0055780355835685,-0.2871655226679046
2025-03-08 14:57:15.903,0.0057296037075719,-0.4673016986821099
2025-03-08 14:57:15.923,0.0058489141186048,-0.5717815490049457
2025-03-08 14:57:15.942,0.0059241371383029,-0.6027617028587533
2025-03-08 14:57:15.962,0.0059428653546716,-0.56326676608125
2025-03-08 14:57:15.981,0.0058944800290668,-0.4549259720580578
2025-03-08 14:57:16.001,0.0057723125937303,-0.276594300726258
2025-03-08 14:57:16.020,0.0055751000503648,-0.0243930356177047
2025-03-08 14:57:16.040,0.0053074964351378,0.3066978238614997
2025-03-08 14:57:16.059,0.0049796583054681,0.7200040003051501
2025-03-08 14:57:16.079,0.0046060609466103,1.2137099481773803
2025-03-08 14:57:16.098,0.004203715475342,1.7775559962738798
2025-03-08 14:57:16.118,0.0037899378854949,2.390394013395038
2025-03-08 14:57:16.137,0.0033798933855299,3.0192079034004764
2025-03-08 14:57:16.157,0.0029843280437485,3.6200857898599086
2025-03-08 14:57:16.177,0.002608063941201,4.141455092630228
2025-03-08 14:57:16.196,0.0022497697733713,4.529566821727488
2025-03-08 14:57:16.216,0.0019031614867204,4.735713538797357
2025-03-08 14:57:16.235,0.00155930947827,4.724095246102712
2025-03-08 14:57:16.255,0.0012094004961134,4.4788219682489725
2025-03-08 14:57:16.274,0.0008472537373343,4.008464903030951
2025-03-08 14:57:16.294,0.0004710450654108,3.346922572167992
2025-03-08 14:57:16.313,8.391558378099e-05,2.550080330774013
2025-03-08 14:57:16.333,-0.0003066213822196,1.6886237326444529
2025-03-08 14:57:16.352,-0.0006902996971496,0.8381906140410227
2025-03-08 14:57:16.372,-0.0010563168156595,0.0686093450083643
2025-03-08 14:57:16.391,-0.0013955624035686,-0.5658545802152726
2025-03-08 14:57:16.411,-0.0017023011203863,-1.0335498323593608
2025-03-08 14:57:16.430,-0.0019749515451811,-1.3286401442094833
2025-03-08 14:57:16.450,-0.002215872815131,-1.4700300786894125
2025-03-08 14:57:16.469,-0.002430302717581,-1.496349704184727
2025-03-08 14:57:16.489,-0.002624745308103,-1.457997465886025
2025-03-08 14:57:16.509,-0.0028051784902882,-1.4076966609780852
2025-03-08 14:57:16.528,-0.0029754426856679,-1.3911884608397909
2025-03-08 14:57:16.548,-0.0031361109464346,-1.4395628075760625
2025-03-08 14:57:16.567,-0.0032840660657323,-1.564396472181298
2025-03-08 14:57:16.587,-0.0034128922625996,-1.7564198265491633
2025-03-08 14:57:16.606,-0.0035139742160416,-1.9879187337250923
2025-03-08 14:57:16.626,-0.0035779512956543,-2.2185027935039447
2025-03-08 14:57:16.645,-0.0035960822443448,-2.403268914827803
2025-03-08 14:57:16.665,-0.003561222789531,-2.501873457155485
2025-03-08 14:57:16.684,-0.0034683758768541,-2.4867646025575256
2025-03-08 14:57:16.704,-0.0033149494374988,-2.348942853783909
2025-03-08 14:57:16.723,-0.0031008954187707,-2.1001111748446157
2025-03-08 14:57:16.743,-0.0028288667139784,-1.770822423897608
2025-03-08 14:57:16.762,-0.0025044556847139,-1.4050402980225227
2025-03-08 14:57:16.782,-0.0021364650897867,-1.0522160385828585
2025-03-08 14:57:16.802,-0.0017370265979527,-0.7584197312058814
2025-03-08 14:57:16.821,-0.001321292322335,-0.5582032551632987
2025-03-08 14:57:16.841,-0.0009064715230453,-0.4687184051293153
2025-03-08 14:57:16.860,-0.0005102051183313,-0.487188217679622
2025-03-08 14:57:16.880,-0.0001485732396118,-0.5921622707274168
2025-03-08 14:57:16.899,0.0001657740317453,-0.7481779019741256
2025-03-08 14:57:16.919,0.0004249184370625,-0.9127088589337587
2025-03-08 14:57:16.938,0.0006262033476365,-1.043852955604994
2025-03-08 14:57:16.958,0.0007720416826172,-1.107213891995639
2025-03-08 14:57:16.977,0.0008691746623958,-1.080799964799004
2025-03-08 14:57:16.997,0.0009275388636958,-0.9573076306339212
2025-03-08 14:57:17.016,0.0009588417710992,-0.7437158362143755
2025-03-08 14:57:17.036,0.0009749447459559,-0.458609405284197
2025-03-08 14:57:17.055,0.0009862419860321,-0.1280405660485521
2025-03-08 14:57:17.075,0.0010003467079195,0.2190360453641348
2025-03-08 14:57:17.095,0.0010214245026205,0.5547473503343052
2025-03-08 14:57:17.114,0.0010503560714945,0.8550192699641458
2025-03-08 14:57:17.134,0.0010856137871149,1.1008714817381218
2025-03-08 14:57:17.153,0.0011244737766251,1.2786582562774869
2025-03-08 14:57:17.173,0.0011641200027786,1.379914802905883
2025-03-08 14:57:17.192,0.001202334756381,1.4014142299771075
2025-03-08 14:57:17.212,0.0012376742548504,1.3457051542772722
2025-03-08 14:57:17.231,0.0012691745467552,1.2219645294872314
2025-03-08 14:57:17.251,0.0012957123662925,1.0466560696891272
2025-03-08 14:57:17.270,0.0013152153691473,0.8433560318020774
2025-03-08 14:57:17.290,0.0013239979596925,0.6412220301031119
2025-03-08 14:57:17.309,0.0013165354530269,0.4718868086714899
2025-03-08 14:57:17.329,0.0012858935643351,0.3649780183198897
2025-03-08 14:57:17.348,0.001224793561815,0.3429100198702236
2025-03-08 14:57:17.368,0.0011270389625814,0.4159526637175261
2025-03-08 14:57:17.387,0.0009889137965681,0.5787242692497363
2025-03-08 14:57:17.407,0.0008102207980011,0.8090984729900254
2025-03-08 14:57:17.427,0.0005947578169075,1.0700818552203843
2025-03-08 14:57:17.446,0.0003501251695894,1.3146269439722245
2025-03-08 14:57:17.466,8.681888558685558e-05,1.4927345797727944
2025-03-08 14:57:17.485,-0.0001833209615183,1.559693478276534
2025-03-08 14:57:17.505,-0.0004490391650135,1.4839985952285315
2025-03-08 14:57:17.524,-0.0007015170162728,1.2534494272242582
2025-03-08 14:57:17.544,-0.0009356555526782,0.8781820176254078
2025-03-08 14:57:17.563,-0.0011504544669984,0.3899148401579452
2025-03-08 14:57:17.583,-0.0013484232543798,-0.1625832097521334
2025-03-08 14:57:17.602,-0.0015342368851205,-0.7210006572538867
2025-03-08 14:57:17.622,-0.0017130216780649,-1.226505876756947
2025-03-08 14:57:17.641,-0.0018886743557595,-1.628511340855883
2025-03-08 14:57:17.661,-0.002062531665906,-1.8915589459290765
2025-03-08 14:57:17.680,-0.0022326325882121,-1.9992538394682329
2025-03-08 14:57:17.700,-0.0023937850018008,-1.954898808450863
2025-03-08 14:57:17.720,-0.0025385814173438,-1.77914235393643
2025-03-08 14:57:17.739,-0.0026593142021023,-1.5054081802552348
2025-03-08 14:57:17.759,-0.0027504358395675,-1.1740977945939275
2025-03-08 14:57:17.778,-0.0028109309871643,-0.8265935495440223
2025-03-08 14:57:17.798,-0.0028458826306282,-0.4999849980091499
2025-03-08 14:57:17.817,-0.0028666770229165,-0.2232211660418576
2025-03-08 14:57:17.837,-0.0028895795990443,-0.0150639478802443
2025-03-08 14:57:17.856,-0.0029326767676733,0.116187291349042
2025-03-08 14:57:17.876,-0.0030114260162177,0.1716250489581312
2025-03-08 14:57:17.895,-0.0031334071689156,0.1599845062016522
2025-03-08 14:57:17.915,-0.0032933080412655,0.0958464699375964
2025-03-08 14:57:17.934,-0.0034694870974276,-0.0018965264045988
2025-03-08 14:57:17.954,-0.0036234077428657,-0.111438625274039
2025-03-08 14:57:17.973,-0.0037028014776694,-0.209760862319178
2025-03-08 14:57:17.993,-0.0036487115529596,-0.2750677426920822
2025-03-08 14:57:18.013,-0.0034057164086806,-0.2900578700302216
2025-03-08 14:57:18.032,-0.0029337261888239,-0.2455902154811708
2025-03-08 14:57:18.052,-0.0022189446063649,-0.1437999828445587
2025-03-08 14:57:18.071,-0.0012811689520349,0.0005151835632307
2025-03-08 14:57:18.091,-0.0001749019081509,0.1612008322672
2025-03-08 14:57:18.110,0.0010170006597928,0.3050305041911301
2025-03-08 14:57:18.130,0.0021963829911125,0.3983308730546557
2025-03-08 14:57:18.149,0.003266657398971,0.4144808475690757
2025-03-08 14:57:18.169,0.0041493309624432,0.3404175759023822
2025-03-08 14:57:18.188,0.004796182133222,0.1804596191952778
2025-03-08 14:57:18.208,0.0051944939182292,-0.0435609630231063
2025-03-08 14:57:18.227,0.0053647728150033,-0.2959131974240019
2025-03-08 14:57:18.247,0.0053522774740527,-0.5334490678622792
2025-03-08 14:57:18.266,0.0052149528139279,-0.7134193783063886
2025-03-08 14:57:18.286,0.0050108324200005,-0.8008885025210071
2025-03-08 14:57:18.305,0.0047876812257465,-0.7742819913864403
2025-03-08 14:57:18.325,0.0045767643288861,-0.6281966229656767
2025-03-08 14:57:18.345,0.0043913836928904,-0.3732926408426787
2025-03-08 14:57:18.364,0.0042295528434006,-0.0336718676624591
2025-03-08 14:57:18.384,0.0040792587607197,0.3574760503580096
2025-03-08 14:57:18.403,0.0039244513610832,0.7630165536721724
2025-03-08 14:57:18.423,0.0037502054173621,1.1468938176159245
2025-03-08 14:57:18.442,0.0035461754223489,1.4783176589585896
2025-03-08 14:57:18.462,0.0033081673750595,1.734681819044591
2025-03-08 14:57:18.481,0.003038118163571,1.9030804314418988
2025-03-08 14:57:18.501,0.002742948640704,1.9805293436640152
2025-03-08 14:57:18.520,0.0024327649239332,1.973140625359185
2025-03-08 14:57:18.540,0.0021188495754709,1.894540765028508
2025-03-08 14:57:18.559,0.0018118181500488,1.763802365638615
2025-03-08 14:57:18.579,0.0015201778029973,1.6031301276566674
2025-03-08 14:57:18.598,0.0012493529431911,1.435529898529578
2025-03-08 14:57:18.618,0.0010011428579343,1.282667259753297
2025-03-08 14:57:18.638,0.0007735955619789,1.1630517212282852
2025-03-08 14:57:18.657,0.0005613572518802,1.090576345855999
2025-03-08 14:57:18.677,0.0003565708460943,1.0733626268762553
2025-03-08 14:57:18.696,0.0001502815276147,1.112857355321386
2025-03-08 14:57:18.716,-6.588415651727209e-05,1.203195029106588
2025-03-08 14:57:18.735,-0.0002981242515887,1.3309296110828126
2025-03-08 14:57:18.755,-0.0005492817173487,1.4753154916295517
2025-03-08 14:57:18.774,-0.000818277379198,1.6093648030967285
2025-03-08 14:57:18.794,-0.0011002335896387,1.701904180078486
2025-03-08 14:57:18.813,-0.0013872963801539,1.720743698354001
2025-03-08 14:57:18.833,-0.0016700920753209,1.636805196553495
2025-03-08 14:57:18.852,-0.0019396278042014,1.4286777863356803
2025-03-08 14:57:18.872,-0.0021892757421424,1.086736174144676
2025-03-08 14:57:18.891,-0.002416337238147,0.6158626298946047
2025-03-08 14:57:18.911,-0.0026226604922142,0.0360389586086564
2025-03-08 14:57:18.931,-0.0028139735170451,-0.6194561257399611
2025-03-08 14:57:18.950,-0.0029979934196932,-1.3079708475396237
2025-03-08 14:57:18.970,-0.0031818146545794,-1.9828127852929152
2025-03-08 14:57:18.989,-0.0033693136569341,-2.5990285814963867
2025-03-08 14:57:19.009,-0.0035592342703465,-3.1186277160694296
2025-03-08 14:57:19.028,-0.003744369586565,-3.5143950087033926
2025-03-08 14:57:19.048,-0.0039120159258784,-3.77175086986161
2025-03-08 14:57:19.067,-0.0040456808993408,-3.888549053873423
2025-03-08 14:57:19.087,-0.0041277966873205,-3.873147201173133
2025-03-08 14:57:19.106,-0.0041428948115651,-3.7414183417502818
2025-03-08 14:57:19.126,-0.0040804648588746,-3.513503065524731
2025-03-08 14:57:19.145,-0.0039367398724339,-3.2110236411728463
2025-03-08 14:57:19.165,-0.0037150002025214,-2.8552471085243583
2025-03-08 14:57:19.184,-0.003424511303065,-2.4663634778559387
2025-03-08 14:57:19.204,-0.0030786145636048,-2.0637003784600707
2025-03-08 14:57:19.223,-0.002692569756475,-1.6663992804973486
2025-03-08 14:57:19.243,-0.0022815532705797,-1.2939202515749817
2025-03-08 14:57:19.263,-0.0018589749384163,-0.9657951253178498
2025-03-08 14:57:19.282,-0.0014351645152069,-0.7003202478556192
2025-03-08 14:57:19.302,-0.0010164980964801,-0.5122892646775855
2025-03-08 14:57:19.321,-0.000605068468574,-0.4102708507050744
2025-03-08 14:57:19.341,-0.0001989478331917,-0.3941895842920856
2025-03-08 14:57:19.360,0.0002070460495026,-0.4539806915796531
2025-03-08 14:57:19.380,0.0006202709986258,-0.5698615551812216
2025-03-08 14:57:19.399,0.0010490186391981,-0.7143786404408274
2025-03-08 14:57:19.419,0.0015011096725502,-0.8559717322406812
2025-03-08 14:57:19.438,0.0019822188067067,-0.9634578534907968
2025-03-08 14:57:19.458,0.0024938699301415,-1.0106393711464512
2025-03-08 14:57:19.477,0.0030312290659912,-0.9802038777202547
2025-03-08 14:57:19.497,0.003581060167298,-0.8661997407406485
2025-03-08 14:57:19.516,0.0041204107878329,-0.6746250423141931
2025-03-08 14:57:19.536,0.0046166860723764,-0.4220354005517045
2025-03-08 14:57:19.556,0.0050296847988351,-0.132497734244499
2025-03-08 14:57:19.575,0.005315863212026,0.1664272541566028
2025-03-08 14:57:19.595,0.0054345527508044,0.4478393091183276
2025-03-08 14:57:19.614,0.0053551871980909,0.6890660760563111
2025-03-08 14:57:19.634,0.0050640451564944,0.8742155753508514
2025-03-08 14:57:19.653,0.0045688674507442,0.9955989384099894
2025-03-08 14:57:19.673,0.0039000734669041,1.054101999303391
2025-03-08 14:57:19.692,0.0031080365249521,1.058629909533929
2025-03-08 14:57:19.712,0.0022567240709986,1.0247255916123288
2025-03-08 14:57:19.731,0.0014147498033237,0.9724773449263846
2025-03-08 14:57:19.751,0.0006454256097074,0.923927339671967
2025-03-08 14:57:19.770,-2.2934405690221766e-06,0.9003227927130826
2025-03-08 14:57:19.790,-0.0005000959406751,0.9196211653352792
2025-03-08 14:57:19.809,-0.0008424562590069,0.9945996190789116
2025-03-08 14:57:19.829,-0.0010442668951259,1.1317274113738132
2025-03-08 14:57:19.849,-0.0011348311117618,1.330721844837949
2025-03-08 14:57:19.868,-0.0011500349074519,1.5845596262247106
2025-03-08 14:57:19.888,-0.0011247857506558,1.8797590381121732
2025-03-08 14:57:19.907,-0.0010873563437443,2.1969673311615843
2025-03-08 14:57:19.927,-0.0010564100073276,2.5121371826109904
2025-03-08 14:57:19.946,-0.0010406390335319,2.798668827403791
2025-03-08 14:57:19.966,-0.0010404104632616,3.0307127860025305
2025-03-08 14:57:19.985,-0.0010506144573248,3.187387650806012
2025-03-08 14:57:20.005,-0.0010639053627252,3.2571191283786205
2025-03-08 14:57:20.024,-0.0010735976208854,3.240893331316556
2025-03-08 14:57:20.044,-0.0010756377508426,3.1531860338655258
2025-03-08 14:57:20.063,-0.0010693657300201,3.019803059663364
2025-03-08 14:57:20.083,-0.0010571418058737,2.872739881976881
2025-03-08 14:57:20.102,-0.0010431868469856,2.7431249695955984
2025-03-08 14:57:20.122,-0.0010320661439915,2.6539804623737075
2025-03-08 14:57:20.142,-0.0010271961093619,2.61467288115042
2025-03-08 14:57:20.161,-0.0010296891785626,2.618505135687812
2025-03-08 14:57:20.181,-0.0010378037548584,2.644068978026562
2025-03-08 14:57:20.200,-0.0010471726518375,2.6599902420243238
2025-03-08 14:57:20.220,-0.0010518091045062,2.6318443228563484
2025-03-08 14:57:20.239,-0.0010456722119008,2.5295326446984503
2025-03-08 14:57:20.259,-0.0010243819347529,2.3334036447612982
2025-03-08 14:57:20.278,-0.00098657433257,2.037828781691801
2025-03-08 14:57:20.298,-0.0009344462818924,1.651637040618349
2025-03-08 14:57:20.317,-0.000873280778823,1.1955611766075571
2025-03-08 14:57:20.337,-0.000810088938675,0.6974835292762657
2025-03-08 14:57:20.356,-0.0007517923930479,0.1866820192636963
2025-03-08 14:57:20.376,-0.0007034844159107,-0.3115891945922657
2025-03-08 14:57:20.395,-0.0006672481644716,-0.7800157661568956
2025-03-08 14:57:20.415,-0.0006418286010457,-1.2109021660658408
2025-03-08 14:57:20.434,-0.0006231963098531,-1.6054823262619382
2025-03-08 14:57:20.454,-0.00060576424473,-1.97133997818596
2025-03-08 14:57:20.474,-0.0005838177945183,-2.3188565990846253
2025-03-08 14:57:20.493,-0.0005526942270128,-2.657741490925628
2025-03-08 14:57:20.513,-0.0005094311279433,-2.994501954708153
2025-03-08 14:57:20.532,-0.0004529001046715,-3.3312841038086582
2025-03-08 14:57:20.552,-0.0003836644506454,-3.666041733448332
2025-03-08 14:57:20.571,-0.0003038040158845,-3.993637046440092
2025-03-08 14:57:20.591,-0.0002167605268629,-4.307319950119835
2025-03-08 14:57:20.610,-0.0001270513659938,-4.60006713785136
2025-03-08 14:57:20.630,-3.966367512942445e-05,-4.865436382151879
2025-03-08 14:57:20.649,4.0897115481178377e-05,-5.097823152151407
2025-03-08 14:57:20.669,0.0001117036011677,-5.292196139722436
2025-03-08 14:57:20.688,0.0001723107486181,-5.443464445259679
2025-03-08 14:57:20.708,0.0002251342940762,-5.54560854561169
2025-03-08 14:57:20.727,0.0002750624119339,-5.590691638245396
2025-03-08 14:57:20.747,0.0003282024635874,-5.567954622796698
2025-03-08 14:57:20.767,0.0003898812547579,-5.463377447100873
2025-03-08 14:57:20.786,0.0004623329284505,-5.260230252858849
2025-03-08 14:57:20.806,0.0005428381264426,-4.941071497423606
2025-03-08 14:57:20.825,0.0006232056957701,-4.491292217264065
2025-03-08 14:57:20.845,0.0006911933903268,-3.903729198122594
2025-03-08 14:57:20.864,0.0007337242128213,-3.183291990508554
2025-03-08 14:57:20.884,0.0007408745752062,-2.3502318978985177
2025-03-08 14:57:20.903,0.0007091195875814,-1.4408031849968788
2025-03-08 14:57:20.923,0.000642606143261,-0.5046313841516902
2025-03-08 14:57:20.942,0.00055213874849,0.4010618599781931
2025-03-08 14:57:20.962,0.0004524821668454,1.2193920279204329
2025-03-08 14:57:20.981,0.0003589855807499,1.902332812919749
2025-03-08 14:57:21.001,0.000284432394822,2.4180694477743008
2025-03-08 14:57:21.020,0.0002367552406708,2.75565585383924
2025-03-08 14:57:21.040,0.0002180148063769,2.925995372733732
2025-03-08 14:57:21.060,0.0002247754865573,2.9589014409481265
2025-03-08 14:57:21.079,0.0002496700768872,2.8967908501231405
2025-03-08 14:57:21.099,0.000283620649378,2.786293481234739
2025-03-08 14:57:21.118,0.0003180362485268,2.669585133074304
2025-03-08 14:57:21.138,0.000346420669924,2.577397874371857
2025-03-08 14:57:21.157,0.0003651177515357,2.525299572801805
2025-03-08 14:57:21.177,0.0003732392460881,2.513964549127351
2025-03-08 14:57:21.196,0.0003720389625254,2.5330032160801648
2025-03-08 14:57:21.216,0.0003640621806285,2.5668738546729246
2025-03-08 14:57:21.235,0.0003523253240368,2.600856855652666
2025-03-08 14:57:21.255,0.0003396526204688,2.62523330506764
2025-03-08 14:57:21.274,0.0003282118192412,2.636598285387712
2025-03-08 14:57:21.294,0.0003192705870705,2.636342105028312
2025-03-08 14:57:21.313,0.0003131810050073,2.6273370714103037
2025-03-08 14:57:21.333,0.0003095504510823,2.610417911647078
2025-03-08 14:57:21.352,0.0003075097678146,2.58216916136528
2025-03-08 14:57:21.372,0.0003060015063443,2.5349029281905247
2025-03-08 14:57:21.392,0.0003040678555486,2.45880244905975
2025-03-08 14:57:21.411,0.0003011376052607,2.3453848871653133
2025-03-08 14:57:21.431,0.0002972475914957,2.190997500461926
2025-03-08 14:57:21.450,0.0002930507038504,1.999124502790788
2025-03-08 14:57:21.470,0.0002894866786029,1.7807722725260284
2025-03-08 14:57:21.489,0.0002871749090061,1.5529005593686835
2025-03-08 14:57:21.509,0.0002858117169467,1.33550439069884
2025-03-08 14:57:21.528,0.0002839125562092,1.1482971158464437
2025-03-08 14:57:21.548,0.0002790529207384,1.007900407852136
2025-03-08 14:57:21.567,0.0002684760723775,0.9260772036872402
2025-03-08 14:57:21.587,0.0002497771674914,0.9090435788055437
2025-03-08 14:57:21.606,0.0002214247353131,0.9574988411884316
2025-03-08 14:57:21.626,0.0001830317655609,1.0668824318216374
2025-03-08 14:57:21.645,0.0001353941826893,1.2275210685289375
2025-03-08 14:57:21.665,8.034186541672306e-05,1.424648421176412
2025-03-08 14:57:21.685,2.045733464667261e-05,1.6385740457100837
2025-03-08 14:57:21.704,-4.12479550142685e-05,1.8453947505126065
2025-03-08 14:57:21.724,-0.000101585789701,2.018530471593288
2025-03-08 14:57:21.743,-0.0001573182503828,2.13108969104339
2025-03-08 14:57:21.763,-0.0002052565372057,2.158759233565371
2025-03-08 14:57:21.782,-0.0002425467168433,2.08271140195162
2025-03-08 14:57:21.802,-0.0002672871693545,1.8920093288196105
2025-03-08 14:57:21.821,-0.0002793536735127,1.5851445843918075
2025-03-08 14:57:21.841,-0.0002810312108814,1.1705452464877155
2025-03-08 14:57:21.860,-0.0002770013315283,0.6660280705803472
2025-03-08 14:57:21.880,-0.0002734854297468,0.0972031647350841
2025-03-08 14:57:21.899,-0.000276754321969,-0.5051500212149287
2025-03-08 14:57:21.919,-0.0002915321105805,-1.108619693994611
2025-03-08 14:57:21.938,-0.0003198616338489,-1.6832694668368529
2025-03-08 14:57:21.958,-0.0003607573471364,-2.205689270047566
2025-03-08 14:57:21.978,-0.0004106243069672,-2.6621664373345117
2025-03-08 14:57:21.997,-0.0004641824544899,-3.050190411104977
2025-03-08 14:57:22.017,-0.0005155798108688,-3.377822662910417
2025-03-08 14:57:22.036,-0.0005594215200255,-3.6609778972396345
2025-03-08 14:57:22.056,-0.0005915020862581,-3.9191840038978976
2025-03-08 14:57:22.075,-0.0006091346144607,-4.170726218770252
2025-03-08 14:57:22.095,-0.0006111499928543,-4.428149680094562
2025-03-08 14:57:22.114,-0.0005977891435559,-4.694933862300263
2025-03-08 14:57:22.134,-0.0005706894418379,-4.963864424692067
2025-03-08 14:57:22.153,-0.00053296759846,-5.217309499137311
2025-03-08 14:57:22.173,-0.0004891926983998,-5.42932203719985
2025-03-08 14:57:22.192,-0.0004450101688567,-5.569261446748605
2025-03-08 14:57:22.212,-0.0004063528300166,-5.606443886641358
2025-03-08 14:57:22.231,-0.0003784236231367,-5.515170038798926
2025-03-08 14:57:22.251,-0.0003647836880448,-5.279352028968134
2025-03-08 14:57:22.270,-0.0003668446381594,-4.8959207190001
2025-03-08 14:57:22.290,-0.0003838826962881,-4.376304701639624
2025-03-08 14:57:22.310,-0.0004134834646246,-3.745560376486933
2025-03-08 14:57:22.329,-0.0004522074035125,-3.039165062000255
2025-03-08 14:57:22.349,-0.0004962770580704,-2.2979718201100026
2025-03-08 14:57:22.368,-0.0005421675632001,-1.5622393866087405
2025-03-08 14:57:22.388,-0.0005870363909839,-0.8658693333666432
2025-03-08 14:57:22.407,-0.0006289296344489,-0.2319332457715084
2025-03-08 14:57:22.427,-0.0006667063540872,0.32972949538155
2025-03-08 14:57:22.446,-0.0006996686552846,0.8225206450602937
2025-03-08 14:57:22.466,-0.0007269459871496,1.2608574586419208
2025-03-08 14:57:22.485,-0.0007467329396928,1.6662652519926635
2025-03-08 14:57:22.505,-0.0007555413049061,2.062582495250274
2025-03-08 14:57:22.524,-0.0007477118141142,2.471134391411038
2025-03-08 14:57:22.544,-0.0007154889352948,2.906623871625817
2025-03-08 14:57:22.563,-0.0006499096902049,3.374277774401433
2025-03-08 14:57:22.583,-0.0005425568082586,3.868561808635262
2025-03-08 14:57:22.603,-0.0003879208081862,4.373585064520444
2025-03-08 14:57:22.622,-0.0001857995318244,4.865117014340968
2025-03-08 14:57:22.642,5.7035408237233005e-05,5.313885516492534
2025-03-08 14:57:22.661,0.0003266159350546,5.689542846659049
2025-03-08 14:57:22.681,0.0006033274747296,5.96450176494564
2025-03-08 14:57:22.700,0.0008649772441402,6.1168857458351855
2025-03-08 14:57:22.720,0.0010906103449658,6.132145268391208
2025-03-08 14:57:22.739,0.0012640920748365,6.003372749292815
2025-03-08 14:57:22.759,0.0013766184507278,5.73080620366395
2025-03-08 14:57:22.778,0.0014276797785392,5.321229902045848
2025-03-08 14:57:22.798,0.0014243982067804,4.787838470143539
2025-03-08 14:57:22.817,0.0013794825471425,4.150683238180304
2025-03-08 14:57:22.837,0.0013082897349902,3.437273167806649
2025-03-08 14:57:22.856,0.0012256680111143,2.682513246008844
2025-03-08 14:57:22.876,0.0011433225749495,1.927126560804196
2025-03-08 14:57:22.896,0.0010682889917239,1.2140853676268784
2025-03-08 14:57:22.915,0.0010027225956533,0.5832675927501104
2025-03-08 14:57:22.935,0.0009447838885664,0.065309749494727
2025-03-08 14:57:22.954,0.0008901447105659,-0.3238529477556686
2025-03-08 14:57:22.974,0.0008336392158403,-0.586201136876755
2025-03-08 14:57:22.993,0.0007707255589483,-0.7414776583925771
2025-03-08 14:57:23.013,0.0006985556570975,-0.823356557040788
2025-03-08 14:57:23.032,0.0006165293694561,-0.8725764240428521
2025-03-08 14:57:23.052,0.0005262888511959,-0.9284987155512991
2025-03-08 14:57:23.071,0.0004312269527909,-1.021024227133604
2025-03-08 14:57:23.091,0.0003357036933593,-1.1648023561988905
2025-03-08 14:57:23.110,0.0002442100189572,-1.357165964413332
2025-03-08 14:57:23.130,0.0001606597202757,-1.5803008780791978
2025-03-08 14:57:23.149,8.789127232234934e-05,-1.8070359619307967
2025-03-08 14:57:23.169,2.7407119088805288e-05,-2.0086452577922547
2025-03-08 14:57:23.188,-2.062284564322559e-05,-2.1625071446412183
2025-03-08 14:57:23.208,-5.70830011476956e-05,-2.2575525594109878
2025-03-08 14:57:23.228,-8.342728297967593e-05,-2.296136118290822
2025-03-08 14:57:23.247,-0.0001011576595947,-2.2920610076484125
2025-03-08 14:57:23.267,-0.0001114734116021,-2.265635021199861
2025-03-08 14:57:23.286,-0.0001152243373867,-2.2374722015643798
2025-03-08 14:57:23.306,-0.0001131397137364,-2.2230185189842997
2025-03-08 14:57:23.325,-0.0001061521665861,-2.229387079460341
2025-03-08 14:57:23.345,-9.560608183677082e-05,-2.255182531746804
2025-03-08 14:57:23.364,-8.326473568595941e-05,-2.292918865708758
2025-03-08 14:57:23.384,-7.119376370925059e-05,-2.3328039715134268
2025-03-08 14:57:23.403,-6.16347337140614e-05,-2.366384205678361
2025-03-08 14:57:23.423,-5.686424938396417e-05,-2.388872707637513
2025-03-08 14:57:23.442,-5.892290915046025e-05,-2.399719183539348
2025-03-08 14:57:23.462,-6.915458343525994e-05,-2.40175412977755
2025-03-08 14:57:23.481,-8.767967247562491e-05,-2.399722092615445
2025-03-08 14:57:23.501,-0.0001130519746751,-2.3990451234112213
2025-03-08 14:57:23.521,-0.0001423035770988,-2.405285001916385
2025-03-08 14:57:23.540,-0.0001714182199259,-2.424223947838178
2025-03-08 14:57:23.560,-0.0001961215368937,-2.4620411820578654
2025-03-08 14:57:23.579,-0.0002128099725669,-2.52494309358102
2025-03-08 14:57:23.599,-0.0002194289134155,-2.61786118079217
2025-03-08 14:57:23.618,-0.0002160948436219,-2.742333368998849
2025-03-08 14:57:23.638,-0.0002052452761585,-2.894179587369522
2025-03-08 14:57:23.657,-0.000191169051359,-3.0618248236445647
2025-03-08 14:57:23.677,-0.0001789587898205,-3.2259981044441064
2025-03-08 14:57:23.696,-0.0001731727877619,-3.3611161082603367
2025-03-08 14:57:23.716,-0.0001766609440644,-3.4381456767640497
2025-03-08 14:57:23.735,-0.000189977722886,-3.428340084900884
2025-03-08 14:57:23.755,-0.0002115543702571,-3.3070849723125333
2025-03-08 14:57:23.774,-0.0002384661647689,-3.057179386103727
2025-03-08 14:57:23.794,-0.0002674199390734,-2.671123341731406
2025-03-08 14:57:23.814,-0.0002956077424312,-2.152249500532069
2025-03-08 14:57:23.833,-0.0003212431341656,-1.5147154863380752
2025-03-08 14:57:23.853,-0.0003437597679967,-0.7824325179103306
2025-03-08 14:57:23.872,-0.0003637182790488,0.0130099321159167
2025-03-08 14:57:23.892,-0.0003824617727344,0.8353634475190114
2025-03-08 14:57:23.911,-0.0004015682013416,1.6475293999422918
2025-03-08 14:57:23.931,-0.0004222160480805,2.4158133421995984
2025-03-08 14:57:23.950,-0.0004446604882397,3.1140778390740924
2025-03-08 14:57:23.970,-0.0004680201252541,3.7271216769969886
2025-03-08 14:57:23.989,-0.0004904615748352,4.25261098704048
2025-03-08 14:57:24.009,-0.0005096982809193,4.701006769317798
2025-03-08 14:57:24.028,-0.000523600079423,5.093171957180404
2025-03-08 14:57:24.048,-0.0005307045250966,5.455719251429503
2025-03-08 14:57:24.067,-0.0005304965055175,5.814677345742917
2025-03-08 14:57:24.087,-0.0005234080033897,6.188607694048361
2025-03-08 14:57:24.106,-0.0005105613003659,6.582686774078977
2025-03-08 14:57:24.126,-0.0004933551141774,6.985269465254508
2025-03-08 14:57:24.146,-0.0004730668298058,7.367993246415227
2025-03-08 14:57:24.165,-0.0004506586621142,7.689676756072812
2025-03-08 14:57:24.185,-0.0004268788444662,7.903344063145321
2025-03-08 14:57:24.204,-0.0004025685105906,7.964938823027393
2025-03-08 14:57:24.224,-0.0003789405522068,7.841892844905885
2025-03-08 14:57:24.243,-0.0003576022854882,7.519763590337939
2025-03-08 14:57:24.263,-0.0003402489860535,7.005599658225666
2025-03-08 14:57:24.282,-0.0003281512167374,6.327395903929084
2025-03-08 14:57:24.302,-0.0003216648437092,5.5298019924013735
2025-03-08 14:57:24.321,-0.0003199457369395,4.666992155146795
2025-03-08 14:57:24.341,-0.0003209110459056,3.794139215911505
2025-03-08 14:57:24.360,-0.0003213942072933,2.9591441325725283
2025-03-08 14:57:24.380,-0.0003174649261318,2.196109359720348
2025-03-08 14:57:24.399,-0.0003049525182846,1.5215705783364672
2025-03-08 14:57:24.419,-0.0002801882890271,0.9338700851916024
2025-03-08 14:57:24.439,-0.0002408378076821,0.41545327812741
2025-03-08 14:57:24.458,-0.000186540934729,-0.0625615534197949
2025-03-08 14:57:24.478,-0.0001190763352822,-0.5344045858991633
2025-03-08 14:57:24.497,-4.1973087813530725e-05,-1.0331757734952869
2025-03-08 14:57:24.517,4.022424164043973e-05,-1.5847424505668797
2025-03-08 14:57:24.536,0.0001226960883933,-2.202848833592399
2025-03-08 14:57:24.556,0.0002008754994298,-2.8862056798813045
2025-03-08 14:57:24.575,0.0002707858113538,-3.618142431203645
2025-03-08 14:57:24.595,0.0003293340111453,-4.369027865968716
2025-03-08 14:57:24.614,0.0003746294291228,-5.101131607658214
2025-03-08 14:57:24.634,0.0004062453298854,-5.775045317548117
2025-03-08 14:57:24.653,0.0004252693571891,-6.356384218600418
2025-03-08 14:57:24.673,0.0004340487080172,-6.8213844136693815
2025-03-08 14:57:24.692,0.0004356628534324,-7.160246302433827
2025-03-08 14:57:24.712,0.000433249989103,-7.377588594662212
2025-03-08 14:57:24.732,0.0004293317844509,-7.490032440053019
2025-03-08 14:57:24.751,0.0004252599767037,-7.521568432833856
2025-03-08 14:57:24.771,0.0004208975170607,-7.497818174858057
2025-03-08 14:57:24.790,0.000414650701234,-7.440463388895552
2025-03-08 14:57:24.810,0.0004039348955457,-7.362933664133006
2025-03-08 14:57:24.829,0.0003860296089225,-7.2680105579773615
2025-03-08 14:57:24.849,0.0003590965933011,-7.147526331791012
2025-03-08 14:57:24.868,0.0003230345490596,-6.9839940810175385
2025-03-08 14:57:24.888,0.0002799138748489,-6.753838104708676
2025-03-08 14:57:24.907,0.0002339050664578,-6.43179659645333
2025-03-08 14:57:24.927,0.0001907470900379,-5.995930571031672
2025-03-08 14:57:24.946,0.0001568337974932,-5.432485510192428
2025-03-08 14:57:24.966,0.0001379705318611,-4.739721368351585
2025-03-08 14:57:24.985,0.0001378724864792,-3.929887853217604
2025-03-08 14:57:25.005,0.0001566132204683,-3.0288367705683767
2025-03-08 14:57:25.025,0.0001894279022071,-2.073266547975554
2025-03-08 14:57:25.044,0.0002263640928248,-1.1061236205921734
2025-03-08 14:57:25.064,0.0002531420096852,-0.1710676356229898
2025-03-08 14:57:25.083,0.0002533003771198,0.6929619286387674
2025-03-08 14:57:25.103,0.0002114232366931,1.456163330439912
2025-03-08 14:57:25.122,0.0001170430602925,2.1006536611827142
2025-03-08 14:57:25.142,-3.1362520033749484e-05,2.621341387799163
2025-03-08 14:57:25.161,-0.0002230722796382,3.0249398552824176
2025-03-08 14:57:25.181,-0.000433473029302,3.327448315445986
2025-03-08 14:57:25.200,-0.0006249571126166,3.5506660950525992
2025-03-08 14:57:25.220,-0.000750882032429,3.718470696651685
2025-03-08 14:57:25.239,-0.0007624471300924,3.853597510602989
2025-03-08 14:57:25.259,-0.0006175720892679,3.975450025185944
2025-03-08 14:57:25.278,-0.0002901848393043,4.099094455473845
2025-03-08 14:57:25.298,0.0002221094004998,4.235199368095831
2025-03-08 14:57:25.317,0.0008940633416254,4.390421055629471
2025-03-08 14:57:25.337,0.00167408338357,4.567685357433
2025-03-08 14:57:25.357,0.0024910738935457,4.7659765674507
2025-03-08 14:57:25.376,0.0032653647506413,4.979568288987754
2025-03-08 14:57:25.396,0.0039208208541814,5.197026182725576
2025-03-08 14:57:25.415,0.0043949854107565,5.400630297493437
2025-03-08 14:57:25.435,0.004645237678245,5.566945968730732
2025-03-08 14:57:25.454,0.004650741424576,5.66903207166437
2025-03-08 14:57:25.474,0.0044113797844486,5.680263176272798
2025-03-08 14:57:25.493,0.0039452673675123,5.57913304745903
2025-03-08 14:57:25.513,0.0032858644447933,5.353934569355073
2025-03-08 14:57:25.532,0.0024788064831343,5.006075579177807
2025-03-08 14:57:25.552,0.0015780318278612,4.551069733818994
2025-03-08 14:57:25.571,0.0006409998227615,4.016846638808196
2025-03-08 14:57:25.591,-0.0002765040531609,3.4397334827323243
2025-03-08 14:57:25.610,-0.0011249244561729,2.8590252734364454
2025-03-08 14:57:25.630,-0.0018638878909753,2.311321383882219
2025-03-08 14:57:25.650,-0.0024632417279396,1.825726154589029
2025-03-08 14:57:25.669,-0.0029026297951209,1.4206617020960797
2025-03-08 14:57:25.689,-0.0031704961454283,1.1025716655234774
2025-03-08 14:57:25.708,-0.003263406730576,0.8663886424897906
2025-03-08 14:57:25.728,-0.0031862142949102,0.6974236381252636
2025-03-08 14:57:25.747,-0.0029530391687298,0.574304054527923
2025-03-08 14:57:25.767,-0.0025885014134327,0.4726085007080228
2025-03-08 14:57:25.786,-0.0021283097119318,0.3687915747103094
2025-03-08 14:57:25.806,-0.0016183334396925,0.2438446245466682
2025-03-08 14:57:25.825,-0.0011116788312771,0.0860179713628484
2025-03-08 14:57:25.845,-0.0006638764749192,-0.1080024204967902
2025-03-08 14:57:25.864,-0.00032676822191,-0.3337489091100407
2025-03-08 14:57:25.884,-0.0001419088025899,-0.5812715184366247
2025-03-08 14:57:25.903,-0.0001343926168465,-0.8384934989701446
2025-03-08 14:57:25.923,-0.0003081644896553,-1.0948584065770632
2025-03-08 14:57:25.943,-0.0006440290177031,-1.3445525486122962
2025-03-08 14:57:25.962,-0.001101416451928,-1.5887266639720707
2025-03-08 14:57:25.982,-0.0016242037085827,-1.8362593006400127
2025-03-08 14:57:26.001,-0.0021496619649676,-2.102722902955185
2025-03-08 14:57:26.021,-0.0026185024998308,-2.40745177174011
2025-03-08 14:57:26.040,-0.0029836343649212,-2.7690318633284066
2025-03-08 14:57:26.060,-0.0032157920567923,-3.2000339610134607
2025-03-08 14:57:26.079,-0.0033052892319654,-3.70218042856536
2025-03-08 14:57:26.099,-0.0032602561700541,-4.263190773992928
2025-03-08 14:57:26.118,-0.0031024170648255,-4.85623816603644
2025-03-08 14:57:26.138,-0.0028616517526487,-5.44234538710329
2025-03-08 14:57:26.157,-0.0025704150971268,-5.97533032923714
2025-03-08 14:57:26.177,-0.0022587976921401,-6.408296317336883
2025-03-08 14:57:26.196,-0.0019507735905048,-6.7003310434872825
2025-03-08 14:57:26.216,-0.0016620192795366,-6.822102712083559
2025-03-08 14:57:26.235,-0.0013995076915833,-6.75937657571019
2025-03-08 14:57:26.255,-0.0011627752752136,-6.513992750087157
2025-03-08 14:57:26.275,-0.0009463624964888,-6.102397398023818
2025-03-08 14:57:26.294,-0.0007426475967272,-5.552273813437121
2025-03-08 14:57:26.314,-0.0005443291917579,-4.898086055764979
2025-03-08 14:57:26.333,-0.0003461292780735,-4.176386718539789
2025-03-08 14:57:26.353,-0.0001456392377469,-3.4215858743065524
2025-03-08 14:57:26.372,5.657922597934364e-05,-2.6626365676256607
2025-03-08 14:57:26.392,0.0002574884904616,-1.9208885701469045
2025-03-08 14:57:26.411,0.0004525116567136,-1.209254393166214
2025-03-08 14:57:26.431,0.0006367232217382,-0.5327704981253798
2025-03-08 14:57:26.450,0.0008060544725916,0.1094832080825517
2025-03-08 14:57:26.470,0.0009582547477405,0.7213849418663983
2025-03-08 14:57:26.489,0.0010933932764206,1.3062939889250569
2025-03-08 14:57:26.509,0.0012137877698946,1.863952140209288
2025-03-08 14:57:26.528,0.0013233738551849,2.388651187310422
2025-03-08 14:57:26.548,0.0014266519148727,2.8692765951534813
2025-03-08 14:57:26.568,0.0015274517146438,3.2913067441317865
2025-03-08 14:57:26.587,0.0016278299778802,3.640235746029552
2025-03-08 14:57:26.607,0.0017274166462806,3.905414845324011
2025-03-08 14:57:26.626,0.0018234032104911,4.083148872048339
2025-03-08 14:57:26.646,0.0019111567149306,4.178098629288399
2025-03-08 14:57:26.665,0.0019852587034428,4.202546597316268
2025-03-08 14:57:26.685,0.0020406901946208,4.17371057334107
2025-03-08 14:57:26.704,0.002073902657493,4.109852758462185
2025-03-08 14:57:26.724,0.0020835741281482,4.026271307435851
2025-03-08 14:57:26.743,0.0020709119718349,3.932258761977733
2025-03-08 14:57:26.763,0.0020394387814427,3.829743851969211
2025-03-08 14:57:26.782,0.001994302628813,3.713742915945732
2025-03-08 14:57:26.802,0.0019412618985064,3.5742068604306136
2025-03-08 14:57:26.821,0.0018855578151146,3.398590164545749
2025-03-08 14:57:26.841,0.0018308836599922,3.174528617559004
2025-03-08 14:57:26.861,0.0017786102087235,2.892248992113471
2025-03-08 14:57:26.880,0.0017273708096752,2.546559812081632
2025-03-08 14:57:26.900,0.0016730779475053,2.1383835598643337
2025-03-08 14:57:26.919,0.0016094384598633,1.675791595292372
2025-03-08 14:57:26.939,0.0015290138884709,1.1744533476829226
2025-03-08 14:57:26.958,0.0014247755538741,0.6573679617786579
2025-03-08 14:57:26.978,0.0012919302831028,0.1537441852955665
2025-03-08 14:57:26.997,0.0011296310069121,-0.3030541077726008
2025-03-08 14:57:27.017,0.0009421363321523,-0.6784805189191994
2025-03-08 14:57:27.036,0.0007390692050502,-0.9405478300760836
2025-03-08 14:57:27.056,0.0005346019765152,-1.0640258050468876
2025-03-08 14:57:27.075,0.0003456032784699,-1.0345903178350846
2025-03-08 14:57:27.095,0.0001889835300404,-0.8522407887661879
2025-03-08 14:57:27.114,7.866228695965122e-05,-0.5332325169828436
2025-03-08 14:57:27.134,2.274025207555887e-05,-0.109910654091184
2025-03-08 14:57:27.153,2.1538926439836043e-05,0.3717934715657515
2025-03-08 14:57:27.173,6.708805071817386e-05,0.8569486056031604
2025-03-08 14:57:27.193,0.000144339953328,1.2876227351308804
2025-03-08 14:57:27.212,0.0002339223451497,1.6094380916933135
2025-03-08 14:57:27.232,0.0003157855882803,1.7778602308805258
2025-03-08 14:57:27.251,0.0003728552831421,1.7635429853641278
2025-03-08 14:57:27.271,0.0003938423718607,1.556198489829571
2025-03-08 14:57:27.290,0.0003746256500045,1.166581344014503
2025-03-08 14:57:27.310,0.0003179930486964,0.6262855191266452
2025-03-08 14:57:27.329,0.000231919995196,-0.0148193097909383
2025-03-08 14:57:27.349,0.0001269019501353,-0.693506855504391
2025-03-08 14:57:27.368,1.306384465644494e-05,-1.3402071554309214
2025-03-08 14:57:27.388,-0.000102215771813,-1.8875135135819372
2025-03-08 14:57:27.407,-0.0002156017391147,-2.2791962681181808
2025-03-08 14:57:27.427,-0.0003277704479706,-2.4783746769069093
2025-03-08 14:57:27.446,-0.000442183931476,-2.4732881350582736
2025-03-08 14:57:27.466,-0.0005631516766456,-2.2792141472335943
2025-03-08 14:57:27.486,-0.0006938302293975,-1.935637346049396
2025-03-08 14:57:27.505,-0.0008347303110432,-1.4987719946846705
2025-03-08 14:57:27.525,-0.0009830505270599,-1.0307550565420622
2025-03-08 14:57:27.544,-0.0011328798913777,-0.5878710704869577
2025-03-08 14:57:27.564,-0.0012761001409737,-0.2106555548768938
2025-03-08 14:57:27.583,-0.0014037016865329,0.081579718010719
2025-03-08 14:57:27.603,-0.0015072010746193,0.2903434518684571
2025-03-08 14:57:27.622,-0.001579893855491,0.4318498744441362
2025-03-08 14:57:27.642,-0.0016177756073747,0.5270565575743582
2025-03-08 14:57:27.661,-0.0016200872942976,0.5909276768416385
2025-03-08 14:57:27.681,-0.0015895281223644,0.6242498192176283
2025-03-08 14:57:27.700,-0.0015321682095893,0.6105017485397345
2025-03-08 14:57:27.720,-0.0014569937848835,0.5186830651785928
2025-03-08 14:57:27.739,-0.0013749330502008,0.3112410926925123
2025-03-08 14:57:27.759,-0.0012972753820847,-0.0451125329227037
2025-03-08 14:57:27.779,-0.0012336499016836,-0.5685175236251873
2025-03-08 14:57:27.798,-0.0011900408796244,-1.2537057662131037
2025-03-08 14:57:27.818,-0.0011674660898898,-2.068351186115738
2025-03-08 14:57:27.837,-0.001161803017874,-2.9549241845910363
2025-03-08 14:57:27.857,-0.0011648862635252,-3.837694341453331
2025-03-08 14:57:27.876,-0.0011666045456187,-4.63336589860479
2025-03-08 14:57:27.896,-0.0011574471011162,-5.263043095858312
2025-03-08 14:57:27.915,-0.0011308407879555,-5.663030986365902
2025-03-08 14:57:27.935,-0.0010846834375185,-5.792447528439369
2025-03-08 14:57:27.954,-0.0010216964421428,-5.636595029915515
2025-03-08 14:57:27.974,-0.000948537547578,-5.206171209199068
2025-03-08 14:57:27.993,-0.0008739497737814,-4.533317150642684
2025-03-08 14:57:28.013,-0.0008064768181105,-3.665952298442891
2025-03-08 14:57:28.032,-0.0007523630219301,-2.6617866297858304
2025-03-08 14:57:28.052,-0.0007141467206982,-1.5829600464685654
2025-03-08 14:57:28.071,-0.0006902087990977,-0.4916812188188628
2025-03-08 14:57:28.091,-0.0006752761933248,0.553226737819111
2025-03-08 14:57:28.111,-0.0006617025828566,1.4991665714754163
2025-03-08 14:57:28.130,-0.000641256396219,2.3022241929110168
2025-03-08 14:57:28.150,-0.0006070666815033,2.929271019265033
2025-03-08 14:57:28.169,-0.0005552827202961,3.359545655710039
2025-03-08 14:57:28.189,-0.0004859807625862,3.58547134417992
2025-03-08 14:57:28.208,-0.000403012005125,3.612533588288183
2025-03-08 14:57:28.228,-0.0003128139735584,3.458211163242227
2025-03-08 14:57:28.247,-0.0002225456906884,3.150137334207401
2025-03-08 14:57:28.267,-0.0001380955887504,2.7237885310167997
2025-03-08 14:57:28.286,-6.250990927283126e-05,2.2200168473026927
2025-03-08 14:57:28.306,4.738707023860114e-06,1.6826676076730798
2025-03-08 14:57:28.325,6.741970084973212e-05,1.1563971349519786
2025-03-08 14:57:28.345,0.0001311923571919,0.6846859928865012
2025-03-08 14:57:28.364,0.0002015957812038,0.3079667535323718
2025-03-08 14:57:28.384,0.0002820181204558,0.0617507613741087
2025-03-08 14:57:28.404,0.0003723513123361,-0.0253792049740886
2025-03-08 14:57:28.423,0.000468813626071,0.0659513628651404
2025-03-08 14:57:28.443,0.0005649820407988,0.3432759677241547
2025-03-08 14:57:28.462,0.000653628424838,0.7994272401415737
2025-03-08 14:57:28.482,0.000728696182873,1.4099623142498927
2025-03-08 14:57:28.501,0.0007867658676857,2.131833407120339
2025-03-08 14:57:28.521,0.0008276002045555,2.9045155231630018
2025-03-08 14:57:28.540,0.0008537239157953,3.654603479553298
2025-03-08 14:57:28.560,0.0008693348554235,4.304150251415898
2025-03-08 14:57:28.579,0.0008790243836882,4.781896093863131
2025-03-08 14:57:28.599,0.0008867598361423,5.035391779412476
2025-03-08 14:57:28.618,0.0008954053438116,5.041273604964497
2025-03-08 14:57:28.638,0.0009068205831471,4.810929890907189
2025-03-08 14:57:28.657,0.0009223551702327,4.389610448798271
2025-03-08 14:57:28.677,0.0009434029326142,3.8485050497933697
2025-03-08 14:57:28.697,0.0009716449552347,3.271074183080477
2025-03-08 14:57:28.716,0.0010087477003982,2.7364723516080303
2025-03-08 14:57:28.736,0.0010555982369382,2.30379581023921
2025-03-08 14:57:28.755,0.0011115079308268,2.0008006878879905
2025-03-08 14:57:28.775,0.0011739357253586,1.8196476322497424
2025-03-08 14:57:28.794,0.001239032270486,1.720442212907168
2025-03-08 14:57:28.814,0.0013028416813702,1.6413925792635775
2025-03-08 14:57:28.833,0.0013626320475559,1.512862228199165
2025-03-08 14:57:28.853,0.0014177678867337,1.2718639676670076
2025-03-08 14:57:28.872,0.0014697743031053,0.8737660095073401
2025-03-08 14:57:28.892,0.001521595663869,0.299021893743816
2025-03-08 14:57:28.911,0.0015763300208532,-0.445780905551731
2025-03-08 14:57:28.931,0.0016358520078982,-1.3318129773940053
2025-03-08 14:57:28.950,0.0016997555064808,-2.3150966625711207
2025-03-08 14:57:28.970,0.0017649804552108,-3.3447043790313398
2025-03-08 14:57:28.990,0.0018263160726178,-4.370183276541069
2025-03-08 14:57:29.009,0.00187769463169,-5.346898244124962
2025-03-08 14:57:29.029,0.0019138858469877,-6.238672464308763
2025-03-08 14:57:29.048,0.0019320136374165,-7.017764619133976
2025-03-08 14:57:29.068,0.0019323577045484,-7.662789497274657
2025-03-08 14:57:29.087,0.0019181696085829,-8.15560381909734
2025-03-08 14:57:29.107,0.0018946047033879,-8.478353660418994
2025-03-08 14:57:29.126,0.0018671773820469,-8.611750984990955
2025-03-08 14:57:29.146,0.0018402502909465,-8.535247197902082
2025-03-08 14:57:29.165,0.0018159380574988,-8.229231370768147
2025-03-08 14:57:29.185,0.0017935638331236,-7.678859577968602
2025-03-08 14:57:29.204,0.0017696365828356,-6.878735301336878
2025-03-08 14:57:29.224,0.0017382791825304,-5.837445174824353
2025-03-08 14:57:29.243,0.0016920356784117,-4.580885032996381
2025-03-08 14:57:29.263,0.0016229397741235,-3.153371665934164
2025-03-08 14:57:29.282,0.0015236747232539,-1.6157705843711012
2025-03-08 14:57:29.302,0.0013886587796199,-0.0403487431613309
2025-03-08 14:57:29.322,0.0012149303581758,1.4972235666460931
2025-03-08 14:57:29.341,0.001002720697841,2.927484318461404
2025-03-08 14:57:29.361,0.0007555784393682,4.196486507445203
2025-03-08 14:57:29.380,0.000479916309758,5.272575065279979
2025-03-08 14:57:29.400,0.0001839642780237,6.148666383951045
2025-03-08 14:57:29.419,-0.0001236649319602,6.838953274052192
2025-03-08 14:57:29.439,-0.0004353842941403,7.37035032416525
2025-03-08 14:57:29.458,-0.0007455793483869,7.770533517166714
2025-03-08 14:57:29.478,-0.0010508898921966,8.055625129305973
2025-03-08 14:57:29.497,-0.0013499676845893,8.220987655891376
2025-03-08 14:57:29.517,-0.0016430545857521,8.238003513313451
2025-03-08 14:57:29.536,-0.0019316506319166,8.058239506063698
2025-03-08 14:57:29.556,-0.0022182907308708,7.62442671021021
2025-03-08 14:57:29.575,-0.0025062533147793,6.885782780110378
2025-03-08 14:57:29.595,-0.002799029428,5.813910697159645
2025-03-08 14:57:29.615,-0.0030995336276904,4.415221590030704
2025-03-08 14:57:29.634,-0.0034091747822105,2.7366785257694106
2025-03-08 14:57:29.654,-0.0037269339075761,0.8634209396831022
2025-03-08 14:57:29.673,-0.0040485793971207,-1.0910506305220604
2025-03-08 14:57:29.693,-0.0043661930653136,-2.999675261788567
2025-03-08 14:57:29.712,-0.0046682759227611,-4.738275590760131
2025-03-08 14:57:29.732,-0.0049407286016415,-6.200442203581549
2025-03-08 14:57:29.751,-0.0051688592383357,-7.3085618515119135
2025-03-08 14:57:29.771,-0.0053402700141073,-8.019909188170159
2025-03-08 14:57:29.790,-0.0054480999825879,-8.327822383289208
2025-03-08 14:57:29.810,-0.0054937849854337,-8.258701241013222
2025-03-08 14:57:29.829,-0.0054883784229047,-7.86584515280841
2025-03-08 14:57:29.849,-0.0054516511711485,-7.221132314103361
2025-03-08 14:57:29.868,-0.0054086374343028,-6.405476914478157
2025-03-08 14:57:29.888,-0.0053839042777876,-5.499063546577027
2025-03-08 14:57:29.908,-0.0053944446660693,-4.572531841641132
2025-03-08 14:57:29.927,-0.0054425758724154,-3.680377386331868
2025-03-08 14:57:29.947,-0.0055104578420481,-2.8576210929940964
2025-03-08 14:57:29.966,-0.0055578007344497,-2.120191141870853
2025-03-08 14:57:29.986,-0.0055240225319645,-1.4685987235648217
2025-03-08 14:57:30.005,-0.0053355190837757,-0.8936764507607241
2025-03-08 14:57:30.025,-0.0049177672095727,-0.3826944915380906
2025-03-08 14:57:30.044,-0.0042107538529526,0.0757682430700056
2025-03-08 14:57:30.064,-0.0031849657752291,0.4892910727848877
2025-03-08 14:57:30.083,-0.0018542885793574,0.8617175075241272
2025-03-08 14:57:30.103,-0.0002820993683391,1.1953966656809676
2025-03-08 14:57:30.122,0.0014220496110144,1.4944438355445655
2025-03-08 14:57:30.142,0.0031154911247142,1.7676106262813227
2025-03-08 14:57:30.161,0.004642868480312,2.029455494059333
2025-03-08 14:57:30.181,0.0058595789245797,2.2990148888132005
2025-03-08 14:57:30.200,0.0066534857421329,2.59599124772689
2025-03-08 14:57:30.220,0.0069611399632898,2.9353449108674323
2025-03-08 14:57:30.240,0.0067762846429966,3.3217888756898475
2025-03-08 14:57:30.259,0.0061497836804679,3.745821537084639
2025-03-08 14:57:30.279,0.0051811901590214,4.1825748213316425
2025-03-08 14:57:30.298,0.0040032310031302,4.594061314260166
2025-03-08 14:57:30.318,0.0027617527446621,4.934605157299661
2025-03-08 14:57:30.337,0.0015948124933037,5.158540786061436
2025-03-08 14:57:30.357,0.0006148440600582,5.228795394366639
2025-03-08 14:57:30.376,-0.0001031565840266,5.124804399676293
2025-03-08 14:57:30.396,-0.0005261383346675,4.848339304458036
2025-03-08 14:57:30.415,-0.0006604430896883,4.426163600788143
2025-03-08 14:57:30.435,-0.0005436010061999,3.9088460928667135
2025-03-08 14:57:30.454,-0.0002327168954219,3.365480918842411
2025-03-08 14:57:30.474,0.0002079078394284,2.8745209047132843
2025-03-08 14:57:30.493,0.0007175114237173,2.5115000028158723
2025-03-08 14:57:30.513,0.0012463768535151,2.335113205963478
2025-03-08 14:57:30.533,0.0017595807844552,2.3738283764508874
2025-03-08 14:57:30.552,0.0022373899414299,2.6157054464978784
2025-03-08 14:57:30.572,0.0026732471673251,3.004130263426485
2025-03-08 14:57:30.591,0.0030703904368124,3.4415247861362017
2025-03-08 14:57:30.611,0.0034379630692195,3.80174103437368
2025-03-08 14:57:30.630,0.0037872195136076,3.949997313524556
2025-03-08 14:57:30.650,0.0041282365059124,3.767292149865578
2025-03-08 14:57:30.669,0.0044674110144509,3.174743404987804
2025-03-08 14:57:30.689,0.0048059239188844,2.152711810533518
2025-03-08 14:57:30.708,0.0051392401771095,0.7501697449045787
2025-03-08 14:57:30.728,0.005457595182904,-0.9184336867627992
2025-03-08 14:57:30.747,0.0057473054298893,-2.688928556874952
2025-03-08 14:57:30.767,0.0059926775434174,-4.373076617129535
2025-03-08 14:57:30.786,0.006178290633837,-5.789085252274403
2025-03-08 14:57:30.806,0.0062914512367371,-6.790798552880112
2025-03-08 14:57:30.826,0.00632458517099,-7.289724234108488
2025-03-08 14:57:30.845,0.0062772070949421,-7.2658089086023345
2025-03-08 14:57:30.865,0.0061569858990658,-6.765547738404695
2025-03-08 14:57:30.884,0.0059794511475291,-5.888853419081695
2025-03-08 14:57:30.904,0.00576613223047,-4.768350957771946
2025-03-08 14:57:30.923,0.0055413011113991,-3.545894714607148
2025-03-08 14:57:30.943,0.0053278450283086,-2.3510056686739835
2025-03-08 14:57:30.962,0.0051430410958245,-1.284853317770419
2025-03-08 14:57:30.982,0.0049951007538319,-0.411799699187074
2025-03-08 14:57:31.001,0.0048811986345843,0.2411937125644372
2025-03-08 14:57:31.021,0.0047872517516196,0.6785043834790534
2025-03-08 14:57:31.040,0.0046892010443854,0.9254057203096596
2025-03-08 14:57:31.060,0.0045553388972972,1.0159747811033488
2025-03-08 14:57:31.079,0.004349412747271,0.981911067631794
2025-03-08 14:57:31.099,0.0040345300016194,0.8441934519609124
2025-03-08 14:57:31.118,0.0035779777179188,0.6087037144165225
2025-03-08 14:57:31.138,0.002956866572872,0.2662319765367
2025-03-08 14:57:31.158,0.0021640848486925,-0.2032875172699016
2025-03-08 14:57:31.177,0.0012135202600694,-0.8229933946864627
2025-03-08 14:57:31.197,0.0001430687447713,-1.609060413605558
2025-03-08 14:57:31.216,-0.0009861196404479,-2.560338897159868
2025-03-08 14:57:31.236,-0.0020951963170897,-3.650022695387464
2025-03-08 14:57:31.255,-0.0030979702708811,-4.8216221037028575
2025-03-08 14:57:31.275,-0.0039148246103106,-5.990806402050692
2025-03-08 14:57:31.294,-0.0044879066754622,-7.053445618348271
2025-03-08 14:57:31.314,-0.004794659174242,-7.898744384760461
2025-03-08 14:57:31.333,-0.0048565553623674,-8.425118576305035
2025-03-08 14:57:31.353,-0.0047402563768015,-8.555753875809582
2025-03-08 14:57:31.372,-0.0045495929190064,-8.250790206604554
2025-03-08 14:57:31.392,-0.0044088584818745,-7.513783809080952
2025-03-08 14:57:31.411,-0.0044403569219243,-6.391302830666839
2025-03-08 14:57:31.431,-0.0047409715916797,-4.96589022803435
2025-03-08 14:57:31.451,-0.0053629243066928,-3.343857497784455
2025-03-08 14:57:31.470,-0.0063028432198681,-1.6402209183590009
2025-03-08 14:57:31.490,-0.0075013745652702,0.0365579907871847
2025-03-08 14:57:31.509,-0.0088535060537648,1.5975322540559247
2025-03-08 14:57:31.529,-0.0102277677336425,2.982058645097301
2025-03-08 14:57:31.548,-0.0114905419850437,4.161486713913902
2025-03-08 14:57:31.568,-0.0125301532231374,5.137832833631932
2025-03-08 14:57:31.587,-0.013275011656011,5.938320920569973
2025-03-08 14:57:31.607,-0.0137015033623154,6.607051721153946
2025-03-08 14:57:31.626,-0.0138302678688354,7.19505671655937
2025-03-08 14:57:31.646,-0.0137128221908874,7.749840629037055
2025-03-08 14:57:31.665,-0.0134129520373775,8.30547483739752
2025-03-08 14:57:31.685,-0.0129882476441255,8.874437620786729
2025-03-08 14:57:31.704,-0.0124765831431645,9.44253898145686
2025-03-08 14:57:31.724,-0.0118905986438163,9.96815627948721
2025-03-08 14:57:31.744,-0.0112209363596566,10.386465085990098
2025-03-08 14:57:31.763,-0.0104467275193381,10.61840218823112
2025-03-08 14:57:31.783,-0.0095500892191737,10.58299892593094
2025-03-08 14:57:31.802,-0.0085304268269326,10.21087055686148
2025-03-08 14:57:31.822,-0.0074142807802042,9.456382508736958
2025-03-08 14:57:31.841,-0.0062573533966537,8.306424549826922
2025-03-08 14:57:31.861,-0.0051370868144208,6.784600189345023
2025-03-08 14:57:31.880,-0.0041364256933322,4.950619278225371
2025-03-08 14:57:31.900,-0.0033217755824486,2.895464854277277
2025-03-08 14:57:31.919,-0.0027202310840324,0.7333778656672163
2025-03-08 14:57:31.939,-0.0023024305132921,-1.4080866791273
2025-03-08 14:57:31.958,-0.0019773751345133,-3.3986522300459128
2025-03-08 14:57:31.978,-0.001603735318278,-5.115422700192468
2025-03-08 14:57:31.997,-0.0010182912281224,-6.451682736601579
2025-03-08 14:57:32.017,-7.661884756016244e-05,-7.324056466020744
2025-03-08 14:57:32.036,0.0013045160681951,-7.678136745855983
2025-03-08 14:57:32.056,0.0031166846936246,-7.492909741434255
2025-03-08 14:57:32.076,0.0052527588975925,-6.784139155095063
2025-03-08 14:57:32.095,0.0075269993541242,-5.606401701563484
2025-03-08 14:57:32.115,0.0097156659126588,-4.052929944008703
2025-03-08 14:57:32.134,0.0116044578184822,-2.2521331127359723
2025-03-08 14:57:32.154,0.0130287826056481,-0.3598455547905015
2025-03-08 14:57:32.173,0.0138979899248317,1.4529802559316929
2025-03-08 14:57:32.193,0.0142012573816722,3.0164153245046963
2025-03-08 14:57:32.212,0.0139978508018527,4.1797235359054055
2025-03-08 14:57:32.232,0.0133971814363129,4.828875292311718
2025-03-08 14:57:32.251,0.0125346994852478,4.900332048479518
2025-03-08 14:57:32.271,0.0115487784129806,4.38833056764368
2025-03-08 14:57:32.290,0.010562057127307,3.3439418955543867
2025-03-08 14:57:32.310,0.0096688670422554,1.865793561284785
2025-03-08 14:57:32.329,0.0089288699759419,0.0841194546912419
2025-03-08 14:57:32.349,0.0083661486371734,-1.858764004761712
2025-03-08 14:57:32.369,0.0079726932547719,-3.8277666703291646
2025-03-08 14:57:32.388,0.0077152081238678,-5.710536064518037
2025-03-08 14:57:32.408,0.0075441176628242,-7.426574959368954
2025-03-08 14:57:32.427,0.0074035255426148,-8.928835172792503
2025-03-08 14:57:32.447,0.0072407902432309,-10.198245555070468
2025-03-08 14:57:32.466,0.0070144255502951,-11.233023761546058
2025-03-08 14:57:32.486,0.0066992513144771,-12.035593540649469
2025-03-08 14:57:32.505,0.0062881369063967,-12.600350380369894
2025-03-08 14:57:32.525,0.0057903045384049,-12.905317281677505
2025-03-08 14:57:32.544,0.005226890583821,-12.909905354929368
2025-03-08 14:57:32.564,0.0046250729440257,-12.559664057813938
2025-03-08 14:57:32.583,0.0040123179915124,-11.797348385844447
2025-03-08 14:57:32.603,0.0034120490764309,-10.57819140266701
2025-03-08 14:57:32.622,0.0028413530335651,-8.886239682136358
2025-03-08 14:57:32.642,0.0023105155332976,-6.748155526632446
2025-03-08 14:57:32.662,0.0018236198341519,-4.241083738209886
2025-03-08 14:57:32.681,0.0013794174437748,-1.4920353888020856
2025-03-08 14:57:32.701,0.0009721032548412,1.3322907268444868
2025-03-08 14:57:32.720,0.0005921368104928,4.044407569479664
2025-03-08 14:57:32.740,0.0002274591609213,6.460777178963781
2025-03-08 14:57:32.759,-0.0001347706218772,8.427834456280209
2025-03-08 14:57:32.779,-0.0005062325462002,9.84399775159012
2025-03-08 14:57:32.798,-0.0008958487490372,10.672931718270306
2025-03-08 14:57:32.818,-0.0013088721782125,10.94521784846896
2025-03-08 14:57:32.837,-0.0017464798515932,10.74832516263774
2025-03-08 14:57:32.857,-0.0022053078473582,10.20752761352617
2025-03-08 14:57:32.876,-0.0026765203083373,9.462341391980644
2025-03-08 14:57:32.896,-0.0031446763370183,8.643638315760512
2025-03-08 14:57:32.915,-0.003587333479675,7.855807561667908
2025-03-08 14:57:32.935,-0.0039764118404208,7.1665934364236525
2025-03-08 14:57:32.954,-0.0042817194762036,6.605156425560282
2025-03-08 14:57:32.974,-0.0044761349796426,6.16709824489051
2025-03-08 14:57:32.994,-0.0045412803299358,5.8240757530118685
2025-03-08 14:57:33.013,-0.0044722994453753,5.535327438106296
2025-03-08 14:57:33.033,-0.0042804887943992,5.258785628807657
2025-03-08 14:57:33.052,-0.0039928987788895,4.9601181846779365
2025-03-08 14:57:33.072,-0.0036486426527431,4.618724599602996
2025-03-08 14:57:33.091,-0.0032924743816705,4.230247081051013
2025-03-08 14:57:33.111,-0.0029670116846571,3.805562125563039
2025-03-08 14:57:33.130,-0.0027054631545066,3.3665938128260047
2025-03-08 14:57:33.150,-0.0025266256338056,2.93971440021908
2025-03-08 14:57:33.169,-0.0024332389994283,2.547954327440082
2025-03-08 14:57:33.189,-0.0024137580556256,2.2036107324284275
2025-03-08 14:57:33.208,-0.0024466149147851,1.902944071285129
2025-03-08 14:57:33.228,-0.0025055018328383,1.6243563952565347
2025-03-08 14:57:33.247,-0.0025643127286092,1.3307690760948705
2025-03-08 14:57:33.267,-0.0026009796428041,0.9760355209713114
2025-03-08 14:57:33.287,-0.0026000926502736,0.5143652774989796
2025-03-08 14:57:33.306,-0.0025545295325562,-0.0889295858667053
2025-03-08 14:57:33.326,-0.0024662678317378,-0.8474438157711544
2025-03-08 14:57:33.345,-0.002346273858423,-1.746586907759028
2025-03-08 14:57:33.365,-0.0022131135238694,-2.74121943784254
2025-03-08 14:57:33.384,-0.0020899061386563,-3.7591189440625015
2025-03-08 14:57:33.404,-0.0019995317920128,-4.710273932539361
2025-03-08 14:57:33.423,-0.0019586049369876,-5.500698903489999
2025-03-08 14:57:33.443,-0.0019715009549284,-6.048257095064417
2025-03-08 14:57:33.462,-0.0020263139689231,-6.297240196896549
2025-03-08 14:57:33.482,-0.0020946096389969,-6.228491738706338
2025-03-08 14:57:33.501,-0.0021360262804107,-5.8627681015258455
2025-03-08 14:57:33.521,-0.0021073782410515,-5.256602328408726
2025-03-08 14:57:33.540,-0.001974414786779,-4.491703861141192
2025-03-08 14:57:33.560,-0.0017232802793718,-3.660345975089517
2025-03-08 14:57:33.580,-0.0013683569708624,-2.849880528601929
2025-03-08 14:57:33.599,-0.0009537667150563,-2.129408242504939
2025-03-08 14:57:33.619,-0.0005473410619469,-1.5409177108512837
2025-03-08 14:57:33.638,-0.0002279019554161,-1.0961652629626175
2025-03-08 14:57:33.658,-6.852339776105385e-05,-0.7794176539303491
2025-03-08 14:57:33.677,-0.0001195423019889,-0.5550695593276421
2025-03-08 14:57:33.697,-0.0003952995039506,-0.3782282104582886
2025-03-08 14:57:33.716,-0.0008679283692125,-0.2058152333101209
2025-03-08 14:57:33.736,-0.0014700148877733,-0.0057487338559153
2025-03-08 14:57:33.755,-0.0021058917454456,0.2376026029156731
2025-03-08 14:57:33.775,-0.0026692534618155,0.5224145604905917
2025-03-08 14:57:33.794,-0.0030632837790067,0.8323918904784894
2025-03-08 14:57:33.814,-0.003218946882804,1.1424107616722836
2025-03-08 14:57:33.833,-0.0031076158087617,1.425139565092686
2025-03-08 14:57:33.853,-0.0027456165122421,1.657062965013708
2025-03-08 14:57:33.873,-0.002190095931208,1.822655309623285
2025-03-08 14:57:33.892,-0.0015273242014681,1.9158171716080517
2025-03-08 14:57:33.912,-0.0008557723756075,1.9381262947647449
2025-03-08 14:57:33.931,-0.0002670467230066,1.8940957106701737
2025-03-08 14:57:33.951,0.0001718814296924,1.7845129411962868
2025-03-08 14:57:33.970,0.0004317581559069,1.5998436825962146
2025-03-08 14:57:33.990,0.0005266830573257,1.3162092571772115
2025-03-08 14:57:34.009,0.0005108553669995,0.8962033747413648
2025-03-08 14:57:34.029,0.0004667854291367,0.2956887070107307
2025-03-08 14:57:34.048,0.000487187469745,-0.5240329752080077
2025-03-08 14:57:34.068,0.0006542309621083,-1.5811204087098378
2025-03-08 14:57:34.087,0.0010205368482008,-2.8589373735600385
2025-03-08 14:57:34.107,0.0015961017236738,-4.296787227477943
2025-03-08 14:57:34.126,0.0023442276188639,-5.789005637203698
2025-03-08 14:57:34.146,0.0031876393434919,-7.193995207517234
2025-03-08 14:57:34.165,0.004023578110529,-8.352429891021044
2025-03-08 14:57:34.185,0.0047443633635672,-9.111551240394068
2025-03-08 14:57:34.205,0.0052584700304568,-9.35084417929469
2025-03-08 14:57:34.224,0.0055071111730784,-9.003845549708027
2025-03-08 14:57:34.244,0.0054726800699546,-8.07152183399468
2025-03-08 14:57:34.263,0.005177741299009,-6.624357240072186
2025-03-08 14:57:34.283,0.0046758256366566,-4.792600290091145
2025-03-08 14:57:34.302,0.0040372589457254,-2.746508067533419
2025-03-08 14:57:34.322,0.0033340248770329,-0.670400363294299
2025-03-08 14:57:34.341,0.0026271303198815,1.2645025579473812
2025-03-08 14:57:34.361,0.0019585869842527,2.923351130114735
2025-03-08 14:57:34.380,0.00134863898038,4.222838949209264
2025-03-08 14:57:34.400,0.0007977392911576,5.135812626331955
2025-03-08 14:57:34.419,0.0002921196381648,5.685103249248226
2025-03-08 14:57:34.439,-0.000188506197668,5.928670492852263
2025-03-08 14:57:34.458,-0.0006626517181693,5.940008639376555
2025-03-08 14:57:34.478,-0.0011396953681743,5.788693873656679
2025-03-08 14:57:34.498,-0.0016148560027653,5.525663329512798
2025-03-08 14:57:34.517,-0.0020676225908937,5.176370408606427
2025-03-08 14:57:34.537,-0.0024641248977762,4.742796064155525
2025-03-08 14:57:34.556,-0.0027630688641587,4.213042704039474
2025-03-08 14:57:34.576,-0.0029240784190001,3.5754544335824376
2025-03-08 14:57:34.595,-0.0029167569565312,2.833232415664128
2025-03-08 14:57:34.615,-0.0027284894300765,2.0154783167607486
2025-03-08 14:57:34.634,-0.0023690319318153,1.181482031465802
2025-03-08 14:57:34.654,-0.0018704994059042,0.4167024618449186
2025-03-08 14:57:34.673,-0.0012824963057735,-0.1790710234621775
2025-03-08 14:57:34.693,-0.0006634956056327,-0.5089306435500134
2025-03-08 14:57:34.712,-7.06453418715509e-05,-0.4976265345585384
2025-03-08 14:57:34.732,0.0004494142183767,-0.107705295266946
2025-03-08 14:57:34.751,0.0008665529592403,0.6505152679050701
2025-03-08 14:57:34.771,0.0011689193762958,1.7171466194463982
2025-03-08 14:57:34.791,0.0013608290009717,2.9892502417659177
2025-03-08 14:57:34.810,0.0014582269590662,4.33416127240827
2025-03-08 14:57:34.830,0.0014834970377698,5.6070395878847314
2025-03-08 14:57:34.849,0.0014608836575473,6.669726277869055
2025-03-08 14:57:34.869,0.0014129006459894,7.408188152135445
2025-03-08 14:57:34.888,0.0013574421239654,7.746320963390834
2025-03-08 14:57:34.908,0.0013052789454195,7.654455158913405
2025-03-08 14:57:34.927,0.0012581411154133,7.151520422096761
2025-03-08 14:57:34.947,0.0012081617857655,6.300540476927349
2025-03-08 14:57:34.966,0.0011395517878734,5.198007228421931
2025-03-08 14:57:34.986,0.0010328010966226,3.958677878887588
2025-03-08 14:57:35.005,0.000870728182847,2.698264150767891
2025-03-08 14:57:35.025,0.0006448142554977,1.5170608724815826
2025-03-08 14:57:35.044,0.0003599071731789,0.4875349818348404
2025-03-08 14:57:35.064,3.573966434326742e-05,-0.3518490665999754
2025-03-08 14:57:35.083,-0.0002953510381633,-0.995660057211756
2025-03-08 14:57:35.103,-0.0005939515664441,-1.4641715447142452
2025-03-08 14:57:35.123,-0.0008208715660346,-1.792033460693458
2025-03-08 14:57:35.142,-0.0009443831292653,-2.016289946449949
2025-03-08 14:57:35.162,-0.0009458009386248,-2.167138565117923
2025-03-08 14:57:35.181,-0.0008223627664469,-2.2638576229858995
2025-03-08 14:57:35.201,-0.0005870219457249,-2.3166078303668907
2025-03-08 14:57:35.220,-0.0002654307644654,-2.332887886119123
2025-03-08 14:57:35.240,0.0001089821307452,-2.325921032329928
2025-03-08 14:57:35.259,0.0005005258973802,-2.32164393822697
2025-03-08 14:57:35.279,0.0008760480869233,-2.361409248089453
2025-03-08 14:57:35.298,0.0012081922082673,-2.4988092652261384
2025-03-08 14:57:35.318,0.001476979514492,-2.7907648169466883
2025-03-08 14:57:35.337,0.001670118901214,-3.284709736077377
2025-03-08 14:57:35.357,0.0017826150677452,-4.004903187186949
2025-03-08 14:57:35.376,0.0018160813036998,-4.941336140968317
2025-03-08 14:57:35.396,0.0017778459187175,-6.044283501429156
2025-03-08 14:57:35.416,0.0016797048893149,-7.226409707228198
2025-03-08 14:57:35.435,0.0015361934954371,-8.372733961179435
2025-03-08 14:57:35.455,0.0013624947708694,-9.357041056744386
2025-03-08 14:57:35.474,0.0011723598498755,-10.061822527094868
2025-03-08 14:57:35.494,0.0009764697593844,-10.397861530913334
2025-03-08 14:57:35.513,0.0007814837431233,-10.31940142351604
2025-03-08 14:57:35.533,0.0005897907218583,-9.83160702465812
2025-03-08 14:57:35.552,0.0003999076325566,-8.988638041246492
2025-03-08 14:57:35.572,0.0002074946243208,-7.882719572068728
2025-03-08 14:57:35.591,6.909285382526226e-06,-6.62656475880913
2025-03-08 14:57:35.611,-0.0002069036758415,-5.332875118036344
2025-03-08 14:57:35.630,-0.0004365047632113,-4.095121212676526
2025-03-08 14:57:35.650,-0.0006804599799662,-2.9733575712504514
2025-03-08 14:57:35.669,-0.0009327652337874,-1.9876315371068631
2025-03-08 14:57:35.689,-0.0011836151056226,-1.1199075437653736
2025-03-08 14:57:35.709,-0.0014215296224162,-0.3236893606639245
2025-03-08 14:57:35.728,-0.0016362841605452,0.4609786108787686
2025-03-08 14:57:35.748,-0.0018216739310083,1.290419657357467
2025-03-08 14:57:35.767,-0.0019771158127488,2.201681333233357
2025-03-08 14:57:35.787,-0.0021074885989578,3.201397744032982
2025-03-08 14:57:35.806,-0.0022212986977928,4.26118148447386
2025-03-08 14:57:35.826,-0.0023279144889693,5.320266710702263
2025-03-08 14:57:35.845,-0.0024348651040062,6.294814229972316
2025-03-08 14:57:35.865,-0.0025459289704831,7.092146964473521
2025-03-08 14:57:35.884,-0.0026602455066111,7.6273261455188734
2025-03-08 14:57:35.904,-0.002772383847882,7.83900758588101
2025-03-08 14:57:35.923,-0.0028732745140708,7.7015335220111005
2025-03-08 14:57:35.943,-0.0029519163200369,7.230790729219268
2025-03-08 14:57:35.962,-0.0029976438159471,6.482493216390302
2025-03-08 14:57:35.982,-0.003002547871419,5.543083641505367
2025-03-08 14:57:36.001,-0.0029635306589959,4.5150803813796
2025-03-08 14:57:36.021,-0.0028835230038058,3.499998623834176
2025-03-08 14:57:36.041,-0.0027715676685017,2.582539741119017
2025-03-08 14:57:36.060,-0.002641653450586,1.819365636069105
2025-03-08 14:57:36.080,-0.0025102582885187,1.2345486150080742
2025-03-08 14:57:36.099,-0.002392575372837,0.822087824334875
2025-03-08 14:57:36.119,-0.0022975756193841,0.5542202701774339
2025-03-08 14:57:36.138,-0.0022225874707294,0.3930725513827494
2025-03-08 14:57:36.158,-0.0021488369152683,0.3027262314100391
2025-03-08 14:57:36.177,-0.0020399302219889,0.2589872127954629
2025-03-08 14:57:36.197,-0.0018450874049572,0.2548796638131575
2025-03-08 14:57:36.216,-0.0015078825951507,0.3009114257880498
2025-03-08 14:57:36.236,-0.0009795654679465,0.4202986368398778
2025-03-08 14:57:36.255,-0.0002342633274166,0.6404368364579409
2025-03-08 14:57:36.275,0.0007178501028109,0.9827808558508868
2025-03-08 14:57:36.294,0.0018234566945275,1.4537234133469643
2025-03-08 14:57:36.314,0.0029879802257896,2.038863202764267
2025-03-08 14:57:36.334,0.0040873533769988,2.702220392374139
2025-03-08 14:57:36.353,0.0049883714446359,3.3907090516154907
2025-03-08 14:57:36.373,0.0055744187890374,4.042868600815411
2025-03-08 14:57:36.392,0.0057714003429649,4.599828190241574
2025-03-08 14:57:36.412,0.0055667658027234,5.015946189608069
2025-03-08 14:57:36.431,0.0050145267125696,5.266616626728462
2025-03-08 14:57:36.451,0.0042233239898755,5.351338912588398
2025-03-08 14:57:36.470,0.0033314555518434,5.2911781970635525
2025-03-08 14:57:36.490,0.0024776206917395,5.120993541221959
2025-03-08 14:57:36.509,0.0017760901877439,4.878043825192776
2025-03-08 14:57:36.529,0.0013014141022407,4.589568743411983
2025-03-08 14:57:36.548,0.0010836254939614,4.262455292537164
2025-03-08 14:57:36.568,0.0011120322601426,3.8779148571288697
2025-03-08 14:57:36.587,0.001344473456966,3.3930902095118456
2025-03-08 14:57:36.607,0.0017189461627409,2.7498147352906166
2025-03-08 14:57:36.627,0.0021651890974672,1.888800393185155
2025-03-08 14:57:36.646,0.0026147005540151,0.7659670321266148
2025-03-08 14:57:36.666,0.0030085235660291,-0.6330082047472264
2025-03-08 14:57:36.685,0.0033027465658392,-2.2833443014458554
2025-03-08 14:57:36.705,0.0034719191491643,-4.119038750233681
2025-03-08 14:57:36.724,0.0035105541353576,-6.038241087088911
2025-03-08 14:57:36.744,0.0034327520011738,-7.9148130318674035
2025-03-08 14:57:36.763,0.0032698331066203,-9.613777368938973
2025-03-08 14:57:36.783,0.0030657813665024,-11.00803703142384
2025-03-08 14:57:36.802,0.0028704427664067,-11.993952069502091
2025-03-08 14:57:36.822,0.0027308596823259,-12.503823953587515
2025-03-08 14:57:36.841,0.0026817487745744,-12.513821416661496
2025-03-08 14:57:36.861,0.0027367367803576,-12.046322076575027
2025-03-08 14:57:36.880,0.002882340319903,-11.166143076135125
2025-03-08 14:57:36.900,0.003076610779516,-9.970846952410003
2025-03-08 14:57:36.919,0.003253705171194,-8.576274670354152
2025-03-08 14:57:36.939,0.0033343787505478,-7.099505222582946
2025-03-08 14:57:36.959,0.0032407876617326,-5.642245330512203
2025-03-08 14:57:36.978,0.0029125626013875,-4.277888286390211
2025-03-08 14:57:36.998,0.0023204093162045,-3.044953096837
2025-03-08 14:57:37.017,0.001473788587641,-1.9483210772232984
2025-03-08 14:57:37.037,0.0004205058513184,-0.9678502201048366
2025-03-08 14:57:37.056,-0.0007619196452901,-0.0720256997005801
2025-03-08 14:57:37.076,-0.0019809352918434,0.7671039722419201
2025-03-08 14:57:37.095,-0.0031458041601841,1.561837584950741
2025-03-08 14:57:37.115,-0.0041823808897106,2.302882150135418
2025-03-08 14:57:37.134,-0.0050426359008914,2.9610733687541595
2025-03-08 14:57:37.154,-0.0057076543091091,3.4960739180980926
2025-03-08 14:57:37.173,-0.0061848213241787,3.8694410212056094
2025-03-08 14:57:37.193,-0.0065013533331087,4.058320471854719
2025-03-08 14:57:37.212,-0.0066968648827704,4.065937151505503
2025-03-08 14:57:37.232,-0.0068171825617729,3.925957129400005
2025-03-08 14:57:37.252,-0.006910350215043,3.699389683208041
2025-03-08 14:57:37.271,-0.0070242377939489,3.4645457755366467
2025-03-08 14:57:37.291,-0.0072040220926209,3.30223268936966
2025-03-08 14:57:37.310,-0.0074875598060835,3.2794837297068957
2025-03-08 14:57:37.330,-0.0078974963953622,3.4354738103719678
2025-03-08 14:57:37.349,-0.0084306433120931,3.772800592208319
2025-03-08 14:57:37.369,-0.0090471759937325,4.256130875793257
2025-03-08 14:57:37.388,-0.0096638739891952,4.818575280702391
2025-03-08 14:57:37.408,-0.0101563465868362,5.374401763831891
2025-03-08 14:57:37.427,-0.0103745262088547,5.835214748016841
2025-03-08 14:57:37.447,-0.010173382711554,6.12588861167696
2025-03-08 14:57:37.466,-0.0094567872624547,6.196631519937705
2025-03-08 14:57:37.486,-0.0082271453546283,6.028622817441084
2025-03-08 14:57:37.505,-0.0066279142759355,5.632455006210592
2025-03-08 14:57:37.525,-0.0049623777371932,5.040583758510586
2025-03-08 14:57:37.545,-0.0036724616129911,4.296513660427116
2025-03-08 14:57:37.564,-0.0032676045697562,3.444042836973974
2025-03-08 14:57:37.584,-0.0042056712190143,2.5194295066478123
2025-03-08 14:57:37.603,-0.0067435071657097,1.5480953486087543
2025-03-08 14:57:37.623,-0.0107900126047571,0.5459525684854754
2025-03-08 14:57:37.642,-0.0158044093277113,-0.4758626170491847
2025-03-08 14:57:37.662,-0.0207820035701281,-1.504828803951132
2025-03-08 14:57:37.681,-0.0243569445472089,-2.521556243012223
2025-03-08 14:57:37.701,-0.0250274124417983,-3.4966621869903904
2025-03-08 14:57:37.720,-0.0214774791166335,-4.39089338928261
2025-03-08 14:57:37.740,-0.0129376372988753,-5.158462892775698
2025-03-08 14:57:37.759,0.0004998466711421,-5.752758291300085
2025-03-08 14:57:37.779,0.0177052866026233,-6.133068787684685
2025-03-08 14:57:37.798,0.0365570928781377,-6.270856887214367
2025-03-08 14:57:37.818,0.0542483073083358,-6.15434236566045
2025-03-08 14:57:37.838,0.0678263123452229,-5.790651722331972
2025-03-08 14:57:37.857,0.0748553991264684,-5.205341454019973
2025-03-08 14:57:37.877,0.0740202678749676,-4.439561269367866
2025-03-08 14:57:37.896,0.0654710857188899,-3.545398347120981
2025-03-08 14:57:37.916,0.0507827747548333,-2.5800687094223345
2025-03-08 14:57:37.935,0.0325428031297974,-1.5996975844492978
2025-03-08 14:57:37.955,0.013715792383834,-0.6535195164472596
2025-03-08 14:57:37.974,-0.0030100677916951,0.2206094934157607
2025-03-08 14:57:37.994,-0.0157200215139645,0.9985725172320418
2025-03-08 14:57:38.013,-0.0235180283213151,1.6697162589201309
2025-03-08 14:57:38.033,-0.0265111986646979,2.2339566040916017
2025-03-08 14:57:38.052,-0.0255897396743838,2.6968943819414566
2025-03-08 14:57:38.072,-0.0220934217584797,3.0640770640927584
2025-03-08 14:57:38.091,-0.0174602421698989,3.3357905959287746
2025-03-08 14:57:38.111,-0.0129348566583099,3.503705227847389
2025-03-08 14:57:38.130,-0.0093834272498091,3.550365599547395
2025-03-08 14:57:38.150,-0.0072277779019103,3.451971203564704
2025-03-08 14:57:38.170,-0.0064833243470409,3.1841917278990093
2025-03-08 14:57:38.189,-0.0068672031383295,2.729971924848281
2025-03-08 14:57:38.209,-0.007936750130642,2.0875531684481228
2025-03-08 14:57:38.228,-0.0092222394635255,1.2765275054263576
2025-03-08 14:57:38.248,-0.0103281369577219,0.3399122305283301
2025-03-08 14:57:38.267,-0.0109902734346227,-0.6589026602574891
2025-03-08 14:57:38.287,-0.0110890311053211,-1.644109428857144
2025-03-08 14:57:38.306,-0.0106283823954842,-2.5386855207685186
2025-03-08 14:57:38.326,-0.0096959145713197,-3.276222982866561
2025-03-08 14:57:38.345,-0.0084194325680621,-3.8106006220149697
2025-03-08 14:57:38.365,-0.0069321040877631,-4.121378474211868
2025-03-08 14:57:38.384,-0.0053520468768197,-4.214007281371659
2025-03-08 14:57:38.404,-0.0037758698455997,-4.115281154738296
2025-03-08 14:57:38.423,-0.0022809705646429,-3.865515780620188
2025-03-08 14:57:38.443,-0.0009297169995961,-3.509460131998149
2025-03-08 14:57:38.463,0.0002297149630013,-3.0879108332258034
2025-03-08 14:57:38.482,0.0011671663951817,-2.631542013524849
2025-03-08 14:57:38.502,0.0018763467828852,-2.157818594535498
2025-03-08 14:57:38.521,0.0023783598888789,-1.6712141893564694
2025-03-08 14:57:38.541,0.0027197363575076,-1.1663844147918687
2025-03-08 14:57:38.560,0.0029644870373415,-0.6334566153064398
2025-03-08 14:57:38.580,0.0031819162620409,-0.0642061640914781
2025-03-08 14:57:38.599,0.0034328463252996,0.5423178541558998
2025-03-08 14:57:38.619,0.0037568390749632,1.176063433781012
2025-03-08 14:57:38.638,0.0041626107768869,1.8150484420980864
2025-03-08 14:57:38.658,0.0046234575345745,2.4274402962676094
2025-03-08 14:57:38.677,0.0050790490263047,2.976097354508906
2025-03-08 14:57:38.697,0.0054441129207354,3.424463108506409
2025-03-08 14:57:38.716,0.0056232010305694,3.7424841998933
2025-03-08 14:57:38.736,0.0055291854421363,3.911374427015436
2025-03-08 14:57:38.756,0.0051019287448439,3.926467985802883
2025-03-08 14:57:38.775,0.0043231923598221,3.7979078730500335
2025-03-08 14:57:38.795,0.0032244619831767,3.5493074365573465
2025-03-08 14:57:38.814,0.0018857711124308,3.214708670344706
2025-03-08 14:57:38.834,0.0004253455215311,2.834192623773079
2025-03-08 14:57:38.853,-0.0010184374879263,2.4485276061922163
2025-03-08 14:57:38.873,-0.0023098340954092,2.093394871656148
2025-03-08 14:57:38.892,-0.0033390708943927,1.7939971417066538
2025-03-08 14:57:38.912,-0.0040412194538164,1.561082652780306
2025-03-08 14:57:38.931,-0.004405919227605,1.3894190706220284
2025-03-08 14:57:38.951,-0.0044752829872162,1.2594101268822535
2025-03-08 14:57:38.970,-0.0043305627526643,1.1418699331874154
2025-03-08 14:57:38.990,-0.0040712769810197,1.0051046327958095
2025-03-08 14:57:39.009,-0.0037922991118739,0.8226762349899083
2025-03-08 14:57:39.029,-0.003564453786554,0.5798618705913335
2025-03-08 14:57:39.048,-0.0034227211302579,0.277083810184712
2025-03-08 14:57:39.068,-0.0033638615862174,-0.0705691306378732
2025-03-08 14:57:39.088,-0.0033528996190386,-0.4374738209589621
2025-03-08 14:57:39.107,-0.0033360192286253,-0.7939810508210587
2025-03-08 14:57:39.127,-0.0032563076380765,-1.113435589730687
2025-03-08 14:57:39.146,-0.0030685285882256,-1.37783465183995
2025-03-08 14:57:39.166,-0.0027496952331991,-1.5807657778279824
2025-03-08 14:57:39.185,-0.0023034852076899,-1.7271038936014529
2025-03-08 14:57:39.205,-0.0017581826036398,-1.8298453804811916
2025-03-08 14:57:39.224,-0.0011594030839619,-1.9051681789184405
2025-03-08 14:57:39.244,-0.000559914922307,-1.9671676358474215
2025-03-08 14:57:39.263,-9.172179536195313e-06,-2.02367678721884
2025-03-08 14:57:39.283,0.0004552072718812,-2.074191732139614
2025-03-08 14:57:39.302,0.000812594557211,-2.1103137252701383
2025-03-08 14:57:39.322,0.0010606518320557,-2.1184467697196045
2025-03-08 14:57:39.341,0.0012131300469243,-2.0839141646349635
2025-03-08 14:57:39.361,0.0012950524806503,-1.9953222426072577
2025-03-08 14:57:39.381,0.0013364284431782,-1.847991555419562
2025-03-08 14:57:39.400,0.0013657254340476,-1.645588103512602
2025-03-08 14:57:39.420,0.001404300029367,-1.3996122213082711
2025-03-08 14:57:39.439,0.0014628061400128,-1.1269736319557138
2025-03-08 14:57:39.459,0.0015402174830017,-0.8463414892639507
2025-03-08 14:57:39.478,0.0016255300051487,-0.5742129754780092
2025-03-08 14:57:39.498,0.0017015679090095,-0.3216626567351891
2025-03-08 14:57:39.517,0.0017498157697887,-0.092530264301415
2025-03-08 14:57:39.537,0.0017550188324624,0.1165703668797504
2025-03-08 14:57:39.556,0.001708486639073,0.3144873346316083
2025-03-08 14:57:39.576,0.0016095166259566,0.5124830310661512
2025-03-08 14:57:39.595,0.0014649297905233,0.7206388627060675
2025-03-08 14:57:39.615,0.0012871838881894,0.9445246846840714
2025-03-08 14:57:39.634,0.0010918143275371,1.1828390279239245
2025-03-08 14:57:39.654,0.0008950095673426,1.4264847581218498
2025-03-08 14:57:39.674,0.0007118852192269,1.659236768036346
