Timestamp,GSR_Filtered,PPG_Filtered
2025-03-08 14:57:02.153,0.00022410687995200388,50.90074291955132
2025-03-08 14:57:02.172,0.00019651563428785653,52.598527327053425
2025-03-08 14:57:02.192,0.00016713686314661833,53.13788896834797
2025-03-08 14:57:02.211,0.00013644190557532613,52.48615893534225
2025-03-08 14:57:02.231,0.00010362343637951411,50.691332378673444
2025-03-08 14:57:02.250,6.664512456802374e-05,47.8791062268362
2025-03-08 14:57:02.270,2.272838777896666e-05,44.24155856222613
2025-03-08 14:57:02.289,-3.0927266409589305e-05,40.01827028743532
2025-03-08 14:57:02.309,-9.642251036005804e-05,35.47205736186755
2025-03-08 14:57:02.328,-0.00017460614860483563,30.862581127829348
2025-03-08 14:57:02.348,-0.000264797027328918,26.4215798704466
2025-03-08 14:57:02.367,-0.00036485134322090875,22.333150504114375
2025-03-08 14:57:02.387,-0.0004716049759079212,18.72149239646047
2025-03-08 14:57:02.406,-0.0005816042689436374,15.647099324146044
2025-03-08 14:57:02.426,-0.0006918736652713235,13.110929740778516
2025-03-08 14:57:02.446,-0.0008003941731489289,11.064928527156525
2025-03-08 14:57:02.465,-0.0009060924135986419,9.426592628680963
2025-03-08 14:57:02.485,-0.0010084012579672898,8.095078290732959
2025-03-08 14:57:02.504,-0.0011066625672449715,6.966551949270774
2025-03-08 14:57:02.524,-0.0011996720623943993,5.9469934629422285
2025-03-08 14:57:02.543,-0.0012855396812880896,4.961382661906588
2025-03-08 14:57:02.563,-0.001361869127586426,3.9590112722089934
2025-03-08 14:57:02.582,-0.0014261472148416688,2.9153607522355163
2025-03-08 14:57:02.602,-0.0014762117511737318,1.831357347104067
2025-03-08 14:57:02.621,-0.0015107004374435337,0.7307615800857914
2025-03-08 14:57:02.641,-0.0015294041290315492,-0.34391552547934184
2025-03-08 14:57:02.660,-0.001533431980930214,-1.3369649643757868
2025-03-08 14:57:02.680,-0.0015250940761710895,-2.186608819505342
2025-03-08 14:57:02.699,-0.0015074698513809412,-2.833525102628606
2025-03-08 14:57:02.719,-0.001483733732663379,-3.2300151533625923
2025-03-08 14:57:02.738,-0.0014563844965934391,-3.3484806652172816
2025-03-08 14:57:02.758,-0.0014265422248710548,-3.1875710627195657
2025-03-08 14:57:02.778,-0.0013934695655343648,-2.7744971415138204
2025-03-08 14:57:02.797,-0.001354477157421813,-2.1626059306709604
2025-03-08 14:57:02.817,-0.0013053542119674183,-1.424264738978564
2025-03-08 14:57:02.836,-0.0012413540421357988,-0.6401818484345333
2025-03-08 14:57:02.856,-0.00115855301515617,0.11281379868359052
2025-03-08 14:57:02.875,-0.001055184691707995,0.7730973200522085
2025-03-08 14:57:02.895,-0.0009324670398320675,1.302453015856469
2025-03-08 14:57:02.914,-0.0007945727271386702,1.6897020101977678
2025-03-08 14:57:02.934,-0.0006476932037019028,1.9493680920019492
2025-03-08 14:57:02.953,-0.0004984589258966124,2.1160678485883144
2025-03-08 14:57:02.973,-0.00035215636667081064,2.236098880689025
2025-03-08 14:57:02.992,-0.00021120282274191368,2.3580287507782502
2025-03-08 14:57:03.012,-7.427536600688732e-05,2.5239425200875316
2025-03-08 14:57:03.031,6.360238987599736e-05,2.762538480835438
2025-03-08 14:57:03.051,0.00020985829271454975,3.084700384885165
2025-03-08 14:57:03.071,0.00037215445232468983,3.4817111877716407
2025-03-08 14:57:03.090,0.0005556164431570556,3.925993810453061
2025-03-08 14:57:03.110,0.0007603205467259508,4.374150658882131
2025-03-08 14:57:03.129,0.0009800054294118842,4.772033666833779
2025-03-08 14:57:03.149,0.0012027898438442969,5.465696141687381
2025-03-08 14:57:03.168,0.0014141591857099458,5.844113020001037
2025-03-08 14:57:03.188,0.001601803016559635,5.872741270958584
2025-03-08 14:57:03.207,0.0017612731005630813,5.548683138119965
2025-03-08 14:57:03.227,0.0019010465918857912,4.903685277752608
2025-03-08 14:57:03.246,0.0020454829583098494,4.002862336889869
2025-03-08 14:57:03.266,0.0022343717205510487,2.938770525299858
2025-03-08 14:57:03.285,0.0025182888504338584,1.8212138492842305
2025-03-08 14:57:03.305,0.0029498011598680586,0.7640145082143345
2025-03-08 14:57:03.324,0.0035715836065649672,-0.12926625092589078
2025-03-08 14:57:03.344,0.004403477053890428,-0.7782440708779932
2025-03-08 14:57:03.364,0.0054310383234732005,-1.1349604548037817
2025-03-08 14:57:03.383,0.006598027696363284,-1.1878636640471356
2025-03-08 14:57:03.403,0.007804740160097566,-0.9600460674615376
2025-03-08 14:57:03.422,0.008913474930523675,-0.5024619856472562
2025-03-08 14:57:03.442,0.009761827549492348,0.11623465647527255
2025-03-08 14:57:03.461,0.010183579588206738,0.8211593520545951
2025-03-08 14:57:03.481,0.010035449317121194,1.5419294803330612
2025-03-08 14:57:03.500,0.009225966735247554,2.2209672582141
2025-03-08 14:57:03.520,0.007740881829023202,2.818215362539745
2025-03-08 14:57:03.539,0.0056586815350312845,3.3117792471865446
2025-03-08 14:57:03.559,0.0031506321916497195,3.6948201470720585
2025-03-08 14:57:03.578,0.0004624009240144917,3.969905640646954
2025-03-08 14:57:03.598,-0.002121668142222681,4.142762007255524
2025-03-08 14:57:03.617,-0.004325979781348881,4.217640774362832
2025-03-08 14:57:03.637,-0.005933331875526783,4.196061261792812
2025-03-08 14:57:03.656,-0.00682568658389802,4.07953408883499
2025-03-08 14:57:03.676,-0.007006575596337472,3.875343798750874
2025-03-08 14:57:03.696,-0.006600012655573358,3.6031213929119104
2025-03-08 14:57:03.715,-0.005826208042288235,3.299303239801327
2025-03-08 14:57:03.735,-0.0049590984132143485,3.0169381928868226
2025-03-08 14:57:03.754,-0.004273867789533943,2.8195906127279677
2025-03-08 14:57:03.774,-0.0039941534741170185,2.769887065647717
2025-03-08 14:57:03.793,-0.004248629550189508,2.9149953350759454
2025-03-08 14:57:03.813,-0.005045248186815072,3.272467926706597
2025-03-08 14:57:03.832,-0.00626869297163198,3.820092623253229
2025-03-08 14:57:03.852,-0.007702680320720298,4.492618187310156
2025-03-08 14:57:03.871,-0.009073908975616695,5.18668745620651
2025-03-08 14:57:03.891,-0.010109343154999412,5.773433853080646
2025-03-08 14:57:03.910,-0.010594273713562731,6.116478289868752
2025-03-08 14:57:03.930,-0.010416898113949634,6.0919389012847525
2025-03-08 14:57:03.949,-0.009587663482850292,5.606795864418801
2025-03-08 14:57:03.969,-0.008228616341907554,4.612547187099816
2025-03-08 14:57:03.989,-0.006537209243958587,3.112301671992863
2025-03-08 14:57:04.008,-0.004736443472784466,1.1608695563414675
2025-03-08 14:57:04.028,-0.00302585404464052,-1.1413751646975758
2025-03-08 14:57:04.047,-0.0015454013705376818,-3.659313036706089
2025-03-08 14:57:04.067,-0.0003587891352015495,-6.236728614992571
2025-03-08 14:57:04.086,0.0005433904895641837,-8.711009266446961
2025-03-08 14:57:04.106,0.0012250928481436787,-10.927406394349841
2025-03-08 14:57:04.125,0.0017778738637376603,-12.751758877915991
2025-03-08 14:57:04.145,0.0022930066338825977,-14.080934596039008
2025-03-08 14:57:04.164,0.00283877111587921,-14.850482608507148
2025-03-08 14:57:04.184,0.0034466652109390135,-15.03909548831175
2025-03-08 14:57:04.203,0.004107699771741981,-14.669539465465725
2025-03-08 14:57:04.223,0.004777781350450929,-13.80583476456067
2025-03-08 14:57:04.242,0.005389775271881019,-12.546727921947706
2025-03-08 14:57:04.262,0.005869169335367817,-11.015878001313173
2025-03-08 14:57:04.282,0.006150139355708332,-9.349604317135793
2025-03-08 14:57:04.301,0.006189077416311972,-7.68341626289898
2025-03-08 14:57:04.321,0.005973237488846005,-6.13877518954175
2025-03-08 14:57:04.340,0.005523122810224451,-4.811564054593321
2025-03-08 14:57:04.360,0.004888544071651145,-3.7635508898991623
2025-03-08 14:57:04.379,0.004139650073925596,-3.0177650932673066
2025-03-08 14:57:04.399,0.0033552082571418965,-2.5582329946993485
2025-03-08 14:57:04.418,0.0026106012223231535,-2.3340183183405814
2025-03-08 14:57:04.438,0.0019674496877591066,-2.2670412178122077
2025-03-08 14:57:04.457,0.0014659734756842068,-2.2627430428719726
2025-03-08 14:57:04.477,0.0011206596317887851,-2.2223614911340657
2025-03-08 14:57:04.496,0.000919579144883688,-2.0554320500963077
2025-03-08 14:57:04.516,0.0008275013282235414,-1.6911672419306796
2025-03-08 14:57:04.535,0.0007925895817903398,-1.0875524905243872
2025-03-08 14:57:04.555,0.0007559455551702662,-0.2372403766659538
2025-03-08 14:57:04.574,0.0006627025202437183,0.8304632060439132
2025-03-08 14:57:04.594,0.0004728204573559228,2.052030484487847
2025-03-08 14:57:04.614,0.00016932691572387775,3.336756400684734
2025-03-08 14:57:04.633,-0.00023821763245652713,4.578047588618031
2025-03-08 14:57:04.653,-0.0007163963763905714,5.66778497592836
2025-03-08 14:57:04.672,-0.0012163964582870132,6.511753737695918
2025-03-08 14:57:04.692,-0.0016859172914109723,7.0435690135064295
2025-03-08 14:57:04.711,-0.0020809968680709718,7.234489770204463
2025-03-08 14:57:04.731,-0.0023744758241813404,7.097111454468222
2025-03-08 14:57:04.750,-0.002559271853091137,6.682069550037288
2025-03-08 14:57:04.770,-0.0026464508614617538,6.068310314000939
2025-03-08 14:57:04.789,-0.0026594903359692334,5.348840038033522
2025-03-08 14:57:04.809,-0.002626796970277896,4.614805799137588
2025-03-08 14:57:04.828,-0.0025745044167114033,3.9410478357021175
2025-03-08 14:57:04.848,-0.0025210730052124216,3.3758303587181886
2025-03-08 14:57:04.867,-0.0024745065602105117,2.9364259685597576
2025-03-08 14:57:04.887,-0.002432300290470052,2.6108626588530677
2025-03-08 14:57:04.907,-0.002383679426661844,2.3647854317492625
2025-03-08 14:57:04.926,-0.0023133461640476717,2.1513946831050497
2025-03-08 14:57:04.946,-0.002205808417877847,1.922064619875641
2025-03-08 14:57:04.965,-0.0020493836514347374,1.6355618608515974
2025-03-08 14:57:04.985,-0.0018391411834232008,1.2645700527679924
2025-03-08 14:57:05.004,-0.0015783164079650172,0.7991339804289843
2025-03-08 14:57:05.024,-0.0012779916716216945,0.24735152289066556
2025-03-08 14:57:05.043,-0.0009550469150544026,-0.36600403647381197
2025-03-08 14:57:05.063,-0.0006286367500639939,-1.002253017391348
2025-03-08 14:57:05.082,-0.0003158459860780418,-1.6125207512565596
2025-03-08 14:57:05.102,-2.760529678531312e-05,-2.1422066407492437
2025-03-08 14:57:05.121,0.00023388730460450566,-2.536158441581045
2025-03-08 14:57:05.141,0.00047533629708766076,-2.7444205045713854
2025-03-08 14:57:05.160,0.0007099880436954776,-2.7281683316109757
2025-03-08 14:57:05.180,0.0009534702678771149,-2.4651308334649396
2025-03-08 14:57:05.200,0.0012190836335629462,-1.9535900506274595
2025-03-08 14:57:05.219,0.001513817091706028,-1.214060908040544
2025-03-08 14:57:05.239,0.0018359932113848581,-0.2880430515491286
2025-03-08 14:57:05.258,0.002174943863632033,0.7662399133234514
2025-03-08 14:57:05.278,0.002512642890198382,1.8805681647783152
2025-03-08 14:57:05.297,0.0028268316725056663,2.9848103894590294
2025-03-08 14:57:05.317,0.003094886334853063,4.014932844715243
2025-03-08 14:57:05.336,0.003297559804441122,4.9195428682369275
2025-03-08 14:57:05.356,0.003421868670914073,5.663983966887597
2025-03-08 14:57:05.375,0.00346275601048125,6.231616968053737
2025-03-08 14:57:05.395,0.0034235542815958414,6.622526702633402
2025-03-08 14:57:05.414,0.0033154694318237063,6.85032912201368
2025-03-08 14:57:05.434,0.0031562581702598517,6.9379761450255275
2025-03-08 14:57:05.453,0.002968155390856915,6.913479601404588
2025-03-08 14:57:05.473,0.0027751509914741316,6.8063210474743
2025-03-08 14:57:05.492,0.002599936493436406,6.64500919606171
2025-03-08 14:57:05.512,0.0024610361101715353,6.455845679588134
2025-03-08 14:57:05.532,0.0023706056881848177,6.262545791542243
2025-03-08 14:57:05.551,0.002333152683425887,6.08604599660413
2025-03-08 14:57:05.571,0.0023452010741337108,5.943743453637581
2025-03-08 14:57:05.590,0.002395845185372751,5.847644617049246
2025-03-08 14:57:05.610,0.0024681678639873065,5.801424655202732
2025-03-08 14:57:05.629,0.002541480057388967,5.797044490232455
2025-03-08 14:57:05.649,0.0025941611665269014,5.812073341446689
2025-03-08 14:57:05.668,0.0026066141406527106,5.808987429553955
2025-03-08 14:57:05.688,0.0025637095715757845,5.737371417521266
2025-03-08 14:57:05.707,0.002456242147415106,5.539232422152859
2025-03-08 14:57:05.727,0.002281301445818785,5.156774523811679
2025-03-08 14:57:05.746,0.0020418168601422713,4.541246800711363
2025-03-08 14:57:05.766,0.0017456499601033275,3.6611022017593386
2025-03-08 14:57:05.785,0.0014044702736998155,2.5078129658044186
2025-03-08 14:57:05.805,0.00103246084320792,1.0982545933398558
2025-03-08 14:57:05.825,0.0006448627025509898,-0.5265818979944245
2025-03-08 14:57:05.844,0.00025648996449408333,-2.305928069676221
2025-03-08 14:57:05.864,-0.000119555972576328,-4.1653962342209345
2025-03-08 14:57:05.883,-0.00047283424027810817,-6.023554502017869
2025-03-08 14:57:05.903,-0.0007962642040109241,-7.797819980512124
2025-03-08 14:57:05.922,-0.0010868273095419186,-9.409215965696816
2025-03-08 14:57:05.942,-0.0013464566739729337,-10.78622440070756
2025-03-08 14:57:05.961,-0.0015830495890957945,-11.868350542344475
2025-03-08 14:57:05.981,-0.0018112707334148597,-12.609909885577597
2025-03-08 14:57:06.000,-0.002052649041970608,-12.984024297226895
2025-03-08 14:57:06.020,-0.002334411483018695,-12.986174106998881
2025-03-08 14:57:06.039,-0.002686522720360955,-12.636242702851707
2025-03-08 14:57:06.059,-0.0031365745353462357,-11.978022296044067
2025-03-08 14:57:06.078,-0.003702626911541916,-11.075612937997766
2025-03-08 14:57:06.098,-0.004384902740606584,-10.006848443909417
2025-03-08 14:57:06.118,-0.00515819147746087,-8.854570925861573
2025-03-08 14:57:06.137,-0.005967487132977921,-7.697053641602915
2025-03-08 14:57:06.157,-0.006729335584613932,-6.599049661881703
2025-03-08 14:57:06.176,-0.007340429180394356,-5.604834920638585
2025-03-08 14:57:06.196,-0.007693318042389927,-4.734296323335353
2025-03-08 14:57:06.215,-0.0076970682559950295,-3.9826711685022405
2025-03-08 14:57:06.235,-0.007298760886268907,-3.3240230069175123
2025-03-08 14:57:06.254,-0.00650045072703948,-2.717976922036084
2025-03-08 14:57:06.274,-0.0053662000492014,-2.1186985240329874
2025-03-08 14:57:06.293,-0.004015591633670318,-1.4846864939178763
2025-03-08 14:57:06.313,-0.0026037482069816735,-0.7877583357718337
2025-03-08 14:57:06.332,-0.0012923513270013593,-0.01970097886167539
2025-03-08 14:57:06.352,-0.0002194501356669419,0.8045708983368326
2025-03-08 14:57:06.371,0.0005238403048147248,1.647918564811811
2025-03-08 14:57:06.391,0.0009044566860444486,2.455819428703021
2025-03-08 14:57:06.410,0.0009453083189268039,3.1643405369597413
2025-03-08 14:57:06.430,0.000712722121272138,3.7098955938571185
2025-03-08 14:57:06.450,0.00029815131218313766,4.039108398851966
2025-03-08 14:57:06.469,-0.00020090044891019627,4.117065866360464
2025-03-08 14:57:06.489,-0.0006968277155407236,3.9325358258756613
2025-03-08 14:57:06.508,-0.0011224379727273017,3.4993302859812148
2025-03-08 14:57:06.528,-0.0014353904032211704,2.8537945233111315
2025-03-08 14:57:06.547,-0.0016173483913796863,2.0491980670824
2025-03-08 14:57:06.567,-0.001669616372243036,1.1483931077308278
2025-03-08 14:57:06.586,-0.0016073586325841352,0.2163435029012883
2025-03-08 14:57:06.606,-0.001454115192227399,-0.6860513598530348
2025-03-08 14:57:06.625,-0.0012374783514515928,-1.5059684201240173
2025-03-08 14:57:06.645,-0.0009859311774042753,-2.20039845363251
2025-03-08 14:57:06.664,-0.0007263781513742527,-2.7361967045204256
2025-03-08 14:57:06.684,-0.00048194137011249523,-3.089421751333102
2025-03-08 14:57:06.703,-0.0002699769680867964,-3.244896203053281
2025-03-08 14:57:06.723,-0.00010065585379372518,-3.1964992998620723
2025-03-08 14:57:06.743,2.342537335134029e-05,-2.9480866129357133
2025-03-08 14:57:06.762,0.00010634608152856876,-2.514399470422007
2025-03-08 14:57:06.782,0.00015680371287965083,-1.9211241322420616
2025-03-08 14:57:06.801,0.0001853702223776363,-1.2034799431396772
2025-03-08 14:57:06.821,0.00020173494311415526,-0.4032327964675693
2025-03-08 14:57:06.840,0.00021266793536316723,0.4354208996495915
2025-03-08 14:57:06.860,0.00022135678981558303,1.270316816716942
2025-03-08 14:57:06.879,0.00022844822037519687,2.0653105161456273
2025-03-08 14:57:06.899,0.00023452348790196275,2.793162054516381
2025-03-08 14:57:06.918,0.00024305961640881218,3.4369835658692143
2025-03-08 14:57:06.938,0.00026256840687235083,3.9902043158786737
2025-03-08 14:57:06.957,0.0003068376649714578,4.455228566080694
2025-03-08 14:57:06.977,0.0003929326399289346,4.841096597822961
2025-03-08 14:57:06.996,0.0005374598207363384,5.160523161277873
2025-03-08 14:57:07.016,0.0007521800581920273,5.426710408293315
2025-03-08 14:57:07.036,0.0010402497598396222,5.65033913928605
2025-03-08 14:57:07.055,0.0013941990425181913,5.837138339971447
2025-03-08 14:57:07.075,0.0017962909249869797,5.986394551339362
2025-03-08 14:57:07.094,0.0022212581133821533,6.09064911863452
2025-03-08 14:57:07.114,0.0026407704009629726,6.136630694608936
2025-03-08 14:57:07.133,0.0030285380473070527,6.107230334504282
2025-03-08 14:57:07.153,0.0033648220668703556,5.984129392848258
2025-03-08 14:57:07.172,0.0036393251200861,5.750601004478377
2025-03-08 14:57:07.192,0.003851905054130885,5.394043839274762
2025-03-08 14:57:07.211,0.004011125266855414,4.907946625847031
2025-03-08 14:57:07.231,0.004131143721363078,4.293164440031302
2025-03-08 14:57:07.250,0.004227731555333628,3.5585403449182134
2025-03-08 14:57:07.270,0.004314304265723931,2.7209722098864884
2025-03-08 14:57:07.289,0.004398803927515053,1.8049935830113608
2025-03-08 14:57:07.309,0.004482115614020577,0.8418540631309742
2025-03-08 14:57:07.329,0.004558395912986652,-0.13198001101679657
2025-03-08 14:57:07.348,0.004617219388812317,-1.0769845397415403
2025-03-08 14:57:07.368,0.004646929475639291,-1.9534151885662654
2025-03-08 14:57:07.387,0.0046382409605495185,-2.7247314351300242
2025-03-08 14:57:07.407,0.004587140642641166,-3.3613392518964242
2025-03-08 14:57:07.426,0.004496425721793982,-3.8441331543842328
2025-03-08 14:57:07.446,0.004375608254502675,-4.1670651918283115
2025-03-08 14:57:07.465,0.004239232690644685,-4.337892826964475
2025-03-08 14:57:07.485,0.004103894492878662,-4.376538148794908
2025-03-08 14:57:07.504,0.003984493342705481,-4.311139493863517
2025-03-08 14:57:07.524,0.00389050691124523,-4.1726650347654175
2025-03-08 14:57:07.543,0.0038232027547002766,-3.989519774910359
2025-03-08 14:57:07.563,0.003774571420901836,-3.783619925763466
2025-03-08 14:57:07.582,0.003728336457624251,-3.5688823219099404
2025-03-08 14:57:07.602,0.0036628206130044612,-3.352195844179434
2025-03-08 14:57:07.621,0.0035549703011164137,-3.136068110116671
2025-03-08 14:57:07.641,0.0033846462837645217,-2.921612354781445
2025-03-08 14:57:07.661,0.003138368910778138,-2.710536188956717
2025-03-08 14:57:07.680,0.002811911665661273,-2.505287875026708
2025-03-08 14:57:07.700,0.002411338574356205,-2.3073097702426564
2025-03-08 14:57:07.719,0.0019522701997760838,-2.1141606037188367
2025-03-08 14:57:07.739,0.0014574143608517861,-1.9168218203156717
2025-03-08 14:57:07.758,0.0009527441677259543,-1.6986079645411016
2025-03-08 14:57:07.778,0.0004630477289352045,-1.4367121478429048
2025-03-08 14:57:07.797,7.745112071657426e-06,-1.1066497861056819
2025-03-08 14:57:07.817,-0.0004022077135747184,-0.688942523327857
2025-03-08 14:57:07.836,-0.0007657655204361789,-0.17656189264450664
2025-03-08 14:57:07.856,-0.001091353305751878,0.4188551424427932
2025-03-08 14:57:07.875,-0.0013946382474193085,1.0640418714208413
2025-03-08 14:57:07.895,-0.0016949645723220745,1.7058935309197991
2025-03-08 14:57:07.914,-0.0020112273660408647,2.278485204543747
2025-03-08 14:57:07.934,-0.00235813771508418,2.7144339573286618
2025-03-08 14:57:07.954,-0.00274372495067228,2.958400599897105
2025-03-08 14:57:07.973,-0.0031685186590366112,2.9796428981021803
2025-03-08 14:57:07.993,-0.003626324316816467,2.7804271903158257
2025-03-08 14:57:08.012,-0.004106108448362453,2.3979086777704595
2025-03-08 14:57:08.032,-0.00459438443123149,1.898629465843
2025-03-08 14:57:08.051,-0.005077582286397345,1.3666135879168118
2025-03-08 14:57:08.071,-0.005544040204571671,0.8876143732273181
2025-03-08 14:57:08.090,-0.0059853532755055104,0.5329617822903131
2025-03-08 14:57:08.110,-0.006396852591324532,0.3464840651096165
2025-03-08 14:57:08.129,-0.006777082660877017,0.3372072418481467
2025-03-08 14:57:08.149,-0.0071263942124695345,0.47920581458999606
2025-03-08 14:57:08.168,-0.007445073575776752,0.7184094287877117
2025-03-08 14:57:08.188,-0.007731560616756299,0.984703566091794
2025-03-08 14:57:08.207,-0.007981175934509107,1.2066102648695844
2025-03-08 14:57:08.227,-0.008185530394409748,1.3254211531485072
2025-03-08 14:57:08.247,-0.008332620123453885,1.305949337750905
2025-03-08 14:57:08.266,-0.008407566781755043,1.141955351103122
2025-03-08 14:57:08.286,-0.00839395906061177,0.8555284854816216
2025-03-08 14:57:08.305,-0.008275701579408035,0.4909667913575454
2025-03-08 14:57:08.325,-0.008039173575611696,0.10474894424245872
2025-03-08 14:57:08.344,-0.0076753785819705985,-0.24613058128150153
2025-03-08 14:57:08.364,-0.007181689435722091,-0.5149790399801876
2025-03-08 14:57:08.383,-0.006562847312162592,-0.673184155537444
2025-03-08 14:57:08.403,-0.005831083135581995,-0.7135167941595256
2025-03-08 14:57:08.422,-0.0050054783052641315,-0.6485860978215093
2025-03-08 14:57:08.442,-0.004110805362752353,-0.5052157505977113
2025-03-08 14:57:08.461,-0.0031760322246897517,-0.3164545747441304
2025-03-08 14:57:08.481,-0.0022325249000594194,-0.11344415733760861
2025-03-08 14:57:08.500,-0.0013118936068766164,0.08070483270303537
2025-03-08 14:57:08.520,-0.0004434876934731483,0.25352416579422343
2025-03-08 14:57:08.539,0.00034827671372751655,0.4018425501916292
2025-03-08 14:57:08.559,0.0010463818810261707,0.5272256018014105
2025-03-08 14:57:08.579,0.0016429716952078976,0.629940026807588
2025-03-08 14:57:08.598,0.0021399069099493338,0.7036908381809275
2025-03-08 14:57:08.618,0.002547743859960414,0.733200560809965
2025-03-08 14:57:08.637,0.002883092048308479,0.6958097095809203
2025-03-08 14:57:08.657,0.00316477218119889,0.5669099349937246
2025-03-08 14:57:08.676,0.003409619864455407,0.3276225384406639
2025-03-08 14:57:08.696,0.0036289246559815195,-0.027781961954224492
2025-03-08 14:57:08.715,0.003826273881881005,-0.4872903717207139
2025-03-08 14:57:08.735,0.003997141075645648,-1.0210925439231473
2025-03-08 14:57:08.754,0.004130168337490331,-1.5863034181165299
2025-03-08 14:57:08.774,0.0042098660119624645,-2.13514063555916
2025-03-08 14:57:08.793,0.004220339591494036,-2.624160174042801
2025-03-08 14:57:08.813,0.004149538787004657,-3.021920554267556
2025-03-08 14:57:08.832,0.0039933676619601155,-3.313091613457218
2025-03-08 14:57:08.852,0.0037588713436968245,-3.498251800240594
2025-03-08 14:57:08.872,0.003465746002531035,-3.589946578026876
2025-03-08 14:57:08.891,0.003145660862326927,-3.6065508680660345
2025-03-08 14:57:08.911,0.002839266197266223,-3.5658298399573103
2025-03-08 14:57:08.930,0.0025911644048207012,-3.479831172019645
2025-03-08 14:57:08.950,0.0024434694146693,-3.3520924299440433
2025-03-08 14:57:08.969,0.00242887757925004,-3.1774167092754144
2025-03-08 14:57:08.989,0.0025644283308159242,-2.9438943088919154
2025-03-08 14:57:09.008,0.0028472601831275677,-2.6365049242262524
2025-03-08 14:57:09.028,0.003253495539793507,-2.2414698809687597
2025-03-08 14:57:09.047,0.003740811179855401,-1.7504633681630357
2025-03-08 14:57:09.067,0.004254382219520231,-1.1638311877495655
2025-03-08 14:57:09.086,0.004735031985995963,-0.49215703351278095
2025-03-08 14:57:09.106,0.0051279041760944576,0.2441203807451528
2025-03-08 14:57:09.125,0.005389953015266758,1.016868129303563
2025-03-08 14:57:09.145,0.005494938567183188,1.793581914280415
2025-03-08 14:57:09.165,0.005435208176485385,2.540968350430718
2025-03-08 14:57:09.184,0.005220185346671528,3.2278651867074513
2025-03-08 14:57:09.204,0.004872119425311058,3.8268749615008266
2025-03-08 14:57:09.223,0.004420217816604754,4.314630479136223
2025-03-08 14:57:09.243,0.0038946433092110475,4.671196311087915
2025-03-08 14:57:09.262,0.003321831470867652,4.879483932158213
2025-03-08 14:57:09.282,0.0027221042729111723,4.9255433320506805
2025-03-08 14:57:09.301,0.00210978174628968,4.800188062677613
2025-03-08 14:57:09.321,0.0014952266475242383,4.501785485890852
2025-03-08 14:57:09.340,0.0008877755717384711,4.0394570576561195
2025-03-08 14:57:09.360,0.00029843036296612577,3.4355985178920263
2025-03-08 14:57:09.379,-0.0002585674811827508,2.72663197447301
2025-03-08 14:57:09.399,-0.0007657549048742855,1.9612114265689709
2025-03-08 14:57:09.418,-0.0012041163581708704,1.1956451116500633
2025-03-08 14:57:09.438,-0.0015560779720986814,0.48698374080441853
2025-03-08 14:57:09.457,-0.0018091738927771424,-0.11507753022983841
2025-03-08 14:57:09.477,-0.0019595094727770635,-0.5758174780431341
2025-03-08 14:57:09.497,-0.0020140668779260467,-0.8808293677334977
2025-03-08 14:57:09.516,-0.0019909953919475133,-1.0376545667538617
2025-03-08 14:57:09.536,-0.0019173698423004554,-1.0731064280965057
2025-03-08 14:57:09.555,-0.001824521373730622,-1.026765063965255
2025-03-08 14:57:09.575,-0.0017418092905748825,-0.9421603461873198
2025-03-08 14:57:09.594,-0.001690318945091593,-0.8578229242705109
2025-03-08 14:57:09.614,-0.0016781724194725076,-0.8004300019112869
2025-03-08 14:57:09.633,-0.0016988308942964977,-0.7816562075997797
2025-03-08 14:57:09.653,-0.0017330343696607923,-0.7992409085577057
2025-03-08 14:57:09.672,-0.0017540643382489755,-0.8415510758116195
2025-03-08 14:57:09.692,-0.001735078632452848,-0.8939500647070164
2025-03-08 14:57:09.711,-0.0016566140576497333,-0.9448819030049869
2025-03-08 14:57:09.731,-0.0015122034879406943,-0.9898490193993645
2025-03-08 14:57:09.750,-0.0013105262721745457,-1.0322683796002068
2025-03-08 14:57:09.770,-0.0010735228761886379,-1.081242305801347
2025-03-08 14:57:09.790,-0.0008311237613336677,-1.1472346046651214
2025-03-08 14:57:09.809,-0.0006142019199367157,-1.2372209553495668
2025-03-08 14:57:09.829,-0.0004477324654718294,-1.350938939572555
2025-03-08 14:57:09.848,-0.0003459047447144367,-1.479416278026459
2025-03-08 14:57:09.868,-0.00031026115675047354,-1.6061814762042688
2025-03-08 14:57:09.887,-0.0003310613545971831,-1.7107319766800628
2025-03-08 14:57:09.907,-0.0003912096647532071,-1.773214673073292
2025-03-08 14:57:09.926,-0.0004714453218586888,-1.7790188481758704
2025-03-08 14:57:09.946,-0.0005552611256123388,-1.7221059642209662
2025-03-08 14:57:09.965,-0.0006322546784323795,-1.6063033734727497
2025-03-08 14:57:09.985,-0.0006991993864201799,-1.4443164880644719
2025-03-08 14:57:10.004,-0.0007588028464604889,-1.2547265974213502
2025-03-08 14:57:10.024,-0.0008167091032133115,-1.0576590885919828
2025-03-08 14:57:10.043,-0.0008777269552840639,-0.8701027463237171
2025-03-08 14:57:10.063,-0.0009424861440072385,-0.7020015355391652
2025-03-08 14:57:10.083,-0.0010056564929320638,-0.5541449403843106
2025-03-08 14:57:10.102,-0.0010564529676450047,-0.4184842358259042
2025-03-08 14:57:10.122,-0.001081454725839998,-0.28085344197776607
2025-03-08 14:57:10.141,-0.0010689867436471955,-0.1253694612369636
2025-03-08 14:57:10.161,-0.0010137070374551507,0.06073045493164251
2025-03-08 14:57:10.180,-0.0009198403303445579,0.28320268724643965
2025-03-08 14:57:10.200,-0.0008018171534672561,0.5389716389851509
2025-03-08 14:57:10.219,-0.0006818399521386774,0.8168484487034672
2025-03-08 14:57:10.239,-0.0005848348066815212,1.100506960418815
2025-03-08 14:57:10.258,-0.0005320286773457583,1.3727667445442202
2025-03-08 14:57:10.278,-0.0005347996493746999,1.619888918400872
2025-03-08 14:57:10.297,-0.0005904350995673798,1.8346526823461013
2025-03-08 14:57:10.317,-0.0006810533611081232,2.017395345246525
2025-03-08 14:57:10.336,-0.000776268504999755,2.1748171497593427
2025-03-08 14:57:10.356,-0.0008392951781225156,2.316991404260015
2025-03-08 14:57:10.375,-0.0008352724818465684,2.4535092911917347
2025-03-08 14:57:10.395,-0.0007398964625733632,2.5899020561245902
2025-03-08 14:57:10.415,-0.0005462313195510226,2.725372630327252
2025-03-08 14:57:10.434,-0.00026789506892777704,2.8524773537339576
2025-03-08 14:57:10.454,6.239441564686895e-05,2.958842482546973
2025-03-08 14:57:10.473,0.00039879814683351606,3.030426725620472
2025-03-08 14:57:10.493,0.0006914859420406432,3.0553903912266698
2025-03-08 14:57:10.512,0.0008965723674603321,3.0274159863843226
2025-03-08 14:57:10.532,0.0009843095084875375,2.9474193163820104
2025-03-08 14:57:10.551,0.0009436952752092485,2.823016135191566
2025-03-08 14:57:10.571,0.000782916304230741,2.6657973496561964
2025-03-08 14:57:10.590,0.0005262717102682584,2.4872245750311044
2025-03-08 14:57:10.610,0.0002089767439827039,2.294513987923337
2025-03-08 14:57:10.629,-0.00012863791721378718,2.0879872297420174
2025-03-08 14:57:10.649,-0.0004464313288989899,1.8609462452790648
2025-03-08 14:57:10.668,-0.0007087849836910453,1.6023027818524194
2025-03-08 14:57:10.688,-0.0008879367597250884,1.3012589920186497
2025-03-08 14:57:10.708,-0.0009663947083937085,0.9526212093776543
2025-03-08 14:57:10.727,-0.0009383908940011846,0.5610587933543002
2025-03-08 14:57:10.747,-0.0008102295125904725,0.14286064282176164
2025-03-08 14:57:10.766,-0.0005994114869108602,-0.2755780357341376
2025-03-08 14:57:10.786,-0.00033254249934718807,-0.6623710179857446
2025-03-08 14:57:10.805,-4.216910007233383e-05,-0.9867774112998644
2025-03-08 14:57:10.825,0.00023718813403545585,-1.2261845837268768
2025-03-08 14:57:10.844,0.0004733964606205262,-1.371679899798855
2025-03-08 14:57:10.864,0.0006409045779017976,-1.4308752468269523
2025-03-08 14:57:10.883,0.0007241050045669234,-1.4274007324787152
2025-03-08 14:57:10.903,0.0007192534140677676,-1.3973150462422048
2025-03-08 14:57:10.922,0.0006345594935777487,-1.383343548684892
2025-03-08 14:57:10.942,0.0004883923100068938,-1.4281834989283937
2025-03-08 14:57:10.961,0.00030587262384763794,-1.5680843473939725
2025-03-08 14:57:10.981,0.00011439847173045899,-1.8276370810875664
2025-03-08 14:57:11.001,-6.114927796182038e-05,-2.2163572519037102
2025-03-08 14:57:11.020,-0.00020266381415412498,-2.7273331153917697
2025-03-08 14:57:11.040,-0.0003016760817668256,-3.337960678495908
2025-03-08 14:57:11.059,-0.0003601232256193614,-4.0125841167689815
2025-03-08 14:57:11.079,-0.0003886916769420752,-4.706680555229917
2025-03-08 14:57:11.098,-0.00040302575529021275,-5.372057664645294
2025-03-08 14:57:11.118,-0.00041880775910751056,-5.962375523235736
2025-03-08 14:57:11.137,-0.000447160861385577,-6.438205948992244
2025-03-08 14:57:11.157,-0.0004917014100963208,-6.770879906756803
2025-03-08 14:57:11.176,-0.000547938747018987,-6.944595216544997
2025-03-08 14:57:11.196,-0.0006049486670130691,-6.95662406311896
2025-03-08 14:57:11.215,-0.0006486477592486155,-6.815853584671112
2025-03-08 14:57:11.235,-0.0006656838332216411,-6.540180685295487
2025-03-08 14:57:11.254,-0.0006469314341031912,-6.153390198218664
2025-03-08 14:57:11.274,-0.0005897980646949766,-5.682084712312004
2025-03-08 14:57:11.294,-0.000498911124604124,-5.153070885456463
2025-03-08 14:57:11.313,-0.00038514716816483234,-4.5914097113518935
2025-03-08 14:57:11.333,-0.0002632992939233565,-4.019151396134162
2025-03-08 14:57:11.352,-0.00014892271809054754,-3.4546266372417618
2025-03-08 14:57:11.372,-5.504514280777856e-05,-2.9120787746736108
2025-03-08 14:57:11.391,1.0530126310975811e-05,-2.4014118356284526
2025-03-08 14:57:11.411,4.668038508800639e-05,-1.9278940930045194
2025-03-08 14:57:11.430,5.8755154065624844e-05,-1.4917713913095954
2025-03-08 14:57:11.450,5.6660574114101314e-05,-1.0878813408158765
2025-03-08 14:57:11.469,5.1691423733343806e-05,-0.7054925375256641
2025-03-08 14:57:11.489,5.302545851223282e-05,-0.3286780776430281
2025-03-08 14:57:11.508,6.497844513949337e-05,0.06249920452363177
2025-03-08 14:57:11.528,8.58797307932736e-05,0.4899063751476658
2025-03-08 14:57:11.547,0.00010886931503095865,0.9745927083804463
2025-03-08 14:57:11.567,0.00012430881664632278,1.533895569274186
2025-03-08 14:57:11.586,0.00012306613582720174,2.179050986240834
2025-03-08 14:57:11.606,9.975741190555032e-05,2.9138584052663226
2025-03-08 14:57:11.626,5.508182945649742e-05,3.7346501056713772
2025-03-08 14:57:11.645,-3.40817767437624e-06,4.631431404145285
2025-03-08 14:57:11.665,-6.244843830449662e-05,5.589726391972466
2025-03-08 14:57:11.684,-0.00010603449497411513,6.592495284103008
2025-03-08 14:57:11.704,-0.00011957647405044477,7.62152986085455
2025-03-08 14:57:11.723,-9.402836057577883e-05,8.657958465242897
2025-03-08 14:57:11.743,-2.8544643500611317e-05,9.681816960773503
2025-03-08 14:57:11.762,6.942696412398328e-05,10.670953540878122
2025-03-08 14:57:11.782,0.00018681114710526045,11.59974076936257
2025-03-08 14:57:11.801,0.00030946089078756443,12.438130178437074
2025-03-08 14:57:11.821,0.00042698305992542083,13.151512017309877
2025-03-08 14:57:11.840,0.0005360962308525876,13.701660376797765
2025-03-08 14:57:11.860,0.0006413145004615944,14.048781596682357
2025-03-08 14:57:11.879,0.0007526685776545947,14.154389136333732
2025-03-08 14:57:11.899,0.0008811603444892693,13.984476885234441
2025-03-08 14:57:11.919,0.0010334438201391445,13.51234962015411
2025-03-08 14:57:11.938,0.00120759578574611,12.720575895034797
2025-03-08 14:57:11.958,0.0013915872418304017,11.601871123507394
2025-03-08 14:57:11.977,0.0015651924345357784,10.15919566086047
2025-03-08 14:57:11.997,0.0017048569967375022,8.405752669209695
2025-03-08 14:57:12.016,0.0017899708040920905,6.365660027918858
2025-03-08 14:57:12.036,0.0018085120449427236,4.075724116933063
2025-03-08 14:57:12.055,0.0017603253090312538,1.588043700472108
2025-03-08 14:57:12.075,0.001657173037482913,-1.027596745989915
2025-03-08 14:57:12.094,0.0015197450540928269,-3.683073710437891
2025-03-08 14:57:12.114,0.0013726453538518417,-6.274501798334558
2025-03-08 14:57:12.133,0.0012387944821541186,-8.688901917973887
2025-03-08 14:57:12.153,0.0011346653700398971,-10.814723893561638
2025-03-08 14:57:12.172,0.0010674023195201862,-12.554715139115016
2025-03-08 14:57:12.192,0.001034307188483741,-13.838591513961594
2025-03-08 14:57:12.212,0.0010245861202075844,-14.632575783982036
2025-03-08 14:57:12.231,0.0010227806808016757,-14.94336612427718
2025-03-08 14:57:12.251,0.0010130247964140206,-14.815422112054039
2025-03-08 14:57:12.270,0.0009831558416629452,-14.322211304771665
2025-03-08 14:57:12.290,0.0009277283324208812,-13.553634907473276
2025-03-08 14:57:12.309,0.0008491552537953,-12.602678044759559
2025-03-08 14:57:12.329,0.0007566126082594674,-11.554142693367401
2025-03-08 14:57:12.348,0.0006629835690778805,-10.477274178722439
2025-03-08 14:57:12.368,0.0005807864617924896,-9.422673776454836
2025-03-08 14:57:12.387,0.0005184089511424105,-8.422676713271816
2025-03-08 14:57:12.407,0.00047784933604181826,-7.493761230354938
2025-03-08 14:57:12.426,0.00045458119769572455,-6.639605122783321
2025-03-08 14:57:12.446,0.0004393697906636641,-5.853896987377754
2025-03-08 14:57:12.465,0.00042122190999734836,-5.122606333871947
2025-03-08 14:57:12.485,0.0003903990213695164,-4.425867655870683
2025-03-08 14:57:12.504,0.00034060947483369213,-3.739854451719185
2025-03-08 14:57:12.524,0.0002699528786441308,-3.039045909967817
2025-03-08 14:57:12.544,0.00018065884917076768,-2.299173188243434
2025-03-08 14:57:12.563,7.795314790395105e-05,-1.5008900017435036
2025-03-08 14:57:12.583,-3.153002913792272e-05,-0.6338601983564025
2025-03-08 14:57:12.602,-0.00014139410026295124,0.2994245806524355
2025-03-08 14:57:12.622,-0.0002468303049469111,1.2810318563660874
2025-03-08 14:57:12.641,-0.00034537280660121414,2.2770712950897822
2025-03-08 14:57:12.661,-0.00043687598543230827,3.239788426866275
2025-03-08 14:57:12.680,-0.0005227330178568898,4.112201487356044
2025-03-08 14:57:12.700,-0.0006046032896305883,4.834650365361667
2025-03-08 14:57:12.719,-0.0006831132031945978,5.35226347151318
2025-03-08 14:57:12.739,-0.0007570271779454132,5.622244343764569
2025-03-08 14:57:12.758,-0.0008232105190187746,5.619996963113181
2025-03-08 14:57:12.778,-0.0008773998325028727,5.343366209244092
2025-03-08 14:57:12.797,-0.0009155022175474318,4.8145672625015745
2025-03-08 14:57:12.817,-0.0009349791064126305,4.0796247872565585
2025-03-08 14:57:12.837,-0.0009358781943797895,3.205317863567095
2025-03-08 14:57:12.856,-0.0009212211858007942,2.2737904364486576
2025-03-08 14:57:12.876,-0.0008966531524809065,1.3752027625051741
2025-03-08 14:57:12.895,-0.0008694469257620833,0.5990510610776683
2025-03-08 14:57:12.915,-0.000847112712749934,0.024994767887714174
2025-03-08 14:57:12.934,-0.000835970981439604,-0.2858517525931219
2025-03-08 14:57:12.954,-0.0008400655882006025,-0.2981859449280628
2025-03-08 14:57:12.973,-0.0008606955127469926,-0.007424365660099319
2025-03-08 14:57:12.993,-0.0008966498564712747,0.5585295579899504
2025-03-08 14:57:13.012,-0.0009450216162037106,1.3411982626813093
2025-03-08 14:57:13.032,-0.0010023389430899687,2.2572959187707036
2025-03-08 14:57:13.051,-0.0010657033213771095,3.2080227804741686
2025-03-08 14:57:13.071,-0.00113361547408615,4.0909955511401614
2025-03-08 14:57:13.090,-0.0012062103578479272,4.813400022507099
2025-03-08 14:57:13.110,-0.0012847890311877266,5.304607963302402
2025-03-08 14:57:13.130,-0.0013708186793204612,5.52641417466402
2025-03-08 14:57:13.149,-0.0014648172760989237,5.4792312789817945
2025-03-08 14:57:13.169,-0.0015655888616462848,5.203005368342255
2025-03-08 14:57:13.188,-0.0016701078929305469,4.7722729823820895
2025-03-08 14:57:13.208,-0.0017740743309900065,4.285651381834815
2025-03-08 14:57:13.227,-0.0018729230694384087,3.8510456429424584
2025-03-08 14:57:13.247,-0.0019629618140660416,3.5687563804954165
2025-03-08 14:57:13.266,-0.0020423164404477848,3.5152121713243503
2025-03-08 14:57:13.286,-0.0021114156547779,3.7300419249588934
2025-03-08 14:57:13.305,-0.0021728173391733817,4.208640876464263
2025-03-08 14:57:13.325,-0.002230298252451736,4.901437635485808
2025-03-08 14:57:13.344,-0.002287324780668895,5.7199690055832955
2025-03-08 14:57:13.364,-0.0023452470440404605,6.5488021093730415
2025-03-08 14:57:13.383,-0.002401709710069837,7.261430871359072
2025-03-08 14:57:13.403,-0.002449780216339936,7.737616001960154
2025-03-08 14:57:13.422,-0.0024781494840970986,7.879359543802673
2025-03-08 14:57:13.442,-0.002472493148970893,7.6229391924091034
2025-03-08 14:57:13.462,-0.002417770607189918,6.94522194615984
2025-03-08 14:57:13.481,-0.0023010005592117543,5.8636946857350845
2025-03-08 14:57:13.501,-0.0021139664208830343,4.430959113572644
2025-03-08 14:57:13.520,-0.001855349448764723,2.725433373243126
2025-03-08 14:57:13.540,-0.0015318747734391523,0.8403921866179614
2025-03-08 14:57:13.559,-0.0011581667034741506,-1.1267687906435695
2025-03-08 14:57:13.579,-0.0007552203229086941,-3.083804053355235
2025-03-08 14:57:13.598,-0.0003477245253097055,-4.950865481003493
2025-03-08 14:57:13.618,3.922242968023975e-05,-6.66559696062144
2025-03-08 14:57:13.637,0.0003833542440221287,-8.186059409735266
2025-03-08 14:57:13.657,0.0006679015021912752,-9.491400515044614
2025-03-08 14:57:13.676,0.00088336310570395,-10.58014222676433
2025-03-08 14:57:13.696,0.0010282396752543676,-11.46608574748294
2025-03-08 14:57:13.715,0.0011086885655882753,-12.172163402512615
2025-03-08 14:57:13.735,0.0011371733729230126,-12.723055529172392
2025-03-08 14:57:13.755,0.0011303542949828553,-13.137910322950281
2025-03-08 14:57:13.774,0.001106640319121157,-13.424813861267532
2025-03-08 14:57:13.794,0.0010838783824553089,-13.578471171836076
2025-03-08 14:57:13.813,0.0010775248629652989,-13.581753135641096
2025-03-08 14:57:13.833,0.0010993980976331847,-13.410547387846211
2025-03-08 14:57:13.852,0.0011569030537084267,-13.040220113582205
2025-03-08 14:57:13.872,0.001252573622399599,-12.451483519334179
2025-03-08 14:57:13.891,0.0013838857484723263,-11.633860937613587
2025-03-08 14:57:13.911,0.0015434348401453925,-10.586124761577596
2025-03-08 14:57:13.930,0.001719627287255493,-9.314534162749458
2025-03-08 14:57:13.950,0.0018979820274106854,-7.830738002328743
2025-03-08 14:57:13.969,0.002063013613131419,-6.151332275751349
2025-03-08 14:57:13.989,0.002200515690399069,-4.300203655678439
2025-03-08 14:57:14.008,0.002299912283878493,-2.313328921716432
2025-03-08 14:57:14.028,0.00235622851060509,-0.244250661405604
2025-03-08 14:57:14.048,0.002371202242836565,1.8324062971673487
2025-03-08 14:57:14.067,0.0023531671195117726,3.8219295226925283
2025-03-08 14:57:14.087,0.002315607669825056,5.6165233389398885
2025-03-08 14:57:14.106,0.0022746595091796577,7.108085720699507
2025-03-08 14:57:14.126,0.0022461435416450057,8.204636835727635
2025-03-08 14:57:14.145,0.002242815925009801,8.846863907629022
2025-03-08 14:57:14.165,0.0022723569066042,9.020777837103811
2025-03-08 14:57:14.184,0.0023363511350738787,8.763127217287854
2025-03-08 14:57:14.204,0.0024302951339098067,8.157824609293794
2025-03-08 14:57:14.223,0.0025445584028623526,7.323770647705854
2025-03-08 14:57:14.243,0.0026661660782850796,6.396511766211356
2025-03-08 14:57:14.262,0.0027811747398383724,5.507545276571356
2025-03-08 14:57:14.282,0.002877242534300037,4.765415711593379
2025-03-08 14:57:14.301,0.002945819950815187,4.242009707085851
2025-03-08 14:57:14.321,0.002983360638771742,3.965982177163463
2025-03-08 14:57:14.340,0.0029911942941830676,3.923558004429982
2025-03-08 14:57:14.360,0.002974169939790396,4.065548243423059
2025-03-08 14:57:14.380,0.002938631127225922,4.318584319982669
2025-03-08 14:57:14.399,0.002890467598946534,4.598326534346284
2025-03-08 14:57:14.419,0.0028338352554707603,4.822579139373323
2025-03-08 14:57:14.438,0.0027707928642120186,4.922637952319809
2025-03-08 14:57:14.458,0.0027017570330726973,4.85166450741051
2025-03-08 14:57:14.477,0.0026264141510235336,4.589363656499077
2025-03-08 14:57:14.497,0.002544566193502234,4.142729684670341
2025-03-08 14:57:14.516,0.002456392997393973,3.5431106312287994
2025-03-08 14:57:14.536,0.002361886208648191,2.8402795833486745
2025-03-08 14:57:14.555,0.0022596916328511876,2.094524996631556
2025-03-08 14:57:14.575,0.0021460058226102827,1.3679298109792433
2025-03-08 14:57:14.594,0.002014225349419957,0.7160188482765731
2025-03-08 14:57:14.614,0.001855707854754869,0.18087739381836904
2025-03-08 14:57:14.633,0.0016615036820884041,-0.21329988528832253
2025-03-08 14:57:14.653,0.001424556032288674,-0.46154947820867476
2025-03-08 14:57:14.673,0.0011417829000556537,-0.5761842875046335
2025-03-08 14:57:14.692,0.0008155555587816977,-0.5820361757586027
2025-03-08 14:57:14.712,0.0004542194578154218,-0.5100508065705235
2025-03-08 14:57:14.731,7.142198796315251e-05,-0.39077678124865983
2025-03-08 14:57:14.751,-0.00031581019116073755,-0.24923822765418205
2025-03-08 14:57:14.770,-0.0006900073225091781,-0.10220788658937277
2025-03-08 14:57:14.790,-0.0010366158066254724,0.04181681464403113
2025-03-08 14:57:14.809,-0.0013469458430780696,0.1803510769715251
2025-03-08 14:57:14.829,-0.0016199122838460945,0.31331201289151234
2025-03-08 14:57:14.848,-0.0018621202849315812,0.4392243476556871
2025-03-08 14:57:14.868,-0.002086324176076688,0.5523452451530768
2025-03-08 14:57:14.887,-0.0023086684053916944,0.6415340307257503
2025-03-08 14:57:14.907,-0.002545319643846762,0.69127768667164
2025-03-08 14:57:14.926,-0.0028091782654212113,0.684784423396834
2025-03-08 14:57:14.946,-0.0031073575112186163,0.6085315260971912
2025-03-08 14:57:14.966,-0.0034399870752008896,0.45720147438228415
2025-03-08 14:57:14.985,-0.003800575060007684,0.23770044185351402
2025-03-08 14:57:15.005,-0.004177697604608627,-0.028974109366226485
2025-03-08 14:57:15.024,-0.004557361124727213,-0.3088689016807041
2025-03-08 14:57:15.044,-0.00492521682056979,-0.5594697265456562
2025-03-08 14:57:15.063,-0.005267997229031901,-0.7369177759499247
2025-03-08 14:57:15.083,-0.0055739834723760135,-0.8049192871981379
2025-03-08 14:57:15.102,-0.005832763232533901,-0.7436504457701042
2025-03-08 14:57:15.122,-0.006034790660123869,-0.5566705343532463
2025-03-08 14:57:15.141,-0.006171235844775098,-0.27401438378142545
2025-03-08 14:57:15.161,-0.006234385388070952,0.04969441535253903
2025-03-08 14:57:15.180,-0.006218574094143264,0.3422088896133343
2025-03-08 14:57:15.200,-0.0061214209734862845,0.5246513133894389
2025-03-08 14:57:15.219,-0.005945048553858154,0.5245818123650584
2025-03-08 14:57:15.239,-0.005696937759844625,0.288768936576019
2025-03-08 14:57:15.258,-0.005390084259005303,-0.2066231723082645
2025-03-08 14:57:15.278,-0.005042210873737545,-0.9502262164440961
2025-03-08 14:57:15.298,-0.004673979969227096,-1.8950897696307762
2025-03-08 14:57:15.317,-0.004306398796254885,-2.9639044946451896
2025-03-08 14:57:15.337,-0.003957830609350618,-4.059057268528816
2025-03-08 14:57:15.356,-0.0036411386578704295,-5.0758535589625415
2025-03-08 14:57:15.376,-0.0033614986249788843,-5.916575691715723
2025-03-08 14:57:15.395,-0.003115368859984906,-6.502842932724049
2025-03-08 14:57:15.415,-0.0028909973127725108,-6.7841531134006665
2025-03-08 14:57:15.434,-0.002670582163666633,-6.741452376308888
2025-03-08 14:57:15.454,-0.002433766876748396,-6.385805582271799
2025-03-08 14:57:15.473,-0.002161692474555562,-5.753317419770418
2025-03-08 14:57:15.493,-0.0018405991072806488,-4.898039115055578
2025-03-08 14:57:15.512,-0.0014641161164029263,-3.884560310116367
2025-03-08 14:57:15.532,-0.0010338362788834096,-2.7814686509723856
2025-03-08 14:57:15.551,-0.0005582990890799874,-1.6561706145494366
2025-03-08 14:57:15.571,-5.0875451841576846e-05,-0.5710070019831737
2025-03-08 14:57:15.591,0.0004728284294702978,0.4196792062460413
2025-03-08 14:57:15.610,0.0009974686341944015,1.2718596610584694
2025-03-08 14:57:15.630,0.0015098880252528094,1.9536639884566211
2025-03-08 14:57:15.649,0.0020001607089710914,2.4466276326963317
2025-03-08 14:57:15.669,0.0024617141133432305,2.7460304150017856
2025-03-08 14:57:15.688,0.0028907888552141513,2.860028114859927
2025-03-08 14:57:15.708,0.003285680176037413,2.807546085569448
2025-03-08 14:57:15.727,0.0036461547798172012,2.615294049868136
2025-03-08 14:57:15.747,0.003973195673765019,2.3145345387047254
2025-03-08 14:57:15.766,0.004268961627516951,1.9382197159229742
2025-03-08 14:57:15.786,0.004536711473036389,1.5188259844789587
2025-03-08 14:57:15.805,0.004780474314053636,1.0868477228682396
2025-03-08 14:57:15.825,0.005004373942616713,0.6696685934641105
2025-03-08 14:57:15.844,0.005211647345961844,0.2905276848462931
2025-03-08 14:57:15.864,0.005403499674108609,-0.03248347382787285
2025-03-08 14:57:15.884,0.0055780355835685505,-0.2871655226679046
2025-03-08 14:57:15.903,0.005729603707571917,-0.4673016986821099
2025-03-08 14:57:15.923,0.005848914118604878,-0.5717815490049457
2025-03-08 14:57:15.942,0.005924137138302985,-0.6027617028587533
2025-03-08 14:57:15.962,0.005942865354671673,-0.56326676608125
2025-03-08 14:57:15.981,0.00589448002906682,-0.45492597205805785
2025-03-08 14:57:16.001,0.005772312593730353,-0.276594300726258
2025-03-08 14:57:16.020,0.005575100050364834,-0.024393035617704797
2025-03-08 14:57:16.040,0.005307496435137867,0.30669782386149974
2025-03-08 14:57:16.059,0.004979658305468139,0.7200040003051501
2025-03-08 14:57:16.079,0.004606060946610363,1.2137099481773803
2025-03-08 14:57:16.098,0.00420371547534206,1.7775559962738798
2025-03-08 14:57:16.118,0.0037899378854949766,2.390394013395038
2025-03-08 14:57:16.137,0.0033798933855299224,3.0192079034004764
2025-03-08 14:57:16.157,0.002984328043748582,3.6200857898599086
2025-03-08 14:57:16.177,0.0026080639412010657,4.141455092630228
2025-03-08 14:57:16.196,0.0022497697733713344,4.529566821727488
2025-03-08 14:57:16.216,0.0019031614867204435,4.735713538797357
2025-03-08 14:57:16.235,0.001559309478270024,4.724095246102712
2025-03-08 14:57:16.255,0.001209400496113417,4.4788219682489725
2025-03-08 14:57:16.274,0.0008472537373343525,4.0084649030309505
2025-03-08 14:57:16.294,0.00047104506541084597,3.346922572167992
2025-03-08 14:57:16.313,8.391558378099e-05,2.550080330774013
2025-03-08 14:57:16.333,-0.0003066213822196642,1.6886237326444529
2025-03-08 14:57:16.352,-0.0006902996971496828,0.8381906140410227
2025-03-08 14:57:16.372,-0.0010563168156595187,0.06860934500836438
2025-03-08 14:57:16.391,-0.0013955624035686233,-0.5658545802152726
2025-03-08 14:57:16.411,-0.0017023011203863602,-1.0335498323593608
2025-03-08 14:57:16.430,-0.0019749515451811554,-1.3286401442094833
2025-03-08 14:57:16.450,-0.0022158728151310397,-1.4700300786894125
2025-03-08 14:57:16.469,-0.0024303027175810597,-1.4963497041847267
2025-03-08 14:57:16.489,-0.0026247453081030877,-1.457997465886025
2025-03-08 14:57:16.509,-0.0028051784902882286,-1.4076966609780852
2025-03-08 14:57:16.528,-0.0029754426856679447,-1.3911884608397909
2025-03-08 14:57:16.548,-0.0031361109464346803,-1.4395628075760625
2025-03-08 14:57:16.567,-0.003284066065732352,-1.564396472181298
2025-03-08 14:57:16.587,-0.0034128922625996775,-1.7564198265491633
2025-03-08 14:57:16.606,-0.003513974216041624,-1.9879187337250925
2025-03-08 14:57:16.626,-0.00357795129565437,-2.2185027935039447
2025-03-08 14:57:16.645,-0.003596082244344886,-2.403268914827803
2025-03-08 14:57:16.665,-0.003561222789531048,-2.501873457155485
2025-03-08 14:57:16.684,-0.003468375876854188,-2.4867646025575256
2025-03-08 14:57:16.704,-0.0033149494374988624,-2.348942853783909
2025-03-08 14:57:16.723,-0.0031008954187707214,-2.1001111748446153
2025-03-08 14:57:16.743,-0.0028288667139784083,-1.770822423897608
2025-03-08 14:57:16.762,-0.0025044556847139137,-1.4050402980225227
2025-03-08 14:57:16.782,-0.0021364650897867424,-1.0522160385828583
2025-03-08 14:57:16.802,-0.0017370265979527396,-0.7584197312058814
2025-03-08 14:57:16.821,-0.0013212923223350015,-0.5582032551632987
2025-03-08 14:57:16.841,-0.0009064715230453428,-0.4687184051293153
2025-03-08 14:57:16.860,-0.0005102051183313928,-0.48718821767962206
2025-03-08 14:57:16.880,-0.00014857323961186625,-0.5921622707274168
2025-03-08 14:57:16.899,0.00016577403174537162,-0.7481779019741256
2025-03-08 14:57:16.919,0.0004249184370625049,-0.9127088589337589
2025-03-08 14:57:16.938,0.0006262033476365389,-1.043852955604994
2025-03-08 14:57:16.958,0.000772041682617221,-1.107213891995639
2025-03-08 14:57:16.977,0.00086917466239589,-1.0807999647990039
2025-03-08 14:57:16.997,0.0009275388636958837,-0.9573076306339213
2025-03-08 14:57:17.016,0.0009588417710992765,-0.7437158362143755
2025-03-08 14:57:17.036,0.0009749447459559841,-0.458609405284197
2025-03-08 14:57:17.055,0.0009862419860321892,-0.12804056604855216
2025-03-08 14:57:17.075,0.0010003467079195427,0.21903604536413482
2025-03-08 14:57:17.095,0.0010214245026205896,0.5547473503343052
2025-03-08 14:57:17.114,0.0010503560714945574,0.8550192699641458
2025-03-08 14:57:17.134,0.0010856137871149436,1.1008714817381218
2025-03-08 14:57:17.153,0.0011244737766251869,1.2786582562774869
2025-03-08 14:57:17.173,0.0011641200027786213,1.379914802905883
2025-03-08 14:57:17.192,0.001202334756381043,1.4014142299771075
2025-03-08 14:57:17.212,0.0012376742548504264,1.3457051542772722
2025-03-08 14:57:17.231,0.001269174546755249,1.2219645294872314
2025-03-08 14:57:17.251,0.001295712366292561,1.0466560696891272
2025-03-08 14:57:17.270,0.0013152153691473704,0.8433560318020774
2025-03-08 14:57:17.290,0.0013239979596925142,0.6412220301031119
2025-03-08 14:57:17.309,0.001316535453026916,0.4718868086714899
2025-03-08 14:57:17.329,0.0012858935643351602,0.36497801831988974
2025-03-08 14:57:17.348,0.0012247935618150566,0.3429100198702236
2025-03-08 14:57:17.368,0.0011270389625814546,0.41595266371752615
2025-03-08 14:57:17.387,0.0009889137965681917,0.5787242692497363
2025-03-08 14:57:17.407,0.0008102207980011677,0.8090984729900254
2025-03-08 14:57:17.427,0.0005947578169075579,1.0700818552203843
2025-03-08 14:57:17.446,0.0003501251695894049,1.3146269439722245
2025-03-08 14:57:17.466,8.681888558685558e-05,1.4927345797727944
2025-03-08 14:57:17.485,-0.00018332096151838667,1.559693478276534
2025-03-08 14:57:17.505,-0.0004490391650135299,1.4839985952285315
2025-03-08 14:57:17.524,-0.0007015170162728005,1.2534494272242582
2025-03-08 14:57:17.544,-0.0009356555526782957,0.8781820176254078
2025-03-08 14:57:17.563,-0.0011504544669984822,0.38991484015794525
2025-03-08 14:57:17.583,-0.0013484232543798972,-0.16258320975213347
2025-03-08 14:57:17.602,-0.0015342368851205986,-0.7210006572538867
2025-03-08 14:57:17.622,-0.00171302167806499,-1.226505876756947
2025-03-08 14:57:17.641,-0.001888674355759568,-1.6285113408558827
2025-03-08 14:57:17.661,-0.0020625316659060797,-1.8915589459290763
2025-03-08 14:57:17.680,-0.002232632588212119,-1.9992538394682327
2025-03-08 14:57:17.700,-0.002393785001800828,-1.954898808450863
2025-03-08 14:57:17.720,-0.0025385814173438485,-1.77914235393643
2025-03-08 14:57:17.739,-0.0026593142021023044,-1.5054081802552348
2025-03-08 14:57:17.759,-0.0027504358395675894,-1.1740977945939275
2025-03-08 14:57:17.778,-0.002810930987164396,-0.8265935495440223
2025-03-08 14:57:17.798,-0.0028458826306282364,-0.4999849980091499
2025-03-08 14:57:17.817,-0.0028666770229165326,-0.2232211660418576
2025-03-08 14:57:17.837,-0.002889579599044378,-0.01506394788024437
2025-03-08 14:57:17.856,-0.0029326767676733706,0.11618729134904208
2025-03-08 14:57:17.876,-0.0030114260162177296,0.1716250489581312
2025-03-08 14:57:17.895,-0.0031334071689156228,0.1599845062016522
2025-03-08 14:57:17.915,-0.0032933080412655916,0.09584646993759645
2025-03-08 14:57:17.934,-0.0034694870974276925,-0.0018965264045988839
2025-03-08 14:57:17.954,-0.0036234077428657523,-0.11143862527403905
2025-03-08 14:57:17.973,-0.0037028014776694968,-0.20976086231917804
2025-03-08 14:57:17.993,-0.0036487115529596817,-0.27506774269208223
2025-03-08 14:57:18.013,-0.0034057164086806237,-0.29005787003022165
2025-03-08 14:57:18.032,-0.002933726188823903,-0.24559021548117088
2025-03-08 14:57:18.052,-0.0022189446063649657,-0.14379998284455878
2025-03-08 14:57:18.071,-0.0012811689520349427,0.0005151835632307389
2025-03-08 14:57:18.091,-0.0001749019081509232,0.16120083226720006
2025-03-08 14:57:18.110,0.0010170006597928119,0.30503050419113015
2025-03-08 14:57:18.130,0.0021963829911125256,0.3983308730546557
2025-03-08 14:57:18.149,0.0032666573989710685,0.4144808475690757
2025-03-08 14:57:18.169,0.004149330962443291,0.34041757590238225
2025-03-08 14:57:18.188,0.004796182133222042,0.18045961919527784
2025-03-08 14:57:18.208,0.005194493918229222,-0.04356096302310631
2025-03-08 14:57:18.227,0.005364772815003303,-0.29591319742400196
2025-03-08 14:57:18.247,0.005352277474052777,-0.5334490678622792
2025-03-08 14:57:18.266,0.0052149528139279425,-0.7134193783063886
2025-03-08 14:57:18.286,0.005010832420000562,-0.8008885025210071
2025-03-08 14:57:18.305,0.004787681225746595,-0.7742819913864403
2025-03-08 14:57:18.325,0.004576764328886161,-0.6281966229656767
2025-03-08 14:57:18.345,0.0043913836928904815,-0.37329264084267877
2025-03-08 14:57:18.364,0.00422955284340063,-0.03367186766245915
2025-03-08 14:57:18.384,0.004079258760719765,0.3574760503580096
2025-03-08 14:57:18.403,0.003924451361083261,0.7630165536721724
2025-03-08 14:57:18.423,0.003750205417362151,1.1468938176159245
2025-03-08 14:57:18.442,0.00354617542234891,1.4783176589585896
2025-03-08 14:57:18.462,0.003308167375059573,1.734681819044591
2025-03-08 14:57:18.481,0.003038118163571062,1.9030804314418988
2025-03-08 14:57:18.501,0.00274294864070402,1.9805293436640152
2025-03-08 14:57:18.520,0.0024327649239332906,1.973140625359185
2025-03-08 14:57:18.540,0.0021188495754709082,1.8945407650285078
2025-03-08 14:57:18.559,0.0018118181500488657,1.763802365638615
2025-03-08 14:57:18.579,0.001520177802997334,1.6031301276566674
2025-03-08 14:57:18.598,0.0012493529431911214,1.4355298985295781
2025-03-08 14:57:18.618,0.0010011428579343536,1.2826672597532973
2025-03-08 14:57:18.638,0.0007735955619789812,1.1630517212282852
2025-03-08 14:57:18.657,0.0005613572518802507,1.090576345855999
2025-03-08 14:57:18.677,0.00035657084609438277,1.0733626268762553
2025-03-08 14:57:18.696,0.00015028152761478104,1.112857355321386
2025-03-08 14:57:18.716,-6.588415651727209e-05,1.203195029106588
2025-03-08 14:57:18.735,-0.00029812425158878017,1.3309296110828126
2025-03-08 14:57:18.755,-0.0005492817173487362,1.4753154916295517
2025-03-08 14:57:18.774,-0.0008182773791980642,1.6093648030967285
2025-03-08 14:57:18.794,-0.0011002335896387267,1.701904180078486
2025-03-08 14:57:18.813,-0.0013872963801539707,1.720743698354001
2025-03-08 14:57:18.833,-0.00167009207532095,1.6368051965534953
2025-03-08 14:57:18.852,-0.0019396278042014953,1.4286777863356803
2025-03-08 14:57:18.872,-0.002189275742142401,1.086736174144676
2025-03-08 14:57:18.891,-0.0024163372381470127,0.6158626298946047
2025-03-08 14:57:18.911,-0.0026226604922142656,0.03603895860865645
2025-03-08 14:57:18.931,-0.0028139735170451545,-0.6194561257399611
2025-03-08 14:57:18.950,-0.002997993419693282,-1.3079708475396237
2025-03-08 14:57:18.970,-0.0031818146545794933,-1.9828127852929152
2025-03-08 14:57:18.989,-0.0033693136569341556,-2.5990285814963867
2025-03-08 14:57:19.009,-0.0035592342703465855,-3.1186277160694296
2025-03-08 14:57:19.028,-0.0037443695865650405,-3.5143950087033926
2025-03-08 14:57:19.048,-0.003912015925878478,-3.77175086986161
2025-03-08 14:57:19.067,-0.004045680899340855,-3.888549053873423
2025-03-08 14:57:19.087,-0.00412779668732052,-3.873147201173133
2025-03-08 14:57:19.106,-0.004142894811565151,-3.7414183417502818
2025-03-08 14:57:19.126,-0.004080464858874667,-3.513503065524731
2025-03-08 14:57:19.145,-0.003936739872433971,-3.2110236411728463
2025-03-08 14:57:19.165,-0.0037150002025214766,-2.8552471085243583
2025-03-08 14:57:19.184,-0.0034245113030650647,-2.4663634778559387
2025-03-08 14:57:19.204,-0.003078614563604819,-2.0637003784600707
2025-03-08 14:57:19.223,-0.0026925697564750017,-1.6663992804973486
2025-03-08 14:57:19.243,-0.002281553270579727,-1.2939202515749815
2025-03-08 14:57:19.263,-0.0018589749384163615,-0.9657951253178498
2025-03-08 14:57:19.282,-0.0014351645152069785,-0.7003202478556192
2025-03-08 14:57:19.302,-0.0010164980964801529,-0.5122892646775855
2025-03-08 14:57:19.321,-0.0006050684685740406,-0.4102708507050744
2025-03-08 14:57:19.341,-0.00019894783319173432,-0.39418958429208567
2025-03-08 14:57:19.360,0.00020704604950262637,-0.4539806915796531
2025-03-08 14:57:19.380,0.0006202709986258341,-0.5698615551812216
2025-03-08 14:57:19.399,0.0010490186391981233,-0.7143786404408274
2025-03-08 14:57:19.419,0.0015011096725502597,-0.8559717322406812
2025-03-08 14:57:19.438,0.0019822188067067626,-0.9634578534907967
2025-03-08 14:57:19.458,0.002493869930141572,-1.0106393711464512
2025-03-08 14:57:19.477,0.003031229065991246,-0.9802038777202547
2025-03-08 14:57:19.497,0.003581060167298015,-0.8661997407406485
2025-03-08 14:57:19.516,0.0041204107878329115,-0.6746250423141931
2025-03-08 14:57:19.536,0.004616686072376494,-0.4220354005517045
2025-03-08 14:57:19.556,0.0050296847988351295,-0.13249773424449907
2025-03-08 14:57:19.575,0.005315863212026023,0.16642725415660284
2025-03-08 14:57:19.595,0.005434552750804489,0.44783930911832764
2025-03-08 14:57:19.614,0.005355187198090901,0.6890660760563111
2025-03-08 14:57:19.634,0.005064045156494405,0.8742155753508514
2025-03-08 14:57:19.653,0.004568867450744258,0.9955989384099894
2025-03-08 14:57:19.673,0.0039000734669041638,1.054101999303391
2025-03-08 14:57:19.692,0.003108036524952144,1.0586299095339293
2025-03-08 14:57:19.712,0.0022567240709986743,1.0247255916123288
2025-03-08 14:57:19.731,0.0014147498033237832,0.9724773449263846
2025-03-08 14:57:19.751,0.0006454256097074207,0.923927339671967
2025-03-08 14:57:19.770,-2.2934405690221766e-06,0.9003227927130826
2025-03-08 14:57:19.790,-0.0005000959406751722,0.9196211653352792
2025-03-08 14:57:19.809,-0.0008424562590069134,0.9945996190789116
2025-03-08 14:57:19.829,-0.0010442668951259131,1.1317274113738132
2025-03-08 14:57:19.849,-0.0011348311117618973,1.330721844837949
2025-03-08 14:57:19.868,-0.0011500349074519156,1.5845596262247106
2025-03-08 14:57:19.888,-0.0011247857506558189,1.8797590381121734
2025-03-08 14:57:19.907,-0.001087356343744389,2.1969673311615843
2025-03-08 14:57:19.927,-0.0010564100073276559,2.5121371826109904
2025-03-08 14:57:19.946,-0.0010406390335319592,2.798668827403791
2025-03-08 14:57:19.966,-0.0010404104632616281,3.0307127860025305
2025-03-08 14:57:19.985,-0.0010506144573248855,3.187387650806012
2025-03-08 14:57:20.005,-0.0010639053627252266,3.2571191283786205
2025-03-08 14:57:20.024,-0.0010735976208854734,3.240893331316556
2025-03-08 14:57:20.044,-0.0010756377508426077,3.1531860338655258
2025-03-08 14:57:20.063,-0.001069365730020156,3.019803059663364
2025-03-08 14:57:20.083,-0.0010571418058737644,2.8727398819768815
2025-03-08 14:57:20.102,-0.0010431868469856689,2.7431249695955984
2025-03-08 14:57:20.122,-0.001032066143991545,2.6539804623737075
2025-03-08 14:57:20.142,-0.0010271961093619416,2.61467288115042
2025-03-08 14:57:20.161,-0.001029689178562641,2.618505135687812
2025-03-08 14:57:20.181,-0.0010378037548584478,2.644068978026562
2025-03-08 14:57:20.200,-0.0010471726518375963,2.6599902420243233
2025-03-08 14:57:20.220,-0.0010518091045062937,2.6318443228563484
2025-03-08 14:57:20.239,-0.0010456722119008598,2.5295326446984503
2025-03-08 14:57:20.259,-0.0010243819347529467,2.3334036447612982
2025-03-08 14:57:20.278,-0.0009865743325700458,2.037828781691801
2025-03-08 14:57:20.298,-0.000934446281892451,1.651637040618349
2025-03-08 14:57:20.317,-0.0008732807788230665,1.1955611766075571
2025-03-08 14:57:20.337,-0.0008100889386750793,0.6974835292762657
2025-03-08 14:57:20.356,-0.0007517923930479882,0.18668201926369632
2025-03-08 14:57:20.376,-0.0007034844159107483,-0.31158919459226575
2025-03-08 14:57:20.395,-0.0006672481644716308,-0.7800157661568956
2025-03-08 14:57:20.415,-0.0006418286010457682,-1.2109021660658408
2025-03-08 14:57:20.434,-0.0006231963098531224,-1.6054823262619382
2025-03-08 14:57:20.454,-0.0006057642447300764,-1.97133997818596
2025-03-08 14:57:20.474,-0.000583817794518317,-2.3188565990846253
2025-03-08 14:57:20.493,-0.0005526942270128339,-2.657741490925628
2025-03-08 14:57:20.513,-0.0005094311279433018,-2.9945019547081535
2025-03-08 14:57:20.532,-0.00045290010467158,-3.3312841038086582
2025-03-08 14:57:20.552,-0.00038366445064545675,-3.666041733448332
2025-03-08 14:57:20.571,-0.0003038040158845228,-3.993637046440092
2025-03-08 14:57:20.591,-0.00021676052686296767,-4.307319950119835
2025-03-08 14:57:20.610,-0.0001270513659938217,-4.60006713785136
2025-03-08 14:57:20.630,-3.966367512942445e-05,-4.865436382151879
2025-03-08 14:57:20.649,4.0897115481178377e-05,-5.097823152151407
2025-03-08 14:57:20.669,0.00011170360116779093,-5.292196139722436
2025-03-08 14:57:20.688,0.0001723107486181435,-5.443464445259679
2025-03-08 14:57:20.708,0.00022513429407620497,-5.54560854561169
2025-03-08 14:57:20.727,0.0002750624119339387,-5.590691638245396
2025-03-08 14:57:20.747,0.00032820246358740467,-5.567954622796698
2025-03-08 14:57:20.767,0.00038988125475793113,-5.463377447100873
2025-03-08 14:57:20.786,0.000462332928450526,-5.260230252858849
2025-03-08 14:57:20.806,0.0005428381264426023,-4.941071497423606
2025-03-08 14:57:20.825,0.0006232056957701716,-4.491292217264065
2025-03-08 14:57:20.845,0.0006911933903268258,-3.903729198122594
2025-03-08 14:57:20.864,0.000733724212821316,-3.183291990508554
2025-03-08 14:57:20.884,0.0007408745752062227,-2.3502318978985177
2025-03-08 14:57:20.903,0.0007091195875814879,-1.4408031849968788
2025-03-08 14:57:20.923,0.0006426061432610467,-0.5046313841516902
2025-03-08 14:57:20.942,0.0005521387484900313,0.4010618599781931
2025-03-08 14:57:20.962,0.00045248216684547947,1.2193920279204329
2025-03-08 14:57:20.981,0.00035898558074990355,1.902332812919749
2025-03-08 14:57:21.001,0.00028443239482205855,2.4180694477743008
2025-03-08 14:57:21.020,0.00023675524067088064,2.7556558538392397
2025-03-08 14:57:21.040,0.0002180148063769235,2.9259953727337322
2025-03-08 14:57:21.060,0.00022477548655739035,2.9589014409481265
2025-03-08 14:57:21.079,0.0002496700768872369,2.8967908501231405
2025-03-08 14:57:21.099,0.00028362064937807654,2.786293481234739
2025-03-08 14:57:21.118,0.0003180362485268007,2.669585133074304
2025-03-08 14:57:21.138,0.0003464206699240555,2.577397874371857
2025-03-08 14:57:21.157,0.0003651177515357724,2.525299572801805
2025-03-08 14:57:21.177,0.0003732392460881339,2.513964549127351
2025-03-08 14:57:21.196,0.00037203896252541727,2.5330032160801648
2025-03-08 14:57:21.216,0.00036406218062856165,2.5668738546729246
2025-03-08 14:57:21.235,0.0003523253240368963,2.600856855652666
2025-03-08 14:57:21.255,0.0003396526204688732,2.62523330506764
2025-03-08 14:57:21.274,0.0003282118192412138,2.636598285387712
2025-03-08 14:57:21.294,0.0003192705870705528,2.636342105028312
2025-03-08 14:57:21.313,0.0003131810050073596,2.6273370714103033
2025-03-08 14:57:21.333,0.0003095504510823379,2.610417911647078
2025-03-08 14:57:21.352,0.00030750976781466593,2.5821691613652797
2025-03-08 14:57:21.372,0.000306001506344335,2.5349029281905247
2025-03-08 14:57:21.392,0.00030406785554862054,2.4588024490597506
2025-03-08 14:57:21.411,0.00030113760526070954,2.3453848871653133
2025-03-08 14:57:21.431,0.0002972475914957262,2.190997500461926
2025-03-08 14:57:21.450,0.00029305070385047253,1.9991245027907878
2025-03-08 14:57:21.470,0.0002894866786029362,1.7807722725260284
2025-03-08 14:57:21.489,0.0002871749090061959,1.5529005593686835
2025-03-08 14:57:21.509,0.00028581171694677177,1.33550439069884
2025-03-08 14:57:21.528,0.00028391255620929335,1.1482971158464435
2025-03-08 14:57:21.548,0.0002790529207384761,1.007900407852136
2025-03-08 14:57:21.567,0.0002684760723775737,0.9260772036872402
2025-03-08 14:57:21.587,0.0002497771674914185,0.9090435788055435
2025-03-08 14:57:21.606,0.00022142473531315538,0.9574988411884316
2025-03-08 14:57:21.626,0.0001830317655609931,1.0668824318216374
2025-03-08 14:57:21.645,0.00013539418268932547,1.2275210685289375
2025-03-08 14:57:21.665,8.034186541672306e-05,1.424648421176412
2025-03-08 14:57:21.685,2.0457334646672614e-05,1.6385740457100837
2025-03-08 14:57:21.704,-4.12479550142685e-05,1.8453947505126065
2025-03-08 14:57:21.724,-0.00010158578970105753,2.0185304715932877
2025-03-08 14:57:21.743,-0.00015731825038285091,2.13108969104339
2025-03-08 14:57:21.763,-0.00020525653720579467,2.158759233565371
2025-03-08 14:57:21.782,-0.00024254671684337788,2.0827114019516197
2025-03-08 14:57:21.802,-0.0002672871693545189,1.8920093288196105
2025-03-08 14:57:21.821,-0.0002793536735127545,1.5851445843918077
2025-03-08 14:57:21.841,-0.0002810312108814726,1.1705452464877155
2025-03-08 14:57:21.860,-0.000277001331528339,0.6660280705803472
2025-03-08 14:57:21.880,-0.000273485429746888,0.09720316473508411
2025-03-08 14:57:21.899,-0.00027675432196900727,-0.5051500212149287
2025-03-08 14:57:21.919,-0.00029153211058053757,-1.108619693994611
2025-03-08 14:57:21.938,-0.0003198616338489803,-1.6832694668368529
2025-03-08 14:57:21.958,-0.000360757347136436,-2.205689270047566
2025-03-08 14:57:21.978,-0.00041062430696727105,-2.6621664373345113
2025-03-08 14:57:21.997,-0.0004641824544899396,-3.050190411104977
2025-03-08 14:57:22.017,-0.0005155798108688789,-3.377822662910417
2025-03-08 14:57:22.036,-0.0005594215200255099,-3.6609778972396345
2025-03-08 14:57:22.056,-0.0005915020862581724,-3.9191840038978984
2025-03-08 14:57:22.075,-0.0006091346144607464,-4.170726218770252
2025-03-08 14:57:22.095,-0.000611149992854371,-4.428149680094562
2025-03-08 14:57:22.114,-0.0005977891435559005,-4.694933862300263
2025-03-08 14:57:22.134,-0.0005706894418379962,-4.963864424692067
2025-03-08 14:57:22.153,-0.0005329675984600827,-5.217309499137311
2025-03-08 14:57:22.173,-0.0004891926983998661,-5.42932203719985
2025-03-08 14:57:22.192,-0.0004450101688567122,-5.569261446748605
2025-03-08 14:57:22.212,-0.000406352830016632,-5.606443886641358
2025-03-08 14:57:22.231,-0.0003784236231367617,-5.515170038798926
2025-03-08 14:57:22.251,-0.0003647836880448174,-5.279352028968134
2025-03-08 14:57:22.270,-0.00036684463815944533,-4.8959207190001
2025-03-08 14:57:22.290,-0.00038388269628819853,-4.376304701639624
2025-03-08 14:57:22.310,-0.0004134834646246528,-3.745560376486933
2025-03-08 14:57:22.329,-0.0004522074035125116,-3.039165062000255
2025-03-08 14:57:22.349,-0.000496277058070442,-2.2979718201100026
2025-03-08 14:57:22.368,-0.0005421675632001796,-1.5622393866087405
2025-03-08 14:57:22.388,-0.0005870363909839613,-0.8658693333666432
2025-03-08 14:57:22.407,-0.0006289296344489047,-0.23193324577150842
2025-03-08 14:57:22.427,-0.0006667063540872495,0.32972949538155005
2025-03-08 14:57:22.446,-0.0006996686552846645,0.8225206450602937
2025-03-08 14:57:22.466,-0.0007269459871496701,1.2608574586419208
2025-03-08 14:57:22.485,-0.0007467329396928815,1.6662652519926637
2025-03-08 14:57:22.505,-0.000755541304906148,2.062582495250274
2025-03-08 14:57:22.524,-0.0007477118141142557,2.471134391411038
2025-03-08 14:57:22.544,-0.0007154889352948394,2.906623871625817
2025-03-08 14:57:22.563,-0.0006499096902049652,3.374277774401433
2025-03-08 14:57:22.583,-0.0005425568082586971,3.868561808635262
2025-03-08 14:57:22.603,-0.00038792080818624713,4.3735850645204435
2025-03-08 14:57:22.622,-0.000185799531824447,4.865117014340968
2025-03-08 14:57:22.642,5.7035408237233005e-05,5.313885516492534
2025-03-08 14:57:22.661,0.0003266159350546287,5.689542846659049
2025-03-08 14:57:22.681,0.0006033274747296976,5.96450176494564
2025-03-08 14:57:22.700,0.0008649772441402297,6.1168857458351855
2025-03-08 14:57:22.720,0.0010906103449658984,6.132145268391208
2025-03-08 14:57:22.739,0.0012640920748365786,6.003372749292815
2025-03-08 14:57:22.759,0.001376618450727866,5.73080620366395
2025-03-08 14:57:22.778,0.0014276797785392498,5.3212299020458484
2025-03-08 14:57:22.798,0.0014243982067804971,4.787838470143539
2025-03-08 14:57:22.817,0.00137948254714251,4.150683238180304
2025-03-08 14:57:22.837,0.0013082897349902273,3.437273167806649
2025-03-08 14:57:22.856,0.0012256680111143578,2.682513246008844
2025-03-08 14:57:22.876,0.0011433225749495457,1.9271265608041959
2025-03-08 14:57:22.896,0.0010682889917239908,1.2140853676268784
2025-03-08 14:57:22.915,0.0010027225956533914,0.5832675927501104
2025-03-08 14:57:22.935,0.0009447838885664414,0.06530974949472702
2025-03-08 14:57:22.954,0.0008901447105659473,-0.32385294775566864
2025-03-08 14:57:22.974,0.0008336392158403664,-0.586201136876755
2025-03-08 14:57:22.993,0.0007707255589483497,-0.7414776583925771
2025-03-08 14:57:23.013,0.0006985556570975309,-0.823356557040788
2025-03-08 14:57:23.032,0.0006165293694561009,-0.8725764240428521
2025-03-08 14:57:23.052,0.0005262888511959759,-0.9284987155512993
2025-03-08 14:57:23.071,0.000431226952790907,-1.0210242271336039
2025-03-08 14:57:23.091,0.0003357036933593886,-1.1648023561988903
2025-03-08 14:57:23.110,0.0002442100189572336,-1.357165964413332
2025-03-08 14:57:23.130,0.00016065972027573766,-1.5803008780791978
2025-03-08 14:57:23.149,8.789127232234934e-05,-1.8070359619307967
2025-03-08 14:57:23.169,2.7407119088805288e-05,-2.0086452577922547
2025-03-08 14:57:23.188,-2.062284564322559e-05,-2.1625071446412183
2025-03-08 14:57:23.208,-5.7083001147695595e-05,-2.2575525594109873
2025-03-08 14:57:23.228,-8.342728297967593e-05,-2.296136118290822
2025-03-08 14:57:23.247,-0.00010115765959477346,-2.2920610076484125
2025-03-08 14:57:23.267,-0.00011147341160217432,-2.2656350211998615
2025-03-08 14:57:23.286,-0.00011522433738671197,-2.2374722015643793
2025-03-08 14:57:23.306,-0.00011313971373644194,-2.2230185189842993
2025-03-08 14:57:23.325,-0.00010615216658610389,-2.229387079460341
2025-03-08 14:57:23.345,-9.560608183677082e-05,-2.255182531746804
2025-03-08 14:57:23.364,-8.326473568595941e-05,-2.292918865708758
2025-03-08 14:57:23.384,-7.119376370925059e-05,-2.3328039715134268
2025-03-08 14:57:23.403,-6.16347337140614e-05,-2.3663842056783615
2025-03-08 14:57:23.423,-5.686424938396417e-05,-2.388872707637513
2025-03-08 14:57:23.442,-5.892290915046025e-05,-2.399719183539348
2025-03-08 14:57:23.462,-6.915458343525994e-05,-2.40175412977755
2025-03-08 14:57:23.481,-8.767967247562491e-05,-2.399722092615445
2025-03-08 14:57:23.501,-0.00011305197467519431,-2.3990451234112213
2025-03-08 14:57:23.521,-0.00014230357709882414,-2.405285001916385
2025-03-08 14:57:23.540,-0.00017141821992596126,-2.4242239478381786
2025-03-08 14:57:23.560,-0.0001961215368937422,-2.4620411820578654
2025-03-08 14:57:23.579,-0.00021280997256695533,-2.5249430935810198
2025-03-08 14:57:23.599,-0.0002194289134155371,-2.61786118079217
2025-03-08 14:57:23.618,-0.0002160948436219,-2.742333368998849
2025-03-08 14:57:23.638,-0.0002052452761585957,-2.8941795873695226
2025-03-08 14:57:23.657,-0.00019116905135900463,-3.0618248236445647
2025-03-08 14:57:23.677,-0.00017895878982057838,-3.2259981044441064
2025-03-08 14:57:23.696,-0.00017317278776196346,-3.3611161082603367
2025-03-08 14:57:23.716,-0.00017666094406441907,-3.4381456767640497
2025-03-08 14:57:23.735,-0.00018997772288608148,-3.428340084900884
2025-03-08 14:57:23.755,-0.000211554370257191,-3.3070849723125333
2025-03-08 14:57:23.774,-0.00023846616476893984,-3.057179386103727
2025-03-08 14:57:23.794,-0.00026741993907343736,-2.671123341731406
2025-03-08 14:57:23.814,-0.00029560774243124076,-2.1522495005320694
2025-03-08 14:57:23.833,-0.0003212431341656264,-1.5147154863380752
2025-03-08 14:57:23.853,-0.00034375976799671154,-0.7824325179103306
2025-03-08 14:57:23.872,-0.00036371827904888926,0.01300993211591674
2025-03-08 14:57:23.892,-0.00038246177273440127,0.8353634475190114
2025-03-08 14:57:23.911,-0.0004015682013416284,1.6475293999422918
2025-03-08 14:57:23.931,-0.00042221604808054107,2.4158133421995984
2025-03-08 14:57:23.950,-0.00044466048823973883,3.1140778390740924
2025-03-08 14:57:23.970,-0.00046802012525415875,3.7271216769969886
2025-03-08 14:57:23.989,-0.0004904615748352838,4.25261098704048
2025-03-08 14:57:24.009,-0.0005096982809193864,4.701006769317798
2025-03-08 14:57:24.028,-0.0005236000794230384,5.093171957180404
2025-03-08 14:57:24.048,-0.0005307045250966768,5.455719251429503
2025-03-08 14:57:24.067,-0.0005304965055175061,5.814677345742917
2025-03-08 14:57:24.087,-0.0005234080033897667,6.188607694048361
2025-03-08 14:57:24.106,-0.0005105613003659919,6.582686774078977
2025-03-08 14:57:24.126,-0.0004933551141774795,6.985269465254508
2025-03-08 14:57:24.146,-0.00047306682980582417,7.367993246415227
2025-03-08 14:57:24.165,-0.00045065866211428364,7.689676756072812
2025-03-08 14:57:24.185,-0.00042687884446620107,7.903344063145321
2025-03-08 14:57:24.204,-0.00040256851059066086,7.964938823027393
2025-03-08 14:57:24.224,-0.00037894055220687243,7.841892844905885
2025-03-08 14:57:24.243,-0.0003576022854882657,7.519763590337939
2025-03-08 14:57:24.263,-0.0003402489860535703,7.005599658225666
2025-03-08 14:57:24.282,-0.00032815121673745014,6.327395903929084
2025-03-08 14:57:24.302,-0.00032166484370921674,5.5298019924013735
2025-03-08 14:57:24.321,-0.0003199457369395346,4.666992155146795
2025-03-08 14:57:24.341,-0.00032091104590567467,3.794139215911505
2025-03-08 14:57:24.360,-0.0003213942072933364,2.9591441325725283
2025-03-08 14:57:24.380,-0.0003174649261318963,2.1961093597203476
2025-03-08 14:57:24.399,-0.00030495251828469233,1.5215705783364672
2025-03-08 14:57:24.419,-0.0002801882890271354,0.9338700851916024
2025-03-08 14:57:24.439,-0.00024083780768216587,0.41545327812741006
2025-03-08 14:57:24.458,-0.00018654093472904619,-0.06256155341979493
2025-03-08 14:57:24.478,-0.00011907633528229708,-0.5344045858991633
2025-03-08 14:57:24.497,-4.1973087813530725e-05,-1.0331757734952867
2025-03-08 14:57:24.517,4.022424164043973e-05,-1.5847424505668795
2025-03-08 14:57:24.536,0.00012269608839338483,-2.202848833592399
2025-03-08 14:57:24.556,0.0002008754994298589,-2.8862056798813045
2025-03-08 14:57:24.575,0.00027078581135382744,-3.6181424312036454
2025-03-08 14:57:24.595,0.0003293340111453503,-4.369027865968716
2025-03-08 14:57:24.614,0.000374629429122843,-5.101131607658214
2025-03-08 14:57:24.634,0.00040624532988549653,-5.775045317548117
2025-03-08 14:57:24.653,0.00042526935718912494,-6.356384218600418
2025-03-08 14:57:24.673,0.0004340487080172445,-6.8213844136693815
2025-03-08 14:57:24.692,0.00043566285343249326,-7.160246302433827
2025-03-08 14:57:24.712,0.00043324998910309546,-7.377588594662212
2025-03-08 14:57:24.732,0.0004293317844509225,-7.490032440053019
2025-03-08 14:57:24.751,0.00042525997670376603,-7.521568432833856
2025-03-08 14:57:24.771,0.00042089751706078096,-7.497818174858057
2025-03-08 14:57:24.790,0.0004146507012340749,-7.4404633888955525
2025-03-08 14:57:24.810,0.0004039348955457005,-7.362933664133006
2025-03-08 14:57:24.829,0.00038602960892256246,-7.2680105579773615
2025-03-08 14:57:24.849,0.0003590965933011095,-7.147526331791012
2025-03-08 14:57:24.868,0.00032303454905969716,-6.9839940810175385
2025-03-08 14:57:24.888,0.0002799138748489366,-6.753838104708676
2025-03-08 14:57:24.907,0.0002339050664578132,-6.43179659645333
2025-03-08 14:57:24.927,0.00019074709003794594,-5.995930571031672
2025-03-08 14:57:24.946,0.00015683379749329365,-5.432485510192428
2025-03-08 14:57:24.966,0.00013797053186110793,-4.739721368351585
2025-03-08 14:57:24.985,0.00013787248647929964,-3.929887853217604
2025-03-08 14:57:25.005,0.00015661322046837085,-3.0288367705683767
2025-03-08 14:57:25.025,0.00018942790220718766,-2.073266547975554
2025-03-08 14:57:25.044,0.00022636409282484685,-1.1061236205921734
2025-03-08 14:57:25.064,0.0002531420096852581,-0.1710676356229898
2025-03-08 14:57:25.083,0.0002533003771198935,0.6929619286387674
2025-03-08 14:57:25.103,0.00021142323669313886,1.456163330439912
2025-03-08 14:57:25.122,0.00011704306029251509,2.1006536611827142
2025-03-08 14:57:25.142,-3.1362520033749484e-05,2.621341387799163
2025-03-08 14:57:25.161,-0.00022307227963826761,3.0249398552824176
2025-03-08 14:57:25.181,-0.00043347302930200746,3.327448315445986
2025-03-08 14:57:25.200,-0.0006249571126166699,3.5506660950525992
2025-03-08 14:57:25.220,-0.0007508820324290024,3.718470696651685
2025-03-08 14:57:25.239,-0.0007624471300924756,3.853597510602989
2025-03-08 14:57:25.259,-0.0006175720892679663,3.975450025185944
2025-03-08 14:57:25.278,-0.0002901848393043162,4.099094455473845
2025-03-08 14:57:25.298,0.00022210940049985454,4.235199368095831
2025-03-08 14:57:25.317,0.0008940633416254009,4.390421055629471
2025-03-08 14:57:25.337,0.001674083383570076,4.567685357433
2025-03-08 14:57:25.357,0.0024910738935457256,4.7659765674507
2025-03-08 14:57:25.376,0.003265364750641305,4.979568288987754
2025-03-08 14:57:25.396,0.003920820854181475,5.197026182725576
2025-03-08 14:57:25.415,0.004394985410756501,5.400630297493437
2025-03-08 14:57:25.435,0.004645237678245049,5.566945968730732
2025-03-08 14:57:25.454,0.004650741424576085,5.66903207166437
2025-03-08 14:57:25.474,0.004411379784448642,5.680263176272798
2025-03-08 14:57:25.493,0.003945267367512327,5.57913304745903
2025-03-08 14:57:25.513,0.0032858644447933067,5.353934569355073
2025-03-08 14:57:25.532,0.002478806483134336,5.006075579177807
2025-03-08 14:57:25.552,0.0015780318278612116,4.551069733818994
2025-03-08 14:57:25.571,0.0006409998227615111,4.016846638808196
2025-03-08 14:57:25.591,-0.00027650405316099753,3.4397334827323243
2025-03-08 14:57:25.610,-0.0011249244561729122,2.8590252734364454
2025-03-08 14:57:25.630,-0.001863887890975315,2.311321383882219
2025-03-08 14:57:25.650,-0.0024632417279396544,1.8257261545890293
2025-03-08 14:57:25.669,-0.0029026297951209685,1.4206617020960797
2025-03-08 14:57:25.689,-0.0031704961454283396,1.1025716655234774
2025-03-08 14:57:25.708,-0.003263406730576018,0.8663886424897906
2025-03-08 14:57:25.728,-0.0031862142949102713,0.6974236381252636
2025-03-08 14:57:25.747,-0.0029530391687298367,0.574304054527923
2025-03-08 14:57:25.767,-0.002588501413432717,0.4726085007080228
2025-03-08 14:57:25.786,-0.0021283097119318348,0.3687915747103094
2025-03-08 14:57:25.806,-0.0016183334396925432,0.24384462454666825
2025-03-08 14:57:25.825,-0.001111678831277106,0.08601797136284844
2025-03-08 14:57:25.845,-0.000663876474919205,-0.10800242049679028
2025-03-08 14:57:25.864,-0.0003267682219100514,-0.33374890911004074
2025-03-08 14:57:25.884,-0.0001419088025899622,-0.5812715184366247
2025-03-08 14:57:25.903,-0.0001343926168465914,-0.8384934989701446
2025-03-08 14:57:25.923,-0.00030816448965534886,-1.0948584065770632
2025-03-08 14:57:25.943,-0.0006440290177031637,-1.3445525486122962
2025-03-08 14:57:25.962,-0.0011014164519280519,-1.5887266639720707
2025-03-08 14:57:25.982,-0.0016242037085827075,-1.8362593006400132
2025-03-08 14:57:26.001,-0.002149661964967677,-2.102722902955185
2025-03-08 14:57:26.021,-0.002618502499830813,-2.40745177174011
2025-03-08 14:57:26.040,-0.0029836343649212284,-2.7690318633284066
2025-03-08 14:57:26.060,-0.0032157920567923597,-3.2000339610134607
2025-03-08 14:57:26.079,-0.0033052892319654337,-3.7021804285653594
2025-03-08 14:57:26.099,-0.0032602561700541552,-4.263190773992928
2025-03-08 14:57:26.118,-0.0031024170648255504,-4.85623816603644
2025-03-08 14:57:26.138,-0.002861651752648794,-5.44234538710329
2025-03-08 14:57:26.157,-0.002570415097126872,-5.97533032923714
2025-03-08 14:57:26.177,-0.0022587976921401224,-6.408296317336883
2025-03-08 14:57:26.196,-0.0019507735905048306,-6.7003310434872825
2025-03-08 14:57:26.216,-0.0016620192795366187,-6.8221027120835585
2025-03-08 14:57:26.235,-0.0013995076915833864,-6.75937657571019
2025-03-08 14:57:26.255,-0.0011627752752136004,-6.513992750087157
2025-03-08 14:57:26.275,-0.0009463624964888914,-6.102397398023818
2025-03-08 14:57:26.294,-0.0007426475967272258,-5.552273813437121
2025-03-08 14:57:26.314,-0.0005443291917579453,-4.898086055764979
2025-03-08 14:57:26.333,-0.00034612927807351883,-4.176386718539789
2025-03-08 14:57:26.353,-0.00014563923774694315,-3.4215858743065524
2025-03-08 14:57:26.372,5.657922597934364e-05,-2.6626365676256607
2025-03-08 14:57:26.392,0.0002574884904616573,-1.9208885701469045
2025-03-08 14:57:26.411,0.0004525116567136466,-1.209254393166214
2025-03-08 14:57:26.431,0.0006367232217382351,-0.5327704981253798
2025-03-08 14:57:26.450,0.0008060544725916161,0.10948320808255176
2025-03-08 14:57:26.470,0.0009582547477405938,0.7213849418663983
2025-03-08 14:57:26.489,0.0010933932764206954,1.3062939889250567
2025-03-08 14:57:26.509,0.0012137877698946834,1.8639521402092876
2025-03-08 14:57:26.528,0.00132337385518492,2.388651187310422
2025-03-08 14:57:26.548,0.0014266519148727031,2.8692765951534813
2025-03-08 14:57:26.568,0.0015274517146438564,3.2913067441317865
2025-03-08 14:57:26.587,0.0016278299778802513,3.6402357460295516
2025-03-08 14:57:26.607,0.0017274166462806807,3.905414845324011
2025-03-08 14:57:26.626,0.0018234032104911392,4.083148872048339
2025-03-08 14:57:26.646,0.0019111567149306368,4.178098629288399
2025-03-08 14:57:26.665,0.001985258703442887,4.202546597316268
2025-03-08 14:57:26.685,0.0020406901946208116,4.17371057334107
2025-03-08 14:57:26.704,0.002073902657493003,4.109852758462185
2025-03-08 14:57:26.724,0.0020835741281482367,4.026271307435851
2025-03-08 14:57:26.743,0.0020709119718349983,3.9322587619777334
2025-03-08 14:57:26.763,0.002039438781442748,3.829743851969211
2025-03-08 14:57:26.782,0.001994302628813052,3.7137429159457316
2025-03-08 14:57:26.802,0.0019412618985064941,3.5742068604306136
2025-03-08 14:57:26.821,0.0018855578151146515,3.398590164545749
2025-03-08 14:57:26.841,0.0018308836599922112,3.174528617559004
2025-03-08 14:57:26.861,0.0017786102087235692,2.892248992113471
2025-03-08 14:57:26.880,0.0017273708096752357,2.546559812081632
2025-03-08 14:57:26.900,0.0016730779475053132,2.1383835598643337
2025-03-08 14:57:26.919,0.0016094384598633715,1.6757915952923719
2025-03-08 14:57:26.939,0.0015290138884709646,1.1744533476829226
2025-03-08 14:57:26.958,0.0014247755538741322,0.6573679617786579
2025-03-08 14:57:26.978,0.0012919302831028386,0.15374418529556658
2025-03-08 14:57:26.997,0.0011296310069121667,-0.30305410777260083
2025-03-08 14:57:27.017,0.0009421363321523033,-0.6784805189191994
2025-03-08 14:57:27.036,0.0007390692050502207,-0.9405478300760837
2025-03-08 14:57:27.056,0.0005346019765152606,-1.0640258050468876
2025-03-08 14:57:27.075,0.00034560327846991346,-1.0345903178350846
2025-03-08 14:57:27.095,0.00018898353004044777,-0.8522407887661879
2025-03-08 14:57:27.114,7.866228695965122e-05,-0.5332325169828436
2025-03-08 14:57:27.134,2.274025207555887e-05,-0.10991065409118406
2025-03-08 14:57:27.153,2.1538926439836043e-05,0.37179347156575154
2025-03-08 14:57:27.173,6.708805071817386e-05,0.8569486056031604
2025-03-08 14:57:27.193,0.00014433995332803612,1.2876227351308804
2025-03-08 14:57:27.212,0.00023392234514973162,1.6094380916933135
2025-03-08 14:57:27.232,0.00031578558828036037,1.7778602308805258
2025-03-08 14:57:27.251,0.00037285528314211485,1.7635429853641278
2025-03-08 14:57:27.271,0.00039384237186074883,1.5561984898295713
2025-03-08 14:57:27.290,0.0003746256500045135,1.166581344014503
2025-03-08 14:57:27.310,0.00031799304869649825,0.6262855191266452
2025-03-08 14:57:27.329,0.00023191999519604339,-0.01481930979093839
2025-03-08 14:57:27.349,0.00012690195013536482,-0.693506855504391
2025-03-08 14:57:27.368,1.306384465644494e-05,-1.3402071554309214
2025-03-08 14:57:27.388,-0.00010221577181302341,-1.8875135135819374
2025-03-08 14:57:27.407,-0.0002156017391147958,-2.2791962681181808
2025-03-08 14:57:27.427,-0.0003277704479706087,-2.4783746769069093
2025-03-08 14:57:27.446,-0.00044218393147609484,-2.4732881350582736
2025-03-08 14:57:27.466,-0.0005631516766456403,-2.2792141472335943
2025-03-08 14:57:27.486,-0.0006938302293975948,-1.935637346049396
2025-03-08 14:57:27.505,-0.0008347303110432487,-1.4987719946846705
2025-03-08 14:57:27.525,-0.0009830505270599743,-1.0307550565420622
2025-03-08 14:57:27.544,-0.0011328798913777182,-0.5878710704869577
2025-03-08 14:57:27.564,-0.0012761001409737252,-0.2106555548768938
2025-03-08 14:57:27.583,-0.0014037016865329824,0.08157971801071909
2025-03-08 14:57:27.603,-0.0015072010746193588,0.2903434518684571
2025-03-08 14:57:27.622,-0.001579893855491092,0.4318498744441362
2025-03-08 14:57:27.642,-0.0016177756073747006,0.5270565575743582
2025-03-08 14:57:27.661,-0.0016200872942976152,0.5909276768416385
2025-03-08 14:57:27.681,-0.001589528122364452,0.6242498192176283
2025-03-08 14:57:27.700,-0.0015321682095893055,0.6105017485397345
2025-03-08 14:57:27.720,-0.001456993784883562,0.5186830651785928
2025-03-08 14:57:27.739,-0.001374933050200841,0.3112410926925123
2025-03-08 14:57:27.759,-0.0012972753820847888,-0.045112532922703716
2025-03-08 14:57:27.779,-0.0012336499016836224,-0.5685175236251873
2025-03-08 14:57:27.798,-0.0011900408796244016,-1.2537057662131037
2025-03-08 14:57:27.818,-0.0011674660898898968,-2.068351186115738
2025-03-08 14:57:27.837,-0.0011618030178740133,-2.9549241845910363
2025-03-08 14:57:27.857,-0.0011648862635252092,-3.837694341453331
2025-03-08 14:57:27.876,-0.0011666045456187142,-4.63336589860479
2025-03-08 14:57:27.896,-0.001157447101116235,-5.263043095858312
2025-03-08 14:57:27.915,-0.0011308407879555868,-5.663030986365902
2025-03-08 14:57:27.935,-0.0010846834375185523,-5.792447528439369
2025-03-08 14:57:27.954,-0.0010216964421428329,-5.636595029915515
2025-03-08 14:57:27.974,-0.0009485375475780433,-5.206171209199068
2025-03-08 14:57:27.993,-0.0008739497737814724,-4.533317150642684
2025-03-08 14:57:28.013,-0.0008064768181105918,-3.665952298442891
2025-03-08 14:57:28.032,-0.0007523630219301291,-2.6617866297858304
2025-03-08 14:57:28.052,-0.0007141467206982943,-1.5829600464685654
2025-03-08 14:57:28.071,-0.0006902087990977402,-0.4916812188188628
2025-03-08 14:57:28.091,-0.0006752761933248514,0.553226737819111
2025-03-08 14:57:28.111,-0.0006617025828566531,1.4991665714754163
2025-03-08 14:57:28.130,-0.0006412563962190606,2.3022241929110168
2025-03-08 14:57:28.150,-0.0006070666815033531,2.929271019265033
2025-03-08 14:57:28.169,-0.0005552827202961284,3.359545655710039
2025-03-08 14:57:28.189,-0.0004859807625862381,3.5854713441799198
2025-03-08 14:57:28.208,-0.00040301200512509426,3.612533588288183
2025-03-08 14:57:28.228,-0.0003128139735584936,3.458211163242227
2025-03-08 14:57:28.247,-0.00022254569068848947,3.150137334207401
2025-03-08 14:57:28.267,-0.00013809558875040018,2.7237885310167993
2025-03-08 14:57:28.286,-6.250990927283126e-05,2.2200168473026927
2025-03-08 14:57:28.306,4.738707023860114e-06,1.6826676076730798
2025-03-08 14:57:28.325,6.741970084973212e-05,1.1563971349519786
2025-03-08 14:57:28.345,0.0001311923571919391,0.6846859928865012
2025-03-08 14:57:28.364,0.00020159578120381867,0.30796675353237185
2025-03-08 14:57:28.384,0.0002820181204558195,0.06175076137410877
2025-03-08 14:57:28.404,0.00037235131233613264,-0.025379204974088677
2025-03-08 14:57:28.423,0.0004688136260710368,0.06595136286514042
2025-03-08 14:57:28.443,0.0005649820407988964,0.34327596772415475
2025-03-08 14:57:28.462,0.0006536284248380219,0.7994272401415737
2025-03-08 14:57:28.482,0.0007286961828730893,1.4099623142498927
2025-03-08 14:57:28.501,0.0007867658676857341,2.131833407120339
2025-03-08 14:57:28.521,0.0008276002045555389,2.9045155231630018
2025-03-08 14:57:28.540,0.0008537239157953852,3.654603479553298
2025-03-08 14:57:28.560,0.0008693348554235817,4.304150251415898
2025-03-08 14:57:28.579,0.0008790243836882874,4.781896093863131
2025-03-08 14:57:28.599,0.0008867598361423188,5.035391779412476
2025-03-08 14:57:28.618,0.0008954053438116424,5.041273604964497
2025-03-08 14:57:28.638,0.000906820583147128,4.810929890907189
2025-03-08 14:57:28.657,0.0009223551702327887,4.389610448798271
2025-03-08 14:57:28.677,0.0009434029326142255,3.8485050497933697
2025-03-08 14:57:28.697,0.0009716449552347472,3.2710741830804775
2025-03-08 14:57:28.716,0.0010087477003982626,2.7364723516080303
2025-03-08 14:57:28.736,0.0010555982369382677,2.30379581023921
2025-03-08 14:57:28.755,0.0011115079308268692,2.0008006878879905
2025-03-08 14:57:28.775,0.001173935725358644,1.8196476322497424
2025-03-08 14:57:28.794,0.0012390322704860415,1.720442212907168
2025-03-08 14:57:28.814,0.0013028416813702542,1.6413925792635775
2025-03-08 14:57:28.833,0.0013626320475559552,1.512862228199165
2025-03-08 14:57:28.853,0.0014177678867337827,1.2718639676670076
2025-03-08 14:57:28.872,0.0014697743031053649,0.8737660095073401
2025-03-08 14:57:28.892,0.0015215956638690007,0.299021893743816
2025-03-08 14:57:28.911,0.001576330020853268,-0.445780905551731
2025-03-08 14:57:28.931,0.0016358520078982096,-1.3318129773940053
2025-03-08 14:57:28.950,0.0016997555064808823,-2.3150966625711207
2025-03-08 14:57:28.970,0.0017649804552108367,-3.3447043790313393
2025-03-08 14:57:28.990,0.0018263160726178776,-4.370183276541069
2025-03-08 14:57:29.009,0.0018776946316900326,-5.346898244124962
2025-03-08 14:57:29.029,0.001913885846987743,-6.238672464308763
2025-03-08 14:57:29.048,0.001932013637416539,-7.017764619133976
2025-03-08 14:57:29.068,0.001932357704548491,-7.662789497274657
2025-03-08 14:57:29.087,0.00191816960858292,-8.15560381909734
2025-03-08 14:57:29.107,0.001894604703387953,-8.478353660418994
2025-03-08 14:57:29.126,0.0018671773820469193,-8.611750984990955
2025-03-08 14:57:29.146,0.001840250290946544,-8.535247197902082
2025-03-08 14:57:29.165,0.0018159380574988343,-8.229231370768147
2025-03-08 14:57:29.185,0.0017935638331236087,-7.678859577968602
2025-03-08 14:57:29.204,0.0017696365828356409,-6.878735301336878
2025-03-08 14:57:29.224,0.0017382791825304817,-5.837445174824353
2025-03-08 14:57:29.243,0.0016920356784117083,-4.580885032996381
2025-03-08 14:57:29.263,0.0016229397741235072,-3.1533716659341637
2025-03-08 14:57:29.282,0.0015236747232539529,-1.6157705843711012
2025-03-08 14:57:29.302,0.001388658779619921,-0.04034874316133099
2025-03-08 14:57:29.322,0.001214930358175879,1.4972235666460931
2025-03-08 14:57:29.341,0.0010027206978410201,2.927484318461404
2025-03-08 14:57:29.361,0.0007555784393682573,4.196486507445203
2025-03-08 14:57:29.380,0.0004799163097580671,5.272575065279979
2025-03-08 14:57:29.400,0.00018396427802378667,6.148666383951045
2025-03-08 14:57:29.419,-0.00012366493196021687,6.838953274052192
2025-03-08 14:57:29.439,-0.0004353842941403457,7.37035032416525
2025-03-08 14:57:29.458,-0.0007455793483869976,7.770533517166714
2025-03-08 14:57:29.478,-0.0010508898921966867,8.055625129305973
2025-03-08 14:57:29.497,-0.0013499676845893354,8.220987655891376
2025-03-08 14:57:29.517,-0.0016430545857521275,8.238003513313451
2025-03-08 14:57:29.536,-0.0019316506319166133,8.058239506063698
2025-03-08 14:57:29.556,-0.002218290730870829,7.62442671021021
2025-03-08 14:57:29.575,-0.002506253314779305,6.885782780110378
2025-03-08 14:57:29.595,-0.002799029428000097,5.813910697159645
2025-03-08 14:57:29.615,-0.00309953362769046,4.415221590030704
2025-03-08 14:57:29.634,-0.003409174782210503,2.7366785257694106
2025-03-08 14:57:29.654,-0.003726933907576106,0.8634209396831022
2025-03-08 14:57:29.673,-0.0040485793971207764,-1.0910506305220604
2025-03-08 14:57:29.693,-0.0043661930653136225,-2.999675261788567
2025-03-08 14:57:29.712,-0.004668275922761173,-4.738275590760131
2025-03-08 14:57:29.732,-0.004940728601641507,-6.200442203581549
2025-03-08 14:57:29.751,-0.005168859238335716,-7.3085618515119135
2025-03-08 14:57:29.771,-0.00534027001410737,-8.019909188170159
2025-03-08 14:57:29.790,-0.005448099982587943,-8.327822383289208
2025-03-08 14:57:29.810,-0.005493784985433722,-8.258701241013222
2025-03-08 14:57:29.829,-0.005488378422904761,-7.86584515280841
2025-03-08 14:57:29.849,-0.005451651171148581,-7.221132314103361
2025-03-08 14:57:29.868,-0.005408637434302815,-6.405476914478157
2025-03-08 14:57:29.888,-0.005383904277787697,-5.499063546577027
2025-03-08 14:57:29.908,-0.005394444666069335,-4.572531841641132
2025-03-08 14:57:29.927,-0.0054425758724154245,-3.6803773863318683
2025-03-08 14:57:29.947,-0.005510457842048158,-2.8576210929940964
2025-03-08 14:57:29.966,-0.005557800734449707,-2.1201911418708534
2025-03-08 14:57:29.986,-0.005524022531964554,-1.4685987235648215
2025-03-08 14:57:30.005,-0.0053355190837757575,-0.8936764507607241
2025-03-08 14:57:30.025,-0.004917767209572769,-0.38269449153809065
2025-03-08 14:57:30.044,-0.004210753852952615,0.07576824307000564
2025-03-08 14:57:30.064,-0.00318496577522913,0.4892910727848877
2025-03-08 14:57:30.083,-0.0018542885793574348,0.8617175075241272
2025-03-08 14:57:30.103,-0.0002820993683391049,1.1953966656809676
2025-03-08 14:57:30.122,0.0014220496110144238,1.4944438355445655
2025-03-08 14:57:30.142,0.0031154911247142105,1.7676106262813227
2025-03-08 14:57:30.161,0.004642868480312045,2.029455494059333
2025-03-08 14:57:30.181,0.0058595789245797425,2.2990148888132005
2025-03-08 14:57:30.200,0.006653485742132943,2.59599124772689
2025-03-08 14:57:30.220,0.006961139963289862,2.9353449108674323
2025-03-08 14:57:30.240,0.006776284642996685,3.3217888756898475
2025-03-08 14:57:30.259,0.0061497836804679995,3.745821537084639
2025-03-08 14:57:30.279,0.005181190159021453,4.1825748213316425
2025-03-08 14:57:30.298,0.004003231003130285,4.594061314260166
2025-03-08 14:57:30.318,0.002761752744662105,4.934605157299661
2025-03-08 14:57:30.337,0.001594812493303737,5.158540786061436
2025-03-08 14:57:30.357,0.0006148440600582722,5.228795394366639
2025-03-08 14:57:30.376,-0.00010315658402661665,5.124804399676293
2025-03-08 14:57:30.396,-0.00052613833466758,4.848339304458036
2025-03-08 14:57:30.415,-0.000660443089688338,4.426163600788143
2025-03-08 14:57:30.435,-0.00054360100619995,3.9088460928667144
2025-03-08 14:57:30.454,-0.00023271689542199203,3.365480918842411
2025-03-08 14:57:30.474,0.00020790783942847328,2.8745209047132843
2025-03-08 14:57:30.493,0.0007175114237173078,2.5115000028158723
2025-03-08 14:57:30.513,0.0012463768535151307,2.335113205963478
2025-03-08 14:57:30.533,0.0017595807844552796,2.3738283764508874
2025-03-08 14:57:30.552,0.0022373899414299386,2.6157054464978784
2025-03-08 14:57:30.572,0.0026732471673251794,3.0041302634264855
2025-03-08 14:57:30.591,0.0030703904368124062,3.4415247861362017
2025-03-08 14:57:30.611,0.0034379630692195247,3.8017410343736797
2025-03-08 14:57:30.630,0.0037872195136076717,3.949997313524556
2025-03-08 14:57:30.650,0.004128236505912415,3.767292149865578
2025-03-08 14:57:30.669,0.004467411014450954,3.174743404987804
2025-03-08 14:57:30.689,0.00480592391888447,2.152711810533518
2025-03-08 14:57:30.708,0.005139240177109582,0.7501697449045787
2025-03-08 14:57:30.728,0.005457595182904069,-0.9184336867627991
2025-03-08 14:57:30.747,0.005747305429889372,-2.688928556874952
2025-03-08 14:57:30.767,0.005992677543417421,-4.373076617129535
2025-03-08 14:57:30.786,0.006178290633837058,-5.789085252274403
2025-03-08 14:57:30.806,0.006291451236737121,-6.790798552880112
2025-03-08 14:57:30.826,0.006324585170990068,-7.289724234108488
2025-03-08 14:57:30.845,0.0062772070949421955,-7.2658089086023345
2025-03-08 14:57:30.865,0.006156985899065856,-6.7655477384046945
2025-03-08 14:57:30.884,0.005979451147529124,-5.888853419081695
2025-03-08 14:57:30.904,0.00576613223047002,-4.768350957771946
2025-03-08 14:57:30.923,0.005541301111399171,-3.5458947146071482
2025-03-08 14:57:30.943,0.005327845028308616,-2.3510056686739835
2025-03-08 14:57:30.962,0.005143041095824589,-1.284853317770419
2025-03-08 14:57:30.982,0.004995100753831931,-0.41179969918707404
2025-03-08 14:57:31.001,0.004881198634584376,0.24119371256443725
2025-03-08 14:57:31.021,0.004787251751619608,0.6785043834790534
2025-03-08 14:57:31.040,0.004689201044385459,0.9254057203096596
2025-03-08 14:57:31.060,0.004555338897297257,1.0159747811033488
2025-03-08 14:57:31.079,0.004349412747271002,0.9819110676317939
2025-03-08 14:57:31.099,0.004034530001619402,0.8441934519609124
2025-03-08 14:57:31.118,0.003577977717918854,0.6087037144165225
2025-03-08 14:57:31.138,0.0029568665728720044,0.2662319765367
2025-03-08 14:57:31.158,0.0021640848486925357,-0.2032875172699016
2025-03-08 14:57:31.177,0.001213520260069422,-0.8229933946864627
2025-03-08 14:57:31.197,0.0001430687447713179,-1.609060413605558
2025-03-08 14:57:31.216,-0.0009861196404479637,-2.560338897159868
2025-03-08 14:57:31.236,-0.0020951963170897,-3.6500226953874644
2025-03-08 14:57:31.255,-0.003097970270881105,-4.8216221037028575
2025-03-08 14:57:31.275,-0.003914824610310666,-5.990806402050692
2025-03-08 14:57:31.294,-0.004487906675462203,-7.053445618348271
2025-03-08 14:57:31.314,-0.00479465917424204,-7.898744384760461
2025-03-08 14:57:31.333,-0.004856555362367435,-8.425118576305035
2025-03-08 14:57:31.353,-0.004740256376801503,-8.555753875809582
2025-03-08 14:57:31.372,-0.004549592919006474,-8.250790206604554
2025-03-08 14:57:31.392,-0.004408858481874571,-7.513783809080952
2025-03-08 14:57:31.411,-0.004440356921924317,-6.391302830666839
2025-03-08 14:57:31.431,-0.004740971591679756,-4.96589022803435
2025-03-08 14:57:31.451,-0.005362924306692825,-3.343857497784455
2025-03-08 14:57:31.470,-0.006302843219868137,-1.6402209183590009
2025-03-08 14:57:31.490,-0.007501374565270215,0.03655799078718473
2025-03-08 14:57:31.509,-0.008853506053764844,1.5975322540559247
2025-03-08 14:57:31.529,-0.010227767733642559,2.982058645097301
2025-03-08 14:57:31.548,-0.011490541985043777,4.161486713913902
2025-03-08 14:57:31.568,-0.012530153223137446,5.137832833631932
2025-03-08 14:57:31.587,-0.013275011656011073,5.938320920569973
2025-03-08 14:57:31.607,-0.01370150336231547,6.607051721153946
2025-03-08 14:57:31.626,-0.013830267868835426,7.19505671655937
2025-03-08 14:57:31.646,-0.01371282219088746,7.749840629037055
2025-03-08 14:57:31.665,-0.013412952037377506,8.30547483739752
2025-03-08 14:57:31.685,-0.012988247644125516,8.874437620786729
2025-03-08 14:57:31.704,-0.012476583143164563,9.442538981456861
2025-03-08 14:57:31.724,-0.011890598643816355,9.96815627948721
2025-03-08 14:57:31.744,-0.011220936359656692,10.386465085990098
2025-03-08 14:57:31.763,-0.010446727519338126,10.618402188231121
2025-03-08 14:57:31.783,-0.009550089219173764,10.58299892593094
2025-03-08 14:57:31.802,-0.008530426826932648,10.21087055686148
2025-03-08 14:57:31.822,-0.007414280780204258,9.456382508736958
2025-03-08 14:57:31.841,-0.006257353396653726,8.306424549826922
2025-03-08 14:57:31.861,-0.00513708681442082,6.7846001893450225
2025-03-08 14:57:31.880,-0.004136425693332287,4.950619278225371
2025-03-08 14:57:31.900,-0.0033217755824486972,2.895464854277277
2025-03-08 14:57:31.919,-0.002720231084032466,0.7333778656672163
2025-03-08 14:57:31.939,-0.002302430513292153,-1.4080866791273001
2025-03-08 14:57:31.958,-0.001977375134513388,-3.3986522300459128
2025-03-08 14:57:31.978,-0.0016037353182780645,-5.115422700192468
2025-03-08 14:57:31.997,-0.0010182912281224063,-6.451682736601579
2025-03-08 14:57:32.017,-7.661884756016244e-05,-7.324056466020744
2025-03-08 14:57:32.036,0.0013045160681951155,-7.678136745855983
2025-03-08 14:57:32.056,0.0031166846936246033,-7.492909741434255
2025-03-08 14:57:32.076,0.005252758897592574,-6.784139155095063
2025-03-08 14:57:32.095,0.007526999354124225,-5.606401701563484
2025-03-08 14:57:32.115,0.00971566591265882,-4.052929944008703
2025-03-08 14:57:32.134,0.011604457818482296,-2.2521331127359723
2025-03-08 14:57:32.154,0.013028782605648147,-0.35984555479050157
2025-03-08 14:57:32.173,0.013897989924831705,1.4529802559316929
2025-03-08 14:57:32.193,0.014201257381672223,3.0164153245046963
2025-03-08 14:57:32.212,0.013997850801852778,4.1797235359054055
2025-03-08 14:57:32.232,0.013397181436312976,4.828875292311718
2025-03-08 14:57:32.251,0.01253469948524783,4.900332048479518
2025-03-08 14:57:32.271,0.011548778412980661,4.38833056764368
2025-03-08 14:57:32.290,0.010562057127307041,3.3439418955543867
2025-03-08 14:57:32.310,0.009668867042255481,1.8657935612847851
2025-03-08 14:57:32.329,0.00892886997594195,0.08411945469124191
2025-03-08 14:57:32.349,0.008366148637173403,-1.858764004761712
2025-03-08 14:57:32.369,0.007972693254771976,-3.8277666703291646
2025-03-08 14:57:32.388,0.007715208123867895,-5.710536064518037
2025-03-08 14:57:32.408,0.007544117662824255,-7.4265749593689545
2025-03-08 14:57:32.427,0.007403525542614864,-8.928835172792503
2025-03-08 14:57:32.447,0.007240790243230984,-10.198245555070468
2025-03-08 14:57:32.466,0.007014425550295144,-11.233023761546058
2025-03-08 14:57:32.486,0.006699251314477191,-12.035593540649467
2025-03-08 14:57:32.505,0.00628813690639677,-12.600350380369894
2025-03-08 14:57:32.525,0.005790304538404915,-12.905317281677503
2025-03-08 14:57:32.544,0.00522689058382104,-12.909905354929368
2025-03-08 14:57:32.564,0.004625072944025737,-12.559664057813938
2025-03-08 14:57:32.583,0.004012317991512474,-11.797348385844447
2025-03-08 14:57:32.603,0.0034120490764309474,-10.57819140266701
2025-03-08 14:57:32.622,0.002841353033565174,-8.886239682136358
2025-03-08 14:57:32.642,0.002310515533297613,-6.748155526632446
2025-03-08 14:57:32.662,0.0018236198341519717,-4.241083738209886
2025-03-08 14:57:32.681,0.0013794174437748766,-1.4920353888020856
2025-03-08 14:57:32.701,0.0009721032548412855,1.3322907268444868
2025-03-08 14:57:32.720,0.0005921368104928477,4.044407569479664
2025-03-08 14:57:32.740,0.00022745916092135177,6.460777178963781
2025-03-08 14:57:32.759,-0.00013477062187727652,8.427834456280209
2025-03-08 14:57:32.779,-0.0005062325462002245,9.84399775159012
2025-03-08 14:57:32.798,-0.0008958487490372806,10.672931718270306
2025-03-08 14:57:32.818,-0.0013088721782125703,10.94521784846896
2025-03-08 14:57:32.837,-0.0017464798515932163,10.74832516263774
2025-03-08 14:57:32.857,-0.0022053078473582405,10.20752761352617
2025-03-08 14:57:32.876,-0.002676520308337398,9.462341391980644
2025-03-08 14:57:32.896,-0.003144676337018377,8.643638315760512
2025-03-08 14:57:32.915,-0.0035873334796750157,7.855807561667908
2025-03-08 14:57:32.935,-0.003976411840420888,7.1665934364236525
2025-03-08 14:57:32.954,-0.004281719476203606,6.605156425560282
2025-03-08 14:57:32.974,-0.004476134979642601,6.16709824489051
2025-03-08 14:57:32.994,-0.004541280329935835,5.8240757530118685
2025-03-08 14:57:33.013,-0.004472299445375308,5.535327438106296
2025-03-08 14:57:33.033,-0.0042804887943992355,5.258785628807657
2025-03-08 14:57:33.052,-0.003992898778889554,4.9601181846779365
2025-03-08 14:57:33.072,-0.0036486426527431756,4.618724599602996
2025-03-08 14:57:33.091,-0.003292474381670584,4.230247081051013
2025-03-08 14:57:33.111,-0.002967011684657165,3.805562125563039
2025-03-08 14:57:33.130,-0.002705463154506651,3.3665938128260047
2025-03-08 14:57:33.150,-0.002526625633805612,2.93971440021908
2025-03-08 14:57:33.169,-0.0024332389994283776,2.547954327440082
2025-03-08 14:57:33.189,-0.0024137580556256115,2.2036107324284275
2025-03-08 14:57:33.208,-0.0024466149147851527,1.902944071285129
2025-03-08 14:57:33.228,-0.0025055018328383662,1.6243563952565347
2025-03-08 14:57:33.247,-0.0025643127286092346,1.3307690760948703
2025-03-08 14:57:33.267,-0.0026009796428041626,0.9760355209713114
2025-03-08 14:57:33.287,-0.0026000926502736726,0.5143652774989796
2025-03-08 14:57:33.306,-0.0025545295325562654,-0.08892958586670532
2025-03-08 14:57:33.326,-0.002466267831737849,-0.8474438157711544
2025-03-08 14:57:33.345,-0.0023462738584230126,-1.7465869077590281
2025-03-08 14:57:33.365,-0.00221311352386941,-2.74121943784254
2025-03-08 14:57:33.384,-0.002089906138656359,-3.7591189440625015
2025-03-08 14:57:33.404,-0.001999531792012814,-4.710273932539361
2025-03-08 14:57:33.423,-0.0019586049369876963,-5.500698903489999
2025-03-08 14:57:33.443,-0.0019715009549284104,-6.048257095064417
2025-03-08 14:57:33.462,-0.0020263139689231735,-6.297240196896549
2025-03-08 14:57:33.482,-0.002094609638996943,-6.228491738706338
2025-03-08 14:57:33.501,-0.0021360262804107433,-5.8627681015258455
2025-03-08 14:57:33.521,-0.0021073782410515798,-5.256602328408726
2025-03-08 14:57:33.540,-0.0019744147867790953,-4.491703861141192
2025-03-08 14:57:33.560,-0.0017232802793718202,-3.660345975089517
2025-03-08 14:57:33.580,-0.0013683569708624335,-2.8498805286019295
2025-03-08 14:57:33.599,-0.0009537667150563917,-2.129408242504939
2025-03-08 14:57:33.619,-0.0005473410619469648,-1.5409177108512835
2025-03-08 14:57:33.638,-0.00022790195541616434,-1.0961652629626177
2025-03-08 14:57:33.658,-6.852339776105385e-05,-0.7794176539303491
2025-03-08 14:57:33.677,-0.00011954230198891584,-0.5550695593276421
2025-03-08 14:57:33.697,-0.0003952995039506311,-0.3782282104582886
2025-03-08 14:57:33.716,-0.0008679283692125057,-0.20581523331012097
2025-03-08 14:57:33.736,-0.0014700148877733522,-0.005748733855915393
2025-03-08 14:57:33.755,-0.0021058917454456877,0.23760260291567314
2025-03-08 14:57:33.775,-0.0026692534618155592,0.5224145604905917
2025-03-08 14:57:33.794,-0.003063283779006706,0.8323918904784894
2025-03-08 14:57:33.814,-0.00321894688280406,1.1424107616722836
2025-03-08 14:57:33.833,-0.003107615808761799,1.4251395650926861
2025-03-08 14:57:33.853,-0.002745616512242177,1.657062965013708
2025-03-08 14:57:33.873,-0.002190095931208062,1.822655309623285
2025-03-08 14:57:33.892,-0.001527324201468147,1.9158171716080514
2025-03-08 14:57:33.912,-0.0008557723756075134,1.9381262947647446
2025-03-08 14:57:33.931,-0.00026704672300669776,1.8940957106701737
2025-03-08 14:57:33.951,0.00017188142969241712,1.7845129411962868
2025-03-08 14:57:33.970,0.0004317581559069792,1.5998436825962146
2025-03-08 14:57:33.990,0.0005266830573257238,1.3162092571772115
2025-03-08 14:57:34.009,0.0005108553669995971,0.8962033747413648
2025-03-08 14:57:34.029,0.0004667854291367499,0.2956887070107307
2025-03-08 14:57:34.048,0.0004871874697450518,-0.5240329752080077
2025-03-08 14:57:34.068,0.0006542309621083879,-1.5811204087098378
2025-03-08 14:57:34.087,0.0010205368482008432,-2.8589373735600385
2025-03-08 14:57:34.107,0.0015961017236738612,-4.296787227477943
2025-03-08 14:57:34.126,0.0023442276188639006,-5.789005637203698
2025-03-08 14:57:34.146,0.003187639343491951,-7.193995207517234
2025-03-08 14:57:34.165,0.004023578110529017,-8.352429891021044
2025-03-08 14:57:34.185,0.00474436336356724,-9.111551240394068
2025-03-08 14:57:34.205,0.0052584700304568344,-9.35084417929469
2025-03-08 14:57:34.224,0.005507111173078485,-9.003845549708027
2025-03-08 14:57:34.244,0.005472680069954611,-8.07152183399468
2025-03-08 14:57:34.263,0.0051777412990090645,-6.624357240072186
2025-03-08 14:57:34.283,0.0046758256366566334,-4.792600290091145
2025-03-08 14:57:34.302,0.004037258945725469,-2.746508067533419
2025-03-08 14:57:34.322,0.00333402487703299,-0.670400363294299
2025-03-08 14:57:34.341,0.002627130319881554,1.2645025579473812
2025-03-08 14:57:34.361,0.0019585869842527644,2.923351130114735
2025-03-08 14:57:34.380,0.001348638980380021,4.222838949209264
2025-03-08 14:57:34.400,0.0007977392911576128,5.135812626331955
2025-03-08 14:57:34.419,0.00029211963816480526,5.685103249248226
2025-03-08 14:57:34.439,-0.0001885061976680289,5.928670492852263
2025-03-08 14:57:34.458,-0.000662651718169361,5.940008639376555
2025-03-08 14:57:34.478,-0.0011396953681743834,5.788693873656679
2025-03-08 14:57:34.498,-0.001614856002765334,5.525663329512798
2025-03-08 14:57:34.517,-0.0020676225908937904,5.176370408606427
2025-03-08 14:57:34.537,-0.0024641248977762876,4.742796064155525
2025-03-08 14:57:34.556,-0.0027630688641587077,4.213042704039474
2025-03-08 14:57:34.576,-0.00292407841900018,3.5754544335824376
2025-03-08 14:57:34.595,-0.0029167569565312895,2.833232415664128
2025-03-08 14:57:34.615,-0.0027284894300765635,2.0154783167607486
2025-03-08 14:57:34.634,-0.0023690319318153707,1.181482031465802
2025-03-08 14:57:34.654,-0.0018704994059042844,0.4167024618449186
2025-03-08 14:57:34.673,-0.0012824963057735553,-0.17907102346217754
2025-03-08 14:57:34.693,-0.0006634956056327418,-0.5089306435500134
2025-03-08 14:57:34.712,-7.06453418715509e-05,-0.4976265345585384
2025-03-08 14:57:34.732,0.00044941421837675356,-0.10770529526694603
2025-03-08 14:57:34.751,0.0008665529592403501,0.6505152679050701
2025-03-08 14:57:34.771,0.001168919376295828,1.7171466194463982
2025-03-08 14:57:34.791,0.0013608290009717652,2.9892502417659177
2025-03-08 14:57:34.810,0.0014582269590662446,4.33416127240827
2025-03-08 14:57:34.830,0.0014834970377698349,5.6070395878847314
2025-03-08 14:57:34.849,0.00146088365754735,6.669726277869055
2025-03-08 14:57:34.869,0.0014129006459894183,7.408188152135445
2025-03-08 14:57:34.888,0.0013574421239654884,7.7463209633908345
2025-03-08 14:57:34.908,0.0013052789454195345,7.654455158913405
2025-03-08 14:57:34.927,0.0012581411154133867,7.151520422096761
2025-03-08 14:57:34.947,0.001208161785765581,6.300540476927349
2025-03-08 14:57:34.966,0.001139551787873414,5.198007228421931
2025-03-08 14:57:34.986,0.0010328010966226986,3.9586778788875883
2025-03-08 14:57:35.005,0.0008707281828470203,2.698264150767891
2025-03-08 14:57:35.025,0.0006448142554977018,1.5170608724815826
2025-03-08 14:57:35.044,0.0003599071731789532,0.4875349818348404
2025-03-08 14:57:35.064,3.573966434326742e-05,-0.3518490665999754
2025-03-08 14:57:35.083,-0.00029535103816338024,-0.9956600572117559
2025-03-08 14:57:35.103,-0.0005939515664441871,-1.4641715447142452
2025-03-08 14:57:35.123,-0.0008208715660346608,-1.792033460693458
2025-03-08 14:57:35.142,-0.0009443831292653345,-2.016289946449949
2025-03-08 14:57:35.162,-0.0009458009386248061,-2.167138565117923
2025-03-08 14:57:35.181,-0.0008223627664469846,-2.2638576229858995
2025-03-08 14:57:35.201,-0.0005870219457249943,-2.3166078303668907
2025-03-08 14:57:35.220,-0.00026543076446545387,-2.332887886119123
2025-03-08 14:57:35.240,0.00010898213074527033,-2.325921032329928
2025-03-08 14:57:35.259,0.0005005258973802881,-2.32164393822697
2025-03-08 14:57:35.279,0.0008760480869233192,-2.361409248089453
2025-03-08 14:57:35.298,0.0012081922082673505,-2.4988092652261384
2025-03-08 14:57:35.318,0.0014769795144920514,-2.7907648169466883
2025-03-08 14:57:35.337,0.0016701189012140521,-3.284709736077377
2025-03-08 14:57:35.357,0.0017826150677452237,-4.004903187186949
2025-03-08 14:57:35.376,0.0018160813036998658,-4.941336140968317
2025-03-08 14:57:35.396,0.0017778459187175045,-6.044283501429156
2025-03-08 14:57:35.416,0.0016797048893149118,-7.226409707228198
2025-03-08 14:57:35.435,0.001536193495437169,-8.372733961179435
2025-03-08 14:57:35.455,0.0013624947708694032,-9.357041056744386
2025-03-08 14:57:35.474,0.0011723598498755616,-10.061822527094868
2025-03-08 14:57:35.494,0.0009764697593844715,-10.397861530913334
2025-03-08 14:57:35.513,0.0007814837431233526,-10.31940142351604
2025-03-08 14:57:35.533,0.0005897907218583198,-9.831607024658119
2025-03-08 14:57:35.552,0.0003999076325566144,-8.988638041246492
2025-03-08 14:57:35.572,0.00020749462432087672,-7.882719572068728
2025-03-08 14:57:35.591,6.909285382526226e-06,-6.62656475880913
2025-03-08 14:57:35.611,-0.00020690367584150153,-5.332875118036344
2025-03-08 14:57:35.630,-0.00043650476321134546,-4.095121212676526
2025-03-08 14:57:35.650,-0.000680459979966264,-2.9733575712504514
2025-03-08 14:57:35.669,-0.0009327652337874786,-1.9876315371068631
2025-03-08 14:57:35.689,-0.0011836151056226446,-1.1199075437653736
2025-03-08 14:57:35.709,-0.0014215296224162968,-0.3236893606639245
2025-03-08 14:57:35.728,-0.0016362841605452496,0.4609786108787686
2025-03-08 14:57:35.748,-0.001821673931008341,1.290419657357467
2025-03-08 14:57:35.767,-0.001977115812748868,2.201681333233357
2025-03-08 14:57:35.787,-0.0021074885989578384,3.201397744032982
2025-03-08 14:57:35.806,-0.0022212986977928257,4.26118148447386
2025-03-08 14:57:35.826,-0.0023279144889693086,5.3202667107022625
2025-03-08 14:57:35.845,-0.002434865104006236,6.294814229972316
2025-03-08 14:57:35.865,-0.0025459289704831394,7.092146964473521
2025-03-08 14:57:35.884,-0.0026602455066111457,7.6273261455188734
2025-03-08 14:57:35.904,-0.0027723838478820786,7.83900758588101
2025-03-08 14:57:35.923,-0.0028732745140708006,7.7015335220111005
2025-03-08 14:57:35.943,-0.0029519163200369914,7.230790729219268
2025-03-08 14:57:35.962,-0.002997643815947103,6.482493216390302
2025-03-08 14:57:35.982,-0.003002547871419008,5.543083641505367
2025-03-08 14:57:36.001,-0.002963530658995951,4.5150803813796
2025-03-08 14:57:36.021,-0.0028835230038058027,3.499998623834176
2025-03-08 14:57:36.041,-0.0027715676685017513,2.582539741119017
2025-03-08 14:57:36.060,-0.00264165345058607,1.819365636069105
2025-03-08 14:57:36.080,-0.002510258288518704,1.2345486150080742
2025-03-08 14:57:36.099,-0.0023925753728370764,0.822087824334875
2025-03-08 14:57:36.119,-0.002297575619384179,0.5542202701774339
2025-03-08 14:57:36.138,-0.0022225874707294466,0.3930725513827494
2025-03-08 14:57:36.158,-0.002148836915268316,0.3027262314100391
2025-03-08 14:57:36.177,-0.0020399302219889248,0.2589872127954629
2025-03-08 14:57:36.197,-0.0018450874049572112,0.2548796638131575
2025-03-08 14:57:36.216,-0.001507882595150792,0.3009114257880498
2025-03-08 14:57:36.236,-0.000979565467946542,0.42029863683987784
2025-03-08 14:57:36.255,-0.0002342633274166147,0.6404368364579409
2025-03-08 14:57:36.275,0.0007178501028109168,0.9827808558508867
2025-03-08 14:57:36.294,0.0018234566945275752,1.4537234133469645
2025-03-08 14:57:36.314,0.0029879802257896148,2.038863202764267
2025-03-08 14:57:36.334,0.004087353376998857,2.702220392374139
2025-03-08 14:57:36.353,0.004988371444635944,3.3907090516154907
2025-03-08 14:57:36.373,0.005574418789037405,4.042868600815411
2025-03-08 14:57:36.392,0.005771400342964926,4.599828190241574
2025-03-08 14:57:36.412,0.005566765802723405,5.015946189608069
2025-03-08 14:57:36.431,0.005014526712569604,5.266616626728462
2025-03-08 14:57:36.451,0.004223323989875512,5.351338912588398
2025-03-08 14:57:36.470,0.0033314555518434057,5.2911781970635525
2025-03-08 14:57:36.490,0.0024776206917395947,5.120993541221959
2025-03-08 14:57:36.509,0.0017760901877439687,4.878043825192776
2025-03-08 14:57:36.529,0.0013014141022407463,4.589568743411983
2025-03-08 14:57:36.548,0.001083625493961425,4.2624552925371635
2025-03-08 14:57:36.568,0.0011120322601426314,3.8779148571288697
2025-03-08 14:57:36.587,0.0013444734569660443,3.3930902095118456
2025-03-08 14:57:36.607,0.0017189461627409334,2.7498147352906166
2025-03-08 14:57:36.627,0.0021651890974672813,1.888800393185155
2025-03-08 14:57:36.646,0.0026147005540151044,0.7659670321266148
2025-03-08 14:57:36.666,0.0030085235660291094,-0.6330082047472264
2025-03-08 14:57:36.685,0.0033027465658392345,-2.2833443014458554
2025-03-08 14:57:36.705,0.0034719191491643015,-4.119038750233681
2025-03-08 14:57:36.724,0.003510554135357634,-6.038241087088911
2025-03-08 14:57:36.744,0.003432752001173844,-7.9148130318674035
2025-03-08 14:57:36.763,0.003269833106620312,-9.613777368938973
2025-03-08 14:57:36.783,0.003065781366502424,-11.00803703142384
2025-03-08 14:57:36.802,0.0028704427664067982,-11.993952069502093
2025-03-08 14:57:36.822,0.002730859682325907,-12.503823953587517
2025-03-08 14:57:36.841,0.0026817487745744548,-12.513821416661496
2025-03-08 14:57:36.861,0.002736736780357666,-12.046322076575029
2025-03-08 14:57:36.880,0.0028823403199030864,-11.166143076135125
2025-03-08 14:57:36.900,0.0030766107795160993,-9.970846952410003
2025-03-08 14:57:36.919,0.0032537051711940598,-8.576274670354152
2025-03-08 14:57:36.939,0.003334378750547814,-7.099505222582946
2025-03-08 14:57:36.959,0.0032407876617326324,-5.642245330512203
2025-03-08 14:57:36.978,0.0029125626013875717,-4.277888286390211
2025-03-08 14:57:36.998,0.0023204093162045854,-3.0449530968369998
2025-03-08 14:57:37.017,0.0014737885876410983,-1.9483210772232986
2025-03-08 14:57:37.037,0.0004205058513184781,-0.9678502201048366
2025-03-08 14:57:37.056,-0.000761919645290185,-0.07202569970058019
2025-03-08 14:57:37.076,-0.0019809352918434787,0.7671039722419201
2025-03-08 14:57:37.095,-0.0031458041601841328,1.5618375849507413
2025-03-08 14:57:37.115,-0.0041823808897106145,2.302882150135418
2025-03-08 14:57:37.134,-0.005042635900891488,2.9610733687541595
2025-03-08 14:57:37.154,-0.0057076543091091085,3.4960739180980926
2025-03-08 14:57:37.173,-0.006184821324178715,3.8694410212056103
2025-03-08 14:57:37.193,-0.006501353333108785,4.058320471854719
2025-03-08 14:57:37.212,-0.0066968648827704326,4.065937151505503
2025-03-08 14:57:37.232,-0.006817182561772999,3.9259571294000053
2025-03-08 14:57:37.252,-0.006910350215043064,3.6993896832080413
2025-03-08 14:57:37.271,-0.007024237793948946,3.4645457755366467
2025-03-08 14:57:37.291,-0.007204022092620962,3.30223268936966
2025-03-08 14:57:37.310,-0.007487559806083592,3.2794837297068953
2025-03-08 14:57:37.330,-0.007897496395362295,3.4354738103719673
2025-03-08 14:57:37.349,-0.008430643312093184,3.7728005922083185
2025-03-08 14:57:37.369,-0.009047175993732582,4.256130875793257
2025-03-08 14:57:37.388,-0.009663873989195292,4.818575280702391
2025-03-08 14:57:37.408,-0.010156346586836236,5.374401763831891
2025-03-08 14:57:37.427,-0.01037452620885473,5.835214748016841
2025-03-08 14:57:37.447,-0.010173382711554066,6.1258886116769595
2025-03-08 14:57:37.466,-0.009456787262454771,6.196631519937705
2025-03-08 14:57:37.486,-0.00822714535462839,6.028622817441084
2025-03-08 14:57:37.505,-0.006627914275935504,5.632455006210592
2025-03-08 14:57:37.525,-0.004962377737193227,5.040583758510586
2025-03-08 14:57:37.545,-0.0036724616129911888,4.296513660427116
2025-03-08 14:57:37.564,-0.0032676045697562026,3.444042836973974
2025-03-08 14:57:37.584,-0.0042056712190143555,2.5194295066478123
2025-03-08 14:57:37.603,-0.0067435071657097325,1.5480953486087545
2025-03-08 14:57:37.623,-0.010790012604757118,0.5459525684854754
2025-03-08 14:57:37.642,-0.0158044093277113,-0.4758626170491847
2025-03-08 14:57:37.662,-0.020782003570128188,-1.504828803951132
2025-03-08 14:57:37.681,-0.024356944547208915,-2.521556243012223
2025-03-08 14:57:37.701,-0.02502741244179833,-3.4966621869903904
2025-03-08 14:57:37.720,-0.021477479116633544,-4.39089338928261
2025-03-08 14:57:37.740,-0.012937637298875327,-5.158462892775698
2025-03-08 14:57:37.759,0.0004998466711421859,-5.752758291300085
2025-03-08 14:57:37.779,0.017705286602623323,-6.133068787684685
2025-03-08 14:57:37.798,0.03655709287813775,-6.270856887214367
2025-03-08 14:57:37.818,0.05424830730833587,-6.15434236566045
2025-03-08 14:57:37.838,0.0678263123452229,-5.790651722331972
2025-03-08 14:57:37.857,0.07485539912646844,-5.205341454019973
2025-03-08 14:57:37.877,0.0740202678749676,-4.439561269367866
2025-03-08 14:57:37.896,0.0654710857188899,-3.545398347120981
2025-03-08 14:57:37.916,0.05078277475483337,-2.5800687094223345
2025-03-08 14:57:37.935,0.032542803129797446,-1.5996975844492978
2025-03-08 14:57:37.955,0.01371579238383406,-0.6535195164472596
2025-03-08 14:57:37.974,-0.0030100677916951595,0.22060949341576078
2025-03-08 14:57:37.994,-0.015720021513964552,0.9985725172320418
2025-03-08 14:57:38.013,-0.023518028321315155,1.6697162589201309
