Timestamp,GSR_Filtered,PPG_Filtered
2025-07-14 16:47:27.860,-0.0005544293732196,59.81017294726237
2025-07-14 16:47:27.868,-0.0005226623667701,60.48718922917047
2025-07-14 16:47:27.876,-0.0004914978429814,61.206063778792455
2025-07-14 16:47:27.883,-0.0004616604381833,61.95255407828278
2025-07-14 16:47:27.891,-0.0004338164111149,62.712738912556375
2025-07-14 16:47:27.899,-0.0004085531831236,63.47336064092518
2025-07-14 16:47:27.907,-0.0003863614710489,64.22210986810504
2025-07-14 16:47:27.915,-0.0003676207870566,64.94784503698833
2025-07-14 16:47:27.922,-0.0003525889761422,65.64074241024582
2025-07-14 16:47:27.930,-0.0003413962152588,66.29237498081912
2025-07-14 16:47:27.938,-0.0003340435875971,66.89572191579708
2025-07-14 16:47:27.946,-0.0003304061226798,67.44511305594938
2025-07-14 16:47:27.954,-0.0003302401031526,67.93611563926632
2025-07-14 16:47:27.961,-0.0003331943669947,68.36537268871723
2025-07-14 16:47:27.969,-0.0003388251633012,68.73040432141835
2025-07-14 16:47:27.977,-0.000346613894458,69.02938453646019
2025-07-14 16:47:27.985,-0.0003559869456751,69.26090678022207
2025-07-14 16:47:27.993,-0.0003663368344943,69.4237517522546
2025-07-14 16:47:28.001,-0.0003770440275394,69.51667050201515
2025-07-14 16:47:28.008,-0.0003874988220822,69.53819489179367
2025-07-14 16:47:28.016,-0.000397122596401,69.48648599562532
2025-07-14 16:47:28.024,-0.0004053875672971,69.35922902218351
2025-07-14 16:47:28.032,-0.0004118341116417,69.15358097091246
2025-07-14 16:47:28.040,-0.000416084790147,68.86617455508885
2025-07-14 16:47:28.047,-0.000417854410853,68.49317906822185
2025-07-14 16:47:28.055,-0.0004169557116867,68.03041595925235
2025-07-14 16:47:28.063,-0.0004133004870247,67.47352405686998
2025-07-14 16:47:28.071,-0.0004068962208865,66.81816678574206
2025-07-14 16:47:28.079,-0.0003978385136103,66.06027147484856
2025-07-14 16:47:28.086,-0.0003862997946856,65.19628907006066
2025-07-14 16:47:28.094,-0.0003725149975423,64.22346130108976
2025-07-14 16:47:28.102,-0.0003567650288185,63.14008166856301
2025-07-14 16:47:28.110,-0.0003393589918241,61.94573654935242
2025-07-14 16:47:28.118,-0.0003206162189609,60.64151329619286
2025-07-14 16:47:28.126,-0.0003008492232928,59.23016344586168
2025-07-14 16:47:28.133,-0.0002803486616848,57.71621103846633
2025-07-14 16:47:28.141,-0.0002593712418262,56.10599853562508
2025-07-14 16:47:28.149,-0.0002381311654838,54.40766579554423
2025-07-14 16:47:28.157,-0.0002167952673637,52.63106084540801
2025-07-14 16:47:28.165,-0.000195481648034,50.78758457007488
2025-07-14 16:47:28.172,-0.0001742613972556,48.88997468115464
2025-07-14 16:47:28.180,-0.0001531629230743,46.95203722806628
2025-07-14 16:47:28.188,-0.0001321783728779,44.98833628552656
2025-07-14 16:47:28.196,-0.0001112716216422,43.013854173375165
2025-07-14 16:47:28.204,-9.038730246921188e-05,41.04363556708073
2025-07-14 16:47:28.211,-6.946036310764839e-05,39.092429135943696
2025-07-14 16:47:28.219,-4.842564726796476e-05,37.17433995409608
2025-07-14 16:47:28.227,-2.722701905985348e-05,35.30250496251365
2025-07-14 16:47:28.235,-5.825570796437328e-06,33.4888023355689
2025-07-14 16:47:28.243,1.5793523055725688e-05,31.743603844770533
2025-07-14 16:47:28.251,3.76159213507312e-05,30.07557733205639
2025-07-14 16:47:28.258,5.9595191787553125e-05,28.73418572591021
2025-07-14 16:47:28.266,8.165237775609933e-05,27.38414379133267
2025-07-14 16:47:28.274,0.0001036782265183,26.03041484571786
2025-07-14 16:47:28.282,0.0001255379488382,24.676458515999787
2025-07-14 16:47:28.290,0.0001470780284277,23.3242812916876
2025-07-14 16:47:28.297,0.0001681343601095,21.974551278031104
2025-07-14 16:47:28.305,0.0001885409533683,20.62677089995202
2025-07-14 16:47:28.313,0.0002081385471915,19.279498923872243
2025-07-14 16:47:28.321,0.000226782637935,17.930611153256596
2025-07-14 16:47:28.329,0.0002443505181976,16.577587600821435
2025-07-14 16:47:28.336,0.0002607469116704,15.217812910897386
2025-07-14 16:47:28.344,0.0002759077451291,13.848876338338346
2025-07-14 16:47:28.352,0.0002898016739697,12.468857697892703
2025-07-14 16:47:28.360,0.0003024292155136,11.076586366855135
2025-07-14 16:47:28.368,0.0003138196211627,9.67186161698248
2025-07-14 16:47:28.376,0.0003240257826098,8.255624211040184
2025-07-14 16:47:28.383,0.0003331174894206,6.830071251007365
2025-07-14 16:47:28.391,0.0003411733404017,5.398708625014283
2025-07-14 16:47:28.399,0.0003482717084616,3.966337979923324
2025-07-14 16:47:28.407,0.0003544814375254,2.538977856529691
2025-07-14 16:47:28.415,0.000359853300668,1.1237213754358804
2025-07-14 16:47:28.422,0.0003644134344289,-0.2714644365924873
2025-07-14 16:47:28.430,0.0003681598297547,-1.6379900318975644
2025-07-14 16:47:28.438,0.0003710625548214,-2.966935476485058
2025-07-14 16:47:28.446,0.0003730678708527,-4.249371403937255
2025-07-14 16:47:28.454,0.0003741059071197,-5.476695336719347
2025-07-14 16:47:28.461,0.0003741011431382,-6.640968928535171
2025-07-14 16:47:28.469,0.0003729846272097,-7.735241269771079
2025-07-14 16:47:28.477,0.0003707066545603,-8.75384359654859
2025-07-14 16:47:28.485,0.0003672485453114,-9.692641562935016
2025-07-14 16:47:28.493,0.000362632208166,-10.549232683076008
2025-07-14 16:47:28.501,0.0003569263515732,-11.32307863350424
2025-07-14 16:47:28.508,0.0003502485074289,-12.01556481757371
2025-07-14 16:47:28.516,0.0003427624558771,-12.629982878629956
2025-07-14 16:47:28.524,0.0003346711666104,-13.171435575560658
2025-07-14 16:47:28.532,0.0003262059491965,-13.646667388525977
2025-07-14 16:47:28.540,0.00031761300746,-14.063828121160729
2025-07-14 16:47:28.547,0.0003091388554188,-14.432180299825111
2025-07-14 16:47:28.555,0.000301015993182,-14.761764060419935
2025-07-14 16:47:28.563,0.0002934499410012,-15.06303525477618
2025-07-14 16:47:28.571,0.0002866083525509,-15.346493599004416
2025-07-14 16:47:28.579,0.0002806125979782,-15.622317822192414
2025-07-14 16:47:28.586,0.000275531974622,-15.90002402776192
2025-07-14 16:47:28.594,0.0002713805833059,-16.188161966799722
2025-07-14 16:47:28.602,0.0002681169000589,-16.494061773484326
2025-07-14 16:47:28.610,0.0002656461448522,-16.82364105873025
2025-07-14 16:47:28.618,0.0002638256221447,-17.181279227563742
2025-07-14 16:47:28.626,0.000262473198862,-17.56976260605537
2025-07-14 16:47:28.633,0.0002613789615959,-17.990300566034612
2025-07-14 16:47:28.641,0.0002603198607179,-18.442609457939398
2025-07-14 16:47:28.649,0.0002590768137316,-18.9250579481641
2025-07-14 16:47:28.657,0.0002574533489816,-19.43486445448371
2025-07-14 16:47:28.665,0.0002552945202738,-19.968334925393304
2025-07-14 16:47:28.672,0.0002525046032182,-20.521127347579867
2025-07-14 16:47:28.680,0.0002490620381767,-21.0885281965887
2025-07-14 16:47:28.688,0.0002450302228226,-21.665725637606155
2025-07-14 16:47:28.696,0.0002405630726769,-22.24806465774368
2025-07-14 16:47:28.704,0.0002359047207579,-22.8312704424592
2025-07-14 16:47:28.711,0.0002313832300756,-23.411628130735817
2025-07-14 16:47:28.719,0.0002273986505374,-23.98610949945786
2025-07-14 16:47:28.727,0.000224406120296,-24.552440017315284
2025-07-14 16:47:28.735,0.0002228949814833,-25.109102935940815
2025-07-14 16:47:28.743,0.0002233650456674,-25.65528050192365
2025-07-14 16:47:28.751,0.0002263012347892,-26.190735820770925
2025-07-14 16:47:28.758,0.0002321479131372,-26.715642222725165
2025-07-14 16:47:28.766,0.0002412843508098,-27.230370012442517
2025-07-14 16:47:28.774,0.0002540028395393,-27.735243076446466
2025-07-14 16:47:28.782,0.0002704908689561,-28.23027982799799
2025-07-14 16:47:28.790,0.0002908183928117,-28.71493425784451
2025-07-14 16:47:28.797,0.000314930657514,-29.187853329827732
2025-07-14 16:47:28.805,0.0003426464981414,-29.64666655515605
2025-07-14 16:47:28.813,0.0003736615555741,-30.08782229370596
2025-07-14 16:47:28.821,0.0004075555838435,-30.50648321453999
2025-07-14 16:47:28.829,0.0004438029121175,-30.896490501127666
2025-07-14 16:47:28.836,0.0004817851965037,-31.250402954288425
2025-07-14 16:47:28.844,0.0005208058056427,-31.55961330706355
2025-07-14 16:47:28.852,0.0005601054459184,-31.814540020874297
2025-07-14 16:47:28.860,0.0005988788554311,-32.00488878853603
2025-07-14 16:47:28.868,0.0006362925396505,-32.11997413078167
2025-07-14 16:47:28.876,0.0006715035809432,-32.14908803386985
2025-07-14 16:47:28.883,0.0007036795280475,-32.08189971859987
2025-07-14 16:47:28.891,0.0007320192900369,-31.908868519808465
2025-07-14 16:47:28.899,0.0007557748713271,-31.62165063147713
2025-07-14 16:47:28.907,0.0007742736700761,-31.21348024701224
2025-07-14 16:47:28.915,0.0007869408449604,-30.679506462798567
2025-07-14 16:47:28.922,0.0007933209486114,-30.01706921289628
2025-07-14 16:47:28.930,0.0007930977662987,-29.22590037292722
2025-07-14 16:47:28.938,0.0007861111782882,-28.308239833260632
2025-07-14 16:47:28.946,0.0007723698537904,-27.268860551486807
2025-07-14 16:47:28.954,0.0007520586556586,-26.115001072766063
2025-07-14 16:47:28.961,0.0007255398382709,-24.856208465630203
2025-07-14 16:47:28.969,0.0006933474913904,-23.504098782771983
2025-07-14 16:47:28.977,0.000656175141846,-22.07204577548593
2025-07-14 16:47:28.985,0.0006148568211469,-20.57481147545413
2025-07-14 16:47:28.993,0.0005703421611314,-19.028134290193645
2025-07-14 16:47:29.001,0.000523666261877,-17.448291399349156
2025-07-14 16:47:29.008,0.0004759153016356,-15.851652519233198
2025-07-14 16:47:29.016,0.0004281891272747,-14.254241605511492
2025-07-14 16:47:29.024,0.0003815622596259,-12.671321902733265
2025-07-14 16:47:29.032,0.0003370447995074,-11.117018053404234
2025-07-14 16:47:29.040,0.0002955446987244,-9.60398688110216
2025-07-14 16:47:29.047,0.0002578328817866,-8.143146089315376
2025-07-14 16:47:29.055,0.0002245127680342,-6.743467585996404
2025-07-14 16:47:29.063,0.0001959957338381,-5.411839554627679
2025-07-14 16:47:29.071,0.0001724838928785,-4.152998835103348
2025-07-14 16:47:29.079,0.000153961298657,-2.9695327328325534
2025-07-14 16:47:29.086,0.000140194335342,-1.861947116431988
2025-07-14 16:47:29.094,0.0001307416245014,-0.8287956595979508
2025-07-14 16:47:29.102,0.0001249732087062,0.1331366140949007
2025-07-14 16:47:29.110,0.0001220981737791,1.0286036776749687
2025-07-14 16:47:29.118,0.0001211994009785,1.8636319317289551
2025-07-14 16:47:29.126,0.0001212738805846,2.64522657350972
2025-07-14 16:47:29.133,0.0001212769045101,3.381061110726604
2025-07-14 16:47:29.141,0.0001201683436198,4.079160306427725
2025-07-14 16:47:29.149,0.0001169590327302,4.747586681583752
2025-07-14 16:47:29.157,0.0001107551150061,5.394140332688811
2025-07-14 16:47:29.165,0.0001007981911945,6.026081264532552
2025-07-14 16:47:29.172,8.649935176362132e-05,6.649882698227044
2025-07-14 16:47:29.180,6.74655685379653e-05,7.271022876942763
2025-07-14 16:47:29.188,4.351733392455408e-05,7.893821728738995
2025-07-14 16:47:29.196,1.4696778146817582e-05,8.521327330377234
2025-07-14 16:47:29.204,-1.873416005378824e-05,9.155255440247322
2025-07-14 16:47:29.212,-5.630544373216757e-05,9.795983459748705
2025-07-14 16:47:29.219,-9.735977210563636e-05,10.442598107969548
2025-07-14 16:47:29.227,-0.0001410810126236,11.092993952437242
2025-07-14 16:47:29.235,-0.0001865281291847,11.74401783950487
2025-07-14 16:47:29.243,-0.0002326723627453,12.391652315111678
2025-07-14 16:47:29.251,-0.0002784357093936,13.031229405794775
2025-07-14 16:47:29.258,-0.0003227292183116,13.657664712349083
2025-07-14 16:47:29.266,-0.0003644900230013,14.265700727568058
2025-07-14 16:47:29.274,-0.0004027161988351,14.850147713359386
2025-07-14 16:47:29.282,-0.0004364985652247,15.406110460685449
2025-07-14 16:47:29.290,-0.000465048566413,15.929189895140375
2025-07-14 16:47:29.297,-0.000487721453473,16.415649823439608
2025-07-14 16:47:29.305,-0.0005040341143478,16.862541110939915
2025-07-14 16:47:29.313,-0.0005136770159592,17.26777811999549
2025-07-14 16:47:29.321,-0.0005165198769225,17.630165124130002
2025-07-14 16:47:29.329,-0.000512610925031,17.949373391358098
2025-07-14 16:47:29.337,-0.0005021698657644,18.22587244479235
2025-07-14 16:47:29.344,-0.0004855749508978,18.46082144847825
2025-07-14 16:47:29.352,-0.0004633448303531,18.65592859432248
2025-07-14 16:47:29.360,-0.000436116229351,18.81328772100103
2025-07-14 16:47:29.368,-0.0004046188291488,18.935202175137857
2025-07-14 16:47:29.376,-0.0003696488912613,19.02400616137795
2025-07-14 16:47:29.383,-0.0003320430809854,19.08189356965931
2025-07-14 16:47:29.391,-0.0002926536930795,19.110763568122834
2025-07-14 16:47:29.399,-0.0002523262177782,19.112091163414068
2025-07-14 16:47:29.407,-0.0002118799954999,19.08682951442529
2025-07-14 16:47:29.415,-0.0001720925311029,19.035349104104498
2025-07-14 16:47:29.422,-0.0001336877662858,18.957416997203374
2025-07-14 16:47:29.430,-9.73282500090835e-05,18.85221741653172
2025-07-14 16:47:29.438,-6.361082520147003e-05,18.718412836858352
2025-07-14 16:47:29.446,-3.306524940749796e-05,18.55424280627437
2025-07-14 16:47:29.454,-6.155053517998649e-06,18.357655843740257
2025-07-14 16:47:29.462,1.672012670342017e-05,18.12646811184239
2025-07-14 16:47:29.469,3.522149595030273e-05,17.85854119836079
2025-07-14 16:47:29.477,4.906793830515669e-05,17.551970312099517
2025-07-14 16:47:29.485,5.803320139152085e-05,17.205273540120885
2025-07-14 16:47:29.493,6.194380385774568e-05,16.817572545163763
2025-07-14 16:47:29.501,6.067806994852444e-05,16.38875521852201
2025-07-14 16:47:29.508,5.416670526520917e-05,15.919611355466456
2025-07-14 16:47:29.516,4.239521967843463e-05,15.41193338914999
2025-07-14 16:47:29.524,2.540825327993144e-05,14.868575591430345
2025-07-14 16:47:29.532,3.3154835823965578e-06,14.29346689031557
2025-07-14 16:47:29.540,-2.370166143802538e-05,13.6915745033833
2025-07-14 16:47:29.547,-5.53836540515624e-05,13.068817857239893
2025-07-14 16:47:29.555,-9.13882146646932e-05,12.431934642787912
2025-07-14 16:47:29.563,-0.0001312885419702,11.788303215580743
2025-07-14 16:47:29.571,-0.0001745752194419,11.145727755941648
2025-07-14 16:47:29.579,-0.0002206621178672,10.512194529072712
2025-07-14 16:47:29.587,-0.0002688961807289,9.89560912401543
2025-07-14 16:47:29.594,-0.0003185706308404,9.3035256206406
2025-07-14 16:47:29.602,-0.0003689408860093,8.742879183116942
2025-07-14 16:47:29.610,-0.000419242328826,8.219733582392486
2025-07-14 16:47:29.618,-0.0004687090370816,7.739054611821512
2025-07-14 16:47:29.626,-0.0005165926399372,7.304519306568781
2025-07-14 16:47:29.633,-0.0005621805897635,6.918369360306389
2025-07-14 16:47:29.641,-0.0006048132497867,6.581315229291078
2025-07-14 16:47:29.649,-0.0006438992410945,6.292495226945427
2025-07-14 16:47:29.657,-0.0006789285171918,6.049491562172109
2025-07-14 16:47:29.665,-0.0007094827167232,5.84840288738273
2025-07-14 16:47:29.672,-0.0007352425121022,5.683970617502507
2025-07-14 16:47:29.680,-0.0007559919210508,5.549754167674325
2025-07-14 16:47:29.688,-0.0007716198420792,5.4383484274206815
2025-07-14 16:47:29.696,-0.0007821192998073,5.341635310998173
2025-07-14 16:47:29.704,-0.0007875849200636,5.25106013621273
2025-07-14 16:47:29.712,-0.0007882090017354,5.157922897673882
2025-07-14 16:47:29.719,-0.0007842763362037,5.0536742057193536
2025-07-14 16:47:29.727,-0.0007761577344791,4.930205737364725
2025-07-14 16:47:29.735,-0.0007643020316937,4.780125461367469
2025-07-14 16:47:29.743,-0.00074922612312,4.597008618942266
2025-07-14 16:47:29.751,-0.000731502439039,4.375616418783292
2025-07-14 16:47:29.758,-0.0007117433428424,4.112075585990418
2025-07-14 16:47:29.766,-0.0006905823089448,3.804013233329208
2025-07-14 16:47:29.774,-0.0006686523188733,3.4506429495407294
2025-07-14 16:47:29.782,-0.0006465625037288,3.0527994837155155
2025-07-14 16:47:29.790,-0.0006248744564367,2.612920919479969
2025-07-14 16:47:29.797,-0.0006040797491667,2.134978757618307
2025-07-14 16:47:29.805,-0.0005845800861511,1.6243578401158851
2025-07-14 16:47:29.813,-0.0005666713484161,1.087689526550366
2025-07-14 16:47:29.821,-0.0005505326249015,0.5326429457198448
2025-07-14 16:47:29.829,-0.0005362211078585,-0.0323195369541839
2025-07-14 16:47:29.837,-0.0005236733513774,-0.5982152981574995
2025-07-14 16:47:29.844,-0.0005127128661987,-1.1558344931646305
2025-07-14 16:47:29.852,-0.0005030635123209,-1.696043891472992
2025-07-14 16:47:29.860,-0.0004943678134302,-2.210091602164495
2025-07-14 16:47:29.868,-0.0004862091678874,-2.689902392862138
2025-07-14 16:47:29.876,-0.0004781368537148,-3.128353232313699
2025-07-14 16:47:29.883,-0.0004696926175789,-3.519518975484605
2025-07-14 16:47:29.891,-0.0004604375020896,-3.858878806626136
2025-07-14 16:47:29.899,-0.0004499774757131,-4.143475191983814
2025-07-14 16:47:29.907,-0.0004379864584484,-4.372018678137214
2025-07-14 16:47:29.915,-0.0004242254895075,-4.544933878651005
2025-07-14 16:47:29.922,-0.000408556987053,-4.664344352139122
2025-07-14 16:47:29.930,-0.0003909532516038,-4.733996675966157
2025-07-14 16:47:29.938,-0.0003714986085627,-4.75912671188219
2025-07-14 16:47:29.946,-0.0003503849364881,-4.746273671235685
2025-07-14 16:47:29.954,-0.0003279007723529,-4.703049943417565
2025-07-14 16:47:29.962,-0.000304414641326,-4.637876594310706
2025-07-14 16:47:29.969,-0.0002803536387691,-4.559695847216495
2025-07-14 16:47:29.977,-0.0002561785538313,-4.477672645402089
2025-07-14 16:47:29.985,-0.0002323569877764,-4.400897532221331
2025-07-14 16:47:29.993,-0.0002093360255476,-4.338102596812733
2025-07-14 16:47:30.001,-0.0001875160637714,-4.297401194844823
2025-07-14 16:47:30.008,-0.0001672273384315,-4.286060666044058
2025-07-14 16:47:30.016,-0.0001487105057093,-4.310315438120759
2025-07-14 16:47:30.024,-0.0001321023425013,-4.3752258277131295
2025-07-14 16:47:30.032,-0.0001174273002326,-4.484585616549508
2025-07-14 16:47:30.040,-0.000104595276209,-4.640879191977124
2025-07-14 16:47:30.047,-9.340553360548436e-05,-4.845286798196601
2025-07-14 16:47:30.055,-8.355622216783389e-05,-5.097734352850368
2025-07-14 16:47:30.063,-7.465854313132391e-05,-5.396982442532167
2025-07-14 16:47:30.071,-6.625439376001466e-05,-5.740747608060047
2025-07-14 16:47:30.079,-5.783632403312455e-05,-6.125847936774984
2025-07-14 16:47:30.087,-4.88687252140155e-05,-6.5483643423007925
2025-07-14 16:47:30.094,-3.88092671693812e-05,-7.003808750281861
2025-07-14 16:47:30.102,-2.7129741473856662e-05,-7.487290707758115
2025-07-14 16:47:30.110,-1.3335682950474296e-05,-7.9936746516319905
2025-07-14 16:47:30.118,3.015648922631295e-06,-8.517721144869522
2025-07-14 16:47:30.126,2.229926408165805e-05,-9.05420674157444
2025-07-14 16:47:30.133,4.480878944735681e-05,-9.598018691103835
2025-07-14 16:47:30.141,7.074559331117761e-05,-10.14422235216643
2025-07-14 16:47:30.149,0.0001002110498447,-10.688100876794378
2025-07-14 16:47:30.157,0.0001332021394031,-11.225168359798152
2025-07-14 16:47:30.165,0.0001696103762907,-11.751159152977516
2025-07-14 16:47:30.172,0.0002092238931104,-12.261997342541642
2025-07-14 16:47:30.180,0.0002517324282474,-12.753751423914087
2025-07-14 16:47:30.188,0.0002967349583335,-13.222579939994269
2025-07-14 16:47:30.196,0.0003437497803157,-13.6646742548292
2025-07-14 16:47:30.204,0.0003922269437877,-14.076204706317696
2025-07-14 16:47:30.212,0.000441562980087,-14.453276121729171
2025-07-14 16:47:30.219,0.0004911178160622,-14.791898102928556
2025-07-14 16:47:30.227,0.0005402336389144,-15.087974623310128
2025-07-14 16:47:30.235,0.0005882553386966,-15.337316370451363
2025-07-14 16:47:30.243,0.000634551957036,-15.53567797592523
2025-07-14 16:47:30.251,0.0006785382830223,-15.678820862725471
2025-07-14 16:47:30.258,0.0007196954510142,-15.762600977399552
2025-07-14 16:47:30.266,0.0007575892667971,-15.783079218706394
2025-07-14 16:47:30.274,0.0007918850942549,-15.736650981453357
2025-07-14 16:47:30.282,0.0008223584031223,-15.620189953075444
2025-07-14 16:47:30.290,0.00084890035761,-15.431200180860303
2025-07-14 16:47:30.297,0.0008715180340669,-15.16796952052772
2025-07-14 16:47:30.305,0.0008903290600717,-14.829716932585024
2025-07-14 16:47:30.313,0.0009055507775996,-14.416725755089251
2025-07-14 16:47:30.321,0.0009174844427658,-13.930455082845803
2025-07-14 16:47:30.329,0.000926495360948,-13.373621746724483
2025-07-14 16:47:30.337,0.0009329901338019,-12.750246127601244
2025-07-14 16:47:30.344,0.0009373923950243,-12.065656160599795
2025-07-14 16:47:30.352,0.0009401185734162,-11.32644537139196
2025-07-14 16:47:30.360,0.000941555292847,-10.540382599045987
2025-07-14 16:47:30.368,0.0009420399226326,-9.716273137475978
2025-07-14 16:47:30.376,0.0009418455058206,-8.86377328366103
2025-07-14 16:47:30.383,0.0009411708272835,-7.993162603848268
2025-07-14 16:47:30.391,0.0009401357870931,-7.115080487041155
2025-07-14 16:47:30.399,0.000938781651072,-6.240235609230078
2025-07-14 16:47:30.407,0.0009370753358678,-5.379098652031827
2025-07-14 16:47:30.415,0.0009349167658242,-4.5415898971785245
2025-07-14 16:47:30.422,0.0009321485154364,-3.7367740741780784
2025-07-14 16:47:30.430,0.0009285673077757,-2.972575026710081
2025-07-14 16:47:30.438,0.0009239372722143,-2.255522374276826
2025-07-14 16:47:30.446,0.0009180049770252,-1.5905414032955334
2025-07-14 16:47:30.454,0.00091051606322,-0.9807959758018466
2025-07-14 16:47:30.462,0.0009012328969949,-0.4275923591869683
2025-07-14 16:47:30.469,0.0008899522274513,0.0696503709378891
2025-07-14 16:47:30.477,0.0008765215833183,0.5133602441162658
2025-07-14 16:47:30.485,0.0008608531530829,0.907702262178564
2025-07-14 16:47:30.493,0.0008429340986535,1.2584007177339058
2025-07-14 16:47:30.501,0.0008228325028323,1.5724993260364246
2025-07-14 16:47:30.508,0.0008006983635704,1.8580672818173856
2025-07-14 16:47:30.516,0.0007767592881958,2.123861859792766
2025-07-14 16:47:30.524,0.0007513109157005,2.3789603132733945
2025-07-14 16:47:30.532,0.0007247025940146,2.6323754715068635
2025-07-14 16:47:30.540,0.0006973193281309,2.8926704978754496
2025-07-14 16:47:30.547,0.0006695613707481,3.167588681116837
2025-07-14 16:47:30.555,0.0006418230060937,3.463713851240655
2025-07-14 16:47:30.563,0.000614472074259,3.786176028896867
2025-07-14 16:47:30.571,0.0005878316251096,4.138415250736759
2025-07-14 16:47:30.579,0.0005621648582003,4.522014219265372
2025-07-14 16:47:30.587,0.0005376642537013,4.936607597679234
2025-07-14 16:47:30.594,0.0005144454932848,5.37987253676809
2025-07-14 16:47:30.602,0.0004925463801155,5.847601536612328
2025-07-14 16:47:30.610,0.0004719305798176,6.3338551795527405
2025-07-14 16:47:30.618,0.0004524957430229,6.83118879409484
2025-07-14 16:47:30.626,0.0004340854405805,7.330943883856179
2025-07-14 16:47:30.633,0.0004165042328281,7.823592324975875
2025-07-14 16:47:30.641,0.0003995350296838,8.299119022047131
2025-07-14 16:47:30.649,0.0003829577192316,8.747427018333916
2025-07-14 16:47:30.657,0.000366567896085,9.158748059407245
2025-07-14 16:47:30.665,0.0003501943678971,9.524041359119243
2025-07-14 16:47:30.672,0.0003337139316424,9.835363826193538
2025-07-14 16:47:30.680,0.0003170618105905,10.086196256979648
2025-07-14 16:47:30.688,0.0003002363476203,10.27171193405191
2025-07-14 16:47:30.696,0.0002832971670588,10.388976614552009
2025-07-14 16:47:30.704,0.0002663568789178,10.437071942723929
2025-07-14 16:47:30.712,0.0002495671801241,10.417137744995696
2025-07-14 16:47:30.719,0.0002331007236488,10.33233230275324
2025-07-14 16:47:30.727,0.0002171304409361,10.18771336583462
2025-07-14 16:47:30.735,0.0002018082176942,9.990046174462492
2025-07-14 16:47:30.743,0.000187244914079,9.747547904744186
2025-07-14 16:47:30.751,0.0001734936137351,9.469580568150471
2025-07-14 16:47:30.758,0.0001605376577246,9.166306344577912
2025-07-14 16:47:30.766,0.0001482844791945,8.848320533374352
2025-07-14 16:47:30.774,0.0001365655525076,8.526277745990134
2025-07-14 16:47:30.782,0.0001251420426199,8.210526664143964
2025-07-14 16:47:30.790,0.0001137151666394,7.910767708293069
2025-07-14 16:47:30.797,0.0001019399802109,7.635746384511965
2025-07-14 16:47:30.805,8.944128492194994e-05,7.3929930020237
2025-07-14 16:47:30.813,7.583051537108317e-05,7.188616992163502
2025-07-14 16:47:30.821,6.072264752483402e-05,7.027161340005464
2025-07-14 16:47:30.829,4.375229047442192e-05,6.911519800545379
2025-07-14 16:47:30.837,2.458824685596875e-05,6.842916755129725
2025-07-14 16:47:30.844,2.9460618561174028e-06,6.820946909063282
2025-07-14 16:47:30.852,-2.1401580633424564e-05,6.843669661107704
2025-07-14 16:47:30.860,-4.861644262391949e-05,6.907750989515973
2025-07-14 16:47:30.868,-7.878795392367585e-05,7.0086441704022
2025-07-14 16:47:30.876,-0.0001119277346968,7.1407996194776215
2025-07-14 16:47:30.883,-0.0001479652639528,7.297893647316523
2025-07-14 16:47:30.891,-0.0001867448538002,7.473065931845716
2025-07-14 16:47:30.899,-0.0002280244084348,7.659156001703747
2025-07-14 16:47:30.907,-0.0002714766046052,7.848929929934867
2025-07-14 16:47:30.915,-0.0003166930474677,8.035289683344878
2025-07-14 16:47:30.922,-0.0003631917019213,8.21145907256836
2025-07-14 16:47:30.930,-0.000410427626132,8.371141907206612
2025-07-14 16:47:30.938,-0.000457806828923,8.50864967931909
2025-07-14 16:47:30.946,-0.0005047029035175,8.618997776312368
2025-07-14 16:47:30.954,-0.0005504759179363,8.697970766150949
2025-07-14 16:47:30.962,-0.0005944929148938,8.742158622469756
2025-07-14 16:47:30.969,-0.0006361493326729,8.748966804028136
2025-07-14 16:47:30.977,-0.0006748906293341,8.716603838480825
2025-07-14 16:47:30.985,-0.0007102332648157,8.644050480588264
2025-07-14 16:47:30.993,-0.0007417839756014,8.531014642307646
2025-07-14 16:47:31.001,-0.0007692560939844,8.377876168503018
2025-07-14 16:47:31.008,-0.0007924816367378,8.185625208816639
2025-07-14 16:47:31.016,-0.0008114180542205,7.955797467477108
2025-07-14 16:47:31.024,-0.0008261488897646,7.690409051872688
2025-07-14 16:47:31.032,-0.0008368781161079,7.3918930380720385
2025-07-14 16:47:31.040,-0.000843918496751,7.063039269649444
2025-07-14 16:47:31.047,-0.0008476748691225,6.706938335789679
2025-07-14 16:47:31.055,-0.0008486237162729,6.326930156093942
2025-07-14 16:47:31.063,-0.0008472907345052,5.926557147898771
2025-07-14 16:47:31.071,-0.0008442282324375,5.509521579244178
2025-07-14 16:47:31.079,-0.0008399940683438,5.07964642319137
2025-07-14 16:47:31.087,-0.0008351334976706,4.640838825286583
2025-07-14 16:47:31.094,-0.0008301648507712,4.197055168438534
2025-07-14 16:47:31.102,-0.000825569447363,3.752266661385039
2025-07-14 16:47:31.110,-0.0008217856302885,3.3104243855391404
2025-07-14 16:47:31.118,-0.0008192063607167,2.8754228119413905
2025-07-14 16:47:31.126,-0.0008181795232941,2.4510609481098915
2025-07-14 16:47:31.133,-0.00081900990913,2.041000493196078
2025-07-14 16:47:31.141,-0.0008219617386673,1.6487206618462418
2025-07-14 16:47:31.149,-0.000827260600353,1.2774696684867073
2025-07-14 16:47:31.157,-0.0008350938550568,0.930213225375238
2025-07-14 16:47:31.165,-0.0008456088390908,0.6095807789972414
2025-07-14 16:47:31.172,-0.000858908535095,0.3178105715930144
2025-07-14 16:47:31.180,-0.0008750447985145,0.0566949526850073
2025-07-14 16:47:31.188,-0.0008940097477813,-0.1724723337563595
2025-07-14 16:47:31.196,-0.0009157264462382,-0.3689449106130509
2025-07-14 16:47:31.204,-0.0009400403507121,-0.5325664150383848
2025-07-14 16:47:31.212,-0.0009667130573434,-0.6638047591780125
2025-07-14 16:47:31.219,-0.0009954196343624,-0.763775706688491
2025-07-14 16:47:31.227,-0.0010257504014608,-0.8342535357687157
2025-07-14 16:47:31.235,-0.0010572175589043,-0.8776667261279875
2025-07-14 16:47:31.243,-0.0010892666802158,-0.8970768780311453
2025-07-14 16:47:31.251,-0.0011212927330923,-0.8961394514909332
2025-07-14 16:47:31.258,-0.0011526599504813,-0.8790454052311127
2025-07-14 16:47:31.266,-0.0011827245898716,-0.8504434154372431
2025-07-14 16:47:31.274,-0.0012108594447609,-0.8153430551264397
2025-07-14 16:47:31.282,-0.0012364788697522,-0.7790001025728869
2025-07-14 16:47:31.290,-0.0012590630099026,-0.7467860021711814
2025-07-14 16:47:31.297,-0.0012781799317574,-0.7240443960251965
2025-07-14 16:47:31.305,-0.0012935044820586,-0.715938541125427
2025-07-14 16:47:31.313,-0.001304832905115,-0.7272942737344296
2025-07-14 16:47:31.321,-0.0013120924840163,-0.7624439156421655
2025-07-14 16:47:31.329,-0.0013153457725725,-0.8250770650610367
2025-07-14 16:47:31.337,-0.0013147893849903,-0.9181045077337836
2025-07-14 16:47:31.344,-0.0013107477182524,-1.0435414607223712
2025-07-14 16:47:31.352,-0.0013036622427225,-1.2024159795532086
2025-07-14 16:47:31.360,-0.0012940770351295,-1.394707601348085
2025-07-14 16:47:31.368,-0.0012826211180884,-1.619320177270532
2025-07-14 16:47:31.376,-0.0012699880653216,-1.874091419790274
2025-07-14 16:47:31.383,-0.0012569133201366,-2.155840042946052
2025-07-14 16:47:31.391,-0.0012441497223739,-2.460449622425527
2025-07-14 16:47:31.399,-0.001232441803319,-2.7829865732263595
2025-07-14 16:47:31.407,-0.0012224995305808,-3.117848056778419
2025-07-14 16:47:31.415,-0.0012149723986338,-3.4589342882012475
2025-07-14 16:47:31.422,-0.0012104249758848,-3.799838690255625
2025-07-14 16:47:31.430,-0.0012093150804504,-4.134048672579679
2025-07-14 16:47:31.438,-0.0012119755890413,-4.455149510108491
2025-07-14 16:47:31.446,-0.0012186005585823,-4.757023833719751
2025-07-14 16:47:31.454,-0.0012292360108961,-5.034039590337429
2025-07-14 16:47:31.462,-0.0012437754844599,-5.2812199290654425
2025-07-14 16:47:31.469,-0.0012619602596117,-5.4943892726609525
2025-07-14 16:47:31.477,-0.0012833839727978,-5.670290795719033
2025-07-14 16:47:31.485,-0.001307501195278,-5.806671622982962
2025-07-14 16:47:31.493,-0.0013336395041235,-5.902333268840025
2025-07-14 16:47:31.501,-0.0013610145713232,-5.95714615381226
2025-07-14 16:47:31.508,-0.0013887477921384,-5.972028437474177
2025-07-14 16:47:31.516,-0.0014158860049783,-5.948890857213927
2025-07-14 16:47:31.524,-0.0014414229598674,-5.890550686503133
2025-07-14 16:47:31.532,-0.0014643223157522,-5.800619230919727
2025-07-14 16:47:31.540,-0.0014835420064869,-5.6833683661685575
2025-07-14 16:47:31.547,-0.0014980597811858,-5.543582403464073
2025-07-14 16:47:31.555,-0.001506899592694,-5.386401983006234
2025-07-14 16:47:31.563,-0.0015091582844683,-5.217166717250665
2025-07-14 16:47:31.571,-0.0015040317597122,-5.041262936192812
2025-07-14 16:47:31.579,-0.001490839596179,-4.863982158052911
2025-07-14 16:47:31.587,-0.0014690469787376,-4.690394871638918
2025-07-14 16:47:31.594,-0.0014382828745331,-4.525242939313459
2025-07-14 16:47:31.602,-0.0013983535078085,-4.3728524991175295
2025-07-14 16:47:31.610,-0.0013492503581042,-4.237067768689319
2025-07-14 16:47:31.618,-0.0012911521523926,-4.121204753421457
2025-07-14 16:47:31.626,-0.0012244206866771,-4.028022657975617
2025-07-14 16:47:31.633,-0.0011495907167934,-3.9597098983769934
2025-07-14 16:47:31.641,-0.0010673544783198,-3.917881085750365
2025-07-14 16:47:31.649,-0.0009785415972458,-3.903581238418789
2025-07-14 16:47:31.657,-0.0008840952812227,-3.9172937709774014
2025-07-14 16:47:31.665,-0.0007850457666121,-3.9589494594901935
2025-07-14 16:47:31.672,-0.0006824820437628,-4.027934506367289
2025-07-14 16:47:31.680,-0.0005775228968291,-4.123096916316809
2025-07-14 16:47:31.688,-0.0004712882529517,-4.242751524627758
2025-07-14 16:47:31.696,-0.0003648717013914,-4.384685072020801
2025-07-14 16:47:31.704,-0.0002593148561637,-4.546163591935317
2025-07-14 16:47:31.712,-0.0001555841222862,-4.72394498738372
2025-07-14 16:47:31.719,-5.455045976547935e-05,-4.914299978348837
2025-07-14 16:47:31.727,4.30271572196514e-05,-5.113044580497157
2025-07-14 16:47:31.735,0.0001365138730875,-5.3155869386625305
2025-07-14 16:47:31.743,0.0002254061419343,-5.516990709171456
2025-07-14 16:47:31.751,0.0003093338152063,-5.712056305253616
2025-07-14 16:47:31.758,0.0003880574182954,-5.895420246872851
2025-07-14 16:47:31.766,0.0004614612830387,-6.061671660765326
2025-07-14 16:47:31.774,0.0005295434153439,-6.205483737628764
2025-07-14 16:47:31.782,0.0005924030952224,-6.321756753866998
2025-07-14 16:47:31.790,0.0006502273449373,-6.4057681835899976
2025-07-14 16:47:31.797,0.0007032775603553,-6.453324530160493
2025-07-14 16:47:31.805,0.000751877661922,-6.460908848081744
2025-07-14 16:47:31.813,0.0007964049797256,-6.425817543509878
2025-07-14 16:47:31.821,0.0008372847188464,-6.346279961245345
2025-07-14 16:47:31.829,0.0008749882738548,-6.221554504001267
2025-07-14 16:47:31.837,0.0009100349319252,-6.0519955925475
2025-07-14 16:47:31.844,0.0009429957656223,-5.839086657725431
2025-07-14 16:47:31.852,0.0009744979551752,-5.58543553773581
2025-07-14 16:47:31.860,0.0010052275270993,-5.29473010063928
2025-07-14 16:47:31.868,0.0010359285955743,-4.97165357063326
2025-07-14 16:47:31.876,0.0010673976114605,-4.621760841751564
2025-07-14 16:47:31.883,0.0011004717403509,-4.251318937828097
2025-07-14 16:47:31.891,0.0011360111341826,-3.867116637442073
2025-07-14 16:47:31.899,0.0011748754277651,-3.47625003341941
2025-07-14 16:47:31.907,0.0012178952997349,-3.0858923363058364
2025-07-14 16:47:31.915,0.0012658404112861,-2.703057449720193
2025-07-14 16:47:31.922,0.0013193854142445,-2.334367628902684
2025-07-14 16:47:31.930,0.0013790759435952,-1.9858357801158524
2025-07-14 16:47:31.938,0.0014452966096376,-1.662672599074486
2025-07-14 16:47:31.946,0.0015182430158264,-1.369127761193512
2025-07-14 16:47:31.954,0.0015978997003003,-1.108372797523223
2025-07-14 16:47:31.962,0.0016840255861739,-0.8824312007409449
2025-07-14 16:47:31.969,0.0017761480790463,-0.6921588366533711
2025-07-14 16:47:31.977,0.0018735664520334,-0.5372750612263825
2025-07-14 16:47:31.985,0.00197536464423,-0.4164422594297933
2025-07-14 16:47:31.993,0.0020804330821026,-0.3273890279284054
2025-07-14 16:47:32.001,0.0021874986294908,-0.267070088502419
2025-07-14 16:47:32.008,0.0022951612902112,-0.2318543641152703
2025-07-14 16:47:32.016,0.0024019358697947,-0.2177315391424507
2025-07-14 16:47:32.024,0.0025062965391881,-0.2205268710989626
2025-07-14 16:47:32.032,0.0026067222134098,-0.236113995048064
2025-07-14 16:47:32.040,0.0027017408869708,-0.2606159125492789
2025-07-14 16:47:32.048,0.0027899715132369,-0.290585225410607
2025-07-14 16:47:32.055,0.0028701625532021,-0.3231559013020846
2025-07-14 16:47:32.063,0.0029412267768518,-0.356160381891126
2025-07-14 16:47:32.071,0.003002272151667,-0.3882075936488277
2025-07-14 16:47:32.079,0.0030526286622077,-0.4187193142749683
2025-07-14 16:47:32.087,0.0030918706794025,-0.4479242970567856
2025-07-14 16:47:32.094,0.00311983408799,-0.4768114801505001
2025-07-14 16:47:32.102,0.0031366269241228,-0.5070454337102231
2025-07-14 16:47:32.110,0.0031426319567944,-0.5408488530507529
2025-07-14 16:47:32.118,0.0031384995980883,-0.5808583179435796
2025-07-14 16:47:32.126,0.0031251298003635,-0.6299606380714294
2025-07-14 16:47:32.133,0.0031036422012235,-0.6911178376366445
2025-07-14 16:47:32.141,0.003075334699176,-0.7671891647765261
2025-07-14 16:47:32.149,0.0030416318480888,-0.8607584345758909
2025-07-14 16:47:32.157,0.0030040258192703,-0.9739745418771651
2025-07-14 16:47:32.165,0.0029640138828142,-1.108412147074711
2025-07-14 16:47:32.173,0.0029230369703571,-1.2649583995090097
2025-07-14 16:47:32.180,0.0028824236516143,-1.4437301890980785
2025-07-14 16:47:32.188,0.0028433429450575,-1.644024887883386
2025-07-14 16:47:32.196,0.0028067681838048,-1.8643059471981247
2025-07-14 16:47:32.204,0.0027734529920591,-2.102223145617562
2025-07-14 16:47:32.212,0.0027439194442455,-2.354665825307958
2025-07-14 16:47:32.219,0.0027184577196404,-2.6178461787008973
2025-07-14 16:47:32.227,0.0026971360156635,-2.8874085949261583
2025-07-14 16:47:32.235,0.0026798191057035,-3.1585602620211977
2025-07-14 16:47:32.243,0.0026661936928753,-3.426217645193012
2025-07-14 16:47:32.251,0.0026557986044312,-3.685163110990159
2025-07-14 16:47:32.258,0.0026480578750937,-3.9302058214941447
2025-07-14 16:47:32.266,0.0026423148508312,-4.156341055729187
2025-07-14 16:47:32.274,0.002637865583299,-4.358902302214295
2025-07-14 16:47:32.282,0.0026339899884162,-4.533700787831675
2025-07-14 16:47:32.290,0.0026299795328593,-4.677147553850993
2025-07-14 16:47:32.298,0.002625160574294,-4.786353759756484
2025-07-14 16:47:32.305,0.0026189128605411,-4.859205596892131
2025-07-14 16:47:32.313,0.0026106830420271,-4.894411035801257
2025-07-14 16:47:32.321,0.0025999933463711,-4.891516615747445
2025-07-14 16:47:32.329,0.0025864457902389,-4.850893600588846
2025-07-14 16:47:32.337,0.0025697224625525,-4.773694041872519
2025-07-14 16:47:32.344,0.0025495825231215,-4.661778559099109
2025-07-14 16:47:32.352,0.0025258566404608,-4.51761890576882
2025-07-14 16:47:32.360,0.0024984396471105,-4.34417956821598
2025-07-14 16:47:32.368,0.0024672822098147,-4.144783673306302
2025-07-14 16:47:32.376,0.0024323822731753,-3.922969298866552
2025-07-14 16:47:32.383,0.0023937769266307,-3.682342835621972
2025-07-14 16:47:32.391,0.0023515351900947,-3.4264363007268464
2025-07-14 16:47:32.399,0.0023057520536352,-3.1585754208602426
2025-07-14 16:47:32.407,0.0022565439472397,-2.88176486902977
2025-07-14 16:47:32.415,0.002204045636099,-2.598596249560345
2025-07-14 16:47:32.423,0.0021484083413237,-2.311183295425067
2025-07-14 16:47:32.430,0.0020897987165474,-2.0211273108071253
2025-07-14 16:47:32.438,0.0020283981927376,-1.7295142257561862
2025-07-14 16:47:32.446,0.0019644021274941,-1.4369428198801482
2025-07-14 16:47:32.454,0.0018980181519758,-1.143581829987426
2025-07-14 16:47:32.462,0.0018294631221539,-0.8492519096643357
2025-07-14 16:47:32.469,0.0017589582022557,-0.5535268895539917
2025-07-14 16:47:32.477,0.0016867218740349,-0.2558476184187889
2025-07-14 16:47:32.485,0.001612961051863,0.0443590571796833
2025-07-14 16:47:32.493,0.0015378608949407,0.3475638380474424
2025-07-14 16:47:32.501,0.0014615742244601,0.6540284203433289
2025-07-14 16:47:32.508,0.0013842116026143,0.963715471916192
2025-07-14 16:47:32.516,0.0013058331134985,1.2762206171731592
2025-07-14 16:47:32.524,0.0012264427429801,1.5907304660680797
2025-07-14 16:47:32.532,0.0011459860198439,1.9060090796676463
2025-07-14 16:47:32.540,0.0010643512798307,2.220413523324519
2025-07-14 16:47:32.548,0.0009813745869697,2.5319374171882094
2025-07-14 16:47:32.555,0.0008968480443799,2.8382797501642214
2025-07-14 16:47:32.563,0.0008105309788272,3.13693477123109
2025-07-14 16:47:32.571,0.0007221632813709,3.4252975930437346
2025-07-14 16:47:32.579,0.0006314800205397,3.700779298532045
2025-07-14 16:47:32.587,0.0005382263396471,3.960924869486807
2025-07-14 16:47:32.594,0.000442171648796,4.203527172250608
2025-07-14 16:47:32.602,0.0003431222413865,4.426730535140925
2025-07-14 16:47:32.610,0.0002409316747554,4.629118111526669
2025-07-14 16:47:32.618,0.0001355084994441,4.809778198492387
2025-07-14 16:47:32.626,2.6821164651639097e-05,4.968345912604803
2025-07-14 16:47:32.633,-8.509983365172379e-05,5.105018035969376
2025-07-14 16:47:32.641,-0.0002001622708065,5.220540353238323
2025-07-14 16:47:32.649,-0.0003182145329157,5.316168317383776
2025-07-14 16:47:32.657,-0.0004390495139616,5.393603328995521
2025-07-14 16:47:32.665,-0.0005624097149633,5.454908224137199
2025-07-14 16:47:32.673,-0.0006879933340434,5.502406689026408
2025-07-14 16:47:32.680,-0.0008154612239411,5.538572217714156
2025-07-14 16:47:32.688,-0.0009444446036599,5.565912867533386
2025-07-14 16:47:32.696,-0.0010745533799528,5.586858411372294
2025-07-14 16:47:32.704,-0.0012053848908919,5.603656501353389
2025-07-14 16:47:32.712,-0.0013365328314197,5.618284118632172
2025-07-14 16:47:32.719,-0.0014675960688205,5.632379877246194
2025-07-14 16:47:32.727,-0.0015981870272427,5.647201682042751
2025-07-14 16:47:32.735,-0.0017279393306638,5.663612834677314
2025-07-14 16:47:32.743,-0.0018565144497792,5.68209798262116
2025-07-14 16:47:32.751,-0.0019836072041028,5.702808390971268
2025-07-14 16:47:32.758,-0.0021089501089589,5.725633999566355
2025-07-14 16:47:32.766,-0.0022323166742856,5.750297754069311
2025-07-14 16:47:32.774,-0.0023535237943033,5.776465932294783
2025-07-14 16:47:32.782,-0.0024724332912075,5.803866786971927
2025-07-14 16:47:32.790,-0.002588952535482,5.832408928787088
2025-07-14 16:47:32.798,-0.0027030339420849,5.862290566928315
2025-07-14 16:47:32.805,-0.0028146730959606,5.8940910365847685
2025-07-14 16:47:32.813,-0.0029239052926562,5.928836944112996
2025-07-14 16:47:32.821,-0.0030308003554852,5.968036675302063
2025-07-14 16:47:32.829,-0.0031354556928658,6.0136788352313815
2025-07-14 16:47:32.837,-0.0032379876964113,6.068192300780644
2025-07-14 16:47:32.844,-0.0033385217459403,6.134367847729058
2025-07-14 16:47:32.852,-0.0034371812484532,6.21524364449739
2025-07-14 16:47:32.860,-0.0035340762657779,6.31395916789232
2025-07-14 16:47:32.868,-0.0036292923736533,6.433584181598307
2025-07-14 16:47:32.876,-0.0037228804382886,6.576931221303994
2025-07-14 16:47:32.883,-0.0038148479780425,6.746361453125132
2025-07-14 16:47:32.891,-0.0039051526861525,6.943594721927643
2025-07-14 16:47:32.899,-0.0039936985373998,7.169534999589235
2025-07-14 16:47:32.907,-0.0040803347207427,7.424122213387222
2025-07-14 16:47:32.915,-0.0041648574608559,7.706220544694179
2025-07-14 16:47:32.923,-0.0042470146158728,8.013551745742985
2025-07-14 16:47:32.930,-0.0043265127583486,8.342679888876093
2025-07-14 16:47:32.938,-0.0044030262765494,8.68905135202645
2025-07-14 16:47:32.946,-0.0044762079015804,9.047090911722044
2025-07-14 16:47:32.954,-0.0045456999848727,9.410351744952516
2025-07-14 16:47:32.962,-0.0046111458196273,9.7717141329263
2025-07-14 16:47:32.969,-0.0046722003219724,10.123624912030465
2025-07-14 16:47:32.977,-0.0047285394693003,10.458367413061476
2025-07-14 16:47:32.985,-0.0047798680311618,10.768349919614309
2025-07-14 16:47:32.993,-0.0048259252961238,11.046399663399557
2025-07-14 16:47:33.001,-0.0048664886564053,11.286049103121966
2025-07-14 16:47:33.008,-0.0049013750431075,11.481801689290396
2025-07-14 16:47:33.016,-0.0049304403278145,11.629365431183844
2025-07-14 16:47:33.024,-0.0049535769411638,11.725844243796503
2025-07-14 16:47:33.032,-0.0049707100894201,11.769879125365245
2025-07-14 16:47:33.040,-0.0049817930388992,11.76173355373658
2025-07-14 16:47:33.048,-0.0049868019625893,11.703319950497422
2025-07-14 16:47:33.055,-0.0049857308042874,11.598166517317688
2025-07-14 16:47:33.063,-0.0049785865258288,11.451326089454971
2025-07-14 16:47:33.071,-0.0049653849787578,11.269230788712347
2025-07-14 16:47:33.079,-0.0049461475004354,11.059498129499316
2025-07-14 16:47:33.087,-0.0049208981939798,10.830695798459464
2025-07-14 16:47:33.094,-0.0048896617293593,10.592073567941636
2025-07-14 16:47:33.102,-0.0048524614163854,10.353271701114313
2025-07-14 16:47:33.110,-0.0048093172649174,10.124015750661124
2025-07-14 16:47:33.118,-0.0047602437769502,9.913807839049174
2025-07-14 16:47:33.126,-0.0047052473189726,9.731624341023592
2025-07-14 16:47:33.133,-0.0046443230963382,9.585629384714276
2025-07-14 16:47:33.141,-0.0045774519560271,9.482912777151766
2025-07-14 16:47:33.149,-0.0045045974062757,9.429259888616288
2025-07-14 16:47:33.157,-0.0044257032985493,9.42895975542355
2025-07-14 16:47:33.165,-0.0043406925772543,9.484656245641542
2025-07-14 16:47:33.173,-0.0042494674338917,9.597245640373504
2025-07-14 16:47:33.180,-0.0041519111532562,9.765822474871309
2025-07-14 16:47:33.188,-0.0040478918886985,9.987674012211786
2025-07-14 16:47:33.196,-0.0039372685074267,10.258322329950076
2025-07-14 16:47:33.204,-0.0038198985085365,10.571611716293171
2025-07-14 16:47:33.212,-0.0036956478764951,10.919837914691534
2025-07-14 16:47:33.219,-0.0035644026058298,11.293914735202543
2025-07-14 16:47:33.227,-0.0034260814988796,11.683572677165904
2025-07-14 16:47:33.235,-0.0032806496928375,12.07758349428991
2025-07-14 16:47:33.243,-0.0031281322449767,12.464004100320054
2025-07-14 16:47:33.251,-0.0029686270336317,12.830432885792096
2025-07-14 16:47:33.258,-0.0028023162400382,13.164271418377227
2025-07-14 16:47:33.266,-0.0026294757646596,13.452984648793633
2025-07-14 16:47:33.274,-0.0024504820759534,13.68435314481066
2025-07-14 16:47:33.282,-0.002265816139639,13.84671151068817
2025-07-14 16:47:33.290,-0.0020760641822144,13.929167980842898
2025-07-14 16:47:33.298,-0.0018819150795087,13.92180115256004
2025-07-14 16:47:33.305,-0.0016841541402392,13.815830885596364
2025-07-14 16:47:33.313,-0.0014836530194305,13.60376148942706
2025-07-14 16:47:33.321,-0.0012813555070758,13.279496385824377
2025-07-14 16:47:33.329,-0.0010782590381539,12.838424420177644
2025-07-14 16:47:33.337,-0.0008753919769917,12.277478847432976
2025-07-14 16:47:33.344,-0.000673787043172,11.59517069431291
2025-07-14 16:47:33.352,-0.0004744516522855,10.79159866805515
2025-07-14 16:47:33.360,-0.0002783363883879,9.86843802714866
2025-07-14 16:47:33.368,-8.630321454051632e-05,8.828910849787343
2025-07-14 16:47:33.376,0.0001009047261388,7.677739944366515
2025-07-14 16:47:33.383,0.0002826898056223,6.421088272742478
2025-07-14 16:47:33.391,0.0004586212944045,5.066485247415466
2025-07-14 16:47:33.399,0.0006284498489546,3.6227406808301374
2025-07-14 16:47:33.407,0.0007921138229642,2.0998465840357063
2025-07-14 16:47:33.415,0.0009497364882443,0.5088665132457254
2025-07-14 16:47:33.423,0.0011016136694429,-1.138188180876924
2025-07-14 16:47:33.430,0.0012481917579663,-2.828495981778932
2025-07-14 16:47:33.438,0.0013900365640489,-4.54857739250769
2025-07-14 16:47:33.446,0.0015277939784625,-6.28446201289534
2025-07-14 16:47:33.454,0.0016621439226552,-8.02187026820447
2025-07-14 16:47:33.462,0.0017937495222527,-9.746408772843573
2025-07-14 16:47:33.469,0.0019232037858025,-11.44377738535082
2025-07-14 16:47:33.477,0.0020509762760073,-13.09998500450317
2025-07-14 16:47:33.485,0.0021773623415091,-14.701570161652873
2025-07-14 16:47:33.493,0.0023024374748978,-16.235821578728874
2025-07-14 16:47:33.501,0.0024260192970733,-17.690993173897585
2025-07-14 16:47:33.508,0.0025476395180027,-19.05650757346038
2025-07-14 16:47:33.516,0.0026665279469425,-20.323142061482685
2025-07-14 16:47:33.524,0.0027816102039435,-21.48319106443168
2025-07-14 16:47:33.532,0.0028915202518785,-22.53059969409411
2025-07-14 16:47:33.540,0.0029946282840699,-23.461063509547508
2025-07-14 16:47:33.548,0.0030890839157512,-24.27209045771555
2025-07-14 16:47:33.555,0.0031728740650103,-24.963021871285164
2025-07-14 16:47:33.563,0.0032438943766381,-25.535010416566436
2025-07-14 16:47:33.571,0.0033000325145952,-25.990953980746088
2025-07-14 16:47:33.579,0.0033392610693829,-26.335385665611582
2025-07-14 16:47:33.587,0.0033597371635117,-26.574321311165157
2025-07-14 16:47:33.594,0.0033599051538163,-26.715067295109897
2025-07-14 16:47:33.602,0.0033385982617485,-26.76599271195933
2025-07-14 16:47:33.610,0.003295134615209,-26.736271379817687
2025-07-14 16:47:33.618,0.0032294030620746,-26.63560039718193
2025-07-14 16:47:33.626,0.0031419341748327,-26.473903121325243
2025-07-14 16:47:33.633,0.0030339520885396,-26.261025411234936
2025-07-14 16:47:33.641,0.00290740320595,-26.00643471822864
2025-07-14 16:47:33.649,0.0027649583750905,-25.718932063056965
2025-07-14 16:47:33.657,0.002609985906363,-25.40638706209125
2025-07-14 16:47:33.665,0.0024464937508499,-25.075505919818948
2025-07-14 16:47:33.673,0.0022790403019043,-24.731641664900383
2025-07-14 16:47:33.680,0.0021126145944355,-24.378654860565987
2025-07-14 16:47:33.688,0.001952488127599,-24.01883157157332
2025-07-14 16:47:33.696,0.0018040420716975,-23.652863543346506
2025-07-14 16:47:33.704,0.0016725751868265,-23.279893391136834
2025-07-14 16:47:33.712,0.0015630993519703,-22.897625179311987
2025-07-14 16:47:33.719,0.0014801311521805,-22.50249818675134
2025-07-14 16:47:33.727,0.0014274894004531,-22.08991901444974
2025-07-14 16:47:33.735,0.0014081095639356,-21.65454461787093
2025-07-14 16:47:33.743,0.0014238865402887,-21.190606466495023
2025-07-14 16:47:33.751,0.001475556858762,-20.69226396982198
2025-07-14 16:47:33.758,0.001562630044559,-20.1539736735735
2025-07-14 16:47:33.766,0.0016833765617343,-19.570859614390525
2025-07-14 16:47:33.774,0.0018348764715437,-18.93906969585536
2025-07-14 16:47:33.782,0.0020131287787504,-18.256103054254663
2025-07-14 16:47:33.790,0.0022132165338602,-17.52109412504927
2025-07-14 16:47:33.798,0.0024295175527652,-16.73504047036537
2025-07-14 16:47:33.805,0.0026559461278795,-15.900963323254384
2025-07-14 16:47:33.813,0.0028862086861198,-15.023992163124197
2025-07-14 16:47:33.821,0.0031140566699532,-14.11136736184145
2025-07-14 16:47:33.829,0.0033335223423047,-13.172357927528328
2025-07-14 16:47:33.837,0.0035391264628873,-12.218094516537716
2025-07-14 16:47:33.844,0.0037260499748872,-11.261321078294989
2025-07-14 16:47:33.852,0.0038902647539123,-10.316071642486554
2025-07-14 16:47:33.860,0.0040286211592349,-9.397281760839716
2025-07-14 16:47:33.868,0.0041388926024855,-8.520346889640331
2025-07-14 16:47:33.876,0.0042197795189192,-7.700642455680574
2025-07-14 16:47:33.883,0.0042708768769996,-6.953022388115277
2025-07-14 16:47:33.891,0.0042926106401012,-6.2913144077291125
2025-07-14 16:47:33.899,0.004286149396965,-5.727831221350449
2025-07-14 16:47:33.907,0.0042532977194658,-5.272916858969212
2025-07-14 16:47:33.915,0.004196377748942,-4.934546632003529
2025-07-14 16:47:33.923,0.0041181051722267,-4.717997553713424
2025-07-14 16:47:33.930,0.004021465216431,-4.6256035822289565
2025-07-14 16:47:33.938,0.0039095935751358,-4.656606819286808
2025-07-14 16:47:33.946,0.0037856662610472,-4.807111968441836
2025-07-14 16:47:33.954,0.0036528013172165,-5.070147106618582
2025-07-14 16:47:33.962,0.0035139742426947,-5.435829359114901
2025-07-14 16:47:33.969,0.0033719480273916,-5.8916296093959
2025-07-14 16:47:33.977,0.0032292179168762,-6.422726137989685
2025-07-14 16:47:33.985,0.003087970448674,-7.012433272795223
2025-07-14 16:47:33.993,0.0029500558665944,-7.642687927664943
2025-07-14 16:47:34.001,0.0028169726703519,-8.294574459954596
2025-07-14 16:47:34.008,0.0026898628060416,-8.948866709196174
2025-07-14 16:47:34.016,0.002569515925503,-9.586565469553912
2025-07-14 16:47:34.024,0.0024563812814673,-10.1894100419579
2025-07-14 16:47:34.032,0.0023505861226787,-10.740343912134817
2025-07-14 16:47:34.040,0.0022519597855136,-11.223916969219308
2025-07-14 16:47:34.048,0.0021600629211834,-11.626609927609048
2025-07-14 16:47:34.055,0.0020742213614319,-11.937070597878824
2025-07-14 16:47:34.063,0.0019935640042537,-12.146256169799084
2025-07-14 16:47:34.071,0.0019170638977742,-12.247480470271762
2025-07-14 16:47:34.079,0.001843581543716,-12.236369952657366
2025-07-14 16:47:34.087,0.0017719093684348,-12.11073665725504
2025-07-14 16:47:34.094,0.0017008162787624,-11.870380265650743
2025-07-14 16:47:34.102,0.0016290912071088,-11.516834411241357
2025-07-14 16:47:34.110,0.0015555845583407,-11.05307443480184
2025-07-14 16:47:34.118,0.0014792464982357,-10.483204705625608
2025-07-14 16:47:34.126,0.0013991610744032,-9.812143472983994
2025-07-14 16:47:34.133,0.0013145752461342,-9.045322056629436
2025-07-14 16:47:34.141,0.0012249220197971,-8.188413177690066
2025-07-14 16:47:34.149,0.0011298370466548,-7.24710055998446
2025-07-14 16:47:34.157,0.0010291682508831,-6.2268987998136485
2025-07-14 16:47:34.165,0.0009229783159105,-5.133029111886377
2025-07-14 16:47:34.173,0.0008115401645468,-3.970353102040885
2025-07-14 16:47:34.180,0.0006953258973586,-2.743363371502668
2025-07-14 16:47:34.188,0.0005749899299491,-1.4562266833841222
2025-07-14 16:47:34.196,0.0004513472474061,-0.1128727593592485
2025-07-14 16:47:34.204,0.0003253478218369,1.282880365823315
2025-07-14 16:47:34.212,0.000198048360988,2.7271750458687314
2025-07-14 16:47:34.219,7.058260323581594e-05,4.2159482996564925
2025-07-14 16:47:34.227,-5.586875838146056e-05,5.744763450307057
2025-07-14 16:47:34.235,-0.0001801077397114,7.308650574457531
2025-07-14 16:47:34.243,-0.0003009478628074,8.90196631967768
2025-07-14 16:47:34.251,-0.0004172418675638,10.51828228794675
2025-07-14 16:47:34.258,-0.0005279082120043,12.15030945257912
2025-07-14 16:47:34.266,-0.0006319561823939,13.78986408585576
2025-07-14 16:47:34.274,-0.0007285092669602,15.427878538877524
2025-07-14 16:47:34.282,-0.0008168262788651,17.05445804151917
2025-07-14 16:47:34.290,-0.0008963196704714,18.658982570217507
2025-07-14 16:47:34.298,-0.000966570565337,20.23025083386372
2025-07-14 16:47:34.305,-0.0010273401334581,21.75666160254682
2025-07-14 16:47:34.313,-0.0010785769736618,23.226425988069405
2025-07-14 16:47:34.321,-0.0011204201850608,24.62780291462872
2025-07-14 16:47:34.329,-0.0011531978542543,25.949348932927425
2025-07-14 16:47:34.337,-0.0011774207170991,27.18017277905449
2025-07-14 16:47:34.344,-0.0011937707401428,28.31018471459429
2025-07-14 16:47:34.352,-0.0012030843884344,29.330330757466232
2025-07-14 16:47:34.360,-0.0012063305207067,30.232802456851367
2025-07-14 16:47:34.368,-0.0012045831781089,31.01121387982765
2025-07-14 16:47:34.376,-0.0011989898878303,31.660738918883357
2025-07-14 16:47:34.383,-0.0011907364026755,32.178203812339696
2025-07-14 16:47:34.391,-0.0011810090701928,32.56213177535289
2025-07-14 16:47:34.399,-0.0011709563036344,32.81273873542921
2025-07-14 16:47:34.407,-0.0011616508520492,32.931881229299485
2025-07-14 16:47:34.415,-0.0011540546518922,32.92295944798526
2025-07-14 16:47:34.423,-0.0011489879532553,32.790780143601225
2025-07-14 16:47:34.430,-0.0011471041475825,32.54138558733021
2025-07-14 16:47:34.438,-0.0011488713153057,32.18185595592335
2025-07-14 16:47:34.446,-0.0011545610751567,31.720093387426896
2025-07-14 16:47:34.454,-0.0011642449764693,31.164596449220884
2025-07-14 16:47:34.462,-0.0011777984333395,30.52423387473232
2025-07-14 16:47:34.469,-0.0011949119397308,29.80802613788033
2025-07-14 16:47:34.477,-0.0012151089555592,29.0249427557638
2025-07-14 16:47:34.485,-0.0012377694920499,28.1837221733394
2025-07-14 16:47:34.493,-0.0012621581975257,27.29271974918702
2025-07-14 16:47:34.501,-0.0012874557199293,26.35978781585881
2025-07-14 16:47:34.508,-0.0013127922210346,25.39219013537912
2025-07-14 16:47:34.516,-0.0013372819818994,24.39655141454976
2025-07-14 16:47:34.524,-0.0013600579845034,23.37884097659664
2025-07-14 16:47:34.532,-0.0013803052518332,22.34438827389527
2025-07-14 16:47:34.540,-0.0013972917221246,21.29792671458526
2025-07-14 16:47:34.548,-0.0014103955892799,20.243661285587503
2025-07-14 16:47:34.555,-0.0014191282828657,19.18535469251664
2025-07-14 16:47:34.563,-0.0014231524326129,18.12642620055692
2025-07-14 16:47:34.571,-0.0014222941827054,17.070057041398346
2025-07-14 16:47:34.579,-0.0014165491662727,16.019296139750963
2025-07-14 16:47:34.587,-0.0014060814752619,14.977159999678982
2025-07-14 16:47:34.594,-0.0013912151747635,13.946720869308155
2025-07-14 16:47:34.602,-0.0013724183413316,12.93117776954707
2025-07-14 16:47:34.610,-0.0013502802065545,11.933905631761611
2025-07-14 16:47:34.618,-0.0013254826327495,10.958478650553229
2025-07-14 16:47:34.626,-0.0012987676645923,10.008665032076902
2025-07-14 16:47:34.633,-0.0012709031899864,9.088391610778128
2025-07-14 16:47:34.641,-0.0012426488323963,8.201678310324576
2025-07-14 16:47:34.649,-0.0012147241237692,7.352544110910237
2025-07-14 16:47:34.657,-0.0011877807294403,6.544887999530337
2025-07-14 16:47:34.665,-0.0011623799832303,5.782350229197159
2025-07-14 16:47:34.673,-0.001138976337248,5.068160967118505
2025-07-14 16:47:34.680,-0.001117906705762,4.404984915815823
2025-07-14 16:47:34.688,-0.0010993852100287,3.794771584610083
2025-07-14 16:47:34.696,-0.0010835025590953,3.238621426109644
2025-07-14 16:47:34.704,-0.0010702292379728,2.7366779233693315
2025-07-14 16:47:34.712,-0.001059421808036,2.288054863133747
2025-07-14 16:47:34.719,-0.0010508319041498,1.89080646943184
2025-07-14 16:47:34.727,-0.0010441178127627,1.5419458749490054
2025-07-14 16:47:34.735,-0.0010388586655986,1.2375147052457256
2025-07-14 16:47:34.743,-0.0010345711964629,0.9727035141671766
2025-07-14 16:47:34.751,-0.0010307287558872,0.7420196353234678
2025-07-14 16:47:34.758,-0.0010267820137507,0.5394959140191046
2025-07-14 16:47:34.766,-0.0010221806156822,0.3589309622431173
2025-07-14 16:47:34.774,-0.0010163950340072,0.194149220506055
2025-07-14 16:47:34.782,-0.001008937965053,0.0392673622590015
2025-07-14 16:47:34.790,-0.0009993848264899,-0.1110474548933822
2025-07-14 16:47:34.798,-0.0009873930832608,-0.261342233941867
2025-07-14 16:47:34.805,-0.0009727201196741,-0.4151798474629188
2025-07-14 16:47:34.813,-0.0009552391026905,-0.5749905767979921
2025-07-14 16:47:34.821,-0.0009349518382241,-0.7419840457681296
2025-07-14 16:47:34.829,-0.0009119972141168,-0.9161291802915672
2025-07-14 16:47:34.837,-0.000886653676947,-1.0962062715567773
2025-07-14 16:47:34.844,-0.0008593344631202,-1.2799312053839518
2025-07-14 16:47:34.852,-0.000830574963029,-1.4641476598759235
2025-07-14 16:47:34.860,-0.0008010123925557,-1.6450788388394042
2025-07-14 16:47:34.868,-0.000771358625614,-1.8186264072213336
2025-07-14 16:47:34.876,-0.0007423675489803,-1.980701032537769
2025-07-14 16:47:34.883,-0.0007147987259716,-2.127566573279412
2025-07-14 16:47:34.891,-0.0006893795473538,-2.2561786725193387
2025-07-14 16:47:34.899,-0.0006667683206069,-2.364498396561871
2025-07-14 16:47:34.907,-0.0006475207445412,-2.451762591310087
2025-07-14 16:47:34.915,-0.00063206185625,-2.5186947169509115
2025-07-14 16:47:34.923,-0.0006206649103026,-2.567642908723123
2025-07-14 16:47:34.930,-0.0006134379556196,-2.602635705149664
2025-07-14 16:47:34.938,-0.000610318309391,-2.6293500706020727
2025-07-14 16:47:34.946,-0.0006110747829826,-2.654990788778926
2025-07-14 16:47:34.954,-0.0006153173259737,-2.6880847845212235
2025-07-14 16:47:34.962,-0.0006225135685605,-2.7381982139249192
2025-07-14 16:47:34.969,-0.0006320114821374,-2.8155880308477466
2025-07-14 16:47:34.977,-0.0006430670870736,-2.9308029977555163
2025-07-14 16:47:34.985,-0.0006548758885831,-3.0942515980229217
2025-07-14 16:47:34.993,-0.0006666065510777,-3.315755906847104
2025-07-14 16:47:35.001,-0.0006774352349016,-3.604111127970863
2025-07-14 16:47:35.009,-0.0006865790160858,-3.966670206478861
2025-07-14 16:47:35.016,-0.0006933268872819,-4.408971744190383
2025-07-14 16:47:35.024,-0.0006970669923382,-4.934427475390648
2025-07-14 16:47:35.032,-0.0006973089725951,-5.544082934861887
2025-07-14 16:47:35.040,-0.0006937005931057,-6.236461810496279
2025-07-14 16:47:35.048,-0.00068603816352,-7.00750096863952
2025-07-14 16:47:35.055,-0.0006742706566316,-7.8505794202857855
2025-07-14 16:47:35.063,-0.0006584978151284,-8.756640703251625
2025-07-14 16:47:35.071,-0.0006389628443463,-9.7144044249441
2025-07-14 16:47:35.079,-0.0006160404609361,-10.710659170525576
2025-07-14 16:47:35.087,-0.0005902211457607,-11.7306257546787
2025-07-14 16:47:35.094,-0.0005620925109405,-12.75837700078066
2025-07-14 16:47:35.102,-0.0005323187321649,-13.777297985639176
2025-07-14 16:47:35.110,-0.0005016189449011,-14.770569102277747
2025-07-14 16:47:35.118,-0.0004707452972107,-15.721653465433748
2025-07-14 16:47:35.126,-0.0004404610077003,-16.614770185573274
2025-07-14 16:47:35.134,-0.0004115184378725,-17.435335895316452
2025-07-14 16:47:35.141,-0.0003846370657571,-18.1703585990738
2025-07-14 16:47:35.149,-0.0003604814215284,-18.808770345340736
2025-07-14 16:47:35.157,-0.0003396393843248,-19.341688251806566
2025-07-14 16:47:35.165,-0.0003226015503206,-19.762596863176046
2025-07-14 16:47:35.173,-0.0003097425429595,-20.06744847539504
2025-07-14 16:47:35.180,-0.0003013050996707,-20.25468169037974
2025-07-14 16:47:35.188,-0.0002973875646227,-20.32516185991784
2025-07-14 16:47:35.196,-0.0002979351597253,-20.28205006262548
2025-07-14 16:47:35.204,-0.0003027352454523,-20.130609709870104
2025-07-14 16:47:35.212,-0.0003114167943894,-19.877961719812845
2025-07-14 16:47:35.219,-0.0003234544071181,-19.53280039841196
2025-07-14 16:47:35.227,-0.000338177241193,-19.10508272000907
2025-07-14 16:47:35.235,-0.0003547831163543,-18.60570363188544
2025-07-14 16:47:35.243,-0.0003723578436494,-18.046169364428103
2025-07-14 16:47:35.251,-0.0003898995751701,-17.438279582421202
2025-07-14 16:47:35.259,-0.0004063477214529,-16.793827658790022
2025-07-14 16:47:35.266,-0.0004206157459984,-16.124326508379873
2025-07-14 16:47:35.274,-0.0004316269267717,-15.440765423964551
2025-07-14 16:47:35.282,-0.0004383519794641,-14.75340135940894
2025-07-14 16:47:35.290,-0.000439847273655,-14.07158625510621
2025-07-14 16:47:35.298,-0.0004352922481066,-13.403630431099412
2025-07-14 16:47:35.305,-0.0004240245526255,-12.756700882344418
2025-07-14 16:47:35.313,-0.0004055714184939,-12.136752548405743
2025-07-14 16:47:35.321,-0.0003796757941905,-11.548490289323194
2025-07-14 16:47:35.329,-0.0003463158839618,-10.9953593181472
2025-07-14 16:47:35.337,-0.0003057168985329,-10.479562114828433
2025-07-14 16:47:35.344,-0.0002583540730092,-10.002100248771535
2025-07-14 16:47:35.352,-0.0002049463279374,-9.562839934904726
2025-07-14 16:47:35.360,-0.0001464403442796,-9.160600415056429
2025-07-14 16:47:35.368,-8.398528764796391e-05,-8.793264290598323
2025-07-14 16:47:35.376,-1.889893909167646e-05,-8.457908669764572
2025-07-14 16:47:35.384,4.73734786645716e-05,-8.15095541766541
2025-07-14 16:47:35.391,0.0001133060630038,-7.868337943178193
2025-07-14 16:47:35.399,0.0001773426629676,-7.605680906971279
2025-07-14 16:47:35.407,0.0002379490619929,-7.358488110507709
2025-07-14 16:47:35.415,0.0002936650031996,-7.122332770863662
2025-07-14 16:47:35.423,0.0003431540494016,-6.893043543972944
2025-07-14 16:47:35.430,0.0003852491850821,-6.666879150614975
2025-07-14 16:47:35.438,0.0004189921919255,-6.440684368442486
2025-07-14 16:47:35.446,0.000443665191306,-6.212020517426669
2025-07-14 16:47:35.454,0.000458813227884,-5.979264377098137
2025-07-14 16:47:35.462,0.0004642572574804,-5.74167068244232
2025-07-14 16:47:35.469,0.0004600973545092,-5.499394869078548
2025-07-14 16:47:35.477,0.0004467063588976,-5.253474474865073
2025-07-14 16:47:35.485,0.0004247145367873,-5.005769446284608
2025-07-14 16:47:35.493,0.0003949861326034,-4.758863442421973
2025-07-14 16:47:35.501,0.0003585889430926,-4.515929986889868
2025-07-14 16:47:35.509,0.0003167582486229,-4.280568908866809
2025-07-14 16:47:35.516,0.0002708565960818,-4.056619868464934
2025-07-14 16:47:35.524,0.0002223310386834,-3.847960821183108
2025-07-14 16:47:35.532,0.0001726694718124,-3.6582999977934576
2025-07-14 16:47:35.540,0.0001233575951248,-3.490970329449588
2025-07-14 16:47:35.548,7.583774438422372e-05,-3.3487352135882094
2025-07-14 16:47:35.555,3.1470459813820695e-05,-3.233614085051457
2025-07-14 16:47:35.563,-8.500644305764972e-06,-3.1467354328109467
2025-07-14 16:47:35.571,-4.298028670310319e-05,-3.0882237087227358
2025-07-14 16:47:35.579,-7.104880514918109e-05,-3.057125058990041
2025-07-14 16:47:35.587,-9.198490402083602e-05,-3.051375047861917
2025-07-14 16:47:35.594,-0.0001052834216997,-3.0678096374264268
2025-07-14 16:47:35.602,-0.0001106676614702,-3.1022187511572645
2025-07-14 16:47:35.610,-0.0001080958339642,-3.1494398958520677
2025-07-14 16:47:35.618,-9.776119215025692e-05,-3.203487650782695
2025-07-14 16:47:35.626,-8.008551045554298e-05,-3.257713442744491
2025-07-14 16:47:35.634,-5.5705675945154446e-05,-3.304988977153688
2025-07-14 16:47:35.641,-2.54533280631163e-05,-3.337906023063906
2025-07-14 16:47:35.649,9.672291283090968e-06,-3.348984953041564
2025-07-14 16:47:35.657,4.8537831674212645e-05,-3.330884486996106
2025-07-14 16:47:35.665,8.991488520648433e-05,-3.2766054386557943
2025-07-14 16:47:35.673,0.0001325234184673,-3.179681873521824
2025-07-14 16:47:35.680,0.0001750780120296,-3.0343539250436224
2025-07-14 16:47:35.688,0.0002163350131494,-2.835717548833502
2025-07-14 16:47:35.696,0.0002551385463198,-2.57984767753093
2025-07-14 16:47:35.704,0.0002904633292814,-2.263892506900012
2025-07-14 16:47:35.712,0.0003214523391448,-1.8861379186181015
2025-07-14 16:47:35.719,0.0003474475198824,-1.4460422463934588
2025-07-14 16:47:35.727,0.000368011960015,-0.9442426474269988
2025-07-14 16:47:35.735,0.0003829423643935,-0.382535195949611
2025-07-14 16:47:35.743,0.0003922711887278,0.2361685615145636
2025-07-14 16:47:35.751,0.0003962584122965,0.9079054636791138
2025-07-14 16:47:35.759,0.0003953735036983,1.6277417133057173
2025-07-14 16:47:35.766,0.0003902686414241,2.389867706637004
2025-07-14 16:47:35.774,0.0003817446696379,3.1877036096654825
2025-07-14 16:47:35.782,0.0003707115921869,4.014012847351292
2025-07-14 16:47:35.790,0.0003581456293811,4.861021003348982
2025-07-14 16:47:35.798,0.0003450449798569,5.720537982805342
2025-07-14 16:47:35.805,0.0003323864434961,6.5840816360474745
2025-07-14 16:47:35.813,0.0003210849727106,7.443001349417696
2025-07-14 16:47:35.821,0.0003119580322251,8.288600362776021
2025-07-14 16:47:35.829,0.0003056963674992,9.112255763772009
2025-07-14 16:47:35.837,0.0003028424166246,9.905535239366117
2025-07-14 16:47:35.844,0.0003037771591156,10.6603097429994
2025-07-14 16:47:35.852,0.0003087156883608,11.368861267926652
2025-07-14 16:47:35.860,0.0003177112404058,12.023984905686657
2025-07-14 16:47:35.868,0.000330666856137,12.619084314716078
2025-07-14 16:47:35.876,0.0003473533802123,13.148259637717564
2025-07-14 16:47:35.884,0.0003674321672249,13.606386813762308
2025-07-14 16:47:35.891,0.0003904806418728,13.989187170779068
2025-07-14 16:47:35.899,0.0004160187049678,14.293286193112118
2025-07-14 16:47:35.907,0.0004435339671466,14.516260459555832
2025-07-14 16:47:35.915,0.000472504041937,14.656671941512077
2025-07-14 16:47:35.923,0.0005024146219906,14.714089120836348
2025-07-14 16:47:35.930,0.0005327726585416,14.689094700729184
2025-07-14 16:47:35.938,0.00056311453934,14.583280003971833
2025-07-14 16:47:35.946,0.000593009655337,14.399226447862093
2025-07-14 16:47:35.954,0.0006220601380959,14.140474729418528
2025-07-14 16:47:35.962,0.0006498978247629,13.811482531527872
2025-07-14 16:47:35.969,0.000676179656587,13.417571661901444
2025-07-14 16:47:35.977,0.0007005827363168,12.964865558274708
2025-07-14 16:47:35.985,0.0007228001600352,12.46021803567919
2025-07-14 16:47:35.993,0.0007425385109594,11.911134022224012
2025-07-14 16:47:36.001,0.0007595175984651,11.325682845839236
2025-07-14 16:47:36.009,0.0007734727328229,10.712404421035137
2025-07-14 16:47:36.016,0.0007841596320672,10.08020847100886
2025-07-14 16:47:36.024,0.0007913619648956,9.438266738103149
2025-07-14 16:47:36.032,0.0007949014396,8.795898019165204
2025-07-14 16:47:36.040,0.0007946501135668,8.162445845048708
2025-07-14 16:47:36.048,0.0007905441617367,7.547148729864866
2025-07-14 16:47:36.055,0.0007825978265737,6.959003157726255
2025-07-14 16:47:36.063,0.0007709159247163,6.406619856539723
2025-07-14 16:47:36.071,0.0007557032738291,5.898074431588254
2025-07-14 16:47:36.079,0.0007372696889326,5.440754095426885
2025-07-14 16:47:36.087,0.0007160296295707,5.041203024420271
2025-07-14 16:47:36.094,0.0006924960388391,4.7049697662571415
2025-07-14 16:47:36.102,0.0006672683528858,4.436461061576962
2025-07-14 16:47:36.110,0.0006410150584265,4.238807345106109
2025-07-14 16:47:36.118,0.0006144515261452,4.113745956306759
2025-07-14 16:47:36.126,0.0005883141409258,4.061528606063495
2025-07-14 16:47:36.134,0.0005633319784163,4.080859807078847
2025-07-14 16:47:36.141,0.0005401974356207,4.16887269040778
2025-07-14 16:47:36.149,0.0005195373066902,4.321147836624387
2025-07-14 16:47:36.157,0.0005018858010293,4.531779423590844
2025-07-14 16:47:36.165,0.0004876609280562,4.793491154735836
2025-07-14 16:47:36.173,0.0004771455219605,5.097802153432179
2025-07-14 16:47:36.180,0.000470473952851,5.435240415942996
2025-07-14 16:47:36.188,0.000467625271918,5.795598683035056
2025-07-14 16:47:36.196,0.0004684231736882,6.168224926258756
2025-07-14 16:47:36.204,0.0004725427415228,6.542337261424865
2025-07-14 16:47:36.212,0.0004795235151889,6.907351192100659
2025-07-14 16:47:36.219,0.0004887880616355,7.253205808015329
2025-07-14 16:47:36.227,0.0004996649982357,7.570675027615208
2025-07-14 16:47:36.235,0.0005114152778535,7.851650232043575
2025-07-14 16:47:36.243,0.0005232604499143,8.08938167656702
2025-07-14 16:47:36.251,0.0005344116045527,8.278667813760123
2025-07-14 16:47:36.259,0.0005440978290475,8.415984005778569
2025-07-14 16:47:36.266,0.0005515931711719,8.499544898655499
2025-07-14 16:47:36.274,0.000556241194281,8.529297824011412
2025-07-14 16:47:36.282,0.0005574762277283,8.506847822917308
2025-07-14 16:47:36.290,0.000554840478666,8.435318094048519
2025-07-14 16:47:36.298,0.0005479963812746,8.319152698987619
2025-07-14 16:47:36.305,0.0005367339140056,8.163871062705088
2025-07-14 16:47:36.313,0.0005209729993378,7.975786045749182
2025-07-14 16:47:36.321,0.0005007613604889,7.76169900870487
2025-07-14 16:47:36.329,0.0004762682670859,7.528586235309302
2025-07-14 16:47:36.337,0.0004477745314684,7.283291261212575
2025-07-14 16:47:36.344,0.0004156590790095,7.032237051068969
2025-07-14 16:47:36.352,0.0003803824928898,6.781170612954626
2025-07-14 16:47:36.360,0.0003424680865296,6.53495063059578
2025-07-14 16:47:36.368,0.0003024812154375,6.297386179907017
2025-07-14 16:47:36.376,0.0002610076713114,6.071131764736291
2025-07-14 16:47:36.384,0.0002186320987167,5.857640957151171
2025-07-14 16:47:36.391,0.000175917438245,5.657178043472173
2025-07-14 16:47:36.399,0.0001333864243741,5.468884406953955
2025-07-14 16:47:36.407,9.150611964827072e-05,5.290894029620266
2025-07-14 16:47:36.415,5.067628182764641e-05,5.120490541116506
2025-07-14 16:47:36.423,1.1222001195702126e-05,4.954296723858291
2025-07-14 16:47:36.430,-2.6609400751140405e-05,4.788486320436851
2025-07-14 16:47:36.438,-6.264758657932173e-05,4.619007384866625
2025-07-14 16:47:36.446,-9.67951073816767e-05,4.441806270464262
2025-07-14 16:47:36.454,-0.0001290206422436,4.253041648508779
2025-07-14 16:47:36.462,-0.000159350229122,4.049278693776763
2025-07-14 16:47:36.469,-0.0001878571280391,3.827654735107509
2025-07-14 16:47:36.477,-0.0002146509236891,3.586009214209314
2025-07-14 16:47:36.485,-0.0002398664252555,3.3229726680576395
2025-07-14 16:47:36.493,-0.0002636528594865,3.038011574163875
2025-07-14 16:47:36.501,-0.0002861637820089,2.731428177952582
2025-07-14 16:47:36.509,-0.0003075480546078,2.4043167422915377
2025-07-14 16:47:36.516,-0.0003279421557793,2.058479893089157
2025-07-14 16:47:36.524,-0.0003474640110749,1.6963107525823156
2025-07-14 16:47:36.532,-0.0003662084511542,1.3206482345933803
2025-07-14 16:47:36.540,-0.0003842443312568,0.9346141266890504
2025-07-14 16:47:36.548,-0.0004016132778651,0.5414413384627415
2025-07-14 16:47:36.555,-0.0004183299681501,0.1443029271940265
2025-07-14 16:47:36.563,-0.0004343837964868,-0.2538487674060042
2025-07-14 16:47:36.571,-0.0004497417406584,-0.6504242991873643
2025-07-14 16:47:36.579,-0.0004643522087411,-1.043313185467042
2025-07-14 16:47:36.587,-0.0004781496261791,-1.4309679550014314
2025-07-14 16:47:36.594,-0.0004910595110353,-1.8124520144010212
2025-07-14 16:47:36.602,-0.0005030037834115,-2.187449099536934
2025-07-14 16:47:36.610,-0.0005139060619364,-2.5562340892546818
2025-07-14 16:47:36.618,-0.0005236967152274,-2.9196069678858856
2025-07-14 16:47:36.626,-0.000532317458396,-3.2787936411012715
2025-07-14 16:47:36.634,-0.0005397253129585,-3.635319043495966
2025-07-14 16:47:36.641,-0.0005458957818129,-3.9908594346143658
2025-07-14 16:47:36.649,-0.0005508251280808,-4.347081883777264
2025-07-14 16:47:36.657,-0.0005545316863875,-4.70547963716492
2025-07-14 16:47:36.665,-0.0005570561763328,-5.067212316043368
2025-07-14 16:47:36.673,-0.0005584610292545,-5.432959713006111
2025-07-14 16:47:36.680,-0.0005588287796545,-5.80279735652201
2025-07-14 16:47:36.688,-0.0005582596106202,-6.176101043801018
2025-07-14 16:47:36.696,-0.0005568681769849,-6.551486250920863
2025-07-14 16:47:36.704,-0.0005547798596454,-6.926786775247817
2025-07-14 16:47:36.712,-0.0005521266282008,-7.299075208049053
2025-07-14 16:47:36.719,-0.0005490427057817,-7.66472593888908
2025-07-14 16:47:36.727,-0.0005456602385365,-8.019519430824676
2025-07-14 16:47:36.735,-0.0005421051717665,-8.35878455820079
2025-07-14 16:47:36.743,-0.0005384935243088,-8.67757395253634
2025-07-14 16:47:36.751,-0.0005349282317444,-8.970865641059262
2025-07-14 16:47:36.759,-0.0005314966968739,-9.233782867206246
2025-07-14 16:47:36.766,-0.0005282691423448,-9.46182292471308
2025-07-14 16:47:36.774,-0.0005252978053405,-9.651085173921093
2025-07-14 16:47:36.782,-0.0005226169481266,-9.798488177602758
2025-07-14 16:47:36.790,-0.0005202435816375,-9.901966108044968
2025-07-14 16:47:36.798,-0.0005181787131738,-9.960635227837512
2025-07-14 16:47:36.805,-0.0005164088404457,-9.97492230152509
2025-07-14 16:47:36.813,-0.0005149073564109,-9.946648200727182
2025-07-14 16:47:36.821,-0.0005136355728411,-9.879061650637032
2025-07-14 16:47:36.829,-0.0005125432548365,-9.776819948795854
2025-07-14 16:47:36.837,-0.0005115687996535,-9.64591548265448
2025-07-14 16:47:36.844,-0.0005106393353496,-9.49354890012751
2025-07-14 16:47:36.852,-0.0005096710078529,-9.32795177556683
2025-07-14 16:47:36.860,-0.0005085696804561,-9.158163502872249
2025-07-14 16:47:36.868,-0.0005072323001682,-8.993768892217409
2025-07-14 16:47:36.876,-0.0005055492449029,-8.844604512345711
2025-07-14 16:47:36.884,-0.0005034079050711,-8.720443173830333
2025-07-14 16:47:36.891,-0.0005006975034658,-8.630667050547952
2025-07-14 16:47:36.899,-0.0004973148067852,-8.583940738857217
2025-07-14 16:47:36.907,-0.0004931701144354,-8.587896005435821
2025-07-14 16:47:36.915,-0.0004881928792597,-8.648840027426349
2025-07-14 16:47:36.923,-0.0004823364990831,-8.77149854191156
2025-07-14 16:47:36.930,-0.0004755820215531,-8.958804467782302
2025-07-14 16:47:36.938,-0.0004679405957317,-9.2117412339727
2025-07-14 16:47:36.946,-0.0004594545641802,-9.52924826281268
2025-07-14 16:47:36.954,-0.0004501972289944,-9.908193864483357
2025-07-14 16:47:36.962,-0.0004402714904973,-10.343418276799673
2025-07-14 16:47:36.969,-0.0004298076287584,-10.827846840321246
2025-07-14 16:47:36.977,-0.0004189604458642,-11.352670459912366
2025-07-14 16:47:36.985,-0.0004079058554659,-11.90758770888727
2025-07-14 16:47:36.993,-0.0003968368591704,-12.481100320702575
2025-07-14 16:47:37.001,-0.0003859587723311,-13.060851520953111
2025-07-14 16:47:37.009,-0.0003754836265988,-13.63399480390739
2025-07-14 16:47:37.016,-0.000365623847415,-14.187579459083397
2025-07-14 16:47:37.024,-0.0003565854286579,-14.708938480894322
2025-07-14 16:47:37.032,-0.0003485607795705,-15.186064483310306
2025-07-14 16:47:37.040,-0.0003417212494261,-15.60795987878624
2025-07-14 16:47:37.048,-0.0003362092250111,-15.964948809778516
2025-07-14 16:47:37.055,-0.0003321297921055,-16.248940055873803
2025-07-14 16:47:37.063,-0.0003295422486921,-16.453632278616126
2025-07-14 16:47:37.071,-0.0003284520956011,-16.57465540166593
2025-07-14 16:47:37.079,-0.0003288043111912,-16.609644545152197
2025-07-14 16:47:37.087,-0.0003304786550835,-16.55824562831985
2025-07-14 16:47:37.094,-0.0003332875159008,-16.422054413014532
2025-07-14 16:47:37.102,-0.0003369765641127,-16.20449327341232
2025-07-14 16:47:37.110,-0.0003412282798168,-15.910632239678655
2025-07-14 16:47:37.118,-0.0003456682678077,-15.54696277808146
2025-07-14 16:47:37.126,-0.0003498741024456,-15.121134256229428
2025-07-14 16:47:37.134,-0.0003533863084504,-14.64166404225116
2025-07-14 16:47:37.141,-0.0003557210310595,-14.11763267431263
2025-07-14 16:47:37.149,-0.0003563839309241,-13.558375519636554
2025-07-14 16:47:37.157,-0.0003548848112054,-12.973181861772652
2025-07-14 16:47:37.165,-0.0003507524943208,-12.37101148104505
2025-07-14 16:47:37.173,-0.0003435495499066,-11.760237610971526
2025-07-14 16:47:37.180,-0.000332886581929,-11.1484237457755
2025-07-14 16:47:37.188,-0.0003184358379161,-10.542140207713755
2025-07-14 16:47:37.196,-0.0002999438789579,-9.946824707825805
2025-07-14 16:47:37.204,-0.0002772429746983,-9.366689393244632
2025-07-14 16:47:37.212,-0.0002502608376844,-8.804675116008301
2025-07-14 16:47:37.219,-0.0002190283334701,-8.262451938434106
2025-07-14 16:47:37.227,-0.0001836848290136,-7.740463270879075
2025-07-14 16:47:37.235,-0.0001444807617,-7.238009582841393
2025-07-14 16:47:37.243,-0.0001017768636148,-6.753366397648376
2025-07-14 16:47:37.251,-5.603945782417525e-05,-6.283930324184891
2025-07-14 16:47:37.259,-7.831472648097137e-06,-5.826386229677342
2025-07-14 16:47:37.266,4.220082154519648e-05,-5.376888328322682
2025-07-14 16:47:37.274,9.334505877078958e-05,-4.931247942906204
2025-07-14 16:47:37.282,0.000144843532157,-4.485120962759101
2025-07-14 16:47:37.290,0.0001959168020983,-4.034188529847963
2025-07-14 16:47:37.298,0.0002457892591014,-3.574325186524086
2025-07-14 16:47:37.305,0.000293715486393,-3.1017495632329344
2025-07-14 16:47:37.313,0.0003390060788461,-2.613153625138445
2025-07-14 16:47:37.321,0.0003810514951188,-2.105807492197582
2025-07-14 16:47:37.329,0.0004193425604987,-1.5776378649280196
2025-07-14 16:47:37.337,0.0004534864015321,-1.0272791030311463
2025-07-14 16:47:37.344,0.0004832168792949,-0.4540969955297038
2025-07-14 16:47:37.352,0.0005083989863054,0.1418137928024531
2025-07-14 16:47:37.360,0.0005290271370866,0.7596567405021233
2025-07-14 16:47:37.368,0.0005452177023559,1.3979823277054726
2025-07-14 16:47:37.376,0.0005571963858643,2.0547554791526386
2025-07-14 16:47:37.384,0.0005652811199162,2.7274378781095536
2025-07-14 16:47:37.391,0.0005698612161924,3.413081162527754
2025-07-14 16:47:37.399,0.0005713737031019,4.108426921337765
2025-07-14 16:47:37.407,0.0005702781090894,4.810009478843832
2025-07-14 16:47:37.415,0.0005670312885279,5.514257664119956
2025-07-14 16:47:37.423,0.0005620640855149,6.217592084980196
2025-07-14 16:47:37.430,0.0005557615799463,6.916514839368436
2025-07-14 16:47:37.438,0.0005484483214899,7.607689081519485
2025-07-14 16:47:37.446,0.0005403794150575,8.288006401397348
2025-07-14 16:47:37.454,0.0005317377480431,8.954640561779572
2025-07-14 16:47:37.462,0.0005226371475619,9.605086754659649
2025-07-14 16:47:37.469,0.0005131308011464,10.237186170133326
2025-07-14 16:47:37.477,0.0005032238461276,10.849136294832736
2025-07-14 16:47:37.485,0.0004928886955526,11.439487947330116
2025-07-14 16:47:37.493,0.0004820815046203,12.007130585160962
2025-07-14 16:47:37.501,0.0004707582302114,12.551267850230015
2025-07-14 16:47:37.509,0.0004588889963454,13.071385625715502
2025-07-14 16:47:37.516,0.0004464699043767,13.56721503552604
2025-07-14 16:47:37.524,0.0004335318969386,14.038692818527808
2025-07-14 16:47:37.532,0.0004201466333739,14.48592136181767
2025-07-14 16:47:37.540,0.0004064294761911,14.909130401153146
2025-07-14 16:47:37.548,0.0003925396959434,15.308642022445378
2025-07-14 16:47:37.555,0.0003786780238365,15.684840162979274
2025-07-14 16:47:37.563,0.0003650817894724,16.038145356383662
2025-07-14 16:47:37.571,0.0003520180098427,16.36899503238069
2025-07-14 16:47:37.579,0.0003397748299685,16.67782930283263
2025-07-14 16:47:37.587,0.0003286516510819,16.96508185540461
2025-07-14 16:47:37.594,0.0003189482414336,17.231175335665235
2025-07-14 16:47:37.602,0.0003109531858854,17.476520419350027
2025-07-14 16:47:37.610,0.0003049321437006,17.701517647639886
2025-07-14 16:47:37.618,0.0003011164756651,17.906561006889895
2025-07-14 16:47:37.626,0.0002996928413429,18.092042167311504
2025-07-14 16:47:37.634,0.0003007943419897,18.258354245594493
2025-07-14 16:47:37.641,0.0003044936942482,18.40589393072815
2025-07-14 16:47:37.649,0.0003107987715116,18.53506083269949
2025-07-14 16:47:37.657,0.0003196506475315,18.646253013529996
2025-07-14 16:47:37.665,0.0003309240583021,18.739857872289956
2025-07-14 16:47:37.673,0.0003444300500477,18.81623790062021
2025-07-14 16:47:37.680,0.0003599205763551,18.875711301728725
2025-07-14 16:47:37.688,0.0003770949385334,18.918528048128863
2025-07-14 16:47:37.696,0.0003956081207723,18.94484259217703
2025-07-14 16:47:37.704,0.000415081097143,18.954685070178595
2025-07-14 16:47:37.712,0.0004351130030013,18.94793337821745
2025-07-14 16:47:37.719,0.0004552947497996,18.92428887403553
2025-07-14 16:47:37.727,0.00047522338118,18.883258618117967
2025-07-14 16:47:37.735,0.0004945163373529,18.82414697305948
2025-07-14 16:47:37.743,0.0005128248516133,18.74605902158824
2025-07-14 16:47:37.751,0.000529845913793,18.647917655763404
2025-07-14 16:47:37.759,0.0005453324863612,18.52849537518767
2025-07-14 16:47:37.766,0.0005591017917978,18.38646087368312
2025-07-14 16:47:37.774,0.0005710414270908,18.220439466778355
2025-07-14 16:47:37.782,0.0005811128834864,18.029085395874677
2025-07-14 16:47:37.790,0.0005893519177163,17.811163116188357
2025-07-14 16:47:37.798,0.000595865251305,17.565633902205278
2025-07-14 16:47:37.805,0.0006008233024815,17.29174353800429
2025-07-14 16:47:37.813,0.0006044490440055,16.989106532039667
2025-07-14 16:47:37.821,0.0006070035117813,16.657782218667652
2025-07-14 16:47:37.829,0.0006087688006508,16.29833827688051
2025-07-14 16:47:37.837,0.0006100294918439,15.911897592221797
2025-07-14 16:47:37.844,0.0006110534355304,15.50016498296536
2025-07-14 16:47:37.852,0.0006120728101903,15.06543107358796
2025-07-14 16:47:37.860,0.0006132664698653,14.61055149476566
2025-07-14 16:47:37.868,0.0006147446986588,14.138900590324306
2025-07-14 16:47:37.876,0.000616537470297,13.654299890615194
2025-07-14 16:47:37.884,0.0006185870844084,13.160922738384556
2025-07-14 16:47:37.891,0.0006207457032584,12.663177588803618
2025-07-14 16:47:37.899,0.0006227779998192,12.16557360164051
2025-07-14 16:47:37.907,0.0006243689302296,11.672573142856464
2025-07-14 16:47:37.915,0.0006251364967324,11.188436648137978
2025-07-14 16:47:37.923,0.0006246491298409,10.717065900375603
2025-07-14 16:47:37.930,0.0006224469231948,10.26185207380353
2025-07-14 16:47:37.938,0.0006180654907166,9.825534861095829
2025-07-14 16:47:37.946,0.0006110608513029,9.41007862209458
2025-07-14 16:47:37.954,0.0006010336035831,9.016570803642512
2025-07-14 16:47:37.962,0.0005876507718239,8.645146935787023
2025-07-14 16:47:37.970,0.0005706640499502,8.294945385168162
2025-07-14 16:47:37.977,0.0005499236271276,7.964093824837908
2025-07-14 16:47:37.985,0.000525387182363,7.649728141939778
2025-07-14 16:47:37.993,0.0004971239020486,7.348043318998662
2025-07-14 16:47:38.001,0.0004653135689759,7.054374740106181
2025-07-14 16:47:38.009,0.0004302410057452,6.763307418307265
2025-07-14 16:47:38.016,0.0003922864270917,6.468809824950437
2025-07-14 16:47:38.024,0.0003519124474797,6.164388321673908
2025-07-14 16:47:38.032,0.0003096485309838,5.843257640267152
2025-07-14 16:47:38.040,0.0002660736334111,5.498522417491737
2025-07-14 16:47:38.048,0.0002217977904327,5.123364475683812
2025-07-14 16:47:38.055,0.0001774434536876,4.711230363223634
2025-07-14 16:47:38.063,0.0001336273575621,4.256013656276227
2025-07-14 16:47:38.071,9.094354543001813e-05,3.7522266985090327
2025-07-14 16:47:38.079,4.994797222911375e-05,3.195156835968659
2025-07-14 16:47:38.087,1.1144951333995555e-05,2.5810027930171286
2025-07-14 16:47:38.095,-2.502436181385452e-05,1.9069876113765607
2025-07-14 16:47:38.102,-5.8191337924102274e-05,1.1714454875355456
2025-07-14 16:47:38.110,-8.806706808546097e-05,0.3738808205340131
2025-07-14 16:47:38.118,-0.0001144473348124,-0.4850012571362099
2025-07-14 16:47:38.126,-0.0001372151449283,-1.4032927164657416
2025-07-14 16:47:38.134,-0.0001563404613234,-2.377907942664004
2025-07-14 16:47:38.141,-0.0001718768379315,-3.4046350340112137
2025-07-14 16:47:38.149,-0.0001839549731736,-4.478211161754363
2025-07-14 16:47:38.157,-0.0001927735988296,-5.592419746819526
2025-07-14 16:47:38.165,-0.0001985884198484,-6.74020697274631
2025-07-14 16:47:38.173,-0.0002016999009785,-7.913814948173449
2025-07-14 16:47:38.180,-0.0002024405588098,-9.104928613258656
2025-07-14 16:47:38.188,-0.0002011621733857,-10.304833230388228
2025-07-14 16:47:38.196,-0.0001982231444881,-11.504579014913263
2025-07-14 16:47:38.204,-0.0001939761687364,-12.69514917407752
2025-07-14 16:47:38.212,-0.0001887564386471,-13.867627375265128
2025-07-14 16:47:38.220,-0.0001828705514042,-15.01336050987177
2025-07-14 16:47:38.227,-0.0001765862646839,-16.124112605714416
2025-07-14 16:47:38.235,-0.000170123264578,-17.192205902151848
2025-07-14 16:47:38.243,-0.0001636452851886,-18.210645446392878
2025-07-14 16:47:38.251,-0.0001572541584908,-19.173224082479425
2025-07-14 16:47:38.259,-0.0001509865161366,-20.07460535748457
2025-07-14 16:47:38.266,-0.0001448138031292,-20.910382625161525
2025-07-14 16:47:38.274,-0.0001386459974313,-21.677113440877484
2025-07-14 16:47:38.282,-0.0001323390698757,-22.372329165120146
2025-07-14 16:47:38.290,-0.0001257059272503,-22.994520483998
2025-07-14 16:47:38.298,-0.0001185304423267,-23.543100285156783
2025-07-14 16:47:38.305,-0.0001105841213171,-24.0183459804121
2025-07-14 16:47:38.313,-0.000101644873837,-24.42132393216177
2025-07-14 16:47:38.321,-9.151720243540996e-05,-24.753799108291183
2025-07-14 16:47:38.329,-8.005296574234548e-05,-25.01813344498011
2025-07-14 16:47:38.337,-6.717172394436352e-05,-25.21717662164081
2025-07-14 16:47:38.345,-5.2879553452845686e-05,-25.354153032247435
2025-07-14 16:47:38.352,-3.728513023228973e-05,-25.43254866372456
2025-07-14 16:47:38.360,-2.061183864774004e-05,-25.456001365510865
2025-07-14 16:47:38.368,-3.2046956335440973e-06,-25.428197627803453
2025-07-14 16:47:38.376,1.4468934805665262e-05,-25.352778505638863
2025-07-14 16:47:38.384,3.1825485240292664e-05,-25.23325676908953
2025-07-14 16:47:38.391,4.8178353495030135e-05,-25.072946767287505
2025-07-14 16:47:38.399,6.275780983358507e-05,-24.874907901452715
2025-07-14 16:47:38.407,7.473697748813828e-05,-24.641902035492308
2025-07-14 16:47:38.415,8.326288670540591e-05,-24.376364648583525
2025-07-14 16:47:38.423,8.749129625526491e-05,-24.080389062376625
2025-07-14 16:47:38.430,8.662370996123974e-05,-23.75572266387013
2025-07-14 16:47:38.438,7.994479518420465e-05,-23.40377370516255
2025-07-14 16:47:38.446,6.685824643378094e-05,-23.025627010064376
2025-07-14 16:47:38.454,4.691905174597008e-05,-22.62206677113161
2025-07-14 16:47:38.462,1.98601483054544e-05,-22.19360458685259
2025-07-14 16:47:38.470,-1.4388326693889206e-05,-21.74051096596357
2025-07-14 16:47:38.477,-5.568852486628407e-05,-21.262848708302773
2025-07-14 16:47:38.485,-0.0001036938339994,-20.76050685213722
2025-07-14 16:47:38.493,-0.0001578573660027,-20.23323424582369
2025-07-14 16:47:38.501,-0.0002174494551899,-19.680672238186357
2025-07-14 16:47:38.509,-0.0002815830504401,-19.102386457548857
2025-07-14 16:47:38.516,-0.000349245390102,-18.49789812359677
2025-07-14 16:47:38.524,-0.0004193340297264,-17.866715760047068
2025-07-14 16:47:38.532,-0.0004906951804705,-17.208368496774238
2025-07-14 16:47:38.540,-0.0005621624077599,-16.522442320146254
2025-07-14 16:47:38.548,-0.0006325939946607,-15.808620616506316
2025-07-14 16:47:38.555,-0.0007009075720488,-15.066730140695109
2025-07-14 16:47:38.563,-0.0007661108272312,-14.296793130299134
2025-07-14 16:47:38.571,-0.0008273272220931,-13.499085690690388
2025-07-14 16:47:38.579,-0.000883815823752,-12.674201821495338
2025-07-14 16:47:38.587,-0.0009349847118145,-11.823121583075851
2025-07-14 16:47:38.595,-0.0009803979408617,-10.947280973233068
2025-07-14 16:47:38.602,-0.0010197765029382,-10.048640179914228
2025-07-14 16:47:38.610,-0.0010529939908829,-9.129746085370847
2025-07-14 16:47:38.618,-0.0010800677440102,-8.193784309017573
2025-07-14 16:47:38.626,-0.0011011462850325,-7.244615766027465
2025-07-14 16:47:38.634,-0.0011164938694241,-6.2867927418513965
2025-07-14 16:47:38.641,-0.0011264729611948,-5.325549867474979
2025-07-14 16:47:38.649,-0.001131525477038,-4.3667661251306376
2025-07-14 16:47:38.657,-0.001132153746068,-3.4168950922459653
2025-07-14 16:47:38.665,-0.0011289022350304,-2.4828619940761096
2025-07-14 16:47:38.673,-0.001122341044019,-1.5719277162382093
2025-07-14 16:47:38.680,-0.0011130519203875,-0.6915216471414434
2025-07-14 16:47:38.688,-0.0011016171507189,0.1509530114172724
2025-07-14 16:47:38.696,-0.0010886113337957,0.9483361021885128
2025-07-14 16:47:38.704,-0.0010745958012339,1.6939425874791114
2025-07-14 16:47:38.712,-0.0010601152763746,2.381801529590781
2025-07-14 16:47:38.720,-0.0010456961400509,3.0068926182400872
2025-07-14 16:47:38.727,-0.0010318454120866,3.565370229290884
2025-07-14 16:47:38.735,-0.0010190493873674,4.054764792043194
2025-07-14 16:47:38.743,-0.0010077708929831,4.474151521363808
2025-07-14 16:47:38.751,-0.0009984443565488,4.824277341375131
2025-07-14 16:47:38.759,-0.0009914682216067,5.107638063872511
2025-07-14 16:47:38.766,-0.0009871946568604,5.328499535882827
2025-07-14 16:47:38.774,-0.0009859169970818,5.492858467267564
2025-07-14 16:47:38.782,-0.0009878559418484,5.608340912553641
2025-07-14 16:47:38.790,-0.0009931460914331,5.684038831310396
2025-07-14 16:47:38.798,-0.0010018246672794,5.7302877083159975
2025-07-14 16:47:38.805,-0.0010138241151113,5.758390792948531
2025-07-14 16:47:38.813,-0.0010289698086515,5.780298016449219
2025-07-14 16:47:38.821,-0.0010469834244149,5.808249944048482
2025-07-14 16:47:38.829,-0.0010674918640373,5.854399075737709
2025-07-14 16:47:38.837,-0.0010900409932966,5.930422279271514
2025-07-14 16:47:38.845,-0.0011141131138143,6.047138990864703
2025-07-14 16:47:38.852,-0.0011391470350192,6.214149954749351
2025-07-14 16:47:38.860,-0.0011645597165513,6.439510642053128
2025-07-14 16:47:38.868,-0.0011897685085876,6.72945210258505
2025-07-14 16:47:38.876,-0.0012142129916868,7.088159937345206
2025-07-14 16:47:38.884,-0.0012373754146323,7.517619475184031
2025-07-14 16:47:38.891,-0.0012587988223453,8.017532281051695
2025-07-14 16:47:38.899,-0.0012781021147755,8.58530602529423
2025-07-14 16:47:38.907,-0.0012949914336988,9.216116709941373
2025-07-14 16:47:38.915,-0.0013092674758997,9.903039458950134
2025-07-14 16:47:38.923,-0.0013208286101822,10.637241670734674
2025-07-14 16:47:38.930,-0.0013296699487247,11.40823038642158
2025-07-14 16:47:38.938,-0.0013358786701837,12.204144279397015
2025-07-14 16:47:38.946,-0.0013396259101391,13.012079712253636
2025-07-14 16:47:38.954,-0.0013411555391273,13.8184397962725
2025-07-14 16:47:38.962,-0.001340770217641,14.609295269042896
2025-07-14 16:47:38.970,-0.0013388152136007,15.37074622086795
2025-07-14 16:47:38.977,-0.0013356605466353,16.089274205696462
2025-07-14 16:47:38.985,-0.0013316821267643,16.75207503547935
2025-07-14 16:47:38.993,-0.0013272427175485,17.347363551233176
2025-07-14 16:47:39.001,-0.0013226736945751,17.864642860871545
2025-07-14 16:47:39.009,-0.0013182585709214,18.294931897335324
2025-07-14 16:47:39.016,-0.0013142191209927,18.630946635281827
2025-07-14 16:47:39.024,-0.0013107047692885,18.86723185659972
2025-07-14 16:47:39.032,-0.0013077857949286,19.000241917250943
2025-07-14 16:47:39.040,-0.0013054507678551,19.028370486475414
2025-07-14 16:47:39.048,-0.0013036083675345,18.951930657251424
2025-07-14 16:47:39.055,-0.0013020933462395,18.77308812634911
2025-07-14 16:47:39.063,-0.0013006760159198,18.495751287262166
2025-07-14 16:47:39.071,-0.0012990743788265,18.125423056453897
2025-07-14 16:47:39.079,-0.0012969679263642,17.669020060420767
2025-07-14 16:47:39.087,-0.0012940121989689,17.134665453813827
2025-07-14 16:47:39.095,-0.0012898533950322,16.531462126770002
2025-07-14 16:47:39.102,-0.0012841425224818,15.869253396576656
2025-07-14 16:47:39.110,-0.0012765486756381,15.158378451420097
2025-07-14 16:47:39.118,-0.0012667709887098,14.409429789023712
2025-07-14 16:47:39.126,-0.001254548780106,13.633019629473496
2025-07-14 16:47:39.134,-0.0012396694362157,12.839561748972448
2025-07-14 16:47:39.141,-0.001221973652117,12.039074372620808
2025-07-14 16:47:39.149,-0.0012013577062789,11.241008700763976
2025-07-14 16:47:39.157,-0.0011777725398087,10.454106374364349
2025-07-14 16:47:39.165,-0.0011512195803169,9.686287784005543
2025-07-14 16:47:39.173,-0.0011217434495682,8.94457168410942
2025-07-14 16:47:39.180,-0.0010894218753245,8.23502518330423
2025-07-14 16:47:39.188,-0.0010543533301737,7.562741933959563
2025-07-14 16:47:39.196,-0.0010166431763723,6.931845316947865
2025-07-14 16:47:39.204,-0.0009763893233479,6.345512669468252
2025-07-14 16:47:39.212,-0.0009336684841744,5.806016164430908
2025-07-14 16:47:39.220,-0.000888524047624,5.314775819187791
2025-07-14 16:47:39.227,-0.0008409564797817,4.872420260155513
2025-07-14 16:47:39.235,-0.0007909171079048,4.478851245639167
2025-07-14 16:47:39.243,-0.0007383060517341,4.13330848698625
2025-07-14 16:47:39.251,-0.0006829748439353,3.8344319454456506
2025-07-14 16:47:39.259,-0.0006247339295301,3.5803194715086217
2025-07-14 16:47:39.266,-0.0005633648793336,3.368578368564243
2025-07-14 16:47:39.274,-0.0004986368769902,3.196370194276982
2025-07-14 16:47:39.282,-0.0004303267832489,3.06044886032686
2025-07-14 16:47:39.290,-0.0003582417414301,2.9571928493378605
2025-07-14 16:47:39.298,-0.0002822428779951,2.882633116070499
2025-07-14 16:47:39.305,-0.0002022683068014,2.8324789347224235
2025-07-14 16:47:39.313,-0.0001183534877945,2.8021445330711057
2025-07-14 16:47:39.321,-3.064706202423166e-05,2.786779746940787
2025-07-14 16:47:39.329,6.057941364843712e-05,2.7813080688201355
2025-07-14 16:47:39.337,0.0001549289158039,2.7804753007805543
2025-07-14 16:47:39.345,0.000251884107503,2.7789115274078005
2025-07-14 16:47:39.352,0.0003508202139421,2.7712083052553096
2025-07-14 16:47:39.360,0.0004510252144187,2.752011861803384
2025-07-14 16:47:39.368,0.0005517264926677,2.716131779866729
2025-07-14 16:47:39.376,0.0006521225517611,2.658663207693912
2025-07-14 16:47:39.384,0.0007514178711499,2.575119191720434
2025-07-14 16:47:39.391,0.0008488586297417,2.46156839401612
2025-07-14 16:47:39.399,0.0009437669543393,2.3147723374870157
2025-07-14 16:47:39.407,0.0010355715799813,2.1323155074960023
2025-07-14 16:47:39.415,0.0011238332188124,1.912721192220855
2025-07-14 16:47:39.423,0.0012082633644238,1.655545901992585
2025-07-14 16:47:39.430,0.0012887356223307,1.3614455817084246
2025-07-14 16:47:39.438,0.0013652890162699,1.0322076123532975
2025-07-14 16:47:39.446,0.0014381231801544,0.6707437634422793
2025-07-14 16:47:39.454,0.0015075858964972,0.281040768085076
2025-07-14 16:47:39.462,0.0015741539520384,-0.131933007707207
2025-07-14 16:47:39.470,0.0016384086303394,-0.5623643074484483
2025-07-14 16:47:39.477,0.0017010073101155,-1.0037724817818063
2025-07-14 16:47:39.485,0.0017626525870554,-1.4492228815678947
2025-07-14 16:47:39.493,0.001824060124681,-1.8915691587584096
2025-07-14 16:47:39.501,0.0018859261908771,-2.3237155601399557
2025-07-14 16:47:39.509,0.0019488957131824,-2.7388886984496064
2025-07-14 16:47:39.516,0.0020135317632425,-3.1309071271906728
2025-07-14 16:47:39.524,0.0020802875857829,-3.4944364264013563
2025-07-14 16:47:39.532,0.0021494824601244,-3.825217496908397
2025-07-14 16:47:39.540,0.0022212827003062,-4.120256397769813
2025-07-14 16:47:39.548,0.0022956889263418,-4.377965345838751
2025-07-14 16:47:39.555,0.0023725303757502,-4.598246389568103
2025-07-14 16:47:39.563,0.002451466511838,-4.782511697641152
2025-07-14 16:47:39.571,0.0025319956496167,-4.933637260422437
2025-07-14 16:47:39.579,0.0026134699263506,-5.055849951380887
2025-07-14 16:47:39.587,0.0026951157702718,-5.154551171781168
2025-07-14 16:47:39.595,0.0027760589990352,-5.236083520295603
2025-07-14 16:47:39.602,0.0028553536597786,-5.3074498965389685
2025-07-14 16:47:39.610,0.0029320136265981,-5.375996976306809
2025-07-14 16:47:39.618,0.0030050458692257,-5.449076921254793
2025-07-14 16:47:39.626,0.0030734843134884,-5.5337023824353535
2025-07-14 16:47:39.634,0.003136423328857,-5.636210256731473
2025-07-14 16:47:39.641,0.0031930499846247,-5.761949249525269
2025-07-14 16:47:39.649,0.0032426742367133,-5.915005132291477
2025-07-14 16:47:39.657,0.0032847561818384,-6.09797575007883
2025-07-14 16:47:39.665,0.0033189294931503,-6.311805453763965
2025-07-14 16:47:39.673,0.003345020095106,-6.555685852014893
2025-07-14 16:47:39.680,0.0033630590165294,-6.827026757576409
2025-07-14 16:47:39.688,0.0033732882723421,-7.121498101922036
2025-07-14 16:47:39.696,0.0033761587230634,-7.433140562844497
2025-07-14 16:47:39.704,0.0033723192217972,-7.754539829136041
2025-07-14 16:47:39.712,0.0033625969065513,-8.077056936688285
2025-07-14 16:47:39.720,0.0033479690743777,-8.391105051442054
2025-07-14 16:47:39.727,0.0033295275888007,-8.686461519605048
2025-07-14 16:47:39.735,0.0033084372487688,-8.952602995769928
2025-07-14 16:47:39.743,0.0032858900170022,-9.179051005280618
2025-07-14 16:47:39.751,0.0032630574064901,-9.35571538256138
2025-07-14 16:47:39.759,0.0032410435682548,-9.473223614576131
2025-07-14 16:47:39.766,0.0032208416756362,-9.523225148961403
2025-07-14 16:47:39.774,0.0032032960511434,-9.49866111839779
2025-07-14 16:47:39.782,0.0031890721276574,-9.393991588088554
2025-07-14 16:47:39.790,0.0031786357892572,-9.205374247152765
2025-07-14 16:47:39.798,0.0031722429164719,-8.930790338723481
2025-07-14 16:47:39.805,0.0031699391167644,-8.570115476090074
2025-07-14 16:47:39.813,0.0031715687881876,-8.125134767378174
2025-07-14 16:47:39.821,0.0031767920191213,-7.599503340865487
2025-07-14 16:47:39.829,0.0031851074855229,-6.998654919083041
2025-07-14 16:47:39.837,0.0031958794716355,-6.329662529225428
2025-07-14 16:47:39.845,0.0032083672999845,-5.601056747323371
2025-07-14 16:47:39.852,0.0032217556463891,-4.822608025179696
2025-07-14 16:47:39.860,0.0032351843454999,-4.005080601110928
2025-07-14 16:47:39.868,0.003247776420553,-3.159966206143538
2025-07-14 16:47:39.876,0.0032586633004388,-2.299206213805971
2025-07-14 16:47:39.884,0.0032670065053352,-1.4349110225292947
2025-07-14 16:47:39.891,0.0032720153616374,-0.5790852917718236
2025-07-14 16:47:39.899,0.0032729604658389,0.2566328281493526
2025-07-14 16:47:39.907,0.0032691827240746,1.0612111181350414
2025-07-14 16:47:39.915,0.0032600979905022,1.8244350743504143
2025-07-14 16:47:39.923,0.0032451976768503,2.537087064919916
2025-07-14 16:47:39.930,0.0032240461255291,3.19108934793952
2025-07-14 16:47:39.938,0.0031962758648329,3.779609021218834
2025-07-14 16:47:39.946,0.0031615819787395,4.297124576041636
2025-07-14 16:47:39.954,0.0031197167228704,4.739455264568004
2025-07-14 16:47:39.962,0.0030704852774558,5.10375588430196
2025-07-14 16:47:39.970,0.0030137432333291,5.388480760316432
2025-07-14 16:47:39.977,0.0029493961080052,5.593321600184334
2025-07-14 16:47:39.985,0.0028774009034755,5.719124456693806
2025-07-14 16:47:39.993,0.0027977694840133,5.767791237056129
2025-07-14 16:47:40.001,0.0027105734235584,5.742171057834301
2025-07-14 16:47:40.009,0.0026159499215542,5.64594630836834
2025-07-14 16:47:40.016,0.002514108298061,5.483517622867512
2025-07-14 16:47:40.024,0.0024053363881266,5.259891157983027
2025-07-14 16:47:40.032,0.002290005945417,4.980570715338842
2025-07-14 16:47:40.040,0.0021685760903496,4.651456411049383
2025-07-14 16:47:40.048,0.0020415939725543,4.278750828476255
2025-07-14 16:47:40.055,0.0019096920879239,3.868872925695022
2025-07-14 16:47:40.063,0.0017735819428787,3.4283794188790826
2025-07-14 16:47:40.071,0.0016340439091448,2.9638929332729886
2025-07-14 16:47:40.079,0.0014919132262518,2.4820359081163605
2025-07-14 16:47:40.087,0.0013480622948789,1.9893690606618928
2025-07-14 16:47:40.095,0.0012033796547194,1.4923331524927368
2025-07-14 16:47:40.102,0.0010587462322704,0.9971928525687028
2025-07-14 16:47:40.110,0.0009150094976988,0.5099816515243263
2025-07-14 16:47:40.118,0.0007729561557181,0.036447044038714
2025-07-14 16:47:40.126,0.000633284054521,-0.4180044570860449
2025-07-14 16:47:40.134,0.0004965741966932,-0.8483625117380078
2025-07-14 16:47:40.141,0.0003632640246616,-1.2500679707775215
2025-07-14 16:47:40.149,0.0002336234362255,-1.6190669524131545
2025-07-14 16:47:40.157,0.0001077352104535,-1.951862866632764
2025-07-14 16:47:40.165,-1.4518334193958655e-05,-2.245565009259978
2025-07-14 16:47:40.173,-0.0001334606244375,-2.4979321616175607
2025-07-14 16:47:40.180,-0.0002496164581166,-2.707409527046805
2025-07-14 16:47:40.188,-0.0003636968962517,-2.873157301382802
2025-07-14 16:47:40.196,-0.0004765731688984,-2.9950692022077328
2025-07-14 16:47:40.204,-0.0005892403325725,-3.073779371079935
2025-07-14 16:47:40.212,-0.0007027723627278,-3.1106562212277167
2025-07-14 16:47:40.220,-0.0008182710660045,-3.107782040661927
2025-07-14 16:47:40.227,-0.0009368115583927,-3.0679174879583515
2025-07-14 16:47:40.235,-0.0010593871433616,-2.994450543618175
2025-07-14 16:47:40.243,-0.0011868563936238,-2.891330003225668
2025-07-14 16:47:40.251,-0.0013198951738852,-2.7629842009688343
2025-07-14 16:47:40.259,-0.0014589562029158,-2.614226296169319
2025-07-14 16:47:40.266,-0.0016042384784989,-2.450148095006832
2025-07-14 16:47:40.274,-0.0017556684559483,-2.2760049710553725
2025-07-14 16:47:40.282,-0.0019128942888628,-2.0970949556885694
2025-07-14 16:47:40.290,-0.0020752937284335,-1.9186354630970397
2025-07-14 16:47:40.298,-0.0022419954580834,-1.7456413692887096
2025-07-14 16:47:40.305,-0.0024119127460723,-1.5828082612489138
2025-07-14 16:47:40.313,-0.0025837873981907,-1.4344046021355217
2025-07-14 16:47:40.321,-0.0027562412252489,-1.3041763206596635
2025-07-14 16:47:40.329,-0.0029278317847729,-1.1952669335242876
2025-07-14 16:47:40.337,-0.0030971091071699,-1.1101557608922623
2025-07-14 16:47:40.345,-0.0032626704042239,-1.050616117313624
2025-07-14 16:47:40.352,-0.0034232102272732,-1.0176945855209802
2025-07-14 16:47:40.360,-0.0035775640776133,-1.0117116470551726
2025-07-14 16:47:40.368,-0.0037247440208346,-1.0322830968158618
2025-07-14 16:47:40.376,-0.003863965375454,-1.0783608586480786
2025-07-14 16:47:40.384,-0.0039946639608316,-1.148291098377176
2025-07-14 16:47:40.391,-0.0041165036590707,-1.2398869462437336
2025-07-14 16:47:40.399,-0.0042293742543945,-1.3505127249372106
2025-07-14 16:47:40.407,-0.0043333798237635,-1.4771763440012666
2025-07-14 16:47:40.415,-0.004428818442581,-1.616626456518825
2025-07-14 16:47:40.423,-0.0045161545603121,-1.765451055016207
2025-07-14 16:47:40.430,-0.0045959859128241,-1.9201743815272292
2025-07-14 16:47:40.438,-0.0046690070882901,-2.0773493172567945
2025-07-14 16:47:40.446,-0.0047359717797025,-2.233642783036061
2025-07-14 16:47:40.454,-0.0047976554348548,-2.385912110652167
2025-07-14 16:47:40.462,-0.0048548196324769,-2.5312708260510663
2025-07-14 16:47:40.470,-0.0049081792073772,-2.6671428029948445
2025-07-14 16:47:40.477,-0.0049583729747206,-2.791304275224988
2025-07-14 16:47:40.485,-0.0050059388497633,-2.9019137017166114
2025-07-14 16:47:40.493,-0.0050512941292935,-2.997529925109963
2025-07-14 16:47:40.501,-0.005094721554592,-3.0771194160075828
2025-07-14 16:47:40.509,-0.005136361451636,-3.140053635065473
2025-07-14 16:47:40.516,-0.0051762098377163,-3.1860976624326582
2025-07-14 16:47:40.524,-0.0052141220623468,-3.215391245613515
2025-07-14 16:47:40.532,-0.0052498214033473,-3.228423323806148
2025-07-14 16:47:40.540,-0.0052829120089918,-3.22600093471838
2025-07-14 16:47:40.548,-0.0053128955274018,-3.2092132412342984
2025-07-14 16:47:40.555,-0.0053391906291712,-3.1793912719680333
2025-07-14 16:47:40.563,-0.0053611544916281,-3.1380638862332093
2025-07-14 16:47:40.571,-0.0053781053000328,-3.0869104703342107
2025-07-14 16:47:40.579,-0.0053893449425619,-3.027710948164265
2025-07-14 16:47:40.587,-0.0053941812252768,-2.9622938235822254
2025-07-14 16:47:40.595,-0.0053919490409678,-2.8924831278936964
2025-07-14 16:47:40.602,-0.0053820300375673,-2.820045280937052
2025-07-14 16:47:40.610,-0.0053638704941741,-2.746636955294704
2025-07-14 16:47:40.618,-0.0053369972582264,-2.6737550459808777
2025-07-14 16:47:40.626,-0.0053010316223556,-2.60268980104309
2025-07-14 16:47:40.634,-0.005255700938338,-2.534482088291929
2025-07-14 16:47:40.641,-0.0052008477100429,-2.4698856950665498
2025-07-14 16:47:40.649,-0.0051364359655863,-2.4093355130897782
2025-07-14 16:47:40.657,-0.0050625548256247,-2.352922463962809
2025-07-14 16:47:40.665,-0.0049794192541294,-2.300376062884858
2025-07-14 16:47:40.673,-0.0048873679821062,-2.251055566048492
2025-07-14 16:47:40.680,-0.0047868585879479,-2.203950657229332
2025-07-14 16:47:40.688,-0.0046784597175392,-2.157692562145911
2025-07-14 16:47:40.696,-0.0045628404119608,-2.110576310506987
2025-07-14 16:47:40.704,-0.0044407565243379,-2.0605945879827927
2025-07-14 16:47:40.712,-0.0043130343511122,-2.005483243130084
2025-07-14 16:47:40.720,-0.0041805518808828,-1.9427780615306425
2025-07-14 16:47:40.727,-0.0040442183291563,-1.869881924071068
2025-07-14 16:47:40.735,-0.0039049527379603,-1.7841409631947676
2025-07-14 16:47:40.743,-0.0037636623832298,-1.6829278514217916
2025-07-14 16:47:40.751,-0.0036212216699595,-1.5637299262326187
2025-07-14 16:47:40.759,-0.0034784521873195,-1.4242394949314656
2025-07-14 16:47:40.766,-0.0033361045877013,-1.26244338933783
2025-07-14 16:47:40.774,-0.0031948428345238,-1.076708669136295
2025-07-14 16:47:40.782,-0.0030552311443485,-0.8658613199293697
2025-07-14 16:47:40.790,-0.0029177237610565,-0.6292548706526198
2025-07-14 16:47:40.798,-0.0027826576247238,-0.3668260734873774
2025-07-14 16:47:40.805,-0.0026502479986587,-0.0791351485371354
2025-07-14 16:47:40.813,-0.0025205871276291,0.2326114149245877
2025-07-14 16:47:40.821,-0.002393645988055,0.5665569111842907
2025-07-14 16:47:40.829,-0.0022692791535609,0.9202100610253374
2025-07-14 16:47:40.837,-0.00214723273952,1.2904802660250525
2025-07-14 16:47:40.845,-0.0020271553114928,1.6737317767272086
2025-07-14 16:47:40.852,-0.0019086115488839,2.065855391927617
2025-07-14 16:47:40.860,-0.0017910983514659,2.462355688892675
2025-07-14 16:47:40.868,-0.0016740629680408,2.8584512625906693
2025-07-14 16:47:40.876,-0.0015569226193418,3.249185042908473
2025-07-14 16:47:40.884,-0.0014390849930497,3.6295414675287248
2025-07-14 16:47:40.891,-0.0013199689407726,3.994567110793922
2025-07-14 16:47:40.899,-0.0011990247478495,4.339491297009061
2025-07-14 16:47:40.907,-0.0010757534525377,4.659843251350236
2025-07-14 16:47:40.915,-0.0009497247441674,4.951562456843753
2025-07-14 16:47:40.923,-0.0008205928985071,5.21109908991538
2025-07-14 16:47:40.931,-0.0006881100969915,5.4355016991586975
2025-07-14 16:47:40.938,-0.0005521364538732,5.622489666574451
2025-07-14 16:47:40.946,-0.000412646176888,5.770508433161068
2025-07-14 16:47:40.954,-0.0002697294790417,5.878765960635999
2025-07-14 16:47:40.962,-0.000123590115486,5.947249417200355
2025-07-14 16:47:40.970,2.5461272241629734e-05,5.976721601734934
2025-07-14 16:47:40.977,0.0001770174980799,5.968697148886053
2025-07-14 16:47:40.985,0.0003305880924947,5.9253990832128025
2025-07-14 16:47:40.993,0.000485614597199,5.849696810869184
2025-07-14 16:47:41.001,0.000641487029141,5.745027148273123
2025-07-14 16:47:41.009,0.0007975607338532,5.615300483310872
2025-07-14 16:47:41.016,0.0009531729450902,5.464794635354139
2025-07-14 16:47:41.024,0.0011076585068765,5.298039406297906
2025-07-14 16:47:41.032,0.0012603644249893,5.119695168836771
2025-07-14 16:47:41.040,0.0014106631177357,4.934429093060098
2025-07-14 16:47:41.048,0.0015579643038236,4.746792747967246
2025-07-14 16:47:41.056,0.0017017253955093,4.56110481897846
2025-07-14 16:47:41.063,0.0018414601796297,4.381342550986542
2025-07-14 16:47:41.071,0.0019767455422925,4.211045259051613
2025-07-14 16:47:41.079,0.0021072259907638,4.053232848940771
2025-07-14 16:47:41.087,0.002232615714082,3.910341763818431
2025-07-14 16:47:41.095,0.0023526979493024,3.7841801338853984
2025-07-14 16:47:41.102,0.0024673215561912,3.6759031750726954
2025-07-14 16:47:41.110,0.0025763949492375,3.586009095175287
2025-07-14 16:47:41.118,0.00267987781255,3.514354965076961
2025-07-14 16:47:41.126,0.0027777712501304,3.46019124778695
2025-07-14 16:47:41.134,0.0028701071656198,3.422212995505737
2025-07-14 16:47:41.141,0.0029569377164797,3.398625163846802
2025-07-14 16:47:41.149,0.0030383256509543,3.387219082239603
2025-07-14 16:47:41.157,0.003114336218494,3.385456879503685
2025-07-14 16:47:41.165,0.0031850311549009,3.3905605987876712
2025-07-14 16:47:41.173,0.0032504649941553,3.399602834696552
2025-07-14 16:47:41.181,0.0033106836691164,3.409595960218652
2025-07-14 16:47:41.188,0.0033657250808723,3.417577345081348
2025-07-14 16:47:41.196,0.0034156211265971,3.4206883603569445
2025-07-14 16:47:41.204,0.0034604006332795,3.4162453800922954
2025-07-14 16:47:41.212,0.0035000926863892,3.401801404712568
2025-07-14 16:47:41.220,0.0035347298540314,3.375197334752244
2025-07-14 16:47:41.227,0.003564350793596,3.334602321033231
2025-07-14 16:47:41.235,0.0035890018139541,3.2785430136268623
2025-07-14 16:47:41.243,0.0036087372192783,3.2059219232928755
2025-07-14 16:47:41.251,0.0036236186021471,3.116025480821177
2025-07-14 16:47:41.259,0.0036337135322266,3.0085227079467773
2025-07-14 16:47:41.266,0.0036390941910178,2.883455669919909
2025-07-14 16:47:41.274,0.0036398364301515,2.741223038121372
2025-07-14 16:47:41.282,0.0036360195649957,2.582558135048393
2025-07-14 16:47:41.290,0.0036277270449094,2.4085027634819465
2025-07-14 16:47:41.298,0.0036150480114329,2.22037795388188
2025-07-14 16:47:41.306,0.0035980796826567,2.019752529699156
2025-07-14 16:47:41.313,0.0035769304895498,1.8084101273815287
2025-07-14 16:47:41.321,0.0035517239125563,1.5883150554552896
2025-07-14 16:47:41.329,0.0035226029544166,1.3615771700359858
2025-07-14 16:47:41.337,0.003489735069535,1.1304158090092895
2025-07-14 16:47:41.345,0.003453317162137,0.8971227772849286
2025-07-14 16:47:41.352,0.0034135800547113,0.6640244057335006
2025-07-14 16:47:41.360,0.0033707917048721,0.4334427933177798
2025-07-14 16:47:41.368,0.0033252584567741,0.207656454745114
2025-07-14 16:47:41.376,0.0032773237647982,-0.0111392891247515
2025-07-14 16:47:41.384,0.0032273641184525,-0.2208717340401313
2025-07-14 16:47:41.391,0.0031757822867555,-0.4196294851318249
2025-07-14 16:47:41.399,0.0031229983725769,-0.6056997798247422
2025-07-14 16:47:41.407,0.003069439364788,-0.7776036986722334
2025-07-14 16:47:41.415,0.0030155278225077,-0.9341284061318365
2025-07-14 16:47:41.423,0.0029616701046797,-1.0743554326991105
2025-07-14 16:47:41.431,0.0029082443343203,-1.1976838769860576
2025-07-14 16:47:41.438,0.0028555881813577,-1.3038473013751737
2025-07-14 16:47:41.446,0.0028039866021374,-1.3929230609375878
2025-07-14 16:47:41.454,0.002753659862765,-1.4653328864427877
2025-07-14 16:47:41.462,0.0027047524188659,-1.5218337682445893
2025-07-14 16:47:41.470,0.0026573234394003,-1.5634985626419224
2025-07-14 16:47:41.477,0.0026113399038439,-1.5916862417245374
2025-07-14 16:47:41.485,0.0025666732350147,-1.6080022846378257
2025-07-14 16:47:41.493,0.0025231002796291,-1.6142503029879305
2025-07-14 16:47:41.501,0.0024803090798313,-1.6123765459407295
2025-07-14 16:47:41.509,0.002437909387707,-1.604409392455536
2025-07-14 16:47:41.516,0.002395447426597,-1.5923962756706718
2025-07-14 16:47:41.524,0.0023524240921307,-1.578340677463293
2025-07-14 16:47:41.532,0.0023083155890224,-1.5641418681676402
2025-07-14 16:47:41.540,0.0022625953576748,-1.5515399441868405
2025-07-14 16:47:41.548,0.0022147560669127,-1.5420684419251998
2025-07-14 16:47:41.556,0.0021643305134511,-1.5370163975784896
2025-07-14 16:47:41.563,0.0021109105160477,-1.5374012043784773
2025-07-14 16:47:41.571,0.0020541632449654,-1.5439530242665205
2025-07-14 16:47:41.579,0.0019938447347109,-1.5571108794635142
2025-07-14 16:47:41.587,0.001929810506282,-1.5770299268973735
2025-07-14 16:47:41.595,0.0018620233143189,-1.6035988513485393
2025-07-14 16:47:41.602,0.00179055808386,-1.636465841628636
2025-07-14 16:47:41.610,0.0017156040761144,-1.6750712678775654
2025-07-14 16:47:41.618,0.0016374641965011,-1.7186849746952977
2025-07-14 16:47:41.626,0.0015565512215947,-1.766446048731691
2025-07-14 16:47:41.634,0.0014733807029473,-1.8174030027510115
2025-07-14 16:47:41.641,0.0013885604160655,-1.870552523711655
2025-07-14 16:47:41.649,0.0013027763552485,-1.92487523494261
2025-07-14 16:47:41.657,0.0012167753644703,-1.9793672900721944
2025-07-14 16:47:41.665,0.001131344616717,-2.033067012849971
2025-07-14 16:47:41.673,0.0010472884259226,-2.0850761872218864
2025-07-14 16:47:41.681,0.0009654032889619,-2.134575956868762
2025-07-14 16:47:41.688,0.0008864524507356,-2.1808375931279143
2025-07-14 16:47:41.696,0.0008111414766068,-2.223228624734221
2025-07-14 16:47:41.704,0.0007400962253717,-2.261214988709376
2025-07-14 16:47:41.712,0.0006738443192276,-2.294359957162009
2025-07-14 16:47:41.720,0.0006128008633474,-2.322320617392766
2025-07-14 16:47:41.727,0.0005572588714949,-2.3448426332314565
2025-07-14 16:47:41.735,0.0005073845795206,-2.36175390267254
2025-07-14 16:47:41.743,0.0004632175425253,-2.372957568461784
2025-07-14 16:47:41.751,0.0004246751667322,-2.378424658916904
2025-07-14 16:47:41.759,0.0003915611745813,-2.3781864634073115
2025-07-14 16:47:41.766,0.0003635774027383,-2.3723266058600445
2025-07-14 16:47:41.774,0.0003403382471715,-2.3609726885952926
2025-07-14 16:47:41.782,0.0003213870424794,-2.3442873464114253
2025-07-14 16:47:41.790,0.0003062137323685,-2.322458576641079
2025-07-14 16:47:41.798,0.0002942732768732,-2.2956892873513137
2025-07-14 16:47:41.806,0.0002850042342417,-2.2641861224157025
2025-07-14 16:47:41.813,0.0002778468532453,-2.228147769411707
2025-07-14 16:47:41.821,0.0002722599340511,-2.187753125349424
2025-07-14 16:47:41.829,0.000267735744049,-2.1431498721562776
2025-07-14 16:47:41.837,0.0002638123745293,-2.094444176023563
2025-07-14 16:47:41.845,0.0002600830528579,-2.041692345096884
2025-07-14 16:47:41.852,0.0002562021262441,-1.984895334058972
2025-07-14 16:47:41.860,0.0002518877431876,-1.9239969532027448
2025-07-14 16:47:41.868,0.0002469215912618,-1.8588865122627984
2025-07-14 16:47:41.876,0.0002411462541098,-1.789406405515117
2025-07-14 16:47:41.884,0.0002344607557597,-1.7153648385823967
2025-07-14 16:47:41.891,0.0002268147432904,-1.6365535340688009
2025-07-14 16:47:41.899,0.0002182016759811,-1.5527698623184316
2025-07-14 16:47:41.907,0.0002086514255834,-1.463842456646807
2025-07-14 16:47:41.915,0.0001982227783526,-1.369659022939827
2025-07-14 16:47:41.923,0.000186996323098,-1.270194776016122
2025-07-14 16:47:41.931,0.0001750680473899,-1.165539759329597
2025-07-14 16:47:41.938,0.0001625437281686,-1.0559232490415154
2025-07-14 16:47:41.946,0.0001495340531094,-0.941733512734197
2025-07-14 16:47:41.954,0.0001361504316205,-0.823531378637845
2025-07-14 16:47:41.962,0.000122501578551,-0.7020563548838535
2025-07-14 16:47:41.970,0.000108691029524,-0.578224395247323
2025-07-14 16:47:41.977,9.481567428285524e-05,-0.4531168111475787
2025-07-14 16:47:41.985,8.096518119262671e-05,-0.3279602556983325
2025-07-14 16:47:41.993,6.722194706849726e-05,-0.2040981386993109
2025-07-14 16:47:42.001,5.366110607482215e-05,-0.0829542629934702
2025-07-14 16:47:42.009,4.035025322450759e-05,0.0340101069249526
2025-07-14 16:47:42.016,2.734880673033796e-05,0.1453441415084023
2025-07-14 16:47:42.024,1.4707192918509574e-05,0.2496583678631939
2025-07-14 16:47:42.032,2.4661745965688584e-06,0.3456764197829907
2025-07-14 16:47:42.040,-9.343379938074453e-06,0.432285267616746
2025-07-14 16:47:42.048,-2.0700169567169176e-05,0.5085815530292191
2025-07-14 16:47:42.056,-3.159174371053307e-05,0.5739117659974662
2025-07-14 16:47:42.063,-4.2013836807581696e-05,0.6279042529855156
2025-07-14 16:47:42.071,-5.1970285743710654e-05,0.6704914195523963
2025-07-14 16:47:42.079,-6.14738907942635e-05,0.7019209560871629
2025-07-14 16:47:42.087,-7.054822465424039e-05,0.7227554326466312
2025-07-14 16:47:42.095,-7.923001362441687e-05,0.7338601385462836
2025-07-14 16:47:42.102,-8.757142845600193e-05,0.7363795501659767
2025-07-14 16:47:42.110,-9.564147494749134e-05,0.731703271330834
2025-07-14 16:47:42.118,-0.0001035256740736,0.7214226908472996
2025-07-14 16:47:42.126,-0.0001113233654294,0.7072799366298221
2025-07-14 16:47:42.134,-0.0001191422480707,0.6911109740423559
2025-07-14 16:47:42.141,-0.0001270901710165,0.6747848941824305
2025-07-14 16:47:42.149,-0.0001352646520566,0.6601415575314918
2025-07-14 16:47:42.157,-0.0001437410427445,0.648929787786744
2025-07-14 16:47:42.165,-0.0001525605696724,0.6427482401378322
2025-07-14 16:47:42.173,-0.0001617196202335,0.6429908974561386
2025-07-14 16:47:42.181,-0.0001711615964538,0.6507988894364485
2025-07-14 16:47:42.188,-0.0001807724309923,0.6670200079879305
2025-07-14 16:47:42.196,-0.0001903804818258,0.6921769385601952
2025-07-14 16:47:42.204,-0.0001997610868096,0.726444873715258
2025-07-14 16:47:42.212,-0.0002086456532707,0.7696388490853374
2025-07-14 16:47:42.220,-0.0002167348239809,0.8212108622209898
2025-07-14 16:47:42.227,-0.0002237150127848,0.8802566135777429
2025-07-14 16:47:42.235,-0.0002292774407191,0.9455315500815284
2025-07-14 16:47:42.243,-0.0002331386970071,1.0154757893150848
2025-07-14 16:47:42.251,-0.0002350617302883,1.0882474381598102
2025-07-14 16:47:42.259,-0.0002348760035504,1.1617637654675044
2025-07-14 16:47:42.266,-0.0002324954023014,1.2337496128121046
2025-07-14 16:47:42.274,-0.0002279325254199,1.3017923056137408
2025-07-14 16:47:42.282,-0.0002213082810456,1.3634021483781995
2025-07-14 16:47:42.290,-0.0002128561656837,1.416077360217253
2025-07-14 16:47:42.298,-0.0002029210363848,1.4573720540178317
2025-07-14 16:47:42.306,-0.0001919524346264,1.4849656172388763
2025-07-14 16:47:42.313,-0.0001804926066548,1.4967316464775071
2025-07-14 16:47:42.321,-0.000169159508311,1.490804444997484
2025-07-14 16:47:42.329,-0.0001586254677293,1.4656410231512242
2025-07-14 16:47:42.337,-0.0001495927187421,1.420076547399702
2025-07-14 16:47:42.345,-0.0001427674286367,1.3533712636197306
2025-07-14 16:47:42.352,-0.0001388339331579,1.2652470766873318
2025-07-14 16:47:42.360,-0.0001384306924227,1.1559122051070805
2025-07-14 16:47:42.368,-0.0001421291440865,1.0260726487830707
2025-07-14 16:47:42.376,-0.0001504162716689,0.8769296074219853
2025-07-14 16:47:42.384,-0.0001636813733142,0.7101624596987492
2025-07-14 16:47:42.391,-0.0001822072221763,0.5278974467135739
2025-07-14 16:47:42.399,-0.0002061655592339,0.3326627740592566
2025-07-14 16:47:42.407,-0.0002356166556378,0.1273314168234704
2025-07-14 16:47:42.415,-0.0002705125255731,-0.0849465669959757
2025-07-14 16:47:42.423,-0.0003107032611173,-0.3008199825049504
2025-07-14 16:47:42.431,-0.0003559458950526,-0.5168181725625149
2025-07-14 16:47:42.438,-0.0004059151720278,-0.7294357390326784
2025-07-14 16:47:42.446,-0.0004602156177144,-0.9352176292549566
2025-07-14 16:47:42.454,-0.0005183943337475,-1.130842045548141
2025-07-14 16:47:42.462,-0.0005799540068355,-1.3131988812575073
2025-07-14 16:47:42.470,-0.0006443656968662,-1.4794616940788006
2025-07-14 16:47:42.477,-0.0007110810545876,-1.6271515501330682
2025-07-14 16:47:42.485,-0.0007795437083502,-1.754191376902715
2025-07-14 16:47:42.493,-0.000849199645879,-1.85894973691956
2025-07-14 16:47:42.501,-0.0009195064963117,-1.9402731847974424
2025-07-14 16:47:42.509,-0.0009899416859552,-1.9975066184402996
2025-07-14 16:47:42.516,-0.0010600094955805,-2.030501303511474
2025-07-14 16:47:42.524,-0.0011292470859427,-2.039610552346767
2025-07-14 16:47:42.532,-0.0011972295810684,-2.0256733727975424
2025-07-14 16:47:42.540,-0.001263574306318,-1.9899867515041612
2025-07-14 16:47:42.548,-0.0013279442720119,-1.9342675726532248
2025-07-14 16:47:42.556,-0.0013900509761704,-1.8606054694501748
2025-07-14 16:47:42.563,-0.0014496565751669,-1.7714081391980343
2025-07-14 16:47:42.571,-0.0015065754430248,-1.6693408104822205
2025-07-14 16:47:42.579,-0.0015606751133442,-1.5572616288804448
2025-07-14 16:47:42.587,-0.0016118765773746,-1.438154731104649
2025-07-14 16:47:42.595,-0.0016601539025174,-1.3150627152322178
2025-07-14 16:47:42.602,-0.0017055331423303,-1.191020092996787
2025-07-14 16:47:42.610,-0.0017480905309172,-1.068989133638286
2025-07-14 16:47:42.618,-0.0017879499631575,-0.9517992868061952
2025-07-14 16:47:42.626,-0.0018252796924249,-0.8420911226384638
2025-07-14 16:47:42.634,-0.0018602879941551,-0.7422654761246699
2025-07-14 16:47:42.641,-0.0018932173343797,-0.6544382582379168
2025-07-14 16:47:42.649,-0.0019243365109361,-0.5804012222279689
2025-07-14 16:47:42.657,-0.001953930384913,-0.5215888650884402
2025-07-14 16:47:42.665,-0.0019822871477557,-0.4790516054746591
2025-07-14 16:47:42.673,-0.0020096834982564,-0.453435403836399
2025-07-14 16:47:42.681,-0.0020363685843,-0.4449680636591683
2025-07-14 16:47:42.688,-0.0020625480397993,-0.4534525533825399
2025-07-14 16:47:42.696,-0.0020883697959501,-0.4782677913685675
2025-07-14 16:47:42.704,-0.0021139134071829,-0.5183774153637624
2025-07-14 16:47:42.712,-0.0021391843308592,-0.5723470897205306
2025-07-14 16:47:42.720,-0.0021641140242776,-0.6383708665872867
2025-07-14 16:47:42.727,-0.0021885660464741,-0.7143069918552598
2025-07-14 16:47:42.735,-0.0022123477097707,-0.7977233208578421
2025-07-14 16:47:42.743,-0.0022352262800199,-0.8859521848358725
2025-07-14 16:47:42.751,-0.0022569483023138,-0.9761541440845574
2025-07-14 16:47:42.759,-0.0022772603482866,-1.065389603533221
2025-07-14 16:47:42.766,-0.0022959293551583,-1.1506967803519237
2025-07-14 16:47:42.774,-0.0023127607635236,-1.229174031580769
2025-07-14 16:47:42.782,-0.0023276128636137,-1.298064105939138
2025-07-14 16:47:42.790,-0.0023404061207016,-1.3548375150950758
2025-07-14 16:47:42.798,-0.0023511267298797,-1.3972719664843845
2025-07-14 16:47:42.806,-0.0023598241623104,-1.423524701432904
2025-07-14 16:47:42.813,-0.0023666029222425,-1.4321946675813428
2025-07-14 16:47:42.821,-0.0023716091271766,-1.4223717340076991
2025-07-14 16:47:42.829,-0.0023750129153147,-1.393670620332819
2025-07-14 16:47:42.837,-0.0023769881104852,-1.3462478279046663
