Timestamp,GSR_Filtered,PPG_Filtered
2025-03-07 12:00:00.471,0.0023255965276684472,76.97152669570121
2025-03-07 12:00:00.478,0.002067010145379969,77.39859958244436
2025-03-07 12:00:00.486,0.0018173175045657528,77.80687115381686
2025-03-07 12:00:00.494,0.001577152274984494,78.19601145014214
2025-03-07 12:00:00.502,0.0013470634899408129,78.56571111181448
2025-03-07 12:00:00.510,0.0011275088000419072,78.91568037049414
2025-03-07 12:00:00.518,0.0009188467591988797,79.24564727690615
2025-03-07 12:00:00.525,0.0007213290202118944,79.55535516093524
2025-03-07 12:00:00.533,0.0005350932720609968,79.84455934709153
2025-03-07 12:00:00.541,0.00036015757924047866,80.11302317773799
2025-03-07 12:00:00.549,0.00019641660301119782,80.36051342684826
2025-03-07 12:00:00.557,4.3640064577492736e-05,80.58679521750611
2025-03-07 12:00:00.564,-9.852628997604955e-05,80.79162658575412
2025-03-07 12:00:00.572,-0.00023055708561609543,80.97475286056859
2025-03-07 12:00:00.580,-0.0003530410433159113,81.13590105344734
2025-03-07 12:00:00.588,-0.0004666720253602285,81.27477447011997
2025-03-07 12:00:00.596,-0.0005722373405185116,81.39104777003699
2025-03-07 12:00:00.603,-0.0006706032069565494,81.48436270547137
2025-03-07 12:00:00.611,-0.0007626973235842953,81.55432477031775
2025-03-07 12:00:00.619,-0.0008494886796222277,81.60050097824298
2025-03-07 12:00:00.627,-0.0009319650099945095,81.62241897020505
2025-03-07 12:00:00.635,-0.001011108600212237,81.61956762228543
2025-03-07 12:00:00.643,-0.0010878713711065008,81.59139928636476
2025-03-07 12:00:00.650,-0.0011631502933835685,81.53733374886598
2025-03-07 12:00:00.658,-0.0012377641919155294,81.45676393742227
2025-03-07 12:00:00.666,-0.0013124329003573625,81.3490633431193
2025-03-07 12:00:00.674,-0.0013877595536765065,81.21359505851566
2025-03-07 12:00:00.682,-0.0014642166396445627,81.04972226093494
2025-03-07 12:00:00.689,-0.001542136316858613,80.85681989884671
2025-03-07 12:00:00.697,-0.0016217054041351767,80.63428726909937
2025-03-07 12:00:00.705,-0.001702965283836472,80.38156110713149
2025-03-07 12:00:00.713,-0.0017858167410439994,80.0981287540006
2025-03-07 12:00:00.721,-0.0018700295543678253,79.78354091610039
2025-03-07 12:00:00.729,-0.001955256507921826,79.43742349867968
2025-03-07 12:00:00.736,-0.0020410513648565203,79.05948797544315
2025-03-07 12:00:00.744,-0.0021268901608927095,78.64953975599852
2025-03-07 12:00:00.752,-0.002212194943967733,78.20748403268144
2025-03-07 12:00:00.760,-0.0022963588836512334,77.7333286297454
2025-03-07 12:00:00.768,-0.0023787715814160126,77.22718344178529
2025-03-07 12:00:00.775,-0.0024588434586174466,76.68925613453746
2025-03-07 12:00:00.783,-0.002536028253639133,76.1198438889821
2025-03-07 12:00:00.791,-0.002609842842192658,75.51932109716608
2025-03-07 12:00:00.799,-0.002679883724334801,74.88812306263105
2025-03-07 12:00:00.807,-0.0027458395957456207,74.22672591608914
2025-03-07 12:00:00.814,-0.0028074995147884616,73.53562312345828
2025-03-07 12:00:00.822,-0.0028647563664541053,72.81529913313778
2025-03-07 12:00:00.830,-0.0029176056336594485,72.0662008763543
2025-03-07 12:00:00.838,-0.0029661398763924057,71.28870799186117
2025-03-07 12:00:00.846,-0.003010539672635235,70.4831027871917
2025-03-07 12:00:00.854,-0.0030510619331027694,69.64954106588104
2025-03-07 12:00:00.861,-0.003088026388402701,68.78802503653742
2025-03-07 12:00:00.869,-0.003121800746599821,68.16205660242952
2025-03-07 12:00:00.877,-0.0031527846977479853,67.4720077132739
2025-03-07 12:00:00.885,-0.0031813927236578037,66.71643676141946
2025-03-07 12:00:00.893,-0.00320803560577163,65.89366692922003
2025-03-07 12:00:00.900,-0.003233100622796154,65.00177734904456
2025-03-07 12:00:00.908,-0.003256930691850657,64.03860360827112
2025-03-07 12:00:00.916,-0.0032798031193167787,63.00174877603296
2025-03-07 12:00:00.924,-0.0033019091333313716,61.888605845542045
2025-03-07 12:00:00.932,-0.003323335811033002,60.696392130590795
2025-03-07 12:00:00.939,-0.003344052153584592,59.42219573273957
2025-03-07 12:00:00.947,-0.0033639007768651165,58.0630337155596
2025-03-07 12:00:00.955,-0.0033825961304961663,56.61592109643405
2025-03-07 12:00:00.963,-0.003399729620796668,55.07794921055899
2025-03-07 12:00:00.971,-0.0034147816204976996,53.44637143488207
2025-03-07 12:00:00.979,-0.0034271400268319568,51.718693703566885
2025-03-07 12:00:00.986,-0.003436124693859463,49.89276672528483
2025-03-07 12:00:00.994,-0.0034410166940623357,47.96687635195296
2025-03-07 12:00:01.002,-0.0034410909669287336,45.93982817497281
2025-03-07 12:00:01.010,-0.003435650536858224,43.811022164896755
2025-03-07 12:00:01.018,-0.0034240602265583884,41.58051304877852
2025-03-07 12:00:01.025,-0.0034057777440741704,39.249052158790825
2025-03-07 12:00:01.033,-0.0033803802158915044,36.818106704855246
2025-03-07 12:00:01.041,-0.003347584647928344,34.28985283692182
2025-03-07 12:00:01.049,-0.0033072613382488097,31.667139476940303
2025-03-07 12:00:01.057,-0.0032594398483138517,28.953420717054982
2025-03-07 12:00:01.064,-0.003204307714060246,26.15265559158082
2025-03-07 12:00:01.072,-0.0031422026008364537,23.26917521949754
2025-03-07 12:00:01.080,-0.003073598993178852,20.307518655876716
2025-03-07 12:00:01.088,-0.0029990907093875186,17.272240249802607
2025-03-07 12:00:01.096,-0.0029193705875831004,14.167692838805019
2025-03-07 12:00:01.104,-0.002835208649428143,10.997792662974566
2025-03-07 12:00:01.111,-0.0027474298504715335,7.765773395792967
2025-03-07 12:00:01.119,-0.0026568921123044766,4.47393809745435
2025-03-07 12:00:01.127,-0.00256446483142415,1.1234191303678611
2025-03-07 12:00:01.135,-0.0024710077608986365,-2.2860429356177687
2025-03-07 12:00:01.143,-0.002377350224779372,-5.756289728979826
2025-03-07 12:00:01.150,-0.0022842709080942835,-9.290892804182507
2025-03-07 12:00:01.158,-0.002192478696114898,-12.895246852695859
2025-03-07 12:00:01.166,-0.002102595101175841,-16.57659719746328
2025-03-07 12:00:01.174,-0.0020151387928601223,-20.343991531314906
2025-03-07 12:00:01.182,-0.0019305127411034754,-24.20814755861196
2025-03-07 12:00:01.189,-0.0018489945237323837,-28.181230433276706
2025-03-07 12:00:01.197,-0.001770730437220617,-32.27653662979481
2025-03-07 12:00:01.205,-0.0016957341443526348,-36.50808408733981
2025-03-07 12:00:01.213,-0.0016238905812330682,-40.890112056610185
2025-03-07 12:00:01.221,-0.0015549656077611814,-45.43649795522106
2025-03-07 12:00:01.229,-0.00148862142593509,-50.160102577719215
2025-03-07 12:00:01.236,-0.0014244372413840564,-55.07205906606214
2025-03-07 12:00:01.244,-0.0013619341305139941,-60.18102496305232
2025-03-07 12:00:01.252,-0.001300602653109178,-65.49242026840447
2025-03-07 12:00:01.260,-0.0012399314699569515,-71.00767751055693
2025-03-07 12:00:01.268,-0.001179435171909651,-76.72353225160352
2025-03-07 12:00:01.275,-0.0011186797404162429,-82.63138397904439
2025-03-07 12:00:01.283,-0.0010573044577645257,-88.71675784283218
2025-03-07 12:00:01.291,-0.0009950395101445567,-94.95889703002885
2025-03-07 12:00:01.299,-0.0009317188846572897,-101.33051362635776
2025-03-07 12:00:01.307,-0.000867288480524467,-107.7977225306672
2025-03-07 12:00:01.314,-0.0008018096650798281,-114.32017835261895
2025-03-07 12:00:01.322,-0.000735458724704708,-120.85142928238015
2025-03-07 12:00:01.330,-0.0006685226738768684,-127.33949478544349
2025-03-07 12:00:01.338,-0.0006013917021543505,-133.72766582722446
2025-03-07 12:00:01.346,-0.0005345483218078555,-139.95551742396216
2025-03-07 12:00:01.354,-0.00046855321839831,-145.96011397343813
2025-03-07 12:00:01.361,-0.00040402798485127323,-151.67737843425544
2025-03-07 12:00:01.369,-0.0003416352584027334,-157.04358745104815
2025-03-07 12:00:01.377,-0.0002820570922241864,-161.99694647252772
2025-03-07 12:00:01.385,-0.00022597251973791754,-166.47919232657748
2025-03-07 12:00:01.393,-0.00017403520106076746,-170.43716616893806
2025-03-07 12:00:01.400,-0.00012685189919650814,-173.82429775788503
2025-03-07 12:00:01.408,-8.496243119753081e-05,-176.60194307146324
2025-03-07 12:00:01.416,-4.8821711527024886e-05,-178.74052158893286
2025-03-07 12:00:01.424,-1.8784550161121248e-05,-180.2204069777898
2025-03-07 12:00:01.432,4.9060505410526935e-06,-181.0325349891725
2025-03-07 12:00:01.439,2.212635300485165e-05,-181.17870434277782
2025-03-07 12:00:01.447,3.287454650708333e-05,-180.67155943289032
2025-03-07 12:00:01.455,3.726846184835826e-05,-179.53425695870786
2025-03-07 12:00:01.463,3.5538654078504e-05,-177.79983129524456
2025-03-07 12:00:01.471,2.801758753042259e-05,-175.51028491419348
2025-03-07 12:00:01.479,1.5125978941829702e-05,-172.71543991854585
2025-03-07 12:00:01.486,-2.6424663099867415e-06,-169.47159440596246
2025-03-07 12:00:01.494,-2.4736730527934266e-05,-165.84003271459045
2025-03-07 12:00:01.502,-5.0563671181001704e-05,-161.8854415678408
2025-03-07 12:00:01.510,-7.950226863066314e-05,-157.67428478632885
2025-03-07 12:00:01.518,-0.00011091689451839342,-153.27318774796723
2025-03-07 12:00:01.525,-0.00014416976595711144,-148.74737941078806
2025-03-07 12:00:01.533,-0.00017863273489383377,-144.1592347941768
2025-03-07 12:00:01.541,-0.00021369843913577038,-139.56695471299466
2025-03-07 12:00:01.549,-0.00024879069216280286,-135.02341266270477
2025-03-07 12:00:01.557,-0.00028337378791944904,-130.57519144050232
2025-03-07 12:00:01.564,-0.0003169601487222654,-126.26182470637585
2025-03-07 12:00:01.572,-0.00034911560644584563,-122.11525154365088
2025-03-07 12:00:01.580,-0.00037946174362319063,-118.15948542161837
2025-03-07 12:00:01.588,-0.0004076750610040386,-114.41049298337151
2025-03-07 12:00:01.596,-0.0004334830421723434,-110.87627290621214
2025-03-07 12:00:01.604,-0.0004566573722582871,-107.55712077586035
2025-03-07 12:00:01.611,-0.00047700479046533956,-104.44606249517523
2025-03-07 12:00:01.619,-0.0004943564193627982,-101.52943619033684
2025-03-07 12:00:01.627,-0.0005085567856573564,-98.7876008264618
2025-03-07 12:00:01.635,-0.0005194539036151159,-96.19574871431136
2025-03-07 12:00:01.643,-0.0005268916303333468,-93.7247986722108
2025-03-07 12:00:01.650,-0.0005307050969135065,-91.34234668680575
2025-03-07 12:00:01.658,-0.0005307195415103752,-89.01365138134129
2025-03-07 12:00:01.666,-0.0005267524545083908,-86.70263234979379
2025-03-07 12:00:01.674,-0.0005186186449664693,-84.37286036319189
2025-03-07 12:00:01.682,-0.0005061376666384703,-81.98851953544695
2025-03-07 12:00:01.689,-0.0004891429853068585,-79.515322711422
2025-03-07 12:00:01.697,-0.000467492258484519,-76.92136259985216
2025-03-07 12:00:01.705,-0.00044107809086444327,-74.17788253382892
2025-03-07 12:00:01.713,-0.0004098386729190276,-71.25995223833324
2025-03-07 12:00:01.721,-0.00037376784752129116,-68.1470356684733
2025-03-07 12:00:01.729,-0.0003329243008366271,-64.82343990934726
2025-03-07 12:00:01.736,-0.00028743959489093893,-61.27863634763064
2025-03-07 12:00:01.744,-0.00023752458655841452,-57.5074478659972
2025-03-07 12:00:01.752,-0.00018347350037519123,-53.5100986755557
2025-03-07 12:00:01.760,-0.00012566473602686852,-49.29212655494039
2025-03-07 12:00:01.768,-6.455756087048867e-05,-44.86416063620099
2025-03-07 12:00:01.775,-6.841739787376086e-07,-40.241571359062185
2025-03-07 12:00:01.783,6.536289235279184e-05,-35.44400266793453
2025-03-07 12:00:01.791,0.0001329475632776945,-30.494799794239054
2025-03-07 12:00:01.799,0.0002014102545551789,-25.42034889314777
2025-03-07 12:00:01.807,0.00027008979403713264,-20.249347245755267
2025-03-07 12:00:01.814,0.00033834563855691415,-15.012024575845
2025-03-07 12:00:01.822,0.000405578795015457,-9.7393371753212
2025-03-07 12:00:01.830,0.00047125008831475475,-4.462156930585385
2025-03-07 12:00:01.838,0.0005348947774681278,0.7895230163406717
2025-03-07 12:00:01.846,0.00059613287235794,5.987345316637686
2025-03-07 12:00:01.854,0.0006546748289333605,11.10528923777565
2025-03-07 12:00:01.861,0.000710322701765712,16.120298574421362
2025-03-07 12:00:01.869,0.0007629673339075918,21.01282260624277
2025-03-07 12:00:01.877,0.0008125825975988943,25.767258958605115
2025-03-07 12:00:01.885,0.0008592178632647472,30.37229022428469
2025-03-07 12:00:01.893,0.0009029897374908545,34.82110917599093
2025-03-07 12:00:01.900,0.0009440738200079128,39.111530227388265
2025-03-07 12:00:01.908,0.0009826969482527154,43.24598740020265
2025-03-07 12:00:01.916,0.0010191301754051791,47.23142137100757
2025-03-07 12:00:01.924,0.0010536825303551,51.07906017174512
2025-03-07 12:00:01.932,0.0010866954170555467,54.80409979227137
2025-03-07 12:00:01.939,0.001118537333766154,58.425292289976824
2025-03-07 12:00:01.947,0.0011495984367121568,61.964450077633074
2025-03-07 12:00:01.955,0.0011802843759318908,65.44587587865547
2025-03-07 12:00:01.963,0.0012110088723721773,68.89572846379926
2025-03-07 12:00:01.971,0.0012421847204196414,72.34133477655598
2025-03-07 12:00:01.979,0.00127421320524981,75.81045947719248
2025-03-07 12:00:01.986,0.0013074721624108713,79.33054334149762
2025-03-07 12:00:01.994,0.0013423029928349081,82.92792238511772
2025-03-07 12:00:02.002,0.0013789969507319762,86.62704008571568
2025-03-07 12:00:02.010,0.0014177810878256189,90.44966567218906
2025-03-07 12:00:02.018,0.0014588044303412335,94.41413215615147
2025-03-07 12:00:02.025,0.0015021252052313553,98.5346085851672
2025-03-07 12:00:02.033,0.0015477000619385896,102.82042186204131
2025-03-07 12:00:02.041,0.001595376171677365,107.27544433590069
2025-03-07 12:00:02.049,0.0016448868958176253,111.89756413802634
2025-03-07 12:00:02.057,0.0016958515193152017,116.67825578674098
2025-03-07 12:00:02.064,0.001747779379136694,121.60226876815618
2025-03-07 12:00:02.072,0.0018000785397258288,126.64745143930706
2025-03-07 12:00:02.080,0.0018520689528172677,131.78472652299817
2025-03-07 12:00:02.088,0.0019029997909334035,136.9782325185812
2025-03-07 12:00:02.096,0.001952070368124751,142.18564243059825
2025-03-07 12:00:02.104,0.001998453797367531,147.3586672629422
2025-03-07 12:00:02.111,0.0020413223643296085,152.4437467503887
2025-03-07 12:00:02.119,0.0020798735699632306,157.38292388847606
2025-03-07 12:00:02.127,0.0021133558673555606,162.11489314607928
2025-03-07 12:00:02.135,0.0021410932143750114,166.5762050532137
2025-03-07 12:00:02.143,0.0021625076490715063,170.7026024719111
2025-03-07 12:00:02.150,0.0021771391695251086,174.43045666326066
2025-03-07 12:00:02.158,0.002184662265442868,177.69826469226754
2025-03-07 12:00:02.166,0.0021848985403796354,180.4481642378288
2025-03-07 12:00:02.174,0.002177825058836241,182.62741799987623
2025-03-07 12:00:02.182,0.0021635783884898802,184.1898181217429
2025-03-07 12:00:02.189,0.002142454703448189,185.09696179936313
2025-03-07 12:00:02.197,0.00211490661671919,185.3193527513208
2025-03-07 12:00:02.205,0.002081537533950277,184.83728937675642
2025-03-07 12:00:02.213,0.002043094305402668,183.64150880018266
2025-03-07 12:00:02.221,0.0020004588487580813,181.73356592377257
2025-03-07 12:00:02.229,0.0019546391882488334,179.12593730789985
2025-03-07 12:00:02.236,0.0019067599816438737,175.84185042376933
2025-03-07 12:00:02.244,0.0018580521846427109,171.9148489010634
2025-03-07 12:00:02.252,0.0018098412018847554,167.3881132876677
2025-03-07 12:00:02.260,0.0017635328109011183,162.31356414695966
2025-03-07 12:00:02.268,0.0017205963237115478,156.75077978747228
2025-03-07 12:00:02.275,0.0016825447619569695,150.7657644481483
2025-03-07 12:00:02.283,0.0016509121025897514,144.42960439429268
2025-03-07 12:00:02.291,0.001627227814574088,137.81704928705201
2025-03-07 12:00:02.299,0.0016129890133736407,131.00505464641503
2025-03-07 12:00:02.307,0.001609630713586936,124.07131857882516
2025-03-07 12:00:02.314,0.001618494849259407,117.09284256563416
2025-03-07 12:00:02.322,0.0016407988288282005,110.14454238516284
2025-03-07 12:00:02.330,0.0016776043149336495,103.29793151037705
2025-03-07 12:00:02.338,0.0017297867361875914,96.61989586931341
2025-03-07 12:00:02.346,0.00179800589398443,90.17157588746254
2025-03-07 12:00:02.354,0.0018826780223553437,84.00736937685225
2025-03-07 12:00:02.361,0.0019839498107298774,78.17406712686791
2025-03-07 12:00:02.369,0.0021016751547326775,72.71013192036125
2025-03-07 12:00:02.377,0.0022353956252097957,67.64513099114683
2025-03-07 12:00:02.385,0.0023843256698894977,62.99933143667638
2025-03-07 12:00:02.393,0.0025473433241221793,58.78346754933198
2025-03-07 12:00:02.400,0.002722986848919721,54.998688173366894
2025-03-07 12:00:02.408,0.0029094574578746387,51.636690793689134
2025-03-07 12:00:02.416,0.003104628234416742,48.68004692177695
2025-03-07 12:00:02.424,0.00330605939363556,46.102720333958395
2025-03-07 12:00:02.432,0.0035110200519718644,43.87077579511446
2025-03-07 12:00:02.439,0.003716516544545414,41.94327111894416
2025-03-07 12:00:02.447,0.003919327136791388,40.273319921233266
2025-03-07 12:00:02.455,0.0041160428628869705,38.80930644903178
2025-03-07 12:00:02.463,0.004303114255523931,37.49622772273709
2025-03-07 12:00:02.471,0.004476903829396119,36.2771322665962
2025-03-07 12:00:02.479,0.004633744194389483,35.094619306742516
2025-03-07 12:00:02.486,0.004770001497929702,33.892357864156544
2025-03-07 12:00:02.494,0.004882143535997272,32.61658201799854
2025-03-07 12:00:02.502,0.004966811426842646,31.21751706668504
2025-03-07 12:00:02.510,0.005020893315295185,29.65069159472738
2025-03-07 12:00:02.518,0.005041598233725096,27.878092687105976
2025-03-07 12:00:02.525,0.0050265280215197015,25.8691257328645
2025-03-07 12:00:02.533,0.004973745098785087,23.601346322028448
2025-03-07 12:00:02.541,0.004881833863912467,21.060939442599107
2025-03-07 12:00:02.549,0.004749953522609785,18.242930192853322
2025-03-07 12:00:02.557,0.004577880328537525,15.15112011148032
2025-03-07 12:00:02.564,0.00436603759086382,11.797753505755834
2025-03-07 12:00:02.572,0.004115512293985365,8.202928313545245
2025-03-07 12:00:02.580,0.0038280575758761408,4.393775569576445
2025-03-07 12:00:02.588,0.003506080505393855,0.4034400081873787
2025-03-07 12:00:02.596,0.003152614657480345,-3.7300986557341695
2025-03-07 12:00:02.604,0.0027712770873195066,-7.965318960330929
2025-03-07 12:00:02.611,0.002366209566965575,-12.258517314329287
2025-03-07 12:00:02.619,0.001942004355882215,-16.565184590600527
2025-03-07 12:00:02.627,0.0015036152748377695,-20.841351063585925
2025-03-07 12:00:02.635,0.0010562554213073756,-25.044853799067678
2025-03-07 12:00:02.643,0.0006052834723696968,-29.13648513204696
2025-03-07 12:00:02.650,0.00015608109267328698,-33.080986927645824
2025-03-07 12:00:02.658,-0.0002860755413645026,-36.84786259634346
2025-03-07 12:00:02.666,-0.0007161466116625034,-40.41198697166653
2025-03-07 12:00:02.674,-0.0011294578759053987,-43.754002776219956
2025-03-07 12:00:02.682,-0.001521823603392341,-46.860501120261105
2025-03-07 12:00:02.689,-0.001889658249850022,-49.7239919337185
2025-03-07 12:00:02.697,-0.0022300720207963304,-52.34267809518207
2025-03-07 12:00:02.705,-0.002540946097709481,-54.72005399190106
2025-03-07 12:00:02.713,-0.0028209842364652644,-56.86435506424699
2025-03-07 12:00:02.721,-0.0030697385066671377,-58.78788934637074
2025-03-07 12:00:02.729,-0.003287608043784391,-60.50628496373222
2025-03-07 12:00:02.736,-0.0034758107872089406,-62.03768891108637
2025-03-07 12:00:02.744,-0.0036363291677894297,-63.40195220788529
2025-03-07 12:00:02.752,-0.00377183147364619,-64.61983477662949
2025-03-07 12:00:02.760,-0.003885571174862314,-65.71226023953731
2025-03-07 12:00:02.768,-0.0039812669569661025,-66.69964646422534
2025-03-07 12:00:02.775,-0.0040629666884287145,-67.60133235163286
2025-03-07 12:00:02.783,-0.00413489897370731,-68.43511534137878
2025-03-07 12:00:02.791,-0.004201316220218187,-69.21690773426805
2025-03-07 12:00:02.799,-0.004266333288058556,-69.96051352666628
2025-03-07 12:00:02.807,-0.004333765920877569,-70.6775213289751
2025-03-07 12:00:02.814,-0.004406973357695177,-71.37730338713791
2025-03-07 12:00:02.822,-0.00448870975458834,-72.06710599765651
2025-03-07 12:00:02.830,-0.0045809892133637,-72.75221291647746
2025-03-07 12:00:02.838,-0.004684969251086674,-73.43616086484528
2025-03-07 12:00:02.846,-0.004800857362804153,-74.12098501188477
2025-03-07 12:00:02.854,-0.004927844873707742,-74.80747236663974
2025-03-07 12:00:02.861,-0.005064071620125523,-75.49540227194618
2025-03-07 12:00:02.869,-0.0052066242678703726,-76.18375553268885
2025-03-07 12:00:02.877,-0.005351570302622737,-76.87087696586873
2025-03-07 12:00:02.885,-0.005494028872260208,-77.55458013696429
2025-03-07 12:00:02.893,-0.005628278712505838,-78.23218753591465
2025-03-07 12:00:02.900,-0.005747902353669727,-78.900504226175
2025-03-07 12:00:02.908,-0.005845964702836895,-79.55572784918014
2025-03-07 12:00:02.916,-0.005915222950469113,-80.19330256561827
2025-03-07 12:00:02.924,-0.005948363566182519,-80.80772885102203
2025-03-07 12:00:02.932,-0.0059382608888727,-81.3923448304173
2025-03-07 12:00:02.939,-0.005878250461319521,-81.93909784497481
2025-03-07 12:00:02.947,-0.0057624088446832184,-82.43832703207536
2025-03-07 12:00:02.955,-0.005585830254196967,-82.87857875004535
2025-03-07 12:00:02.963,-0.005344889111517111,-83.24647662006464
2025-03-07 12:00:02.971,-0.0050374767141120914,-83.52666676873879
2025-03-07 12:00:02.979,-0.004663199920294687,-83.70185655505274
2025-03-07 12:00:02.986,-0.004223530194580935,-83.7529617082722
2025-03-07 12:00:02.994,-0.003721892536404141,-83.65937247418144
2025-03-07 12:00:03.002,-0.0031636856143058578,-83.39934418557922
2025-03-07 12:00:03.010,-0.002556226765852817,-82.95051179736042
2025-03-07 12:00:03.018,-0.0019086184030875908,-82.29052155787004
2025-03-07 12:00:03.025,-0.0012315358677006543,-81.39776637223267
2025-03-07 12:00:03.033,-0.0005369410079481857,-80.25220483465964
2025-03-07 12:00:03.041,0.00016226935945609205,-78.83623767629129
2025-03-07 12:00:03.049,0.0008526658089567665,-77.13560981734966
2025-03-07 12:00:03.057,0.0015207206698217225,-75.14030165579872
2025-03-07 12:00:03.064,0.0021532526810714605,-72.84536999139316
2025-03-07 12:00:03.072,0.002737859647734582,-70.25169737151346
2025-03-07 12:00:03.080,0.0032633185054183047,-67.3666089029893
2025-03-07 12:00:03.088,0.0037199354975421275,-64.20431787852495
2025-03-07 12:00:03.096,0.004099833245786858,-60.786165994425026
2025-03-07 12:00:03.104,0.004397165737348472,-57.14063044246764
2025-03-07 12:00:03.111,0.004608256275783737,-53.303078563749985
2025-03-07 12:00:03.119,0.004731656988656997,-49.31526074830901
2025-03-07 12:00:03.127,0.004768131444709353,-45.22454342776531
2025-03-07 12:00:03.135,0.004720564380633903,-41.082895814188845
2025-03-07 12:00:03.143,0.004593804645350784,-36.94565588156037
2025-03-07 12:00:03.150,0.004394449374740671,-32.87011231684138
2025-03-07 12:00:03.158,0.004130579150894153,-28.91394913888956
2025-03-07 12:00:03.166,0.00381145540799328,-25.133607799329464
2025-03-07 12:00:03.174,0.00344719246659597,-21.582627336654536
2025-03-07 12:00:03.182,0.0030484171305799777,-18.31002617682256
2025-03-07 12:00:03.189,0.002625928633804381,-15.358789237291289
2025-03-07 12:00:03.197,0.0021903708587697303,-12.764521042568271
2025-03-07 12:00:03.205,0.0017519273122951313,-10.554319715158815
2025-03-07 12:00:03.213,0.0013200475714566554,-8.74591824624877
2025-03-07 12:00:03.221,0.0009032120000394058,-7.347128798626691
2025-03-07 12:00:03.229,0.0005087396182047619,-6.35561348558275
2025-03-07 12:00:03.236,0.00014264222636983383,-5.758991713370476
2025-03-07 12:00:03.244,-0.00019047366957460226,-5.535280416894002
2025-03-07 12:00:03.252,-0.0004874569332446838,-5.653650006134357
2025-03-07 12:00:03.260,-0.0007466148826761744,-6.075466194715469
2025-03-07 12:00:03.268,-0.0009676714899387942,-6.755576670220786
2025-03-07 12:00:03.275,-0.0011516837958227136,-7.643792281513986
2025-03-07 12:00:03.283,-0.0013009205553474743,-8.686505455470463
2025-03-07 12:00:03.291,-0.0014187079817890812,-9.828384189340648
2025-03-07 12:00:03.299,-0.001509248289585883,-11.01407834198189
2025-03-07 12:00:03.307,-0.0015774176072701428,-12.189876083657419
2025-03-07 12:00:03.314,-0.0016285507107740497,-13.305252144600713
2025-03-07 12:00:03.322,-0.0016682207551338816,-14.314255679618682
2025-03-07 12:00:03.330,-0.0017020225434552841,-15.17669377103811
2025-03-07 12:00:03.338,-0.0017353676834141309,-15.85907636234484
2025-03-07 12:00:03.346,-0.0017732991540300056,-16.33529922758307
2025-03-07 12:00:03.354,-0.001820331404998504,-16.58705288918293
2025-03-07 12:00:03.361,-0.0018803203729855146,-16.603956657316235
2025-03-07 12:00:03.369,-0.0019563660345921956,-16.383427670991257
2025-03-07 12:00:03.377,-0.0020507485539934195,-15.930304531927344
2025-03-07 12:00:03.385,-0.002164897769226756,-15.256253474448583
2025-03-07 12:00:03.393,-0.0022993946022967196,-14.378991730528876
2025-03-07 12:00:03.400,-0.002454001916416256,-13.321367633541628
2025-03-07 12:00:03.408,-0.002627721455053966,-12.110339944780696
2025-03-07 12:00:03.416,-0.0028188728944018443,-10.775899855831083
2025-03-07 12:00:03.424,-0.0030251907131975016,-9.349978174108678
2025-03-07 12:00:03.432,-0.003243934400097017,-7.865377475975915
2025-03-07 12:00:03.439,-0.0034720073826305453,-6.354764725556477
2025-03-07 12:00:03.447,-0.003706079996863167,-4.849754290896938
2025-03-07 12:00:03.455,-0.003942711880766473,-3.380104783141818
2025-03-07 12:00:03.463,-0.004178469381416325,-1.973046076522179
2025-03-07 12:00:03.471,-0.0044100339357433,-0.6527456239566903
2025-03-07 12:00:03.479,-0.004634297972264627,0.5600838647114823
2025-03-07 12:00:03.486,-0.004848445701487239,1.6484398293771114
2025-03-07 12:00:03.494,-0.005050017112825115,2.599158485446423
2025-03-07 12:00:03.502,-0.005236954402578448,3.4029314226619816
2025-03-07 12:00:03.510,-0.005407630817070778,4.054228310616386
2025-03-07 12:00:03.518,-0.005560862530386787,4.551145880478691
2025-03-07 12:00:03.525,-0.0056959047226274265,4.895204009635005
2025-03-07 12:00:03.533,-0.005812433436614184,5.091109050168461
2025-03-07 12:00:03.541,-0.005910515028995557,5.146502622354799
2025-03-07 12:00:03.549,-0.005990565154412157,5.0717111204902565
2025-03-07 12:00:03.557,-0.006053299318444469,4.8795073914558875
2025-03-07 12:00:03.565,-0.006099677148088105,4.584891732534322
2025-03-07 12:00:03.572,-0.006130842670371225,4.2048948236697505
2025-03-07 12:00:03.580,-0.006148063038414069,3.758400769179915
2025-03-07 12:00:03.588,-0.006152668200423017,3.2659843609553523
2025-03-07 12:00:03.596,-0.006145993862286994,2.7497532391234416
2025-03-07 12:00:03.604,-0.006129329763744311,2.2331830237449366
2025-03-07 12:00:03.611,-0.006103874904324946,1.7409318843507053
2025-03-07 12:00:03.619,-0.00607070100819781,1.2986205211847797
2025-03-07 12:00:03.627,-0.006030725153429214,0.9325642245067282
2025-03-07 12:00:03.635,-0.005984692013681781,0.6694455697414307
2025-03-07 12:00:03.643,-0.005933165587405398,0.5359193386944645
2025-03-07 12:00:03.650,-0.005876529760119654,0.5581452981472782
2025-03-07 12:00:03.658,-0.00581499667996089,0.7612493184518488
2025-03-07 12:00:03.666,-0.005748621737038833,1.1687187215424628
2025-03-07 12:00:03.674,-0.005677323858428044,1.801743406465498
2025-03-07 12:00:03.682,-0.005600909788482039,2.6785198684318936
2025-03-07 12:00:03.690,-0.005519100986284016,3.8135403405683013
2025-03-07 12:00:03.697,-0.005431561771026767,5.216893586554622
2025-03-07 12:00:03.705,-0.005337927451442592,6.893607030542977
2025-03-07 12:00:03.713,-0.005237831421054736,8.843061660025864
2025-03-07 12:00:03.721,-0.005130930508998225,11.058511292299293
2025-03-07 12:00:03.729,-0.005016928086345735,13.526736274141188
2025-03-07 12:00:03.736,-0.004895594459849369,16.22785851546773
2025-03-07 12:00:03.744,-0.004766784021595817,19.13534006498661
2025-03-07 12:00:03.752,-0.0046304486158059805,22.216181416242968
2025-03-07 12:00:03.760,-0.004486646739780783,25.431328640027758
2025-03-07 12:00:03.768,-0.004335548519064178,28.736290576887832
2025-03-07 12:00:03.775,-0.004177436772476478,32.08195903285052
2025-03-07 12:00:03.783,-0.004012704745637613,35.41561656365893
2025-03-07 12:00:03.791,-0.003841851134714349,38.6821083675512
2025-03-07 12:00:03.799,-0.0036654728483833427,41.82514737650343
2025-03-07 12:00:03.807,-0.003484255678398611,44.788715157380715
2025-03-07 12:00:03.815,-0.0032989628325254287,47.51851599130541
2025-03-07 12:00:03.822,-0.003110421214743411,49.963437735503334
2025-03-07 12:00:03.830,-0.002919505352128615,52.07697098382709
2025-03-07 12:00:03.838,-0.0027271188545779446,53.81853777343058
2025-03-07 12:00:03.846,-0.0025341732546390505,55.15468271586681
2025-03-07 12:00:03.854,-0.0023415641253597555,56.060082965045076
2025-03-07 12:00:03.861,-0.002150144587778639,56.51833878923284
2025-03-07 12:00:03.869,-0.00196069664479965,56.52251351967832
2025-03-07 12:00:03.877,-0.001773901125686437,56.0754000558602
2025-03-07 12:00:03.885,-0.0015903073526812395,55.18950060192535
2025-03-07 12:00:03.893,-0.001410303926877811,53.88671652264662
2025-03-07 12:00:03.900,-0.0012340922534791975,52.19775573377564
2025-03-07 12:00:03.908,-0.001061664572523708,50.161275450863776
2025-03-07 12:00:03.916,-0.0008927882852051585,47.822787971431524
2025-03-07 12:00:03.924,-0.000726998183876281,45.23336601834115
2025-03-07 12:00:03.932,-0.0005635977662015263,42.44819160973079
2025-03-07 12:00:03.940,-0.0004016702228337571,39.524998077863195
2025-03-07 12:00:03.947,-0.0002400990914084964,36.522458456166234
2025-03-07 12:00:03.955,-7.759806155000034e-05,33.49857482125654
2025-03-07 12:00:03.963,8.725103092291014e-05,30.509122269147145
2025-03-07 12:00:03.971,0.00025595340086504196,27.606198102372904
2025-03-07 12:00:03.979,0.0004300514196863323,24.836921704848464
2025-03-07 12:00:03.986,0.0006110715535317966,22.242323782934637
2025-03-07 12:00:03.994,0.0008004701673382168,19.856455536353455
2025-03-07 12:00:04.002,0.0009995802821450115,17.705739328849358
2025-03-07 12:00:04.010,0.0012095613227425274,15.80857300872551
2025-03-07 12:00:04.018,0.001431353697663263,14.175190610700069
2025-03-07 12:00:04.025,0.00166563978886353,12.807773131262032
2025-03-07 12:00:04.033,0.0019128127074172314,11.700794735773844
2025-03-07 12:00:04.041,0.002172953990961251,10.841582401803288
2025-03-07 12:00:04.049,0.002445821159349681,10.211060850668927
2025-03-07 12:00:04.057,0.0027308456325362855,9.784649831815184
2025-03-07 12:00:04.065,0.003027141024633013,9.533277508476539
2025-03-07 12:00:04.072,0.003333521408272953,9.424471897372504
2025-03-07 12:00:04.080,0.003648528869262085,9.423492032858297
2025-03-07 12:00:04.088,0.00397046950057483,9.494461694044462
2025-03-07 12:00:04.096,0.004297456833901859,9.601471033188059
2025-03-07 12:00:04.104,0.004627461536527465,9.709615102569174
2025-03-07 12:00:04.111,0.004958366006279715,9.785942875222593
2025-03-07 12:00:04.119,0.005288022275609465,9.800295637051153
2025-03-07 12:00:04.127,0.005614311420961768,9.726019317725797
2025-03-07 12:00:04.135,0.0059352025440753695,9.540541141746008
2025-03-07 12:00:04.143,0.0062488093933327285,9.225806640183789
2025-03-07 12:00:04.150,0.006553442783150494,8.76857830547076
2025-03-07 12:00:04.158,0.0068476570774124446,8.160601763317255
2025-03-07 12:00:04.166,0.007130289130495796,7.398649088538056
2025-03-07 12:00:04.174,0.007400488299303201,6.484451671380304
2025-03-07 12:00:04.182,0.007657736496341371,5.424536775111801
2025-03-07 12:00:04.190,0.007901857702294799,4.2299826040112265
2025-03-07 12:00:04.197,0.008133016817280816,2.916106376336017
2025-03-07 12:00:04.205,0.008351708161508582,1.5020986852889433
2025-03-07 12:00:04.213,0.008558734303723387,0.010615508189142133
2025-03-07 12:00:04.221,0.008755176124363332,-1.5326631862807614
2025-03-07 12:00:04.229,0.008942355071596872,-3.099501927762263
2025-03-07 12:00:04.236,0.009121788533494244,-4.659601642011745
2025-03-07 12:00:04.244,0.009295139286054169,-6.1811135981766645
2025-03-07 12:00:04.252,0.009464160162610773,-7.631175857113144
2025-03-07 12:00:04.260,0.009630635355935089,-8.976473769141041
2025-03-07 12:00:04.268,0.009796319960347471,-10.183826314946236
2025-03-07 12:00:04.275,0.009962879407724012,-11.22079940511785
2025-03-07 12:00:04.283,0.010131830422344848,-12.056345654675527
2025-03-07 12:00:04.291,0.010304485159130156,-12.661467707239927
2025-03-07 12:00:04.299,0.010481900361512713,-13.009899046044366
2025-03-07 12:00:04.307,0.010664833595236609,-13.078792602970312
2025-03-07 12:00:04.315,0.01085370871401392,-12.849403623778716
2025-03-07 12:00:04.322,0.011048592568674742,-12.307749471779214
2025-03-07 12:00:04.330,0.011249184574335306,-11.445225677014703
2025-03-07 12:00:04.338,0.011454820169116383,-10.259154880821495
2025-03-07 12:00:04.346,0.011664488513189731,-8.7532436769691
2025-03-07 12:00:04.354,0.011876864034236932,-6.937921957076084
2025-03-07 12:00:04.361,0.01209035064054149,-4.8305404092494575
2025-03-07 12:00:04.369,0.012303136640731117,-2.4554043827946206
2025-03-07 12:00:04.377,0.012513257723953354,0.15637360017427399
2025-03-07 12:00:04.385,0.012718664853117267,2.967214958900257
2025-03-07 12:00:04.393,0.012917293646287865,5.933615463823308
2025-03-07 12:00:04.400,0.013107131774294237,9.006883152274057
2025-03-07 12:00:04.408,0.013286281081894988,12.134063994947564
2025-03-07 12:00:04.416,0.01345301153573015,15.259037468663095
2025-03-07 12:00:04.424,0.013605804699875141,18.323756372914353
2025-03-07 12:00:04.432,0.013743385213948071,21.26959807579786
2025-03-07 12:00:04.440,0.013864739637740202,24.03878826350014
2025-03-07 12:00:04.447,0.0139691228963874,26.575853529476753
2025-03-07 12:00:04.455,0.01405605323662378,28.829056047593905
2025-03-07 12:00:04.463,0.014125296996681372,30.751762328129434
2025-03-07 12:00:04.471,0.014176844670639689,32.303698776958306
2025-03-07 12:00:04.479,0.014210879866513638,33.45204949941858
2025-03-07 12:00:04.486,0.014227742923562782,34.172356447296075
2025-03-07 12:00:04.494,0.014227891170882476,34.449188433929976
2025-03-07 12:00:04.502,0.014211857973790602,34.27655347661022
2025-03-07 12:00:04.510,0.014180212676639376,33.6580380266604
2025-03-07 12:00:04.518,0.014133523241713608,32.60666652067341
2025-03-07 12:00:04.525,0.01407232289432459,31.144484906830208
2025-03-07 12:00:04.533,0.013997081585223734,29.30188193473631
2025-03-07 12:00:04.541,0.013908182694878111,27.11667161649543
2025-03-07 12:00:04.549,0.013805905149626096,24.632968957668282
2025-03-07 12:00:04.557,0.013690410935664666,21.899898440245924
2025-03-07 12:00:04.565,0.013561737812763283,18.97018049237687
2025-03-07 12:00:04.572,0.013419796849718684,15.898645051983015
2025-03-07 12:00:04.580,0.01326437430130145,12.740723160861883
2025-03-07 12:00:04.588,0.013095137365226273,9.550967244699713
2025-03-07 12:00:04.596,0.012911643450330515,6.381648375990861
2025-03-07 12:00:04.604,0.012713352676870177,3.281474518882515
2025-03-07 12:00:04.611,0.012499643404505895,0.29446775625904875
2025-03-07 12:00:04.619,0.012269830674758897,-2.540968873581379
2025-03-07 12:00:04.627,0.012023187523953597,-5.192772658441747
2025-03-07 12:00:04.635,0.011758969046779822,-7.63571724441442
2025-03-07 12:00:04.643,0.011476438800870072,-9.851679057189823
2025-03-07 12:00:04.650,0.011174896724278242,-11.829678419249797
2025-03-07 12:00:04.658,0.010853707356440756,-13.565707597885968
2025-03-07 12:00:04.666,0.010512326931576985,-15.062364870012154
2025-03-07 12:00:04.674,0.010150327899009822,-16.32831921826668
2025-03-07 12:00:04.682,0.00976741962038925,-17.377634340296762
2025-03-07 12:00:04.690,0.009363464357321433,-18.228983225784074
2025-03-07 12:00:04.697,0.008938488077015435,-18.904785686244985
2025-03-07 12:00:04.705,0.008492685906592256,-19.430301020094742
2025-03-07 12:00:04.713,0.008026422176880318,-19.832706599577065
2025-03-07 12:00:04.721,0.0075402249900247825,-20.140190735210226
2025-03-07 12:00:04.729,0.00703477527784885,-20.381084883686544
2025-03-07 12:00:04.736,0.006510890500624486,-20.58305631164431
2025-03-07 12:00:04.744,0.005969503498147202,-20.772377921776705
2025-03-07 12:00:04.752,0.005411637503874277,-20.973287313591555
2025-03-07 12:00:04.760,0.004838378838479362,-21.20744252097045
2025-03-07 12:00:04.768,0.004250849110131458,-21.493477474347827
2025-03-07 12:00:04.775,0.003650178707249233,-21.846656296581365
2025-03-07 12:00:04.783,0.0030374830011948534,-22.278622250788928
2025-03-07 12:00:04.791,0.002413842184365203,-22.79723466229233
2025-03-07 12:00:04.799,0.0017802852487003571,-23.406485520183963
2025-03-07 12:00:04.807,0.001137778301326596,-24.10648674244653
2025-03-07 12:00:04.815,0.00048721715600145353,-24.893519210525916
2025-03-07 12:00:04.822,-0.00017057610703684345,-25.760135534729603
2025-03-07 12:00:04.830,-0.0008348531189311032,-26.69530994393088
2025-03-07 12:00:04.838,-0.0015049363303915127,-27.684630512592765
2025-03-07 12:00:04.846,-0.002180213821676065,-28.710530939666345
2025-03-07 12:00:04.854,-0.0028601323468664466,-29.752561070939127
2025-03-07 12:00:04.861,-0.0035441891469223225,-30.787697113580634
2025-03-07 12:00:04.869,-0.004231923075264382,-31.790693854650254
2025-03-07 12:00:04.877,-0.004922905541102195,-32.73448201862906
2025-03-07 12:00:04.885,-0.00561673167403053,-33.59061407113135
2025-03-07 12:00:04.893,-0.006313011962817022,-34.32976122292227
2025-03-07 12:00:04.900,-0.007011364443652292,-34.92226307746366
2025-03-07 12:00:04.908,-0.007711407331715676,-35.338729310352186
2025-03-07 12:00:04.916,-0.00841275182858859,-35.55069003640403
2025-03-07 12:00:04.924,-0.0091149947204012,-35.53128822937302
2025-03-07 12:00:04.932,-0.009817710330062493,-35.25600387813338
2025-03-07 12:00:04.940,-0.010520441421959665,-34.70339569912343
2025-03-07 12:00:04.947,-0.011222688796815053,-33.85584241667078
2025-03-07 12:00:04.955,-0.011923899566794948,-32.70026213132233
2025-03-07 12:00:04.963,-0.012623454439209007,-31.228785393457272
2025-03-07 12:00:04.971,-0.01332065466127573,-29.439355555631334
2025-03-07 12:00:04.979,-0.014014709446493589,-27.336229044787437
2025-03-07 12:00:04.986,-0.01470472465470391,-24.930348586479308
2025-03-07 12:00:04.994,-0.015389693331494748,-22.239564269937205
2025-03-07 12:00:05.002,-0.01606848860136367,-19.288680710183378
2025-03-07 12:00:05.010,-0.016739859449274933,-16.109313372331464
2025-03-07 12:00:05.018,-0.017402430062761008,-12.739543192252121
2025-03-07 12:00:05.025,-0.018054703476766944,-9.22336568331167
2025-03-07 12:00:05.033,-0.01869507010455018,-5.609938423981103
2025-03-07 12:00:05.041,-0.01932182130577334,-1.9526388045473906
2025-03-07 12:00:05.049,-0.01993316755510966,1.6920482065460698
2025-03-07 12:00:05.057,-0.02052726025822568,5.265785101352012
2025-03-07 12:00:05.065,-0.021102216015872536,8.709745891630858
2025-03-07 12:00:05.072,-0.021656142200952955,11.966049901628244
2025-03-07 12:00:05.080,-0.02218716296737213,14.979221866176026
2025-03-07 12:00:05.088,-0.022693445095185952,17.69763232638244
2025-03-07 12:00:05.096,-0.023173223306526325,20.07487143593983
2025-03-07 12:00:05.104,-0.023624824852748517,22.071010184025184
2025-03-07 12:00:05.111,-0.0240466932980771,23.65370570889758
2025-03-07 12:00:05.119,-0.024437411508010782,24.799111751297065
2025-03-07 12:00:05.127,-0.024795723824563236,25.492561238695945
2025-03-07 12:00:05.135,-0.025120557175892823,25.728995294606875
2025-03-07 12:00:05.143,-0.02541104043731989,25.513121370509936
2025-03-07 12:00:05.150,-0.02566652094326928,24.859292395883745
2025-03-07 12:00:05.158,-0.025886576898150295,23.79110849300693
2025-03-07 12:00:05.166,-0.026071024599108362,22.340752538664656
2025-03-07 12:00:05.174,-0.026219919684205548,20.548080286895285
2025-03-07 12:00:05.182,-0.026333551843964482,18.459494502657186
2025-03-07 12:00:05.190,-0.02641243251896279,16.126640219012085
2025-03-07 12:00:05.197,-0.02645727516551142,13.604964483752651
2025-03-07 12:00:05.205,-0.02646896789581241,10.952188530240567
2025-03-07 12:00:05.213,-0.02644853877547381,8.226742991835742
2025-03-07 12:00:05.221,-0.026397114673277624,5.486217465129123
2025-03-07 12:00:05.229,-0.026315875102224925,2.785874392790899
2025-03-07 12:00:05.236,-0.026206002856126877,0.1772739571702185
2025-03-07 12:00:05.244,-0.02606863342855059,-2.292948382581678
2025-03-07 12:00:05.252,-0.025904805234240894,-4.58411666620814
2025-03-07 12:00:05.260,-0.02571541260647911,-6.6623342790404925
2025-03-07 12:00:05.268,-0.025501163503329254,-8.501070267328814
2025-03-07 12:00:05.275,-0.025262543829769963,-10.081502584569956
2025-03-07 12:00:05.283,-0.024999790185685152,-11.392617799304828
2025-03-07 12:00:05.291,-0.024712872612740595,-12.431075464819832
2025-03-07 12:00:05.299,-0.024401488546214233,-13.200853266136685
2025-03-07 12:00:05.307,-0.02406506872118602,-13.712695923147454
2025-03-07 12:00:05.315,-0.023702795278823872,-13.983396411959491
2025-03-07 12:00:05.322,-0.023313631817029275,-14.034942209854846
2025-03-07 12:00:05.330,-0.02289636464713964,-13.893561882377695
2025-03-07 12:00:05.338,-0.0224496540280583,-13.588708393473237
2025-03-07 12:00:05.346,-0.02197209365769191,-13.152015080177591
2025-03-07 12:00:05.354,-0.02146227629723916,-12.61625840561272
2025-03-07 12:00:05.361,-0.020918863173169724,-12.0143585562507
2025-03-07 12:00:05.369,-0.02034065471352405,-11.378444891802873
2025-03-07 12:00:05.377,-0.019726660119685283,-10.739008430375591
2025-03-07 12:00:05.385,-0.01907616321823736,-10.12415822610967
2025-03-07 12:00:05.393,-0.01838878206098724,-9.558992962493736
2025-03-07 12:00:05.400,-0.017664519924622157,-9.065093643466176
2025-03-07 12:00:05.408,-0.016903805699727135,-8.66013820542296
2025-03-07 12:00:05.416,-0.016107522110055436,-8.35763444752557
2025-03-07 12:00:05.424,-0.015277020759101024,-8.166764080983262
2025-03-07 12:00:05.432,-0.01441412365043802,-8.092328064468088
2025-03-07 12:00:05.440,-0.013521111480120251,-8.134781793700535
2025-03-07 12:00:05.447,-0.012600699524120063,-8.290348150885224
2025-03-07 12:00:05.455,-0.011656002290105242,-8.551196819979443
2025-03-07 12:00:05.463,-0.010690488331428404,-8.905679488888397
2025-03-07 12:00:05.471,-0.009707926804932125,-9.338612384995953
2025-03-07 12:00:05.479,-0.008712327483619922,-9.831599786924324
2025-03-07 12:00:05.486,-0.007707875988285491,-10.363394470031784
2025-03-07 12:00:05.494,-0.0066988660464252945,-10.910293227710861
2025-03-07 12:00:05.502,-0.005689630685319259,-11.446567439394967
2025-03-07 12:00:05.510,-0.004684474346250519,-11.944929940380739
2025-03-07 12:00:05.518,-0.003687607826785415,-12.377040043931322
2025-03-07 12:00:05.525,-0.0027030876308740833,-12.714048375342154
2025-03-07 12:00:05.533,-0.001734760746402873,-12.927182150935678
2025-03-07 12:00:05.541,-0.0007862152291923753,-12.988369674170166
2025-03-07 12:00:05.549,0.00013926350118954273,-12.870900188118055
2025-03-07 12:00:05.557,0.0010387308988734324,-12.55011194769244
2025-03-07 12:00:05.565,0.00190961618834992,-12.004097651909495
2025-03-07 12:00:05.572,0.0027497498273994477,-11.214412459051493
2025-03-07 12:00:05.580,0.0035573852641123723,-10.166765992086976
2025-03-07 12:00:05.588,0.004331214647471394,-8.851676350694271
2025-03-07 12:00:05.596,0.005070378225540956,-7.265061506070819
2025-03-07 12:00:05.604,0.005774467374094614,-5.408741867890574
2025-03-07 12:00:05.611,0.006443521459814757,-3.290827530391139
2025-03-07 12:00:05.619,0.007078018930931286,-0.9259649028518355
2025-03-07 12:00:05.627,0.007678863092948966,1.664579810256256
2025-03-07 12:00:05.635,0.008247363040096498,4.4530185226899155
2025-03-07 12:00:05.643,0.008785210248665616,7.405333139828628
2025-03-07 12:00:05.650,0.009294451351677299,10.481767145093572
2025-03-07 12:00:05.658,0.00977745749636385,13.637515029037575
2025-03-07 12:00:05.666,0.01023689040180557,16.82359963504937
2025-03-07 12:00:05.674,0.010675664866748228,19.98791941349767
2025-03-07 12:00:05.682,0.01109690714966688,23.07643987901731
2025-03-07 12:00:05.690,0.01150390843110128,26.034496646059456
2025-03-07 12:00:05.697,0.011900072510392837,28.808171625843634
2025-03-07 12:00:05.705,0.012288857021008822,31.345699591996254
2025-03-07 12:00:05.713,0.012673707791733107,33.598859576559335
2025-03-07 12:00:05.721,0.0130579865350741,35.52430457580713
2025-03-07 12:00:05.729,0.01344489277705619,37.084783878408665
2025-03-07 12:00:05.736,0.013837381737001131,38.25021495405814
2025-03-07 12:00:05.744,0.014238080551057523,38.998566172431545
2025-03-07 12:00:05.752,0.014649205719564002,39.316517522339005
2025-03-07 12:00:05.760,0.01507248497853464,39.19987378468411
2025-03-07 12:00:05.768,0.015509087011987187,38.65371304397488
2025-03-07 12:00:05.775,0.015959562554345563,37.69226270564808
2025-03-07 12:00:05.783,0.016423800441397095,36.33850496482864
2025-03-07 12:00:05.791,0.0169010019415642,34.62352354324979
2025-03-07 12:00:05.799,0.017389676093025108,32.58561304427912
2025-03-07 12:00:05.807,0.017887657757999234,30.26918103797674
2025-03-07 12:00:05.815,0.018392148863092754,27.723480571867743
2025-03-07 12:00:05.822,0.018899782088026847,25.00121685751453
2025-03-07 12:00:05.830,0.0194067052349293,22.157076135243692
2025-03-07 12:00:05.838,0.01990868362115571,19.246226987507217
2025-03-07 12:00:05.846,0.020401216983216338,16.32284456958688
2025-03-07 12:00:05.854,0.02087966651853011,13.438706367233308
2025-03-07 12:00:05.861,0.02133938693689144,10.64190428469809
2025-03-07 12:00:05.869,0.021775857938981562,7.975712317177648
2025-03-07 12:00:05.877,0.022184809499366343,5.477642054985827
2025-03-07 12:00:05.885,0.02256233569358443,3.178710153024379
2025-03-07 12:00:05.893,0.022904992519873782,1.102933072839331
2025-03-07 12:00:05.900,0.023209876171243534,-0.7329447122747209
2025-03-07 12:00:05.908,0.02347467940502497,-2.319491834253288
2025-03-07 12:00:05.916,0.02369772486074205,-3.654411671937458
2025-03-07 12:00:05.924,0.02387797525014938,-4.742163206696027
2025-03-07 12:00:05.932,0.02401502126935536,-5.593406033484921
2025-03-07 12:00:05.940,0.02410904892917285,-6.224299267460941
2025-03-07 12:00:05.947,0.024160788789498372,-6.655687302563519
2025-03-07 12:00:05.955,0.02417145024582059,-6.912206974037688
2025-03-07 12:00:05.963,0.024142644441507807,-7.021350696593527
2025-03-07 12:00:05.971,0.024076299509642293,-7.012518709143544
2025-03-07 12:00:05.979,0.02397457173552915,-6.916090828834053
2025-03-07 12:00:05.986,0.02383975601557798,-6.762544323264765
2025-03-07 12:00:05.994,0.02367419880558617,-6.581639913465907
2025-03-07 12:00:06.002,0.023480216651981724,-6.401692814050676
2025-03-07 12:00:06.010,0.023260023298247733,-6.248940405991682
2025-03-07 12:00:06.018,0.02301566804906625,-6.1470129180563
2025-03-07 12:00:06.025,0.022748987387257263,-6.116508632090639
2025-03-07 12:00:06.033,0.02246157084105527,-6.174670846679775
2025-03-07 12:00:06.041,0.022154741088893207,-6.335160300787221
2025-03-07 12:00:06.049,0.021829547555922067,-6.607914086687758
2025-03-07 12:00:06.057,0.0214867723642214,-6.99908033374285
2025-03-07 12:00:06.065,0.021126947281340413,-7.511017142138379
2025-03-07 12:00:06.072,0.02075038008569309,-8.142344366518342
2025-03-07 12:00:06.080,0.020357188531406483,-8.888037823562547
2025-03-07 12:00:06.088,0.019947339972617627,-9.739557204248895
2025-03-07 12:00:06.096,0.019520694731416537,-10.685001244490236
2025-03-07 12:00:06.104,0.019077051375189127,-11.709286346668726
2025-03-07 12:00:06.111,0.018616192138794653,-12.794347627248635
2025-03-07 12:00:06.119,0.01813792678692278,-13.919364060975
2025-03-07 12:00:06.127,0.017642133287243796,-15.061011775052389
2025-03-07 12:00:06.135,0.01712879379201216,-16.193751414090126
2025-03-07 12:00:06.143,0.016598024645448687,-17.290156679996244
2025-03-07 12:00:06.150,0.016050099468569497,-18.321291523783636
2025-03-07 12:00:06.158,0.01548546481361814,-19.25714294782773
2025-03-07 12:00:06.166,0.014904748350277393,-20.06711493546987
2025-03-07 12:00:06.174,0.01430875991412432,-20.72058667635295
2025-03-07 12:00:06.182,0.013698485962002009,-21.187535062803942
2025-03-07 12:00:06.190,0.0130750781156912,-21.439217503577225
2025-03-07 12:00:06.197,0.01243983660789964,-21.44890659727992
2025-03-07 12:00:06.205,0.011794189559782864,-21.19266334787171
2025-03-07 12:00:06.213,0.011139669081476036,-20.65013066369079
2025-03-07 12:00:06.221,0.010477885199044941,-19.805324179009183
2025-03-07 12:00:06.229,0.009810498602539894,-18.6473933201492
2025-03-07 12:00:06.236,0.009139193214469628,-17.17132235827865
2025-03-07 12:00:06.244,0.008465649622152885,-15.378539275133814
2025-03-07 12:00:06.252,0.007791520491394789,-13.277399887722563
2025-03-07 12:00:06.260,0.007118409100076813,-10.88351602374126
2025-03-07 12:00:06.268,0.006447851972879336,-8.21989969993939
2025-03-07 12:00:06.276,0.005781306216865996,-5.316900204493078
2025-03-07 12:00:06.283,0.005120141663521684,-2.211917573805363
2025-03-07 12:00:06.291,0.004465637499937681,1.0511160785497633
2025-03-07 12:00:06.299,0.0038189828246259863,4.4224869355548355
2025-03-07 12:00:06.307,0.003181280448687192,7.8476715249137285
2025-03-07 12:00:06.315,0.002553553156153951,11.268510695947198
2025-03-07 12:00:06.322,0.0019367514822789574,14.624556398542016
2025-03-07 12:00:06.330,0.0013317619553885112,17.85455355280711
2025-03-07 12:00:06.338,0.0007394148074371904,20.898011942826635
2025-03-07 12:00:06.346,0.00016049039601232976,23.696817333130422
2025-03-07 12:00:06.354,-0.0004042761452875822,26.196827221929702
2025-03-07 12:00:06.361,-0.0009541923439098053,28.349395059180253
2025-03-07 12:00:06.369,-0.001488608168607039,30.112767522781265
2025-03-07 12:00:06.377,-0.002006918334512099,31.453302610732678
2025-03-07 12:00:06.385,-0.002508567149147066,32.346461807758544
2025-03-07 12:00:06.393,-0.0029930557251939944,32.777537243389304
2025-03-07 12:00:06.401,-0.0034599512819114176,32.74208428213598
2025-03-07 12:00:06.408,-0.003908898235322777,32.24604097596512
2025-03-07 12:00:06.416,-0.004339630718433487,31.305527774730194
2025-03-07 12:00:06.424,-0.004751985997248462,29.94633327724046
2025-03-07 12:00:06.432,-0.005145918000172433,28.20310403216572
2025-03-07 12:00:06.440,-0.005521509937279811,26.118267891557952
2025-03-07 12:00:06.447,-0.0058789847894127525,23.740730647347732
2025-03-07 12:00:06.455,-0.0062187123370728275,21.12439417143006
2025-03-07 12:00:06.463,-0.006541211457950619,18.326550644465083
2025-03-07 12:00:06.471,-0.006847146715414959,15.406211413596743
2025-03-07 12:00:06.479,-0.007137318770321799,12.422430404623915
2025-03-07 12:00:06.486,-0.00741264875227291,9.432680803791117
2025-03-07 12:00:06.494,-0.007674157249112218,6.4913400281835765
2025-03-07 12:00:06.502,-0.007922938918025025,3.648332059577939
2025-03-07 12:00:06.510,-0.008160133942194857,0.9479683738257202
2025-03-07 12:00:06.518,-0.008386897754337921,-1.571980607386247
2025-03-07 12:00:06.526,-0.00860437061021186,-3.8809618904014576
2025-03-07 12:00:06.533,-0.008813648596209098,-5.956053183370313
2025-03-07 12:00:06.541,-0.009015757417841793,-7.782112807279583
2025-03-07 12:00:06.549,-0.009211629915384897,-9.351676095599712
2025-03-07 12:00:06.557,-0.009402087844307395,-10.664617264455076
2025-03-07 12:00:06.565,-0.009587828152651974,-11.72760352009847
2025-03-07 12:00:06.572,-0.009769413816259445,-12.55337433745445
2025-03-07 12:00:06.580,-0.009947269221599995,-13.159883219927899
2025-03-07 12:00:06.588,-0.010121680028079614,-13.569341763920008
2025-03-07 12:00:06.596,-0.010292797309253837,-13.807206524375335
2025-03-07 12:00:06.604,-0.01046064555548978,-13.901148119771781
2025-03-07 12:00:06.611,-0.010625133887827374,-13.880039407236413
2025-03-07 12:00:06.619,-0.010786069653538616,-13.772995634044713
2025-03-07 12:00:06.627,-0.010943173473046186,-13.608494498566026
2025-03-07 12:00:06.635,-0.011096094781063865,-13.41359832050018
2025-03-07 12:00:06.643,-0.011244426940224912,-13.213294324771818
2025-03-07 12:00:06.651,-0.011387721089726374,-13.029962682863324
2025-03-07 12:00:06.658,-0.011525498010381477,-12.882975718242397
2025-03-07 12:00:06.666,-0.011657257431725642,-12.788425840047823
2025-03-07 12:00:06.674,-0.011782484394096892,-12.758974563540413
2025-03-07 12:00:06.682,-0.011900652563352153,-12.80381060790345
2025-03-07 12:00:06.690,-0.012011224802707558,-12.928701683406665
2025-03-07 12:00:06.697,-0.012113651737588873,-13.136122292012574
2025-03-07 12:00:06.705,-0.012207369332293008,-13.425438720827419
2025-03-07 12:00:06.713,-0.01229179654533682,-13.793132408887514
2025-03-07 12:00:06.721,-0.012366334011616423,-14.233043963761164
2025-03-07 12:00:06.729,-0.012430364553096143,-14.736622192150053
2025-03-07 12:00:06.736,-0.01248325622180489,-15.293165439427948
2025-03-07 12:00:06.744,-0.012524368464449338,-15.890046121330288
2025-03-07 12:00:06.752,-0.012553061749367461,-16.512913361237658
2025-03-07 12:00:06.760,-0.012568710620082187,-17.145872878377308
2025-03-07 12:00:06.768,-0.012570719765358802,-17.77164744791189
2025-03-07 12:00:06.776,-0.012558542405911843,-18.371725108517026
2025-03-07 12:00:06.783,-0.01253170006565797,-18.92650556661329
2025-03-07 12:00:06.791,-0.012489802592511793,-19.415457694081773
2025-03-07 12:00:06.799,-0.012432567172634738,-19.81730242154564
2025-03-07 12:00:06.807,-0.012359835120199378,-20.110235524255227
2025-03-07 12:00:06.815,-0.012271585424875317,-20.272203687123444
2025-03-07 12:00:06.822,-0.01216794432387775,-20.281244814111727
2025-03-07 12:00:06.830,-0.012049190454772374,-20.11589990115102
2025-03-07 12:00:06.838,-0.011915755403083577,-19.75569908861177
2025-03-07 12:00:06.846,-0.011768219677516846,-19.181718985856413
2025-03-07 12:00:06.854,-0.011607304324885001,-18.377202314441398
2025-03-07 12:00:06.861,-0.01143385853780294,-17.32822469760033
2025-03-07 12:00:06.869,-0.011248843713357905,-16.024387417788716
2025-03-07 12:00:06.877,-0.011053314493720587,-14.45950957457949
2025-03-07 12:00:06.885,-0.01084839736414123,-12.632288702105232
2025-03-07 12:00:06.893,-0.010635267404421075,-10.54689592243836
2025-03-07 12:00:06.901,-0.010415123791251627,-8.213470437720208
2025-03-07 12:00:06.908,-0.010189164635036345,-5.648478829843032
2025-03-07 12:00:06.916,-0.009958561709758645,-2.8749073543469645
2025-03-07 12:00:06.924,-0.009724435601305509,0.07773983606963299
2025-03-07 12:00:06.932,-0.009487831766159069,3.1736569781595603
2025-03-07 12:00:06.940,-0.009249697986680181,6.371179714979739
2025-03-07 12:00:06.947,-0.009010863768048468,9.623457643350829
2025-03-07 12:00:06.955,-0.008772022314068682,12.879349053214062
2025-03-07 12:00:06.963,-0.008533715725169894,16.08452018762608
2025-03-07 12:00:06.971,-0.00829632393491658,19.182721354643647
2025-03-07 12:00:06.979,-0.00806005778632497,22.117203061767892
2025-03-07 12:00:06.986,-0.007824956706268885,24.83222747843937
2025-03-07 12:00:06.994,-0.007590891608735894,27.27462436451078
2025-03-07 12:00:07.002,-0.007357573744638322,29.39533646584572
2025-03-07 12:00:07.010,-0.007124570105143657,31.150897525249558
2025-03-07 12:00:07.018,-0.00689132571200678,32.50478664900328
2025-03-07 12:00:07.026,-0.006657192765730698,33.42860586122525
2025-03-07 12:00:07.033,-0.006421466210356044,33.90303320658934
2025-03-07 12:00:07.041,-0.006183424827774395,33.918511539926925
2025-03-07 12:00:07.049,-0.005942376507034001,33.4756428611086
2025-03-07 12:00:07.057,-0.005697705864961803,32.58526929382292
2025-03-07 12:00:07.065,-0.005448921971800192,31.268234048890328
2025-03-07 12:00:07.072,-0.005195703650571171,29.55482837034464
2025-03-07 12:00:07.080,-0.004937939759201146,27.48394292097731
2025-03-07 12:00:07.088,-0.004675762035784147,25.101953721666746
2025-03-07 12:00:07.096,-0.004409568413204051,22.461383064285883
2025-03-07 12:00:07.104,-0.004140035108827012,19.619384300560156
2025-03-07 12:00:07.111,-0.0038681162340917273,16.63610570048489
2025-03-07 12:00:07.119,-0.0035950301666640614,13.5729924211822
2025-03-07 12:00:07.127,-0.0033222325446135457,10.491086901694105
2025-03-07 12:00:07.135,-0.00305137650649596,7.449386700684504
2025-03-07 12:00:07.143,-0.0027842616174970276,4.503315047036786
2025-03-07 12:00:07.151,-0.0025227736157166563,1.703353414595089
2025-03-07 12:00:07.158,-0.002268817588140292,-0.9061224079478873
2025-03-07 12:00:07.166,-0.002024247471010506,-3.2877705963554233
2025-03-07 12:00:07.174,-0.00179079492389116,-5.411954088597656
2025-03-07 12:00:07.182,-0.0015700006749736865,-7.257142901918924
2025-03-07 12:00:07.190,-0.0013631513755646108,-8.810047794690853
2025-03-07 12:00:07.197,-0.0011712248283861472,-10.06549541809096
2025-03-07 12:00:07.205,-0.000994846162940783,-11.026064460158544
2025-03-07 12:00:07.213,-0.0008342571192507737,-11.701510289946091
2025-03-07 12:00:07.221,-0.0006893000686760015,-12.108011961842603
2025-03-07 12:00:07.229,-0.0005594177500154586,-12.267279942355149
2025-03-07 12:00:07.236,-0.0004436689422360657,-12.205565481610504
2025-03-07 12:00:07.244,-0.0003407594739243701,-11.952613179199586
2025-03-07 12:00:07.252,-0.00024908717153493057,-11.54059709343075
2025-03-07 12:00:07.260,-0.00016679866672480572,-11.003077900712691
2025-03-07 12:00:07.268,-9.185545935451801e-05,-10.374014372997149
2025-03-07 12:00:07.276,-2.2106272875273008e-05,-9.68685708741474
2025-03-07 12:00:07.283,4.463744960453886e-05,-8.973746117671423
2025-03-07 12:00:07.291,0.0001105260784831549,-8.264827806035086
2025-03-07 12:00:07.299,0.00017759939300482995,-7.587698919108692
2025-03-07 12:00:07.307,0.000247720013151921,-6.966979892027007
2025-03-07 12:00:07.315,0.00032251513988056833,-6.42401278357073
2025-03-07 12:00:07.322,0.00040332878320791996,-5.976674278987324
2025-03-07 12:00:07.330,0.0004911863029362578,-5.639289822461417
2025-03-07 12:00:07.338,0.000586772553528111,-5.422631919946482
2025-03-07 12:00:07.346,0.0006904242193222584,-5.333983942106629
2025-03-07 12:00:07.354,0.0008021361514929469,-5.377250409910958
2025-03-07 12:00:07.361,0.0009215807511740202,-5.5530957059408
2025-03-07 12:00:07.369,0.0010481387604040914,-5.859095286338062
2025-03-07 12:00:07.377,0.0011809393562124283,-6.289886572308273
2025-03-07 12:00:07.385,0.0013189072693996619,-6.837310531375133
2025-03-07 12:00:07.393,0.0014608146786749148,-7.49053924189833
2025-03-07 12:00:07.401,0.0016053356970189676,-8.236189178711916
2025-03-07 12:00:07.408,0.0017511012588202778,-9.058424270979419
2025-03-07 12:00:07.416,0.0018967521235226657,-9.93905668566008
2025-03-07 12:00:07.424,0.0020409876640278555,-10.857656525942927
2025-03-07 12:00:07.432,0.002182608327468893,-11.791683984561532
2025-03-07 12:00:07.440,0.002320550248245609,-12.716658786405578
2025-03-07 12:00:07.447,0.0024539113157854404,-13.606381881976727
2025-03-07 12:00:07.455,0.0025819687951579855,-14.43322326774308
2025-03-07 12:00:07.463,0.0027041891984613143,-15.168487532290897
2025-03-07 12:00:07.471,0.00282023145038001,-15.782865340444852
2025-03-07 12:00:07.479,0.0029299444667353135,-16.24697470837947
2025-03-07 12:00:07.486,0.0030333601081363056,-16.531990778083355
2025-03-07 12:00:07.494,0.003130682204065699,-16.610357099873944
2025-03-07 12:00:07.502,0.00322227212423102,-16.456565443356304
2025-03-07 12:00:07.510,0.0033086312901381737,-16.047985174243113
2025-03-07 12:00:07.518,0.003390381011782363,-15.365717570729357
2025-03-07 12:00:07.526,0.003468239986210597,-14.395445435459953
2025-03-07 12:00:07.533,0.00354299970968982,-13.128244318155488
2025-03-07 12:00:07.541,0.0036154980553966946,-11.561318918828842
2025-03-07 12:00:07.549,0.003686591423686908,-9.698627078171738
2025-03-07 12:00:07.557,0.0037571261322893656,-7.551354409288856
2025-03-07 12:00:07.565,0.0038279099921031496,-5.138205234332865
2025-03-07 12:00:07.572,0.0038996852324732346,-2.485480113495119
2025-03-07 12:00:07.580,0.003973104010135674,0.37308317048160544
2025-03-07 12:00:07.588,0.004048707607441719,3.3967199715305822
2025-03-07 12:00:07.596,0.0041269101661941,6.538305501737131
2025-03-07 12:00:07.604,0.004207987533900855,9.745272144363309
2025-03-07 12:00:07.611,0.00429207152666048,12.960760315295984
2025-03-07 12:00:07.619,0.004379149552593941,16.12497465823687
2025-03-07 12:00:07.627,0.004469069101281921,19.17670689720027
2025-03-07 12:00:07.635,0.004561546218564078,22.054977512368197
2025-03-07 12:00:07.643,0.004656176859501994,24.700741086803966
2025-03-07 12:00:07.651,0.004752449976945418,27.058595125677957
2025-03-07 12:00:07.658,0.004849761356957324,29.07842968410931
2025-03-07 12:00:07.666,0.00494742750916031,30.71695542904428
2025-03-07 12:00:07.674,0.005044699260647016,31.939050849464014
2025-03-07 12:00:07.682,0.005140774991729289,32.71887513557124
2025-03-07 12:00:07.690,0.005234813641480359,33.040701560585006
2025-03-07 12:00:07.697,0.00532594768323509,32.89943667575417
2025-03-07 12:00:07.705,0.005413296223483666,32.300802803214424
2025-03-07 12:00:07.713,0.005495978242644595,31.26117461535547
2025-03-07 12:00:07.721,0.0055731258508626355,29.807074391822837
2025-03-07 12:00:07.729,0.005643897355256331,27.97434418628891
2025-03-07 12:00:07.736,0.005707489928976179,25.807025960848375
2025-03-07 12:00:07.744,0.005763151667429882,23.355992144220636
2025-03-07 12:00:07.752,0.005810192771183779,20.67737850849419
2025-03-07 12:00:07.760,0.005847995554817859,17.830878320313865
2025-03-07 12:00:07.768,0.00587602302034992,14.877961128501232
2025-03-07 12:00:07.776,0.00589382585467529,11.880081173702804
2025-03-07 12:00:07.783,0.005901047842528368,8.896939263744791
2025-03-07 12:00:07.791,0.005897429786530622,5.984858194411001
2025-03-07 12:00:07.799,0.005882812132964029,3.195325659275032
2025-03-07 12:00:07.807,0.005857136655107754,0.573750424263355
2025-03-07 12:00:07.815,0.005820447670155337,-1.8415322424857208
2025-03-07 12:00:07.822,0.005772893211880047,-4.019980828097196
2025-03-07 12:00:07.830,0.00571472628782304,-5.939280041052
2025-03-07 12:00:07.838,0.005646305909606137,-7.585483712837138
2025-03-07 12:00:07.846,0.005568097166344104,-8.952877679423288
2025-03-07 12:00:07.854,0.00548066934945347,-10.043582629104726
2025-03-07 12:00:07.861,0.005384691086724691,-10.866926040411933
2025-03-07 12:00:07.869,0.005280921612964795,-11.438619815255176
2025-03-07 12:00:07.877,0.00517019769391049,-11.779785782331148
2025-03-07 12:00:07.885,0.005053416283261834,-11.915874753456885
2025-03-07 12:00:07.893,0.004931513601113462,-11.875526219189387
2025-03-07 12:00:07.901,0.004805441807281807,-11.689415130586157
2025-03-07 12:00:07.908,0.004676144683339187,-11.389129678014244
2025-03-07 12:00:07.916,0.004544533721180889,-11.006119757518407
2025-03-07 12:00:07.924,0.00441146582141828,-10.570750169282096
2025-03-07 12:00:07.932,0.004277723520480316,-10.111485814993387
2025-03-07 12:00:07.940,0.004143998365714169,-9.654228574311283
2025-03-07 12:00:07.947,0.004010877827732485,-9.221817492485647
2025-03-07 12:00:07.955,0.003878836027441293,-8.83369576528689
2025-03-07 12:00:07.963,0.003748228492038949,-8.505740130392592
2025-03-07 12:00:07.971,0.0036192910193065223,-8.250241018914146
2025-03-07 12:00:07.979,0.003492142522504463,-8.076015508508236
2025-03-07 12:00:07.986,0.0033667915694103948,-7.988630025599458
2025-03-07 12:00:07.994,0.0032431462883420505,-7.990706082823677
2025-03-07 12:00:08.002,0.0031210273438961426,-8.082280249799508
2025-03-07 12:00:08.010,0.003000183708543468,-8.261189100437765
2025-03-07 12:00:08.018,0.002880310934080439,-8.523451034899534
2025-03-07 12:00:08.026,0.002761071549072132,-8.863619536197298
2025-03-07 12:00:08.033,0.0026421170725952933,-9.275086415693574
2025-03-07 12:00:08.041,0.0025231109413371674,-9.750318694601512
2025-03-07 12:00:08.049,0.0024037514052074526,-10.281018681892167
2025-03-07 12:00:08.057,0.0022837931943507526,-10.858203230784541
2025-03-07 12:00:08.065,0.0021630665802867682,-11.472204746217301
2025-03-07 12:00:08.072,0.0020414924318355654,-12.112602915284242
2025-03-07 12:00:08.080,0.0019190920349850097,-12.76810198115276
2025-03-07 12:00:08.088,0.0017959907986572926,-13.426373340850196
2025-03-07 12:00:08.096,0.0016724154926764355,-14.073887026878005
2025-03-07 12:00:08.104,0.0015486853035702895,-14.69575800201584
2025-03-07 12:00:08.111,0.0014251976121275073,-15.275633995547958
2025-03-07 12:00:08.119,0.001302409826267314,-15.79565075238231
2025-03-07 12:00:08.127,0.0011808187527662405,-16.236478051198254
2025-03-07 12:00:08.135,0.0010609389257235547,-16.57747575651445
2025-03-07 12:00:08.143,0.000943281180250295,-16.796973665946993
2025-03-07 12:00:08.151,0.0008283326449132086,-16.872682232476496
2025-03-07 12:00:08.158,0.0007165391897550886,-16.7822336789544
2025-03-07 12:00:08.166,0.0006082911718044661,-16.503844929798404
2025-03-07 12:00:08.174,0.0005039131068301255,-16.01708555826547
2025-03-07 12:00:08.182,0.0004036577044853795,-15.303726010025095
2025-03-07 12:00:08.190,0.00030770446487592525,-14.348634148830754
2025-03-07 12:00:08.197,0.00021616263738416457,-13.140682107950944
2025-03-07 12:00:08.205,0.00012907782751586268,-11.673620930828072
2025-03-07 12:00:08.213,4.6441110412583025e-05,-9.946877907042035
2025-03-07 12:00:08.221,-3.180066980148618e-05,-7.9662311333347615
2025-03-07 12:00:08.229,-0.00010573467799413315,-5.7443178228052725
2025-03-07 12:00:08.236,-0.00017547298987307777,-3.300937295247593
2025-03-07 12:00:08.244,-0.00024114533498533668,-0.6631163286713828
2025-03-07 12:00:08.252,-0.00030289401163280686,2.1350865741044704
2025-03-07 12:00:08.260,-0.0003608709608037075,5.053050792780891
2025-03-07 12:00:08.268,-0.0004152367727099468,8.044337886920053
2025-03-07 12:00:08.276,-0.0004661613230243786,11.057698680394827
2025-03-07 12:00:08.283,-0.0005138257065979387,14.038318406264771
2025-03-07 12:00:08.291,-0.0005584250411623705,16.929262933500702
2025-03-07 12:00:08.299,-0.0006001715544738929,19.673078089979168
2025-03-07 12:00:08.307,-0.00063929727372335,22.21348496496224
2025-03-07 12:00:08.315,-0.0006760556887154879,24.497107371443295
2025-03-07 12:00:08.322,-0.0007107219141431684,26.475163814360215
2025-03-07 12:00:08.330,-0.0007435910597440124,28.105055641454413
2025-03-07 12:00:08.338,-0.0007749747004952631,29.351785678706634
2025-03-07 12:00:08.346,-0.0008051955085756528,30.189147518515632
2025-03-07 12:00:08.354,-0.0008345802619846499,30.600634495388125
2025-03-07 12:00:08.361,-0.0008634515845483021,30.58002883069663
2025-03-07 12:00:08.369,-0.0008921188910287409,30.131644877257838
2025-03-07 12:00:08.377,-0.0009208691073403889,29.27021514364867
2025-03-07 12:00:08.385,-0.0009499578132832698,28.020423043764236
2025-03-07 12:00:08.393,-0.000979601506930908,26.41610129022687
2025-03-07 12:00:08.401,-0.0010099717093903196,24.49912875747191
2025-03-07 12:00:08.408,-0.0010411915887482564,22.31807079583159
2025-03-07 12:00:08.416,-0.0010733356087303514,19.926617820393158
2025-03-07 12:00:08.424,-0.001106432363941448,17.381884117409847
2025-03-07 12:00:08.432,-0.0011404703422569636,14.742632966400611
2025-03-07 12:00:08.440,-0.0011754060159747436,12.067495304100957
2025-03-07 12:00:08.447,-0.0012111734937300064,9.413247356117822
2025-03-07 12:00:08.455,-0.0012476949328182336,6.8332081649957175
2025-03-07 12:00:08.463,-0.0012848909417510848,4.375811080383333
2025-03-07 12:00:08.471,-0.0013226902617720436,2.0833944547126633
2025-03-07 12:00:08.479,-0.0013610381013998134,-0.008753525097497742
2025-03-07 12:00:08.486,-0.0013999026016290647,-1.8730722266227888
2025-03-07 12:00:08.494,-0.0014392790280467116,-3.4901162620353965
2025-03-07 12:00:08.502,-0.0014791914217873105,-4.8486531962321076
2025-03-07 12:00:08.510,-0.0015196915847945243,-5.945482060788379
2025-03-07 12:00:08.518,-0.0015608554223458717,-6.784993551920628
2025-03-07 12:00:08.526,-0.0016027768185828738,-7.378501556591617
2025-03-07 12:00:08.533,-0.0016455593692416323,-7.743382824625945
2025-03-07 12:00:08.541,-0.0016893064356605962,-7.90206699886742
2025-03-07 12:00:08.549,-0.0017341101166628843,-7.880922722817724
2025-03-07 12:00:08.557,-0.0017800398504938192,-7.709087132164053
2025-03-07 12:00:08.565,-0.0018271314482994371,-7.4172857334677
2025-03-07 12:00:08.572,-0.0018753773934094189,-7.03668756599684
2025-03-07 12:00:08.580,-0.0019247191401454932,-6.597836766523867
2025-03-07 12:00:08.588,-0.0019750418722164964,-6.129696393703366
2025-03-07 12:00:08.596,-0.0020261718240455998,-5.658833849075446
2025-03-07 12:00:08.604,-0.0020778759861150757,-5.208769739189505
2025-03-07 12:00:08.611,-0.002129863892422153,-4.799503892055501
2025-03-07 12:00:08.619,-0.002181791190434061,-4.447223843877082
2025-03-07 12:00:08.627,-0.002233264745308137,-4.164192838245423
2025-03-07 12:00:08.635,-0.0022838490957386706,-3.9588066099364716
2025-03-07 12:00:08.643,-0.0023330741557717983,-3.835801306995703
2025-03-07 12:00:08.651,-0.0023804441370635066,-3.7965891346955116
2025-03-07 12:00:08.658,-0.0024254477413956253,-3.839693911954931
2025-03-07 12:00:08.666,-0.00246756971499169,-3.961255860449033
2025-03-07 12:00:08.674,-0.002506303788926168,-4.15557365492691
2025-03-07 12:00:08.682,-0.0025411668152608325,-4.415652024273158
2025-03-07 12:00:08.690,-0.002571713637728206,-4.7337249147095735
2025-03-07 12:00:08.697,-0.002597552067230746,-5.10172726600469
2025-03-07 12:00:08.705,-0.0026183573460550388,-5.511692624379001
2025-03-07 12:00:08.713,-0.002633885609081643,-5.956058906878764
2025-03-07 12:00:08.721,-0.0026439859083658814,-6.427870405637383
2025-03-07 12:00:08.729,-0.002648610217718119,-6.920870324723812
2025-03-07 12:00:08.736,-0.0026478205206657817,-7.429484507703521
2025-03-07 12:00:08.744,-0.002641791847640325,-7.948703256710948
2025-03-07 12:00:08.752,-0.0026308102086197807,-8.473873980951975
2025-03-07 12:00:08.760,-0.0026152648028848428,-9.000422584334487
2025-03-07 12:00:08.768,-0.002595634519110476,-9.523525785751694
2025-03-07 12:00:08.776,-0.002572469373354256,-10.037759777001275
2025-03-07 12:00:08.783,-0.002546368040272382,-10.536752613741282
2025-03-07 12:00:08.791,-0.002517952958859381,-11.012868395797941
2025-03-07 12:00:08.799,-0.002487844632058643,-11.45695056556892
2025-03-07 12:00:08.807,-0.00245663669518563,-11.858149533556881
2025-03-07 12:00:08.815,-0.0024248731340069515,-12.203856379846487
2025-03-07 12:00:08.822,-0.002393028775093854,-12.479759684252201
2025-03-07 12:00:08.830,-0.002361493908688315,-12.670036763278073
2025-03-07 12:00:08.838,-0.0023305636055761378,-12.757683950437121
2025-03-07 12:00:08.846,-0.0023004319226400003,-12.724983310954007
2025-03-07 12:00:08.854,-0.0022711908183354703,-12.554095636809006
2025-03-07 12:00:08.861,-0.0022428333074187737,-12.22776205612846
2025-03-07 12:00:08.869,-0.0022152602103171154,-11.73008946349854
2025-03-07 12:00:08.877,-0.0021882898016088908,-11.047388596850508
2025-03-07 12:00:08.885,-0.0021616697077740427,-10.169028311210669
2025-03-07 12:00:08.893,-0.0021350904685744384,-9.088265766139445
2025-03-07 12:00:08.901,-0.0021082002075771622,-7.80301014454788
2025-03-07 12:00:08.908,-0.0020806198968934537,-6.316477386851425
2025-03-07 12:00:08.916,-0.0020519587854677694,-4.637695411497481
2025-03-07 12:00:08.924,-0.0020218296116570307,-2.7818234653237637
2025-03-07 12:00:08.932,-0.0019898631261661853,-0.7702555610689426
2025-03-07 12:00:08.940,-0.0019557212218412673,1.3695137531962995
2025-03-07 12:00:08.947,-0.0019191077644042278,3.604273086128229
2025-03-07 12:00:08.955,-0.0018797762314694561,5.895727940924724
2025-03-07 12:00:08.963,-0.0018375335749302715,8.20137316618029
2025-03-07 12:00:08.971,-0.0017922402416864734,10.47558078597682
2025-03-07 12:00:08.979,-0.001743806822162392,12.670868459435093
2025-03-07 12:00:08.986,-0.0016921881472736168,14.739303659881669
2025-03-07 12:00:08.994,-0.0016373757391024712,16.633990386728218
2025-03-07 12:00:09.002,-0.0015793894103621204,18.3105793684469
2025-03-07 12:00:09.010,-0.0015182686624092261,19.728739695472747
2025-03-07 12:00:09.018,-0.0014540644688176446,20.853529893740248
2025-03-07 12:00:09.026,-0.0013868320580939931,21.656609689906485
2025-03-07 12:00:09.033,-0.0013166253580549755,22.1172400108228
2025-03-07 12:00:09.041,-0.0012434937620793179,22.223027789182343
2025-03-07 12:00:09.049,-0.0011674817894304433,21.97038342098791
2025-03-07 12:00:09.057,-0.0010886320388274234,21.364671597167828
2025-03-07 12:00:09.065,-0.0010069915586959648,20.42004997016426
2025-03-07 12:00:09.072,-0.0009226213490852056,19.15900393651238
2025-03-07 12:00:09.080,-0.0008356082194159305,17.61159896203036
2025-03-07 12:00:09.088,-0.0007460777979713113,15.814483667469544
2025-03-07 12:00:09.096,-0.0006542072501142223,13.809686763828608
2025-03-07 12:00:09.104,-0.0005602362573547888,11.643258451264856
2025-03-07 12:00:09.112,-0.00046447504253644973,9.363811799706207
2025-03-07 12:00:09.119,-0.00036730866050418666,7.02102179738679
2025-03-07 12:00:09.127,-0.000269197283656051,4.664139225999553
2025-03-07 12:00:09.135,-0.00017067263240843513,2.3405734820569126
2025-03-07 12:00:09.143,-7.233094503358374e-05,0.0945932188704456
2025-03-07 12:00:09.151,2.517701797284631e-05,-2.0338133695251632
2025-03-07 12:00:09.158,0.00012115840773086457,-4.009885202137988
2025-03-07 12:00:09.166,0.0002148926340399265,-5.804817741723313
2025-03-07 12:00:09.174,0.0003056471347985938,-7.396260676856006
2025-03-07 12:00:09.182,0.00039269413455344344,-8.76857889593673
2025-03-07 12:00:09.190,0.0004753280317716029,-9.912880905688665
2025-03-07 12:00:09.197,0.0005528831128976182,-10.826827187377226
2025-03-07 12:00:09.205,0.0006247512589878784,-11.514238304569476
2025-03-07 12:00:09.213,0.0006903991479650078,-11.984528692008315
2025-03-07 12:00:09.221,0.000749384251946743,-12.251996838087743
2025-03-07 12:00:09.229,0.0008013688411840668,-12.335005945710478
2025-03-07 12:00:09.237,0.0008461313115945713,-12.255091087749074
2025-03-07 12:00:09.244,0.0008835743831063678,-12.036029379827944
2025-03-07 12:00:09.252,0.0009137299177619643,-11.70290883314086
2025-03-07 12:00:09.260,0.000936760171109905,-11.281229420092743
2025-03-07 12:00:09.268,0.0009529552276649924,-10.796066619266988
2025-03-07 12:00:09.276,0.0009627262928424232,-10.271323475763854
2025-03-07 12:00:09.283,0.0009665945751327227,-9.729092227044418
2025-03-07 12:00:09.291,0.0009651757788405963,-9.189141036601216
2025-03-07 12:00:09.299,0.0009591606602585948,-8.668535587648732
2025-03-07 12:00:09.307,0.0009492925128129702,-8.181399444171484
2025-03-07 12:00:09.315,0.0009363427273535698,-7.73881139110032
2025-03-07 12:00:09.322,0.0009210856842075012,-7.3488325966653285
2025-03-07 12:00:09.330,0.0009042741949292184,-7.016651554200029
2025-03-07 12:00:09.338,0.0008866166031481955,-6.744830500317444
2025-03-07 12:00:09.346,0.0008687565294307935,-6.533633504576848
2025-03-07 12:00:09.354,0.0008512560666694818,-6.38141380472754
2025-03-07 12:00:09.362,0.0008345829685212382,-6.285036326512836
2025-03-07 12:00:09.369,0.0008191021071418379,-6.240310756165241
2025-03-07 12:00:09.377,0.0008050713279611516,-6.242411065791552
2025-03-07 12:00:09.385,0.0007926417951998229,-6.28625901399278
2025-03-07 12:00:09.393,0.0007818628543991271,-6.366851787351104
2025-03-07 12:00:09.401,0.0007726911959154503,-6.47951749264109
2025-03-07 12:00:09.408,0.000765003717657053,-6.620086492717794
2025-03-07 12:00:09.416,0.0007586131545000873,-6.784971405460218
2025-03-07 12:00:09.424,0.0007532854245610501,-6.971153733576172
2025-03-07 12:00:09.432,0.000748757701859916,-7.17608032634832
2025-03-07 12:00:09.440,0.0007447563370861857,-7.397477951753235
2025-03-07 12:00:09.447,0.0007410138737990093,-7.633098947429711
2025-03-07 12:00:09.455,0.0007372845501458906,-7.8804150124691486
2025-03-07 12:00:09.463,0.0007333577807480489,-8.136279522293826
2025-03-07 12:00:09.471,0.0007290691372969835,-8.39658115729227
2025-03-07 12:00:09.479,0.0007243083635384592,-8.655913031501559
2025-03-07 12:00:09.487,0.0007190240828829616,-8.907281823949193
2025-03-07 12:00:09.494,0.0007132250806536877,-9.141880616570525
2025-03-07 12:00:09.502,0.0007069782473864779,-9.348947222928025
2025-03-07 12:00:09.510,0.0007004033778972766,-9.515726778334285
2025-03-07 12:00:09.518,0.0006936650995934073,-9.62755332044259
2025-03-07 12:00:09.526,0.0006869623632574732,-9.668060128551565
2025-03-07 12:00:09.533,0.0006805161647121209,-9.619522859572768
2025-03-07 12:00:09.541,0.0006745563548005187,-9.463333205914893
2025-03-07 12:00:09.549,0.0006693084552691999,-9.180594128300143
2025-03-07 12:00:09.557,0.0006649813638190187,-8.752820944028324
2025-03-07 12:00:09.565,0.0006617567456286415,-8.162725971015282
2025-03-07 12:00:09.572,0.0006597807294400042,-7.395058355948017
2025-03-07 12:00:09.580,0.0006591582206685798,-6.437465476786867
2025-03-07 12:00:09.588,0.0006599498013399863,-5.281338226720541
2025-03-07 12:00:09.596,0.0006621709618549127,-3.9225998595335914
2025-03-07 12:00:09.604,0.0006657933776312248,-2.3623971692966474
2025-03-07 12:00:09.612,0.0006707480324351985,-0.6076538004528912
2025-03-07 12:00:09.619,0.0006769300477631202,1.3285514245816166
2025-03-07 12:00:09.627,0.0006842050231366518,3.4268130695089196
2025-03-07 12:00:09.635,0.0006924165942248135,5.661459200974557
2025-03-07 12:00:09.643,0.0007013948877296578,8.000858623347701
2025-03-07 12:00:09.651,0.0007109655922277845,10.407980187748723
2025-03-07 12:00:09.658,0.000720959355840061,12.841197481309734
2025-03-07 12:00:09.666,0.0007312210930590112,15.255320104751071
2025-03-07 12:00:09.674,0.0007416186126039622,17.60282088249796
2025-03-07 12:00:09.682,0.00075204991591115,19.835217437715556
2025-03-07 12:00:09.690,0.0007624486329776812,21.904557300646935
2025-03-07 12:00:09.697,0.0007727872838146441,23.764948721920952
2025-03-07 12:00:09.705,0.0007830782259341887,25.37407512964664
2025-03-07 12:00:09.713,0.0007933721892995783,26.694630034729617
2025-03-07 12:00:09.721,0.0008037542838057277,27.69561129509282
2025-03-07 12:00:09.729,0.0008143374365577682,28.35341892799793
2025-03-07 12:00:09.737,0.0008252534443339293,28.65270883068929
2025-03-07 12:00:09.744,0.0008366421323003138,28.586965363312846
2025-03-07 12:00:09.752,0.0008486393365628582,28.158768147929685
2025-03-07 12:00:09.760,0.0008613644912996886,27.379741935509898
2025-03-07 12:00:09.768,0.0008749085676639356,26.270192244627705
2025-03-07 12:00:09.776,0.000889323094252067,24.85844294906698
2025-03-07 12:00:09.783,0.0009046109867418665,23.17990441012135
2025-03-07 12:00:09.791,0.0009207198126041326,21.2759115285424
2025-03-07 12:00:09.799,0.0009375378472805991,19.192379764287658
2025-03-07 12:00:09.807,0.0009548929237503057,16.97833340608435
2025-03-07 12:00:09.815,0.0009725537991423967,14.68436397670555
2025-03-07 12:00:09.822,0.0009902336698990153,12.361077590534116
2025-03-07 12:00:09.830,0.0010075955617517135,10.057588436808594
2025-03-07 12:00:09.838,0.0010242594942249396,7.820111569626206
2025-03-07 12:00:09.846,0.0010398114122472611,5.69070216850082
2025-03-07 12:00:09.854,0.0010538138091081039,3.7061807860872786
2025-03-07 12:00:09.862,0.0010658178064065777,1.8972752600787874
2025-03-07 12:00:09.869,0.0010753763310329726,0.2880003856101102
2025-03-07 12:00:09.877,0.0010820579731955942,-1.1047134378307455
2025-03-07 12:00:09.885,0.0010854610823509887,-2.2711411449048327
2025-03-07 12:00:09.893,0.0010852276344597929,-3.2086413827051348
2025-03-07 12:00:09.901,0.0010810563864249014,-3.9213086745090227
2025-03-07 12:00:09.908,0.0010727148244326235,-4.419423135997213
2025-03-07 12:00:09.916,0.0010600494418705677,-4.7187276575093655
2025-03-07 12:00:09.924,0.0010429939943420452,-4.839567194006764
2025-03-07 12:00:09.932,0.0010215755409462284,-4.805928026486026
2025-03-07 12:00:09.940,0.0009959181719456126,-4.64441653857717
2025-03-07 12:00:09.947,0.0009662442740448142,-4.383217202280236
2025-03-07 12:00:09.955,0.0009328730771401231,-4.0510681469591505
2025-03-07 12:00:09.963,0.0008962162140817312,-3.676290003783694
2025-03-07 12:00:09.971,0.0008567701823712196,-3.285899829376867
2025-03-07 12:00:09.979,0.0008151058521486589,-2.9048370135712935
2025-03-07 12:00:09.987,0.0007718553674265039,-2.555322390108469
2025-03-07 12:00:09.994,0.0007276968578303367,-2.2563655340491393
2025-03-07 12:00:10.002,0.0006833373861326851,-2.023428693106042
2025-03-07 12:00:10.010,0.0006394946173137505,-1.8682492151351031
2025-03-07 12:00:10.018,0.0005968778069283694,-1.798815951280031
2025-03-07 12:00:10.026,0.000556168753815924,-1.8194891707865475
2025-03-07 12:00:10.033,0.0005180032728296973,-1.9312482334687173
2025-03-07 12:00:10.041,0.0004829535947630882,-2.1320468136546102
2025-03-07 12:00:10.049,0.00045151204166287817,-2.4172520018567987
2025-03-07 12:00:10.057,0.00042407642539604793,-2.7801412283965696
2025-03-07 12:00:10.065,0.00040093779826140676,-3.212429709331526
2025-03-07 12:00:10.072,0.00038227129009061505,-3.704801017549262
2025-03-07 12:00:10.080,0.0003681307067309237,-4.247414402141732
2025-03-07 12:00:10.088,0.00035844737931976995,-4.830364559180638
2025-03-07 12:00:10.096,0.00035303351820883223,-5.444072616321481
2025-03-07 12:00:10.104,0.0003515900689258133,-6.079591033383133
2025-03-07 12:00:10.112,0.0003537187985060219,-6.728809821542136
2025-03-07 12:00:10.119,0.0003589380677669683,-7.3845567958190745
2025-03-07 12:00:10.127,0.00036670147262672046,-8.040590310612963
2025-03-07 12:00:10.135,0.00037641830211777855,-8.69148885610557
2025-03-07 12:00:10.143,0.0003874746466681894,-9.332447750678996
2025-03-07 12:00:10.151,0.0003992540672907115,-9.958998666526195
2025-03-07 12:00:10.158,0.00041115699271138063,-10.56667258147133
2025-03-07 12:00:10.166,0.00042261833275835005,-11.15063068090497
2025-03-07 12:00:10.174,0.00043312301823988074,-11.705290495481883
2025-03-07 12:00:10.182,0.00044221921569496074,-12.223975963254542
2025-03-07 12:00:10.190,0.00044952889366468174,-12.698620027743246
2025-03-07 12:00:10.197,0.0004547553841371002,-13.119546780111811
2025-03-07 12:00:10.205,0.0004576876665436949,-13.475357056188393
2025-03-07 12:00:10.213,0.000458201263390556,-13.752936915261335
2025-03-07 12:00:10.221,0.00045625579736071725,-13.937602733468308
2025-03-07 12:00:10.229,0.00045188938386490023,-14.013389972437867
2025-03-07 12:00:10.237,0.00044521011870545,-13.963485306742122
2025-03-07 12:00:10.244,0.0004363849674865142,-13.770794012106462
2025-03-07 12:00:10.252,0.00042562640502755703,-13.418626651262732
2025-03-07 12:00:10.260,0.00041317726561853273,-12.891481487633012
2025-03-07 12:00:10.268,0.0003992944841211146,-12.175892071441409
2025-03-07 12:00:10.276,0.0003842326519919782,-11.261303454184851
2025-03-07 12:00:10.283,0.00036822842831413233,-10.140935866751336
2025-03-07 12:00:10.291,0.0003514867550328461,-8.812591787752314
2025-03-07 12:00:10.299,0.00033416960662603905,-7.2793614261885935
2025-03-07 12:00:10.307,0.00031638781031274367,-5.550182968804337
2025-03-07 12:00:10.315,0.0002981963798179521,-3.6402176229622034
2025-03-07 12:00:10.322,0.00027959374586847513,-1.5710055231170015
2025-03-07 12:00:10.330,0.00026052509536966735,0.6296231782778751
2025-03-07 12:00:10.338,0.0002408896778624411,2.9278975388842734
2025-03-07 12:00:10.346,0.00022055148896172276,5.28471921370016
2025-03-07 12:00:10.354,0.0001993523616299269,7.656531246990385
2025-03-07 12:00:10.362,0.00017712630762782675,9.996420637162688
2025-03-07 12:00:10.369,0.00015371399152695677,12.255420587463115
2025-03-07 12:00:10.377,0.00012897645373634897,14.383967043509454
2025-03-07 12:00:10.385,0.00010280751048080688,16.33345464411917
2025-03-07 12:00:10.393,7.514448560761361e-05,18.057830193120157
2025-03-07 12:00:10.401,4.597698848859981e-05,19.515157691339148
2025-03-07 12:00:10.408,1.5353418336310868e-05,20.669088176686223
2025-03-07 12:00:10.416,-1.6615104105000502e-05,21.490170236346916
2025-03-07 12:00:10.424,-4.975353042811266e-05,21.9569430002229
2025-03-07 12:00:10.432,-8.382435880577765e-05,22.056762413442822
2025-03-07 12:00:10.440,-0.0001185316438740977,21.786323137440633
2025-03-07 12:00:10.447,-0.00015352747357583066,21.151851896478412
2025-03-07 12:00:10.455,-0.00018842101596912688,20.168962705447928
2025-03-07 12:00:10.463,-0.00022279034765402623,18.862179370259785
2025-03-07 12:00:10.471,-0.00025619720801049284,17.264145143280395
2025-03-07 12:00:10.479,-0.0002882045491224948,15.414552707021022
2025-03-07 12:00:10.487,-0.00031839631222743095,13.358839114556911
2025-03-07 12:00:10.494,-0.000346398382044236,11.146699429362474
2025-03-07 12:00:10.502,-0.0003718993252455864,8.830479225274399
2025-03-07 12:00:10.510,-0.000394669430804964,6.463509634470398
2025-03-07 12:00:10.518,-0.00041457673835248673,4.098449231351375
2025-03-07 12:00:10.526,-0.00043159906072339784,1.7856948236777614
2025-03-07 12:00:10.533,-0.0004458313253319474,-0.42808157026459076
2025-03-07 12:00:10.541,-0.00045748778781214236,-2.501219299818833
2025-03-07 12:00:10.549,-0.00046689887677480563,-4.398137775469212
2025-03-07 12:00:10.557,-0.00047450272625731326,-6.090155977308439
2025-03-07 12:00:10.565,-0.00048083183119143727,-7.556042442969574
2025-03-07 12:00:10.572,-0.0004864955935675746,-8.782286699948747
2025-03-07 12:00:10.580,-0.0004921597029014322,-9.763094273173618
2025-03-07 12:00:10.588,-0.0004985232792471671,-10.500117989894356
2025-03-07 12:00:10.596,-0.0005062945365132707,-11.001947921885256
2025-03-07 12:00:10.604,-0.0005161655146379273,-11.283390606727922
2025-03-07 12:00:10.612,-0.0005287863411287276,-11.364574901564946
2025-03-07 12:00:10.619,-0.0005447395945586027,-11.269926747841772
2025-03-07 12:00:10.627,-0.000564515574749741,-11.027058149270225
2025-03-07 12:00:10.635,-0.0005884894810224744,-10.665616753391754
2025-03-07 12:00:10.643,-0.0006169015756177018,-10.216141622894757
2025-03-07 12:00:10.651,-0.0006498413952036714,-9.708968200819756
2025-03-07 12:00:10.658,-0.0006872370349708136,-9.173221291913269
2025-03-07 12:00:10.666,-0.000728850463212093,-8.635929332642219
2025-03-07 12:00:10.674,-0.0007742796560692468,-8.121286578686988
2025-03-07 12:00:10.682,-0.0008229680291094036,-7.650082402893363
2025-03-07 12:00:10.690,-0.0008742212325800445,-7.239308987349632
2025-03-07 12:00:10.697,-0.0009272309491602157,-6.9019506398932675
2025-03-07 12:00:10.705,-0.0009811049020129522,-6.646950101371374
2025-03-07 12:00:10.713,-0.001034901820051621,-6.4793398596955445
2025-03-07 12:00:10.721,-0.0010876696616191972,-6.400519947139333
2025-03-07 12:00:10.729,-0.0011384850989088126,-6.408658220923096
2025-03-07 12:00:10.737,-0.001186492192671084,-6.49918491043681
2025-03-07 12:00:10.744,-0.001230938272752754,-6.6653503922622725
2025-03-07 12:00:10.752,-0.0012712051702327405,-6.898813797459716
2025-03-07 12:00:10.760,-0.0013068341196128964,-7.190230173740465
2025-03-07 12:00:10.768,-0.0013375429756692324,-7.5298054739474
2025-03-07 12:00:10.776,-0.0013632349327175582,-7.907791533353218
2025-03-07 12:00:10.783,-0.0013839986055234435,-8.314897301687365
2025-03-07 12:00:10.791,-0.0014000999628205634,-8.742597735176634
2025-03-07 12:00:10.799,-0.0014119670731170117,-9.183327704193673
2025-03-07 12:00:10.807,-0.00142016888092251,-9.630554768056538
2025-03-07 12:00:10.815,-0.0014253892777998428,-10.078731421576016
2025-03-07 12:00:10.822,-0.0014283976099107951,-10.5231341333751
2025-03-07 12:00:10.830,-0.0014300165905504379,-10.959602884601127
2025-03-07 12:00:10.838,-0.001431088524859195,-11.384200701192093
2025-03-07 12:00:10.846,-0.0014324408860385855,-11.79281759288116
2025-03-07 12:00:10.854,-0.0014348525304029415,-12.180747131368596
2025-03-07 12:00:10.862,-0.0014390220438443696,-12.542266416824353
2025-03-07 12:00:10.869,-0.0014455397592813325,-12.870251238692099
2025-03-07 12:00:10.877,-0.0014548648377665588,-13.15585772872891
2025-03-07 12:00:10.885,-0.0014673084947194695,-13.388299686663732
2025-03-07 12:00:10.893,-0.0014830240602332532,-13.554747054354978
2025-03-07 12:00:10.901,-0.0015020041790654234,-13.640365817513974
2025-03-07 12:00:10.908,-0.0015240851227711542,-13.628513093104546
2025-03-07 12:00:10.916,-0.001548957909827254,-13.501093553998668
2025-03-07 12:00:10.924,-0.0015761857134467246,-13.239074952657582
2025-03-07 12:00:10.932,-0.001605226850569503,-12.823151691225284
2025-03-07 12:00:10.940,-0.0016354624150137242,-12.234536552901481
2025-03-07 12:00:10.947,-0.0016662273087357142,-11.455852298329821
2025-03-07 12:00:10.955,-0.0016968431200027568,-10.472087291923769
2025-03-07 12:00:10.963,-0.0017266511491817003,-9.271573094692895
2025-03-07 12:00:10.971,-0.0017550439703107267,-7.846937445162653
2025-03-07 12:00:10.979,-0.0017814941600668148,-6.195983595028208
2025-03-07 12:00:10.987,-0.0018055790710820177,-4.322446839095992
2025-03-07 12:00:10.994,-0.001827000690686421,-2.2365814461055966
2025-03-07 12:00:11.002,-0.0018455997429883443,0.0444638962940725
2025-03-07 12:00:11.010,-0.0018613633360935458,2.4965166514478234
2025-03-07 12:00:11.018,-0.001874425658401348,5.088521967875604
2025-03-07 12:00:11.026,-0.0018850614856014073,7.7829686921111145
2025-03-07 12:00:11.033,-0.0018936725687069712,10.536600576731178
2025-03-07 12:00:11.041,-0.001900767294586199,13.301399841206065
2025-03-07 12:00:11.049,-0.0019069342618234252,16.025816611923002
2025-03-07 12:00:11.057,-0.0019128105540825086,18.656204806894053
2025-03-07 12:00:11.065,-0.0019190455946071535,21.138413490473226
2025-03-07 12:00:11.072,-0.001926261673601758,23.419473305930794
2025-03-07 12:00:11.080,-0.0019350126245064238,25.449310900349495
2025-03-07 12:00:11.088,-0.001945742596709389,27.18242074686853
2025-03-07 12:00:11.096,-0.001958747262120649,28.579423731301496
2025-03-07 12:00:11.104,-0.001974139976859316,29.60844539290234
2025-03-07 12:00:11.112,-0.001991825348824551,30.24625366632077
2025-03-07 12:00:11.119,-0.0020114823293839925,30.479106022890473
2025-03-07 12:00:11.127,-0.0020325583646213894,30.30326852204169
2025-03-07 12:00:11.135,-0.0020542753611991578,29.725183772076385
2025-03-07 12:00:11.143,-0.0020756473733866366,28.761280370628796
2025-03-07 12:00:11.151,-0.0020955091761025962,27.437432201022048
2025-03-07 12:00:11.158,-0.0021125543499754718,25.788091158623825
2025-03-07 12:00:11.166,-0.002125381112682443,23.855130692954802
2025-03-07 12:00:11.174,-0.0021325437832666883,21.686449310511343
2025-03-07 12:00:11.182,-0.0021326074727120756,19.334392366397502
2025-03-07 12:00:11.190,-0.0021242034775419607,16.85405671707213
2025-03-07 12:00:11.197,-0.002106082988956744,14.30154592079891
2025-03-07 12:00:11.205,-0.0020771670411413373,11.732243640680766
2025-03-07 12:00:11.213,-0.002036590952430949,9.199169878089952
2025-03-07 12:00:11.221,-0.00198374175008919,6.751478938687992
2025-03-07 12:00:11.229,-0.0019182871824737406,4.4331500215525645
2025-03-07 12:00:11.237,-0.0018401949514120803,2.2819115160904646
2025-03-07 12:00:11.244,-0.001749740862744793,0.32842902630396026
2025-03-07 12:00:11.252,-0.0016475048570351563,-1.4042246358757102
2025-03-07 12:00:11.260,-0.0015343544261628421,-2.900811203421955
2025-03-07 12:00:11.268,-0.0014114156649071483,-4.1538858037097866
2025-03-07 12:00:11.276,-0.0012800329866105807,-5.163489117321359
2025-03-07 12:00:11.283,-0.0011417192263107033,-5.936598756374691
2025-03-07 12:00:11.291,-0.0009980984128609043,-6.486373978694762
2025-03-07 12:00:11.299,-0.0008508438987147826,-6.831234309609285
2025-03-07 12:00:11.307,-0.0007016147863261192,-6.9938171618835225
2025-03-07 12:00:11.315,-0.0005519936810152913,-6.999862020057913
2025-03-07 12:00:11.322,-0.0004034287324197824,-6.877069166207755
2025-03-07 12:00:11.330,-0.00025718270414622435,-6.653979331479272
2025-03-07 12:00:11.338,-0.00011429144085377508,-6.3589172012287785
2025-03-07 12:00:11.346,2.4466406460918907e-05,-6.019036590967469
2025-03-07 12:00:11.354,0.00015858717004395818,-5.659498618820217
2025-03-07 12:00:11.362,0.0002878469865817322,-5.302806657384115
2025-03-07 12:00:11.369,0.0004122939966188843,-4.96831362620781
2025-03-07 12:00:11.377,0.0005322291264452152,-4.671908679531729
2025-03-07 12:00:11.385,0.0006481774131502972,-4.425881942574827
2025-03-07 12:00:11.393,0.0007608523204415662,-4.238958016457711
2025-03-07 12:00:11.401,0.000871115626510118,-4.116481826210246
2025-03-07 12:00:11.408,0.000979935324695066,-4.060734297896464
2025-03-07 12:00:11.416,0.0010883437206804924,-4.0713505385731406
2025-03-07 12:00:11.424,0.001197397627095216,-4.1458098206346055
2025-03-07 12:00:11.432,0.0013081422300579122,-4.279964842368143
2025-03-07 12:00:11.440,0.0014215798092399312,-4.4685774858564935
2025-03-07 12:00:11.447,0.0015386441183630312,-4.70582959447165
2025-03-07 12:00:11.455,0.001660181002243154,-4.985780058822316
2025-03-07 12:00:11.463,0.001786935713124302,-5.302743589198252
2025-03-07 12:00:11.471,0.0019195471999087666,-5.651571762892659
2025-03-07 12:00:11.479,0.002058549236019712,-6.027823007810605
2025-03-07 12:00:11.487,0.0022043776776893994,-6.427814817310011
2025-03-07 12:00:11.494,0.0023573825651385205,-6.848558362712331
2025-03-07 12:00:11.502,0.0025178433176474956,-7.287582459792122
2025-03-07 12:00:11.510,0.0026859849790302507,-7.742660254240218
2025-03-07 12:00:11.518,0.0028619933534100453,-8.211457749423404
2025-03-07 12:00:11.526,0.00304602693180248,-8.691128173229053
2025-03-07 12:00:11.533,0.003238223741133315,-9.177879968223156
2025-03-07 12:00:11.541,0.0034387016365105168,-9.666548720374477
2025-03-07 12:00:11.549,0.003647551087036234,-10.150204478392743
2025-03-07 12:00:11.557,0.003864820147188946,-10.619825560246502
2025-03-07 12:00:11.565,0.004090491995645734,-11.064068047301843
2025-03-07 12:00:11.572,0.004324456025663236,-11.46915674136882
2025-03-07 12:00:11.580,0.004566473815866533,-11.81891848527026
2025-03-07 12:00:11.588,0.004816141344670526,-12.094972572053921
2025-03-07 12:00:11.596,0.005072848714442185,-12.277085703604516
2025-03-07 12:00:11.604,0.005335738719087035,-12.343690874378531
2025-03-07 12:00:11.612,0.005603665959990507,-12.272560970801448
2025-03-07 12:00:11.619,0.005875158732391603,-12.041619159359398
2025-03-07 12:00:11.627,0.006148386279984706,-11.629859690544963
2025-03-07 12:00:11.635,0.006421134117925611,-11.018344994921216
2025-03-07 12:00:11.643,0.006690790025198642,-10.191238315163252
2025-03-07 12:00:11.651,0.00695434307540195,-9.13682600709716
2025-03-07 12:00:11.658,0.007208397672210759,-7.848480413996505
2025-03-07 12:00:11.666,0.0074492039566987495,-6.32551316855731
2025-03-07 12:00:11.674,0.007672705227816598,-4.573870121732718
2025-03-07 12:00:11.682,0.007874602262526068,-2.6066229549572166
2025-03-07 12:00:11.690,0.008050433697105239,-0.4442189033351468
2025-03-07 12:00:11.697,0.008195670943213712,1.8855412323191825
2025-03-07 12:00:11.705,0.008305825428290394,4.347815757786365
2025-03-07 12:00:11.713,0.008376565262511026,6.9013318944287025
2025-03-07 12:00:11.721,0.008403837827696195,9.499285547337408
2025-03-07 12:00:11.729,0.008383994348781081,12.09050979431378
2025-03-07 12:00:11.737,0.008313912212915834,14.620877121570697
2025-03-07 12:00:11.744,0.008191110542836503,17.034887804622553
2025-03-07 12:00:11.752,0.008013854297968675,19.277386070313963
2025-03-07 12:00:11.760,0.007781242095751245,21.295337456024352
2025-03-07 12:00:11.768,0.007493273212884093,23.03959565423405
2025-03-07 12:00:11.776,0.007150889969531552,24.46658547218263
2025-03-07 12:00:11.783,0.006755992876321119,25.53983052026168
2025-03-07 12:00:11.791,0.006311427385976309,26.231259821405857
2025-03-07 12:00:11.799,0.00582094266422692,26.522236441485653
2025-03-07 12:00:11.807,0.005289124202649547,26.40426301542006
2025-03-07 12:00:11.815,0.004721302998638707,25.87933305991622
2025-03-07 12:00:11.823,0.004123444331437145,24.95991247152246
2025-03-07 12:00:11.830,0.003502019179984619,23.668551780271063
2025-03-07 12:00:11.838,0.002863861472443931,22.037145714046222
2025-03-07 12:00:11.846,0.0022160147737900456,20.105871610129004
2025-03-07 12:00:11.854,0.0015655725764929494,17.92185145413699
2025-03-07 12:00:11.862,0.000919516889484211,15.53759322117368
2025-03-07 12:00:11.869,0.00028456024630866807,13.009275280772101
2025-03-07 12:00:11.877,-0.000333003473858321,10.394942619151674
2025-03-07 12:00:11.885,-0.0009274340200645448,7.752685418064998
2025-03-07 12:00:11.893,-0.001493660578726711,5.138869163912931
2025-03-07 12:00:11.901,-0.0020273743854375354,2.6064811455018515
2025-03-07 12:00:11.908,-0.002525095407984425,0.20365125900390155
2025-03-07 12:00:11.916,-0.002984211772112394,-2.027604098258309
2025-03-07 12:00:11.924,-0.0034029918573798053,-4.052377088594335
2025-03-07 12:00:11.932,-0.003780570048375405,-5.843576442325767
2025-03-07 12:00:11.940,-0.004116908070319516,-7.382334899757642
2025-03-07 12:00:11.948,-0.004412734671953755,-8.658115046393267
2025-03-07 12:00:11.955,-0.0046694670391818115,-9.668524436062741
2025-03-07 12:00:11.963,-0.004889117682777532,-10.418861828682607
2025-03-07 12:00:11.971,-0.005074190711142447,-10.92142589688911
2025-03-07 12:00:11.979,-0.005227571448112957,-11.194625550641739
2025-03-07 12:00:11.987,-0.005352413280668462,-11.261936847884318
2025-03-07 12:00:11.994,-0.005452025390814815,-11.150755152046488
2025-03-07 12:00:12.002,-0.005529764680326407,-10.89119270869039
2025-03-07 12:00:12.010,-0.005588934846694922,-10.514871182578686
2025-03-07 12:00:12.018,-0.005632695287313195,-10.053756047529282
2025-03-07 12:00:12.026,-0.005663982245154761,-9.539075253834827
2025-03-07 12:00:12.033,-0.005685444209938647,-9.00035857360036
2025-03-07 12:00:12.041,-0.005699392929043004,-8.464626757206851
2025-03-07 12:00:12.049,-0.0057077704941231435,-7.955751479376058
2025-03-07 12:00:12.057,-0.00571213204048366,-7.493998391423319
2025-03-07 12:00:12.065,-0.005713642840694895,-7.095756814312947
2025-03-07 12:00:12.073,-0.0057130881005053695,-6.773451082677164
2025-03-07 12:00:12.080,-0.005710893552311306,-6.5356206394092
2025-03-07 12:00:12.088,-0.005707154919486224,-6.387149008283943
2025-03-07 12:00:12.096,-0.005701674453918513,-6.329616018655191
2025-03-07 12:00:12.104,-0.005694002983689287,-6.361743346096825
2025-03-07 12:00:12.112,-0.005683486129168967,-6.47990072673278
2025-03-07 12:00:12.119,-0.005669313425720331,-6.678639192674034
2025-03-07 12:00:12.127,-0.005650569026016665,-6.951218375017842
2025-03-07 12:00:12.135,-0.00562628256055249,-7.290097253593774
2025-03-07 12:00:12.143,-0.005595478691956041,-7.687361533505008
2025-03-07 12:00:12.151,-0.005557223874668636,-8.135065859911256
2025-03-07 12:00:12.158,-0.005510668789337909,-8.625475062673058
2025-03-07 12:00:12.166,-0.005455084917324009,-9.151195248731746
2025-03-07 12:00:12.174,-0.005389893838453319,-9.705192521978915
2025-03-07 12:00:12.182,-0.0053146881065025235,-10.280704096014228
2025-03-07 12:00:12.190,-0.005229242982339195,-10.871053265393908
2025-03-07 12:00:12.198,-0.005133518847582874,-11.469385815093583
2025-03-07 12:00:12.205,-0.005027654666602115,-12.068350693235562
2025-03-07 12:00:12.213,-0.004911953285808538,-12.65975189424081
2025-03-07 12:00:12.221,-0.0047868596536853845,-13.23420128285557
2025-03-07 12:00:12.229,-0.004652933327232088,-13.780803369963266
2025-03-07 12:00:12.237,-0.004510816971797103,-14.286902728728606
2025-03-07 12:00:12.244,-0.004361202884657179,-14.737922784705162
2025-03-07 12:00:12.252,-0.004204799725488062,-15.117321167559762
2025-03-07 12:00:12.260,-0.0040423015198264405,-15.406681787403839
2025-03-07 12:00:12.268,-0.0038743606264415725,-15.585957475414805
2025-03-07 12:00:12.276,-0.003701565848401977,-15.633869645589739
2025-03-07 12:00:12.283,-0.0035244264002371553,-15.528463279595389
2025-03-07 12:00:12.291,-0.0033433621483592293,-15.247806937419718
2025-03-07 12:00:12.299,-0.003158700426717711,-14.770818815122073
2025-03-07 12:00:12.307,-0.002970679692527161,-14.078191498545173
2025-03-07 12:00:12.315,-0.002779460152382784,-13.153380410037414
2025-03-07 12:00:12.323,-0.0025851411119366956,-11.983614433325881
2025-03-07 12:00:12.330,-0.002387784223699231,-10.560882239720375
2025-03-07 12:00:12.338,-0.0021874412428944936,-8.88284480853541
2025-03-07 12:00:12.346,-0.001984184522949913,-6.953623865721719
2025-03-07 12:00:12.354,-0.0017781382947909977,-4.784417702032888
2025-03-07 12:00:12.362,-0.0015695087166061248,-2.393900197323079
2025-03-07 12:00:12.369,-0.0013586107308854397,0.19163415986023538
2025-03-07 12:00:12.377,-0.0011458899193156715,2.938407100246088
2025-03-07 12:00:12.385,-0.0009319377964085175,5.80559166420282
2025-03-07 12:00:12.393,-0.0007174993301686686,8.746048966812054
2025-03-07 12:00:12.401,-0.0005034719146608189,11.707356081583667
2025-03-07 12:00:12.408,-0.00029089552302159543,14.633100255564948
2025-03-07 12:00:12.416,-8.09342940805027e-05,17.46440093071791
2025-03-07 12:00:12.424,0.00012514976593837394,20.141608564509532
2025-03-07 12:00:12.432,0.0003260300835304591,22.606118740974175
2025-03-07 12:00:12.440,0.0005203549341400514,24.80223218406287
2025-03-07 12:00:12.448,0.0007067920901919643,26.67898654474181
2025-03-07 12:00:12.455,0.0008840776765925074,28.191884587725166
2025-03-07 12:00:12.463,0.0010510679721621307,29.304445822185976
2025-03-07 12:00:12.471,0.0012067926805966217,29.989514669415275
2025-03-07 12:00:12.479,0.0013505080151781175,30.230267694127882
2025-03-07 12:00:12.487,0.0014817476985176266,30.020874795652702
2025-03-07 12:00:12.494,0.0016003696203645802,29.366783932630018
2025-03-07 12:00:12.502,0.0017065955225187197,28.28461517329634
2025-03-07 12:00:12.510,0.00180104086728591,26.801666766618233
2025-03-07 12:00:12.518,0.001884732119027719,24.95505262755367
2025-03-07 12:00:12.526,0.0019591090398315774,22.790506257641244
2025-03-07 12:00:12.533,0.002026010170371384,20.360899895231945
2025-03-07 12:00:12.541,0.0020876402804817103,17.724538951649997
2025-03-07 12:00:12.549,0.002146519149249766,14.94330004994866
2025-03-07 12:00:12.557,0.002205411641196648,12.080685939938355
2025-03-07 12:00:12.565,0.0022672398203630205,9.19987210942856
2025-03-07 12:00:12.573,0.0023349788411861244,6.361818123934789
2025-03-07 12:00:12.580,0.002411539476449246,3.623511843668299
2025-03-07 12:00:12.588,0.0024996412074248103,1.0364070566884669
2025-03-07 12:00:12.596,0.002601680691286635,-1.3548948007525872
2025-03-07 12:00:12.604,0.0027196011378564956,-3.5136797521149346
2025-03-07 12:00:12.612,0.0028547686754033857,-5.411846853851307
2025-03-07 12:00:12.619,0.003007862050461416,-7.030311127444895
2025-03-07 12:00:12.627,0.003178781817823589,-8.359083942929491
2025-03-07 12:00:12.635,0.0033665844503362454,-9.397043531373816
2025-03-07 12:00:12.643,0.003569445611866281,-10.15141977418419
2025-03-07 12:00:12.651,0.0037846553908534386,-10.637027353209891
2025-03-07 12:00:12.658,0.004008646799640959,-10.875289420671548
2025-03-07 12:00:12.666,0.004237057445728039,-10.893099928510091
2025-03-07 12:00:12.674,0.004464823036638867,-10.721576497391249
2025-03-07 12:00:12.682,0.004686300315698347,-10.39475714525489
2025-03-07 12:00:12.690,0.004895416152977008,-9.948293358298558
2025-03-07 12:00:12.698,0.005085838810615014,-9.418188986766058
2025-03-07 12:00:12.705,0.0052511667710079925,-8.839629487218062
2025-03-07 12:00:12.713,0.0053851298275030745,-8.245939399564666
2025-03-07 12:00:12.721,0.005481796343122617,-7.6676979980099205
2025-03-07 12:00:12.729,0.005535779799047417,-7.132034197398931
2025-03-07 12:00:12.737,0.00554243718040959,-6.662112467620083
2025-03-07 12:00:12.744,0.005498051534228372,-6.276812156396904
2025-03-07 12:00:12.752,0.005399991227848832,-5.990593683807289
2025-03-07 12:00:12.760,0.00524683897158645,-5.813536960936366
2025-03-07 12:00:12.768,0.005038484428304403,-5.751530461696162
2025-03-07 12:00:12.776,0.004776175170530666,-5.806583930924913
2025-03-07 12:00:12.783,0.004462521966475415,-5.977233945085976
2025-03-07 12:00:12.791,0.004101456046587364,-6.259009562579148
2025-03-07 12:00:12.799,0.003698138187312936,-6.644925127977796
2025-03-07 12:00:12.807,0.003258821989527078,-7.125968864870096
2025-03-07 12:00:12.815,0.0027906762303789947,-7.6915590653075405
2025-03-07 12:00:12.823,0.0023015731876343372,-8.329944250796203
2025-03-07 12:00:12.830,0.001799851203036461,-9.02852937175826
2025-03-07 12:00:12.838,0.0012940606752640691,-9.774116613627184
2025-03-07 12:00:12.846,0.0007927034826083,-10.553056336870771
2025-03-07 12:00:12.854,0.0003039765889603104,-11.35131072019192
2025-03-07 12:00:12.862,-0.0001644690545210284,-12.154439418764454
2025-03-07 12:00:12.869,-0.0006057436954876627,-12.947522627309434
2025-03-07 12:00:12.877,-0.0010138989647206567,-13.715042026927728
2025-03-07 12:00:12.885,-0.001384066300735429,-14.440743926221906
2025-03-07 12:00:12.893,-0.0017125495740249004,-15.107511272046816
2025-03-07 12:00:12.901,-0.0019968705866130424,-15.697271955869564
2025-03-07 12:00:12.908,-0.002235768560685083,-16.190969901399708
2025-03-07 12:00:12.916,-0.002429156762941687,-16.568622791987732
2025-03-07 12:00:12.924,-0.0025780410595397448,-16.80948607006595
2025-03-07 12:00:12.932,-0.002684406501675933,-16.892337180707383
2025-03-07 12:00:12.940,-0.0027510789665544954,-16.795887171462322
2025-03-07 12:00:12.948,-0.002781569370133012,-16.499318999161403
2025-03-07 12:00:12.955,-0.002779908034825646,-15.982943588159353
2025-03-07 12:00:12.963,-0.0027504764778742553,-15.228956240443535
2025-03-07 12:00:12.971,-0.0026978432336120517,-14.222267860395977
2025-03-07 12:00:12.979,-0.002626609401577922,-12.951378088937728
2025-03-07 12:00:12.987,-0.0025412684922021225,-11.409251301866123
2025-03-07 12:00:12.994,-0.0024460839148684153,-9.594151944959414
2025-03-07 12:00:13.002,-0.002344986263317689,-7.5103932298123866
2025-03-07 12:00:13.010,-0.0022414915317361117,-5.16895309320086
2025-03-07 12:00:13.018,-0.002138640580432762,-2.5879137091421085
2025-03-07 12:00:13.026,-0.002038959524853252,0.20731422410669098
2025-03-07 12:00:13.033,-0.0019444401922830577,3.184013838712452
2025-03-07 12:00:13.041,-0.0018565393536047387,6.302453000872682
2025-03-07 12:00:13.049,-0.0017761950959353618,9.516454440036311
2025-03-07 12:00:13.057,-0.0017038584268903763,12.774243369940613
2025-03-07 12:00:13.065,-0.0016395379172647005,16.019557893282602
2025-03-07 12:00:13.073,-0.0015828548584832065,19.192994598821187
2025-03-07 12:00:13.080,-0.0015331061115491896,22.23354963365896
2025-03-07 12:00:13.088,-0.0014893317021926332,25.080304809402705
2025-03-07 12:00:13.096,-0.0014503843439549375,27.67419956623917
2025-03-07 12:00:13.104,-0.0014149983602665711,29.959823366496515
2025-03-07 12:00:13.112,-0.001381855767294765,31.887159689633027
2025-03-07 12:00:13.119,-0.0013496474877909,33.41321248695477
2025-03-07 12:00:13.127,-0.0013171278536113892,34.50344881440272
2025-03-07 12:00:13.135,-0.0012831608603709821,35.132997330834876
2025-03-07 12:00:13.143,-0.001246757128784559,35.287551204859284
2025-03-07 12:00:13.151,-0.0012071011149356282,34.96393533733774
2025-03-07 12:00:13.158,-0.0011635686352302682,34.170311161481
2025-03-07 12:00:13.166,-0.0011157351438617008,32.92600699996062
2025-03-07 12:00:13.174,-0.0010633754533777911,31.26097733619698
2025-03-07 12:00:13.182,-0.001006455797282114,29.214909655710162
2025-03-07 12:00:13.190,-0.0009451193313360661,26.836011996722924
2025-03-07 12:00:13.198,-0.0008796663592270497,24.179527323676663
2025-03-07 12:00:13.205,-0.000810530750245798,21.306031688216763
2025-03-07 12:00:13.213,-0.0007382541606393971,18.279581362861844
2025-03-07 12:00:13.221,-0.0006634596976916067,15.16577935116187
2025-03-07 12:00:13.229,-0.0005868265118408134,12.029833681977337
2025-03-07 12:00:13.237,-0.000509066478450112,8.934678645654403
2025-03-07 12:00:13.244,-0.00043090372358160826,5.939225760867314
2025-03-07 12:00:13.252,-0.0003530573565640322,3.096804069643018
2025-03-07 12:00:13.260,-0.00027622744563830765,0.4538397857250361
2025-03-07 12:00:13.268,-0.00020108402528475018,-1.9511860765469948
2025-03-07 12:00:13.276,-0.0001282587649599136,-4.088476063399339
2025-03-07 12:00:13.283,-5.8338832678384824e-05,-5.937337751899382
2025-03-07 12:00:13.291,8.1376188158905e-06,-7.486288513767324
2025-03-07 12:00:13.299,7.068506494763552e-05,-8.732856148219868
2025-03-07 12:00:13.307,0.0001288741561460781,-9.683099151315911
2025-03-07 12:00:13.315,0.00018233596237193808,-10.350879945749403
2025-03-07 12:00:13.323,0.00023076735258967476,-10.756931985853205
2025-03-07 12:00:13.330,0.00027393745387928553,-10.927767062816601
2025-03-07 12:00:13.338,0.0003116946474537805,-10.894472265095485
2025-03-07 12:00:13.346,0.000343973204996301,-10.691446909025572
2025-03-07 12:00:13.354,0.0003707985024143568,-10.355128456323998
2025-03-07 12:00:13.362,0.00039228978433143415,-9.922753177800239
2025-03-07 12:00:13.369,0.000408659688332099,-9.431192374706551
2025-03-07 12:00:13.377,0.00042021013058764824,-8.915898648360145
2025-03-07 12:00:13.385,0.0004273245859169162,-8.409989365021747
2025-03-07 12:00:13.393,0.0004304571031907457,-7.94348646785418
2025-03-07 12:00:13.401,0.00043011849876192207,-7.542723524979898
2025-03-07 12:00:13.408,0.000426860141805598,-7.229922756882204
2025-03-07 12:00:13.416,0.0004212557413617274,-7.02293712695857
2025-03-07 12:00:13.424,0.00041388167087233246,-6.935145743344419
2025-03-07 12:00:13.432,0.00040529661968877423,-6.975485099968804
2025-03-07 12:00:13.440,0.0003960216321529572,-7.148594314517536
2025-03-07 12:00:13.448,0.0003865217232717724,-7.455049666964863
2025-03-07 12:00:13.455,0.00037719016524747717,-7.891662494721663
2025-03-07 12:00:13.463,0.0003683362933304407,-8.451814866404243
2025-03-07 12:00:13.471,0.00036017740799953367,-9.125809355020797
2025-03-07 12:00:13.479,0.0003528350930436787,-9.90121249471211
2025-03-07 12:00:13.487,0.00034633598908229943,-10.763175886842834
2025-03-07 12:00:13.494,0.00034061674469797426,-11.694724115638572
2025-03-07 12:00:13.502,0.0003355325528703434,-12.677004297757888
2025-03-07 12:00:13.510,0.00033086844650854596,-13.68949786294045
2025-03-07 12:00:13.518,0.00032635245375955274,-14.710200679693463
2025-03-07 12:00:13.526,0.0003216698059768119,-15.715782547581286
2025-03-07 12:00:13.533,0.0003164775668994704,-16.681741049446135
2025-03-07 12:00:13.541,0.00031041925297256156,-17.582567508683187
2025-03-07 12:00:13.549,0.0003031392426454923,-18.391944104403034
2025-03-07 12:00:13.557,0.00029429697890774934,-19.082990916563208
2025-03-07 12:00:13.565,0.0002835810270565124,-19.628579756285955
2025-03-07 12:00:13.573,0.00027072288606360523,-20.001728140419836
2025-03-07 12:00:13.580,0.00025551014818744655,-20.17608185204708
2025-03-07 12:00:13.588,0.00023779831997756907,-20.126488437762813
2025-03-07 12:00:13.596,0.00021752047756150915,-19.8296570484247
2025-03-07 12:00:13.604,0.0001946939743348865,-19.26489260808933
2025-03-07 12:00:13.612,0.00016942364981277903,-18.414884813773867
2025-03-07 12:00:13.619,0.00014190135995293074,-17.266525377438064
2025-03-07 12:00:13.627,0.00011240204224162792,-15.811720692495882
2025-03-07 12:00:13.635,8.127678008881688e-05,-14.04816221005442
2025-03-07 12:00:13.643,4.894335803199852e-05,-11.980013679788799
2025-03-07 12:00:13.651,1.58746780730252e-05,-9.618473403612175
2025-03-07 12:00:13.658,-1.7414705136759495e-05,-6.982171003576295
2025-03-07 12:00:13.666,-5.03836690179477e-05,-4.097362006627926
2025-03-07 12:00:13.674,-8.248084091390573e-05,-0.9978897258902626
2025-03-07 12:00:13.682,-0.00011316158943278917,2.275107758187072
2025-03-07 12:00:13.690,-0.00014190499740991311,5.673757613889121
2025-03-07 12:00:13.698,-0.00016823007185019122,9.144279978592836
2025-03-07 12:00:13.705,-0.00019171047722831757,12.628071978472423
2025-03-07 12:00:13.713,-0.00021198719517280756,16.063024428212245
2025-03-07 12:00:13.721,-0.00022877868291401525,19.385035913707917
2025-03-07 12:00:13.729,-0.00024188824237966007,22.529678442841746
2025-03-07 12:00:13.737,-0.00025120835145689993,25.43396006104073
2025-03-07 12:00:13.744,-0.000256721658265872,28.038123252955938
2025-03-07 12:00:13.752,-0.00025849830841977845,30.287413961335965
2025-03-07 12:00:13.760,-0.0002566894167464207,32.13375488993623
2025-03-07 12:00:13.768,-0.0002515168528361896,33.537258515372535
2025-03-07 12:00:13.776,-0.00024325993180036862,34.46751986455456
2025-03-07 12:00:13.783,-0.00023223988450080655,34.90463644031883
2025-03-07 12:00:13.791,-0.0002188030879748857,34.83991240602461
2025-03-07 12:00:13.799,-0.00020330408072997963,34.2762158776114
2025-03-07 12:00:13.807,-0.00018608944169170433,33.22797143324572
2025-03-07 12:00:13.815,-0.00016748363458912448,31.720784167433862
2025-03-07 12:00:13.823,-0.00014777784363779296,29.79070615524509
2025-03-07 12:00:13.830,-0.00012722262425090782,27.483170384939502
2025-03-07 12:00:13.838,-0.00010602486783315843,24.851630398189076
2025-03-07 12:00:13.846,-8.434914565013678e-05,21.955955423542065
2025-03-07 12:00:13.854,-6.232297567521654e-05,18.86064015946304
2025-03-07 12:00:13.862,-4.004500597117616e-05,15.632895130884524
2025-03-07 12:00:13.869,-1.7594657335745055e-05,12.340687417393497
2025-03-07 12:00:13.877,4.958415229440098e-06,9.050802389127533
2025-03-07 12:00:13.885,2.754651510742034e-05,5.826994894543494
2025-03-07 12:00:13.893,5.0098785591849074e-05,2.7282932760729266
2025-03-07 12:00:13.901,7.253927221091881e-05,-0.19248806103913252
2025-03-07 12:00:13.908,9.478813585480069e-05,-2.8899816192153627
2025-03-07 12:00:13.916,0.0001167655414050262,-5.327210886681183
2025-03-07 12:00:13.924,0.00013839739803423,-7.476223653346899
2025-03-07 12:00:13.932,0.0001596218869561286,-9.31840573527517
2025-03-07 12:00:13.940,0.00018039558779229647,-10.844479184941
2025-03-07 12:00:13.948,0.00020069800963565363,-12.054201248730683
2025-03-07 12:00:13.955,0.0002205334471252052,-12.955791265772126
2025-03-07 12:00:13.963,0.0002399293112435397,-13.565121938846474
2025-03-07 12:00:13.971,0.00025893042107692814,-13.904718608077037
2025-03-07 12:00:13.979,0.00027758917469461887,-14.00261509600324
2025-03-07 12:00:13.987,0.00029595202939277406,-13.891117262745281
2025-03-07 12:00:13.994,0.0003140432900742766,-13.605525620962478
2025-03-07 12:00:14.002,0.0003318477710440821,-13.182866323824548
2025-03-07 12:00:14.010,0.00034929433226518194,-12.660675758613642
2025-03-07 12:00:14.018,0.000366242428792153,-12.07587814176728
2025-03-07 12:00:14.026,0.00038247357016751133,-11.463788282178939
2025-03-07 12:00:14.033,0.00039768904766559386,-10.85726348162209
2025-03-07 12:00:14.041,0.00041151461996579976,-10.286019830785447
2025-03-07 12:00:14.049,0.0004235121822482187,-9.776119396231817
2025-03-07 12:00:14.057,0.000433197839919008,-9.349626411832551
2025-03-07 12:00:14.065,0.000440065291852425,-9.024422976184384
2025-03-07 12:00:14.073,0.0004436130166380304,-8.81416824653859
2025-03-07 12:00:14.080,0.00044337346313306906,-8.728379975801
2025-03-07 12:00:14.088,0.00043894228447848173,-8.772613651424475
2025-03-07 12:00:14.096,0.00043000562979069357,-8.948712566557155
2025-03-07 12:00:14.104,0.0004163636232558338,-9.25510189993534
2025-03-07 12:00:14.112,0.00039794841556358443,-9.687101233402705
2025-03-07 12:00:14.119,0.0003748355826315958,-10.2372327477167
2025-03-07 12:00:14.127,0.00034724815696315626,-10.895506390914715
2025-03-07 12:00:14.135,0.000315553162581867,-11.64966833488799
2025-03-07 12:00:14.143,0.000280251094687631,-12.485404710713063
2025-03-07 12:00:14.151,0.00024195924463276606,-13.386498600528775
2025-03-07 12:00:14.158,0.00020139007643603165,-14.33494420866321
2025-03-07 12:00:14.166,0.00015932600724867245,-15.311027687984652
2025-03-07 12:00:14.174,0.00011659193062933684,-16.293388934886696
2025-03-07 12:00:14.182,7.402668510681081e-05,-17.259082501637575
2025-03-07 12:00:14.190,3.245450004384815e-05,-18.183658365662037
2025-03-07 12:00:14.198,-7.342670373256162e-06,-19.04128444983697
2025-03-07 12:00:14.205,-4.4651048932543994e-05,-19.80493237565329
2025-03-07 12:00:14.213,-7.884824490739235e-05,-20.44664589487949
2025-03-07 12:00:14.221,-0.00010942274645937199,-20.93790780871388
2025-03-07 12:00:14.229,-0.00013598864429507443,-21.250116052878194
2025-03-07 12:00:14.237,-0.00015829472867178666,-21.355173192219404
2025-03-07 12:00:14.244,-0.00017622755712033477,-21.22618610377759
2025-03-07 12:00:14.252,-0.0001898086454055063,-20.83826449473286
2025-03-07 12:00:14.260,-0.00019918634907276246,-20.16939854309991
2025-03-07 12:00:14.268,-0.00020462316634122288,-19.20138786453644
2025-03-07 12:00:14.276,-0.00020647917548871714,-17.92078672302186
2025-03-07 12:00:14.283,-0.00020519227353548363,-16.319824430209838
2025-03-07 12:00:14.291,-0.00020125592332940792,-14.397255687854168
2025-03-07 12:00:14.299,-0.00019519525242247686,-12.159093616913808
2025-03-07 12:00:14.307,-0.00018754250372642503,-9.619178683460396
2025-03-07 12:00:14.315,-0.0001788129374773072,-6.799539848912585
2025-03-07 12:00:14.323,-0.0001694822933453408,-3.7305100681860814
2025-03-07 12:00:14.330,-0.0001599668421317733,-0.4505665999637455
2025-03-07 12:00:14.338,-0.00015060692456610227,2.994122825562269
2025-03-07 12:00:14.346,-0.00014165476501360773,6.550454583980756
2025-03-07 12:00:14.354,-0.00013326730651345818,10.159437570621806
2025-03-07 12:00:14.362,-0.00012550476499516685,13.757514585850346
2025-03-07 12:00:14.369,-0.00011833539370946105,17.278122181688587
2025-03-07 12:00:14.377,-0.00011164651358225812,20.65344187666
2025-03-07 12:00:14.385,-0.00010526126316265547,23.81628481797602
2025-03-07 12:00:14.393,-9.895988048173918e-05,26.702043500386434
2025-03-07 12:00:14.401,-9.250380458897229e-05,29.250638522118884
2025-03-07 12:00:14.408,-8.56606182669658e-05,31.408385910476866
2025-03-07 12:00:14.416,-7.822785971134922e-05,33.12971146613742
2025-03-07 12:00:14.424,-7.005389112595055e-05,34.378642877461544
2025-03-07 12:00:14.432,-6.105424564953965e-05,35.13001790179328
2025-03-07 12:00:14.440,-5.122221654584498e-05,35.37035739330327
2025-03-07 12:00:14.448,-4.063293127190467e-05,35.098364914898895
2025-03-07 12:00:14.455,-2.9440704591741935e-05,34.32502951092951
2025-03-07 12:00:14.463,-1.787000215346806e-05,33.07332424312879
2025-03-07 12:00:14.471,-6.200819954885318e-06,31.377509545794286
2025-03-07 12:00:14.479,5.250323984148566e-06,29.282066555598977
2025-03-07 12:00:14.487,1.6152293450079537e-05,26.84030055512739
2025-03-07 12:00:14.494,2.618244894514499e-05,24.112667837050477
2025-03-07 12:00:14.502,3.504920689907301e-05,21.16489004141509
2025-03-07 12:00:14.510,4.251230663556567e-05,18.065927855947947
2025-03-07 12:00:14.518,4.839919104306972e-05,14.88589055843956
2025-03-07 12:00:14.526,5.261615817552121e-05,11.69395904775188
2025-03-07 12:00:14.533,5.515329444432582e-05,8.556397760218148
2025-03-07 12:00:14.541,5.608264597343516e-05,5.53472538347802
2025-03-07 12:00:14.549,5.554961044101047e-05,2.6841059089512096
2025-03-07 12:00:14.557,5.375812190535136e-05,0.052010797556734614
2025-03-07 12:00:14.565,5.0950832364614014e-05,-2.3228095354353306
2025-03-07 12:00:14.573,4.738610854434162e-05,-4.411020428264888
2025-03-07 12:00:14.580,4.331413314229295e-05,-6.193053579632494
2025-03-07 12:00:14.588,3.895456058630683e-05,-7.659117275642789
2025-03-07 12:00:14.596,3.447794831748131e-05,-8.80888318120181
2025-03-07 12:00:14.604,2.9992649862716818e-05,-9.650878532828957
2025-03-07 12:00:14.612,2.553818547806608e-05,-10.201622677936328
2025-03-07 12:00:14.619,2.108543123312861e-05,-10.484554870909662
2025-03-07 12:00:14.627,1.654334906270586e-05,-10.528805803383074
2025-03-07 12:00:14.635,1.1771444777346677e-05,-10.36786837482364
2025-03-07 12:00:14.643,6.5967059912298205e-06,-10.038223686823416
2025-03-07 12:00:14.651,8.334515794107913e-07,-9.577976285990845
2025-03-07 12:00:14.659,-5.6956709529767866e-06,-9.02554851765231
2025-03-07 12:00:14.666,-1.313936742512884e-05,-8.41847780890837
2025-03-07 12:00:14.674,-2.159981505759485e-05,-7.792353160646262
2025-03-07 12:00:14.682,-3.111877063749697e-05,-7.179918514835516
2025-03-07 12:00:14.690,-4.166889325247366e-05,-6.610361410307439
2025-03-07 12:00:14.698,-5.3151059691057733e-05,-6.108795879827279
2025-03-07 12:00:14.705,-6.53979009436225e-05,-5.695939293227443
2025-03-07 12:00:14.713,-7.818315792163221e-05,-5.387974212058027
2025-03-07 12:00:14.721,-9.123580149015025e-05,-5.196578651529267
2025-03-07 12:00:14.729,-0.0001042573151040226,-5.12910175678378
2025-03-07 12:00:14.737,-0.00011694026610929802,-5.188857040453185
2025-03-07 12:00:14.744,-0.00012898637753237877,-5.3755021684405575
2025-03-07 12:00:14.752,-0.00014012267616526897,-5.685472905383263
2025-03-07 12:00:14.760,-0.0001501147702787622,-6.112439232312374
2025-03-07 12:00:14.768,-0.0001587767761373094,-6.647753731357062
2025-03-07 12:00:14.776,-0.0001659778124463546,-7.2808659298486225
2025-03-07 12:00:14.784,-0.0001716452970730397,-7.9996811910214936
2025-03-07 12:00:14.791,-0.00017576550097954006,-8.790848671127316
2025-03-07 12:00:14.799,-0.000178381934219286,-9.63996953083194
2025-03-07 12:00:14.807,-0.00017959215584381586,-10.53172364570741
2025-03-07 12:00:14.815,-0.00017954351524500673,-11.449920125483477
2025-03-07 12:00:14.823,-0.00017842815747191003,-12.377483630749795
2025-03-07 12:00:14.830,-0.00017647740553291419,-13.29639438844524
2025-03-07 12:00:14.838,-0.00017395548058973483,-14.187604609272942
2025-03-07 12:00:14.846,-0.00017115255604247234,-15.030957409214682
2025-03-07 12:00:14.854,-0.00016837733108909054,-15.805136104726563
2025-03-07 12:00:14.862,-0.00016594942660430137,-16.48767172942861
