Timestamp,GSR_Filtered,PPG_Filtered,FMSQ
2025-03-07 12:06:10.682,0.0269563933293406,-11.320729649242407,1
2025-03-07 12:06:10.690,0.0266692848935303,-10.698008934909003,1
2025-03-07 12:06:10.698,0.0263806529642048,-9.94347671622689,1
2025-03-07 12:06:10.706,0.0260920388238628,-9.04916593980493,1
2025-03-07 12:06:10.713,0.0258043737851369,-8.008509661338296,1
2025-03-07 12:06:10.721,0.0255179771222883,-6.81669933182028,1
2025-03-07 12:06:10.729,0.0252325798554268,-5.471075381733868,1
2025-03-07 12:06:10.737,0.0249473736361794,-3.971534060763295,1
2025-03-07 12:06:10.745,0.0246610826153329,-2.320930790154313,1
2025-03-07 12:06:10.752,0.0243720549044467,-0.5254574287052022,1
2025-03-07 12:06:10.760,0.0240783691229315,1.4050309312880176,1
2025-03-07 12:06:10.768,0.0237779506137373,3.456764549447576,1
2025-03-07 12:06:10.776,0.0234686912930134,5.611907057952769,1
2025-03-07 12:06:10.784,0.0231485668061961,7.848524669423018,1
2025-03-07 12:06:10.792,0.0228157447404903,10.140694598312566,1
2025-03-07 12:06:10.799,0.0224686781468239,12.458765682625913,1
2025-03-07 12:06:10.807,0.022106179559662,14.76977803982574,1
2025-03-07 12:06:10.815,0.0217274720652272,17.038041601419778,1
2025-03-07 12:06:10.823,0.0213322156651874,19.22586587923237,1
2025-03-07 12:06:10.831,0.0209205089432826,21.29442569560251,1
2025-03-07 12:06:10.838,0.0204928676893795,23.204740252952387,1
2025-03-07 12:06:10.846,0.0200501837961905,24.918736220726856,1
2025-03-07 12:06:10.854,0.0195936694322706,26.400359857022963,1
2025-03-07 12:06:10.862,0.0191247926798968,27.616698893451744,1
2025-03-07 12:06:10.870,0.0186452108444659,28.53907226260164,1
2025-03-07 12:06:10.877,0.0181567064514446,29.144044920352076,1
2025-03-07 12:06:10.885,0.0176611291666538,29.41432610042588,1
2025-03-07 12:06:10.893,0.0171603452378414,29.33951233398496,1
2025-03-07 12:06:10.901,0.0166561950403104,28.916641380763785,1
2025-03-07 12:06:10.909,0.0161504590146808,28.15052967050648,1
2025-03-07 12:06:10.917,0.0156448323853634,27.053873681729836,1
2025-03-07 12:06:10.924,0.0151409090330957,25.6471045550034,1
2025-03-07 12:06:10.932,0.0146401744242287,23.95799476180196,1
2025-03-07 12:06:10.940,0.0141440065120695,22.021025403147902,1
2025-03-07 12:06:10.948,0.013653682204032,19.87653225150832,1
2025-03-07 12:06:10.956,0.0131703857897188,17.56965753276106,1
2025-03-07 12:06:10.963,0.0126952152513577,15.14914225512421,1
2025-03-07 12:06:10.971,0.0122291829416146,12.666000260097606,1
2025-03-07 12:06:10.979,0.0117732084636569,10.17211979836376,1
2025-03-07 12:06:10.987,0.0113281031813988,7.718841108831336,1
2025-03-07 12:06:10.995,0.0108945472212348,5.355559084027652,1
2025-03-07 12:06:11.002,0.0104730609463146,3.1283986235520724,1
2025-03-07 12:06:11.010,0.0100639736600296,1.0790068002861162,1
2025-03-07 12:06:11.018,0.0096673927270372,-0.7564993089616859,1
2025-03-07 12:06:11.026,0.0092831763995531,-2.348397046328407,1
2025-03-07 12:06:11.034,0.0089109134264517,-3.674010653276419,1
2025-03-07 12:06:11.042,0.0085499120356993,-4.718136182357216,1
2025-03-07 12:06:11.049,0.0081992001586911,-5.473232018866083,1
2025-03-07 12:06:11.057,0.0078575378579965,-5.939376801310704,1
2025-03-07 12:06:11.065,0.0075234418842832,-6.124004566461958,1
2025-03-07 12:06:11.073,0.0071952212040571,-6.041434097764493,1
2025-03-07 12:06:11.081,0.0068710213838269,-5.712215496640344,1
2025-03-07 12:06:11.088,0.0065488751922204,-5.162321785261697,1
2025-03-07 12:06:11.096,0.0062267568849914,-4.422216833521174,1
2025-03-07 12:06:11.104,0.005902638130913,-3.525833100612737,1
2025-03-07 12:06:11.112,0.0055745439071741,-2.5094936609889524,1
2025-03-07 12:06:11.120,0.0052406066983527,-1.4108128419013166,1
2025-03-07 12:06:11.127,0.0048991171590054,-0.2676086435976769,1
2025-03-07 12:06:11.135,0.0045485693353518,0.8831419465430794,1
2025-03-07 12:06:11.143,0.0041876987428034,2.0062764909743205,1
2025-03-07 12:06:11.151,0.0038155121180205,3.069324782660553,1
2025-03-07 12:06:11.159,0.0034313085135309,4.04327009324073,1
2025-03-07 12:06:11.167,0.0030346924629878,4.903178010839318,1
2025-03-07 12:06:11.174,0.0026255808487012,5.628681823746544,1
2025-03-07 12:06:11.182,0.0022042053399486,6.204318523546749,1
2025-03-07 12:06:11.190,0.0017711116182995,6.619714625868527,1
2025-03-07 12:06:11.198,0.0013271554002244,6.869625941005722,1
2025-03-07 12:06:11.206,0.0008734941260137,6.9538399598389855,1
2025-03-07 12:06:11.213,0.000411572573334,6.876953446716098,1
2025-03-07 12:06:11.221,-5.689924358267279e-05,6.648040972106121,1
2025-03-07 12:06:11.229,-0.0005299767821518,6.280232347524986,1
2025-03-07 12:06:11.237,-0.0010055201486397,5.790218182551151,1
2025-03-07 12:06:11.245,-0.0014812408087469,5.197703073238144,1
2025-03-07 12:06:11.252,-0.0019547545835048,4.524825313668443,1
2025-03-07 12:06:11.260,-0.0024236395836672,3.7955606030088176,1
2025-03-07 12:06:11.268,-0.0028854974244929,3.0351251390005376,1
2025-03-07 12:06:11.276,-0.0033380155168115,2.2693909145386555,1
2025-03-07 12:06:11.284,-0.0037790278326182,1.5243231637588903,1
2025-03-07 12:06:11.292,-0.0042065715442064,0.8254469578414116,1
2025-03-07 12:06:11.299,-0.0046189371806602,0.1973471581048126,1
2025-03-07 12:06:11.307,-0.0050147102554407,-0.3367964876677729,1
2025-03-07 12:06:11.315,-0.0053928028148736,-0.7556391879647495,1
2025-03-07 12:06:11.323,-0.0057524741377961,-1.0400671571732851,1
2025-03-07 12:06:11.331,-0.0060933405785874,-1.173561577636079,1
2025-03-07 12:06:11.338,-0.0064153748585004,-1.1425318712301058,1
2025-03-07 12:06:11.346,-0.0067188949546908,-0.9366186847586848,1
2025-03-07 12:06:11.354,-0.0070045425244789,-0.5489654275173607,1
2025-03-07 12:06:11.362,-0.0072732509117132,0.0235447854316521,1
2025-03-07 12:06:11.370,-0.0075262033161228,0.7800921380798465,1
2025-03-07 12:06:11.377,-0.0077647826397406,1.7157706148437202,1
2025-03-07 12:06:11.385,-0.0079905157027086,2.821495468728608,1
2025-03-07 12:06:11.393,-0.0082050154985217,4.083978513818617,1
2025-03-07 12:06:11.401,-0.0084099253656197,5.485782715772052,1
2025-03-07 12:06:11.409,-0.0086068681262012,7.005467212109786,1
2025-03-07 12:06:11.417,-0.008797401665194,8.617832478153062,1
2025-03-07 12:06:11.424,-0.0089829807747148,10.294272833705268,1
2025-03-07 12:06:11.432,-0.0091649240554367,12.003239920825116,1
2025-03-07 12:06:11.440,-0.0093443845302091,13.710816328310766,1
2025-03-07 12:06:11.448,-0.0095223231305743,15.381393437773728,1
2025-03-07 12:06:11.456,-0.0096994848197349,16.978442139066637,1
2025-03-07 12:06:11.463,-0.0098763774926418,18.465359674843278,1
2025-03-07 12:06:11.471,-0.0100532540416964,19.80637089768304,1
2025-03-07 12:06:11.479,-0.0102300982152038,20.967458002684108,1
2025-03-07 12:06:11.487,-0.0104066149464085,21.917289624170447,1
2025-03-07 12:06:11.495,-0.0105822255409153,22.628118275217435,1
2025-03-07 12:06:11.502,-0.0107560677515559,23.07661459282988,1
2025-03-07 12:06:11.510,-0.0109270008415825,23.244607761890546,1
2025-03-07 12:06:11.518,-0.0110936164606281,23.11970376607825,1
2025-03-07 12:06:11.526,-0.0112542572244336,22.69575661727621,1
2025-03-07 12:06:11.534,-0.0114070456220999,21.97317226054716,1
2025-03-07 12:06:11.542,-0.0115499257038695,20.959030229906507,1
2025-03-07 12:06:11.549,-0.0116807188994291,19.66701412723233,1
2025-03-07 12:06:11.557,-0.0117971937203449,18.117148404428647,1
2025-03-07 12:06:11.565,-0.0118971474330822,16.335345544121072,1
2025-03-07 12:06:11.573,-0.0119784962172734,14.352774352501113,1
2025-03-07 12:06:11.581,-0.0120393689198458,12.205066487694728,1
2025-03-07 12:06:11.588,-0.0120781983681189,9.931384325725038,1
2025-03-07 12:06:11.596,-0.0120938034726496,7.573378583139581,1
2025-03-07 12:06:11.604,-0.0120854554243062,5.174068540075956,1
2025-03-07 12:06:11.612,-0.0120529225905304,2.776681021214779,1
2025-03-07 12:06:11.620,-0.011996491078447,0.4234863011360077,1
2025-03-07 12:06:11.627,-0.0119169605009442,-1.8453303501078004,1
2025-03-07 12:06:11.635,-0.0118156164130409,-3.992723777466447,1
2025-03-07 12:06:11.643,-0.0116941819987375,-5.985735605580471,1
2025-03-07 12:06:11.651,-0.0115547522389413,-7.796301484026881,1
2025-03-07 12:06:11.659,-0.0113997142395761,-9.401893431359522,1
2025-03-07 12:06:11.667,-0.0112316575194211,-10.78597839778347,1
2025-03-07 12:06:11.674,-0.0110532777334489,-11.938281547376272,1
2025-03-07 12:06:11.682,-0.0108672768487545,-12.854850534716904,1
2025-03-07 12:06:11.690,-0.0106762627320335,-13.53792480365552,1
2025-03-07 12:06:11.698,-0.0104826517042532,-13.995621263542416,1
2025-03-07 12:06:11.706,-0.0102885785895788,-14.241454240350327,1
2025-03-07 12:06:11.713,-0.0100958194776731,-14.2937130638153,1
2025-03-07 12:06:11.721,-0.0099057322773708,-14.174724824532396,1
2025-03-07 12:06:11.729,-0.0097192191450032,-13.910032591254357,1
2025-03-07 12:06:11.737,-0.0095367134429217,-13.527520678198568,1
2025-03-07 12:06:11.745,-0.0093581923267751,-13.056518431320704,1
2025-03-07 12:06:11.752,-0.0091832142880551,-12.52691256390218,1
2025-03-07 12:06:11.760,-0.0090109789132338,-11.968295475919849,1
2025-03-07 12:06:11.768,-0.0088404041077755,-11.409173446726422,1
2025-03-07 12:06:11.776,-0.0086702146420093,-10.876254338490169,1
2025-03-07 12:06:11.784,-0.0084990354116884,-10.393829750219604,1
2025-03-07 12:06:11.792,-0.0083254831496102,-9.983261687821168,1
2025-03-07 12:06:11.799,-0.0081482511985699,-9.66257902628087,1
2025-03-07 12:06:11.807,-0.0079661831976189,-9.446184574103738,1
2025-03-07 12:06:11.815,-0.0077783329892819,-9.34466960783372,1
2025-03-07 12:06:11.823,-0.0075840094172501,-9.364729477372768,1
2025-03-07 12:06:11.831,-0.0073828057446245,-9.509171388281644,1
2025-03-07 12:06:11.838,-0.0071746143064552,-9.77700378931385,1
2025-03-07 12:06:11.846,-0.0069596278499335,-10.163595929317689,1
2025-03-07 12:06:11.854,-0.0067383296472862,-10.660896054821537,1
2025-03-07 12:06:11.862,-0.0065114747344744,-11.257697318611944,1
2025-03-07 12:06:11.870,-0.0062800646902088,-11.939941643181465,1
2025-03-07 12:06:11.877,-0.0060453183885975,-12.691053377688554,1
2025-03-07 12:06:11.885,-0.0058086410001704,-13.492296422299336,1
2025-03-07 12:06:11.893,-0.0055715930506444,-14.323150375622896,1
2025-03-07 12:06:11.901,-0.0053358607546348,-15.161702997045357,1
2025-03-07 12:06:11.909,-0.0051032283058998,-15.985057689136768,1
2025-03-07 12:06:11.917,-0.0048755522071963,-16.76975565009111,1
2025-03-07 12:06:11.924,-0.0046547369431594,-17.492212723263954,1
2025-03-07 12:06:11.932,-0.0044427105444276,-18.1291707372978,1
2025-03-07 12:06:11.940,-0.0042413981579615,-18.65816229934469,1
2025-03-07 12:06:11.948,-0.0040526917431967,-19.057986638192247,1
2025-03-07 12:06:11.956,-0.0038784144613234,-19.309192295413563,1
2025-03-07 12:06:11.963,-0.0037202791092803,-19.39456036108992,1
2025-03-07 12:06:11.971,-0.0035798407826547,-19.299579695876343,1
2025-03-07 12:06:11.979,-0.0034584446349942,-19.012903335964364,1
2025-03-07 12:06:11.987,-0.0033571702599001,-18.5267732122084,1
2025-03-07 12:06:11.995,-0.0032767749809741,-17.837398602265772,1
2025-03-07 12:06:12.002,-0.0032176390126615,-16.945272547562453,1
2025-03-07 12:06:12.010,-0.0031797158728299,-15.855409974485088,1
2025-03-07 12:06:12.018,-0.0031624917131576,-14.577491616433347,1
2025-03-07 12:06:12.026,-0.0031649574979816,-13.12589915761519,1
2025-03-07 12:06:12.034,-0.0031855979242558,-11.51962936391552,1
2025-03-07 12:06:12.042,-0.0032224002321087,-9.782078303628962,1
2025-03-07 12:06:12.049,-0.0032728846423912,-7.940690982170422,1
2025-03-07 12:06:12.057,-0.0033341566218082,-6.026476637135751,1
2025-03-07 12:06:12.065,-0.0034029800516679,-4.073395318902928,1
2025-03-07 12:06:12.073,-0.0034758696029034,-2.117626927340638,1
2025-03-07 12:06:12.081,-0.0035491995846122,-0.1967392730681942,1
2025-03-07 12:06:12.088,-0.0036193248799035,1.6512233299032897,1
2025-03-07 12:06:12.096,-0.0036827078817851,3.388705238559335,1
2025-03-07 12:06:12.104,-0.0037360445824348,4.979629504254098,1
2025-03-07 12:06:12.112,-0.0037763834371756,6.390381758783684,1
2025-03-07 12:06:12.120,-0.0038012316666035,7.590756154240644,1
2025-03-07 12:06:12.127,-0.0038086445139371,8.554831993952567,1
2025-03-07 12:06:12.135,-0.0037972935075735,9.261751358674909,1
2025-03-07 12:06:12.143,-0.0037665103817117,9.69637080826021,1
2025-03-07 12:06:12.151,-0.0037163042612011,9.84976396554537,1
2025-03-07 12:06:12.159,-0.00364735089831,9.719556282276493,1
2025-03-07 12:06:12.167,-0.0035609540115924,9.31007836114165,1
2025-03-07 12:06:12.174,-0.0034589802703747,8.632329695995535,1
2025-03-07 12:06:12.182,-0.0033437713146276,7.703750453047672,1
2025-03-07 12:06:12.190,-0.0032180380945489,6.547804828542184,1
2025-03-07 12:06:12.198,-0.0030847442045696,5.193385468064987,1
2025-03-07 12:06:12.206,-0.002946985385346,3.674054293929978,1
2025-03-07 12:06:12.213,-0.0028078718788135,2.0271407135725763,1
2025-03-07 12:06:12.221,-0.002670419007243,0.2927233958345598,1
2025-03-07 12:06:12.229,-0.0025374496575142,-1.487473611143065,1
2025-03-07 12:06:12.237,-0.002411510895445,-3.2712359305947056,1
2025-03-07 12:06:12.245,-0.002294806045181,-5.01702798846355,1
2025-03-07 12:06:12.252,-0.0021891430474946,-6.685137876100663,1
2025-03-07 12:06:12.260,-0.0020958993744186,-8.238759833576443,1
2025-03-07 12:06:12.268,-0.002016003139136,-9.644978070303535,1
2025-03-07 12:06:12.276,-0.0019499294764375,-10.8756190562481,1
2025-03-07 12:06:12.284,-0.0018977108970864,-11.90794432267367,1
2025-03-07 12:06:12.292,-0.0018589601541584,-12.725162001564495,1
2025-03-07 12:06:12.299,-0.0018329042076171,-13.316742506340333,1
2025-03-07 12:06:12.307,-0.0018184280216033,-13.67853153543368,1
2025-03-07 12:06:12.315,-0.0018141269109832,-13.812661541128795,1
2025-03-07 12:06:12.323,-0.0018183658233114,-13.72727051898251,1
2025-03-07 12:06:12.331,-0.0018293434661138,-13.436044043943763,1
2025-03-07 12:06:12.338,-0.0018451588536952,-12.957602579074385,1
2025-03-07 12:06:12.346,-0.0018638777861637,-12.314760959556263,1
2025-03-07 12:06:12.354,-0.0018835969992337,-11.53369043613064,1
2025-03-07 12:06:12.362,-0.0019025042411694,-10.643015660539715,1
2025-03-07 12:06:12.370,-0.0019189332264583,-9.672879512236165,1
2025-03-07 12:06:12.377,-0.0019314129952755,-8.654007785195985,1
2025-03-07 12:06:12.385,-0.0019387114096907,-7.616803627854048,1
2025-03-07 12:06:12.393,-0.0019398722630987,-6.590498458885562,1
2025-03-07 12:06:12.401,-0.0019342448964056,-5.602382101315323,1
2025-03-07 12:06:12.409,-0.0019215046138017,-4.677130339066696,1
2025-03-07 12:06:12.417,-0.0019016619042386,-3.836243254696897,1
2025-03-07 12:06:12.424,-0.0018750586546858,-3.097602791178527,1
2025-03-07 12:06:12.432,-0.001842350211364,-2.4751532091213027,1
2025-03-07 12:06:12.440,-0.0018044732918131,-1.9787036730219645,1
2025-03-07 12:06:12.448,-0.0017626011361444,-1.613848254674731,1
2025-03-07 12:06:12.456,-0.0017180883635134,-1.3819953140814374,1
2025-03-07 12:06:12.463,-0.0016724083461651,-1.280495600365308,1
2025-03-07 12:06:12.471,-0.0016270856924709,-1.302856565856536,1
2025-03-07 12:06:12.479,-0.0015836261814091,-1.4390293264675609,1
2025-03-07 12:06:12.487,-0.0015434465086128,-1.6757544099452797,1
2025-03-07 12:06:12.495,-0.001507806358507,-1.9969528471637708,1
2025-03-07 12:06:12.502,-0.0014777453765662,-2.3841501763713557,1
2025-03-07 12:06:12.510,-0.001454027480471,-2.816922409965824,1
2025-03-07 12:06:12.518,-0.0014370946175347,-3.2733548035198994,1
2025-03-07 12:06:12.526,-0.0014270315707875,-3.730506207685509,1
2025-03-07 12:06:12.534,-0.0014235427835972,-4.164873716875862,1
2025-03-07 12:06:12.542,-0.001425941555605,-4.552854101606986,1
2025-03-07 12:06:12.549,-0.0014331516331125,-4.871199984040024,1
2025-03-07 12:06:12.557,-0.0014437213415325,-5.097469769023171,1
2025-03-07 12:06:12.565,-0.0014558507234926,-5.210470881669235,1
2025-03-07 12:06:12.573,-0.0014674321220672,-5.190695821362471,1
2025-03-07 12:06:12.581,-0.0014761040285504,-5.02074988944859,1
2025-03-07 12:06:12.588,-0.0014793169781795,-4.685768198728326,1
2025-03-07 12:06:12.596,-0.0014744091355567,-4.173817802752673,1
2025-03-07 12:06:12.604,-0.0014586882436796,-3.4762786331703235,1
2025-03-07 12:06:12.612,-0.0014295161295256,-2.58819460214901,1
2025-03-07 12:06:12.620,-0.0013843921502934,-1.5085839498807747,1
2025-03-07 12:06:12.627,-0.0013210325791229,-0.2406959475128067,1
2025-03-07 12:06:12.635,-0.0012374434443972,1.207800344176223,1
2025-03-07 12:06:12.643,-0.0011319844989998,2.8247101795511447,1
2025-03-07 12:06:12.651,-0.0010034219802671,4.593304659007415,1
2025-03-07 12:06:12.659,-0.0008509679066261,6.492422798081723,1
2025-03-07 12:06:12.667,-0.0006743039898411,8.496694668670932,1
2025-03-07 12:06:12.674,-0.0004735888682879,10.576892499544652,1
2025-03-07 12:06:12.682,-0.0002494483040699,12.700412057712548,1
2025-03-07 12:06:12.690,-2.9492223917156942e-06,14.83188137449869,1
2025-03-07 12:06:12.698,0.0002644401311948,16.933888215231054,1
2025-03-07 12:06:12.706,0.0005509004682531,18.96781193972596,1
2025-03-07 12:06:12.713,0.0008543183054204,20.894739895172165,1
2025-03-07 12:06:12.721,0.0011723460977661,22.676443548557177,1
2025-03-07 12:06:12.729,0.0015024636289505,24.27638550110373,1
2025-03-07 12:06:12.737,0.0018420399598442,25.66072558357165,1
2025-03-07 12:06:12.745,0.0021883961874321,26.799292588897487,1
2025-03-07 12:06:12.753,0.0025388696428768,27.66648794987147,1
2025-03-07 12:06:12.760,0.0028908799058671,28.242088818319065,1
2025-03-07 12:06:12.768,0.0032419961408647,28.511920478478935,1
2025-03-07 12:06:12.776,0.0035900039178878,28.468371708105323,1
2025-03-07 12:06:12.784,0.0039329682790096,28.110731430952683,1
2025-03-07 12:06:12.792,0.0042692889201478,27.44533061144685,1
2025-03-07 12:06:12.799,0.0045977432665276,26.4854796460289,1
2025-03-07 12:06:12.807,0.0049175136879334,25.25119831754857,1
2025-03-07 12:06:12.815,0.0052281957176834,23.76874249612398,1
2025-03-07 12:06:12.823,0.0055297848887494,22.069938965959533,1
2025-03-07 12:06:12.831,0.0058226410536762,20.191346781151267,1
2025-03-07 12:06:12.838,0.0061074310168594,18.173270132822857,1
2025-03-07 12:06:12.846,0.0063850526516206,16.0586535615616,1
2025-03-07 12:06:12.854,0.0066565457966262,13.891895188021993,1
2025-03-07 12:06:12.862,0.0069229966793133,11.717617191247784,1
2025-03-07 12:06:12.870,0.0071854432172992,9.579434808563464,1
2025-03-07 12:06:12.878,0.0074447882632593,7.518765495317284,1
2025-03-07 12:06:12.885,0.0077017267135561,5.573718482372572,1
2025-03-07 12:06:12.893,0.0079566905669163,3.778101818203311,1
2025-03-07 12:06:12.901,0.0082098139341073,2.160579203690665,1
2025-03-07 12:06:12.909,0.008460918256958,0.7440027513254983,1
2025-03-07 12:06:12.917,0.0087095169124409,-0.4550594495646525,1
2025-03-07 12:06:12.924,0.008954837722194,-1.4265900101223163,1
2025-03-07 12:06:12.932,0.0091958611677515,-2.167180390808207,1
2025-03-07 12:06:12.940,0.0094313711004772,-2.6798857519762014,1
2025-03-07 12:06:12.948,0.0096600137060371,-2.973889160708521,1
2025-03-07 12:06:12.956,0.0098803599748077,-3.063994314372854,1
2025-03-07 12:06:12.963,0.0100909672203769,-2.969971261153615,1
2025-03-07 12:06:12.971,0.010290436024301,-2.715783550836018,1
2025-03-07 12:06:12.979,0.0104774599265971,-2.32872774873528,1
2025-03-07 12:06:12.987,0.0106508660678753,-1.838517297083976,1
2025-03-07 12:06:12.995,0.0108096458338525,-1.2763423972130523,1
2025-03-07 12:06:13.003,0.0109529751868932,-0.6739360607973199,1
2025-03-07 12:06:13.010,0.011080224633264,-0.0626739289886852,1
2025-03-07 12:06:13.018,0.0111909589374419,0.5272679045591667,1
2025-03-07 12:06:13.026,0.0112849271792329,1.0676767899246498,1
2025-03-07 12:06:13.034,0.0113620445369174,1.532973199963071,1
2025-03-07 12:06:13.042,0.0114223678659294,1.900774766842324,1
2025-03-07 12:06:13.049,0.0114660674767934,2.152347730521824,1
2025-03-07 12:06:13.057,0.0114933976156955,2.2729431165701803,1
2025-03-07 12:06:13.065,0.0115046681793209,2.25201884553423,1
2025-03-07 12:06:13.073,0.0115002200182013,2.083352348921216,1
2025-03-07 12:06:13.081,0.0114804055602551,1.7650510234766192,1
2025-03-07 12:06:13.088,0.011445575475769,1.2994699248204191,1
2025-03-07 12:06:13.096,0.0113960710215436,0.693047449381586,1
2025-03-07 12:06:13.104,0.0113322208439191,-0.0439296153389204,1
2025-03-07 12:06:13.112,0.0112543405655337,-0.8976203331982769,1
2025-03-07 12:06:13.120,0.0111627334789849,-1.850972446592123,1
2025-03-07 12:06:13.128,0.0110576910987985,-2.8841041890311323,1
2025-03-07 12:06:13.135,0.0109394930669851,-3.9747169366382376,1
2025-03-07 12:06:13.143,0.010808406597822,-5.098532202405511,1
2025-03-07 12:06:13.151,0.0106646858616158,-6.229748168406969,1
2025-03-07 12:06:13.159,0.0105085715458812,-7.341512522152948,1
2025-03-07 12:06:13.167,0.0103402908784047,-8.406409655407112,1
2025-03-07 12:06:13.174,0.0101600589066032,-9.396961151710798,1
2025-03-07 12:06:13.182,0.0099680823663765,-10.286138812074924,1
2025-03-07 12:06:13.190,0.0097645674363044,-11.047889165163392,1
2025-03-07 12:06:13.198,0.0095497318319549,-11.657667449294332,1
2025-03-07 12:06:13.206,0.0093238203399823,-12.092977469084074,1
2025-03-07 12:06:13.213,0.0090871217064938,-12.333911611393184,1
2025-03-07 12:06:13.221,0.0088399843816399,-12.363682803365158,1
2025-03-07 12:06:13.229,0.0085828290136128,-12.16913750798716,1
2025-03-07 12:06:13.237,0.0083161563692831,-11.741236210104368,1
2025-03-07 12:06:13.245,0.0080405501661035,-11.075485493675783,1
2025-03-07 12:06:13.253,0.0077566749851484,-10.172303996020055,1
2025-03-07 12:06:13.260,0.007465269969867,-9.037303482253112,1
2025-03-07 12:06:13.268,0.0071671393952936,-7.68146622208614,1
2025-03-07 12:06:13.276,0.0068631414194496,-6.121200935818966,1
2025-03-07 12:06:13.284,0.0065541764088884,-4.378261904977939,1
2025-03-07 12:06:13.292,0.006241176174718,-2.479519426858225,1
2025-03-07 12:06:13.299,0.0059250952789334,-0.4565745410180031,1
2025-03-07 12:06:13.307,0.0056069052918129,1.654783322882885,1
2025-03-07 12:06:13.315,0.0052875925205206,3.815270714612236,1
2025-03-07 12:06:13.323,0.0049681593099445,5.9829447384959416,1
2025-03-07 12:06:13.331,0.004649628563519,8.114159329860252,1
2025-03-07 12:06:13.338,0.0043330506692054,10.164618500938111,1
2025-03-07 12:06:13.346,0.0040195115686504,12.090496440659871,1
2025-03-07 12:06:13.354,0.003710140299608,13.849590130775894,1
2025-03-07 12:06:13.362,0.0034061139952512,15.402467316433,1
2025-03-07 12:06:13.370,0.0031086580776985,16.713571387004958,1
2025-03-07 12:06:13.378,0.0028190393654828,17.752245036549713,1
2025-03-07 12:06:13.385,0.0025385502764803,18.49363645555483,1
2025-03-07 12:06:13.393,0.0022684833874802,18.919455161104707,1
2025-03-07 12:06:13.401,0.0020100970118352,19.018549249271675,1
2025-03-07 12:06:13.409,0.0017645736052173,18.787281654337598,1
2025-03-07 12:06:13.417,0.0015329734045142,18.22968969467916,1
2025-03-07 12:06:13.424,0.0013161858757484,17.35741952488718,1
2025-03-07 12:06:13.432,0.0011148815310995,16.189434837181548,1
2025-03-07 12:06:13.440,0.0009294665844668,14.75150699383584,1
2025-03-07 12:06:13.448,0.0007600427685577,13.07550144749537,1
2025-03-07 12:06:13.456,0.000606374434737,11.198482530256642,1
2025-03-07 12:06:13.463,0.0004678648006973,9.16166518020517,1
2025-03-07 12:06:13.471,0.0003435429020319,7.009247662829214,1
2025-03-07 12:06:13.479,0.0002320624446776,4.78716361044327,1
2025-03-07 12:06:13.487,0.0001317133500719,2.5417945699214086,1
2025-03-07 12:06:13.495,4.044633963212016e-05,0.3186855924070507,1
2025-03-07 12:06:13.503,-4.408957217203195e-05,-1.838693858932671,1
2025-03-07 12:06:13.510,-0.0001244973059448,-3.8901032942346583,1
2025-03-07 12:06:13.518,-0.0002035708043776,-5.799561972450373,1
2025-03-07 12:06:13.526,-0.0002842246170726,-7.536225138255661,1
2025-03-07 12:06:13.534,-0.0003694160986762,-9.075080047536016,1
2025-03-07 12:06:13.542,-0.0004620627674259,-10.397443348519843,1
2025-03-07 12:06:13.549,-0.0005649577356267,-11.491249245163893,1
2025-03-07 12:06:13.557,-0.0006806863971598,-12.351125951441848,1
2025-03-07 12:06:13.565,-0.0008115477155798,-12.978265849642316,1
2025-03-07 12:06:13.573,-0.0009594834755058,-13.38010211476453,1
2025-03-07 12:06:13.581,-0.0011260187168142,-13.569811029908228,1
2025-03-07 12:06:13.588,-0.0013122162447779,-13.56566453292393,1
2025-03-07 12:06:13.596,-0.0015186475823177,-13.390261522909796,1
2025-03-07 12:06:13.604,-0.0017453819900694,-13.069669020251949,1
2025-03-07 12:06:13.612,-0.0019919942189284,-12.632505400851024,1
2025-03-07 12:06:13.620,-0.0022575904779288,-12.108997675930643,1
2025-03-07 12:06:13.628,-0.0025408507241786,-11.530043291916645,1
2025-03-07 12:06:13.635,-0.0028400839577107,-10.926304358783712,1
2025-03-07 12:06:13.643,-0.0031532921254419,-10.32735879201326,1
2025-03-07 12:06:13.651,-0.0034782380362214,-9.760928805272275,1
2025-03-07 12:06:13.659,-0.0038125135826548,-9.25220275739335,1
2025-03-07 12:06:13.667,-0.0041536061178741,-8.823261771065111,1
2025-03-07 12:06:13.674,-0.0044989621945528,-8.492618020074394,1
2025-03-07 12:06:13.682,-0.0048460484409127,-8.274867327085147,1
2025-03-07 12:06:13.690,-0.0051924092142638,-8.180454901331617,1
2025-03-07 12:06:13.698,-0.0055357203309138,-8.215549817257799,1
2025-03-07 12:06:13.706,-0.0058738378839759,-8.38202128542521,1
2025-03-07 12:06:13.713,-0.00620484079749,-8.677507934737905,1
2025-03-07 12:06:13.721,-0.0065270652205467,-9.095570196206126,1
2025-03-07 12:06:13.729,-0.0068391284167636,-9.625915398878815,1
2025-03-07 12:06:13.737,-0.0071399399725846,-10.254685279137266,1
2025-03-07 12:06:13.745,-0.0074286991878901,-10.964796171491216,1
2025-03-07 12:06:13.753,-0.0077048791242678,-11.736323085931286,1
2025-03-07 12:06:13.760,-0.0079681993872489,-12.546920062511036,1
2025-03-07 12:06:13.768,-0.0082185908767379,-13.372270493165836,1
2025-03-07 12:06:13.776,-0.0084561562828506,-14.186562373734576,1
2025-03-07 12:06:13.784,-0.0086811299959289,-14.9629845640428,1
2025-03-07 12:06:13.792,-0.0088938403646953,-15.674240978884193,1
2025-03-07 12:06:13.799,-0.0090946760356413,-16.293080119641875,1
2025-03-07 12:06:13.807,-0.0092840568599672,-16.79283741756034,1
2025-03-07 12:06:13.815,-0.0094624091320025,-17.14798744644925,1
2025-03-07 12:06:13.823,-0.0096301450121226,-17.334702151927708,1
2025-03-07 12:06:13.831,-0.0097876466188183,-17.33140985286541,1
2025-03-07 12:06:13.838,-0.0099352558961967,-17.119347963646184,1
2025-03-07 12:06:13.846,-0.0100732715714972,-16.68310027504599,1
2025-03-07 12:06:13.854,-0.0102019541674392,-16.011107368366496,1
2025-03-07 12:06:13.862,-0.0103215391338124,-15.09613650983276,1
2025-03-07 12:06:13.870,-0.010432256871163,-13.935695402236409,1
2025-03-07 12:06:13.878,-0.0105343571546078,-12.532372703914008,1
2025-03-07 12:06:13.885,-0.0106281347944838,-10.894087506857147,1
2025-03-07 12:06:13.893,-0.0107139535753037,-9.034230211165658,1
2025-03-07 12:06:13.901,-0.0107922663211339,-6.97167859822969,1
2025-03-07 12:06:13.909,-0.010863629785591,-4.730675464101167,1
2025-03-07 12:06:13.917,-0.0109287135671793,-2.3405579036026927,1
2025-03-07 12:06:13.924,-0.0109883023654979,0.1646668934878508,1
2025-03-07 12:06:13.932,-0.0110432908580802,2.746898884347357,1
2025-03-07 12:06:13.940,-0.0110946705717886,5.364668893521621,1
2025-03-07 12:06:13.948,-0.011143508453755,7.973995960870959,1
2025-03-07 12:06:13.956,-0.0111909173998416,10.529359347541185,1
2025-03-07 12:06:13.963,-0.0112380197490084,12.984760626936325,1
2025-03-07 12:06:13.971,-0.0112859055542799,15.294846504259809,1
2025-03-07 12:06:13.979,-0.0113355879779008,17.416059295472554,1
2025-03-07 12:06:13.987,-0.0113879581585645,19.30777954266509,1
2025-03-07 12:06:13.995,-0.0114437413719387,20.93342416990649,1
2025-03-07 12:06:14.003,-0.0115034556171143,22.261463942007,1
2025-03-07 12:06:14.010,-0.0115673734488388,23.26632575251977,1
2025-03-07 12:06:14.018,-0.0116354881982129,23.92914833996188,1
2025-03-07 12:06:14.026,-0.0117074863928357,24.238364263405263,1
2025-03-07 12:06:14.034,-0.0117827286345727,24.19008618328105,1
2025-03-07 12:06:14.042,-0.0118602410284394,23.78828150506344,1
2025-03-07 12:06:14.049,-0.0119387184672269,23.04472606609613,1
2025-03-07 12:06:14.057,-0.0120165400304006,21.97873459048332,1
2025-03-07 12:06:14.065,-0.0120917959978294,20.61667290865581,1
2025-03-07 12:06:14.073,-0.0121623257819391,18.991264231392748,1
2025-03-07 12:06:14.081,-0.0122257661745313,17.14070886115014,1
2025-03-07 12:06:14.088,-0.0122796091626688,15.107643372618115,1
2025-03-07 12:06:14.096,-0.0123212679407071,12.937971231651188,1
2025-03-07 12:06:14.104,-0.0123481488895446,10.67960176473347,1
2025-03-07 12:06:14.112,-0.012357726739933,8.381138065411674,1
2025-03-07 12:06:14.120,-0.0123476201632363,6.09055659390114,1
2025-03-07 12:06:14.128,-0.0123156653953095,3.853921724842948,1
2025-03-07 12:06:14.135,-0.0122599857744414,1.7141772488804492,1
2025-03-07 12:06:14.143,-0.012179055145868,-0.2899461446644051,1
2025-03-07 12:06:14.151,-0.012071753109712,-2.124872971976268,1
2025-03-07 12:06:14.159,-0.01193741017178,-3.7629462275996297,1
2025-03-07 12:06:14.167,-0.011775841009969,-5.18299056454627,1
2025-03-07 12:06:14.174,-0.01158736430531,-6.370662076728487,1
2025-03-07 12:06:14.182,-0.0113728078234018,-7.318579738498181,1
2025-03-07 12:06:14.190,-0.0111334975322304,-8.026241892548349,1
2025-03-07 12:06:14.198,-0.0108712296373353,-8.499739066515751,1
2025-03-07 12:06:14.206,-0.010588224935963,-8.751281452743596,1
2025-03-07 12:06:14.213,-0.0102870660840334,-8.798565281659483,1
2025-03-07 12:06:14.221,-0.0099706199470494,-8.664006816116617,1
2025-03-07 12:06:14.229,-0.0096419486032582,-8.37387564370249,1
2025-03-07 12:06:14.237,-0.0093042133728482,-7.957360298975638,1
2025-03-07 12:06:14.245,-0.0089605763303886,-7.445599064473258,1
2025-03-07 12:06:14.253,-0.0086141032370983,-6.870707232371664,1
2025-03-07 12:06:14.260,-0.008267671103642,-6.264829392298815,1
2025-03-07 12:06:14.268,-0.0079238831959083,-5.659241734198181,1
2025-03-07 12:06:14.276,-0.0075849943858109,-5.083525229795369,1
2025-03-07 12:06:14.284,-0.0072528498089553,-4.564826178571221,1
2025-03-07 12:06:14.292,-0.0069288391511184,-4.127216224108079,1
2025-03-07 12:06:14.299,-0.0066138675730099,-3.791159754778563,1
2025-03-07 12:06:14.307,-0.0063083430775296,-3.573092738414573,1
2025-03-07 12:06:14.315,-0.0060121797057679,-3.485113610011365,1
2025-03-07 12:06:14.323,-0.0057248161799402,-3.534783919169148,1
2025-03-07 12:06:14.331,-0.0054452498063151,-3.725034111957009,1
2025-03-07 12:06:14.338,-0.0051720852037485,-4.054168105123772,1
2025-03-07 12:06:14.346,-0.0049035968510611,-4.51595921679964,1
2025-03-07 12:06:14.354,-0.0046378036991863,-5.099829528880243,1
2025-03-07 12:06:14.362,-0.0043725531434859,-5.791104822032189,1
2025-03-07 12:06:14.370,-0.0041056106483015,-6.57133775191505,1
2025-03-07 12:06:14.378,-0.0038347506956683,-7.418692787126993,1
2025-03-07 12:06:14.385,-0.0035578447496035,-8.308387434171552,1
2025-03-07 12:06:14.393,-0.0032729423359071,-9.213185245069392,1
2025-03-07 12:06:14.401,-0.0029783417238992,-10.10393685592468,1
2025-03-07 12:06:14.409,-0.00267264704759,-10.950165682910862,1
2025-03-07 12:06:14.417,-0.0023548094039879,-11.7206947931672,1
2025-03-07 12:06:14.424,-0.00202415074034,-12.384310809448394,1
2025-03-07 12:06:14.432,-0.0016803709089749,-12.910459482066528,1
2025-03-07 12:06:14.440,-0.001323539669059,-13.2699657944147,1
2025-03-07 12:06:14.448,-0.0009540764777332,-13.43576922794766,1
2025-03-07 12:06:14.456,-0.0005727216301931,-13.383662215242758,1
2025-03-07 12:06:14.463,-0.000180502403058,-13.093017017886718,1
2025-03-07 12:06:14.471,0.0002213030562241,-12.547483481791955,1
2025-03-07 12:06:14.479,0.0006312031105692,-11.735637583035032,1
2025-03-07 12:06:14.487,0.001047532138906,-10.65155864717348,1
2025-03-07 12:06:14.495,0.0014684942193283,-9.295311881573625,1
2025-03-07 12:06:14.503,0.0018922133250539,-7.673312664896493,1
2025-03-07 12:06:14.510,0.0023167916969899,-5.79855009915625,1
2025-03-07 12:06:14.518,0.0027403765633794,-3.690649770450036,1
2025-03-07 12:06:14.526,0.0031612335072474,-1.3757595016454909,1
2025-03-07 12:06:14.534,0.0035778231472356,1.1137529784275872,1
2025-03-07 12:06:14.542,0.0039888768139291,3.739795273286045,1
2025-03-07 12:06:14.549,0.0043934666295579,6.459236207915839,1
2025-03-07 12:06:14.557,0.0047910656052417,9.224772552374557,1
2025-03-07 12:06:14.565,0.0051815937750512,11.98595912354658,1
2025-03-07 12:06:14.573,0.0055654468720079,14.690377508677075,1
2025-03-07 12:06:14.581,0.005943504611525,17.28491210265357,1
2025-03-07 12:06:14.588,0.0063171162757877,19.717096709004657,1
2025-03-07 12:06:14.596,0.0066880620923202,21.936490909369255,1
2025-03-07 12:06:14.604,0.0070584901190302,23.89604295728884,1
2025-03-07 12:06:14.612,0.0074308300861646,25.55339520664701,1
2025-03-07 12:06:14.620,0.0078076875881887,26.87208905514173,1
2025-03-07 12:06:14.628,0.0081917235971986,27.8226289888262,1
2025-03-07 12:06:14.635,0.0085855251691702,28.38336939639373,1
2025-03-07 12:06:14.643,0.0089914736467606,28.541193168750148,1
2025-03-07 12:06:14.651,0.0094116170014546,28.29195747327376,1
2025-03-07 12:06:14.659,0.0098475531825322,27.64068925922608,1
2025-03-07 12:06:14.667,0.0103003310353346,26.601520798565403,1
2025-03-07 12:06:14.674,0.0107703742656778,25.197363704104195,1
2025-03-07 12:06:14.682,0.0112574323400619,23.459328209320876,1
2025-03-07 12:06:14.690,0.0117605606597666,21.42590283982895,1
2025-03-07 12:06:14.698,0.012278131101686,19.14191772146101,1
2025-03-07 12:06:14.706,0.0128078728689584,16.65732238055584,1
2025-03-07 12:06:14.713,0.0133469421564911,14.025815689198993,1
2025-03-07 12:06:14.721,0.0138920174125964,11.303371263506213,1
2025-03-07 12:06:14.729,0.0144394154136827,8.546705817361847,1
2025-03-07 12:06:14.737,0.0149852222574648,5.811740431312213,1
2025-03-07 12:06:14.745,0.0155254325903553,3.1521052148904225,1
2025-03-07 12:06:14.753,0.0160560897972725,0.6177363168985558,1
2025-03-07 12:06:14.760,0.0165734196754384,-1.746389319248017,1
2025-03-07 12:06:14.768,0.0170739505330904,-3.9013415248016656,1
2025-03-07 12:06:14.776,0.0175546137775543,-5.815114010995754,1
2025-03-07 12:06:14.784,0.0180128207551119,-7.463266704796504,1
2025-03-07 12:06:14.792,0.018446513562987,-8.829318417345563,1
2025-03-07 12:06:14.799,0.0188541894330345,-9.904884804353967,1
2025-03-07 12:06:14.807,0.0192348999237719,-10.68956637884417,1
2025-03-07 12:06:14.815,0.0195882275126057,-11.190600582064468,1
2025-03-07 12:06:14.823,0.0199142432071008,-11.422300150711791,1
2025-03-07 12:06:14.831,0.0202134494777549,-11.405306857534953,1
2025-03-07 12:06:14.838,0.0204867131705443,-11.1656948700513,1
2025-03-07 12:06:14.846,0.0207351930742406,-10.733961305905666,1
2025-03-07 12:06:14.854,0.0209602665130114,-10.143943020344343,1
2025-03-07 12:06:14.862,0.0211634587549405,-9.43169831727066,1
2025-03-07 12:06:14.870,0.0213463782063751,-8.634390315884335,1
2025-03-07 12:06:14.878,0.0215106594531839,-7.789205401465424,1
2025-03-07 12:06:14.885,0.0216579155155712,-6.9323358639753785,1
2025-03-07 12:06:14.893,0.021789700363256,-6.098050819279746,1
2025-03-07 12:06:14.901,0.0219074825427703,-5.3178741389461655,1
2025-03-07 12:06:14.909,0.0220126301982892,-4.619882680031688,1
2025-03-07 12:06:14.917,0.0221064065774968,-4.028132865081028,1
2025-03-07 12:06:14.924,0.0221899736066152,-3.562218835833008,1
2025-03-07 12:06:14.932,0.0222643998693474,-3.236961168456958,1
2025-03-07 12:06:14.940,0.0223306687487127,-3.062221616495293,1
2025-03-07 12:06:14.948,0.0223896827350179,-3.0428366046868023,1
2025-03-07 12:06:14.956,0.0224422609513864,-3.178660241563075,1
2025-03-07 12:06:14.963,0.0224891286222753,-3.464706413300311,1
2025-03-07 12:06:14.971,0.0225308990646751,-3.891378992635272,1
2025-03-07 12:06:14.979,0.0225680502135238,-4.44477924845153,1
2025-03-07 12:06:14.987,0.0226008983767994,-5.107080063840753,1
2025-03-07 12:06:14.995,0.0226295720586401,-5.856957443922872,1
2025-03-07 12:06:15.003,0.0226539886849317,-6.6700708936118085,1
2025-03-07 12:06:15.010,0.0226738370136578,-7.519585439419401,1
2025-03-07 12:06:15.018,0.0226885677484221,-8.376729225814032,1
2025-03-07 12:06:15.026,0.0226973942966907,-9.211381605831289,1
2025-03-07 12:06:15.034,0.0226993047274288,-9.99268734839793,1
2025-03-07 12:06:15.042,0.022693084800028,-10.689692899417482,1
2025-03-07 12:06:15.049,0.0226773505953587,-11.272000480669906,1
2025-03-07 12:06:15.057,0.0226505880930328,-11.71043514168336,1
2025-03-07 12:06:15.065,0.022611196295661,-11.977718690408592,1
2025-03-07 12:06:15.073,0.0225575303252381,-12.049142766220092,1
2025-03-07 12:06:15.081,0.0224879413009916,-11.903231281887251,1
2025-03-07 12:06:15.088,0.0224008106128612,-11.522380191995254,1
2025-03-07 12:06:15.096,0.0222945771276695,-10.89346022088776,1
2025-03-07 12:06:15.104,0.0221677566012837,-10.008366005320442,1
2025-03-07 12:06:15.112,0.0220189530861393,-8.864493291643628,1
2025-03-07 12:06:15.120,0.0218468626392069,-7.465124593573712,1
2025-03-07 12:06:15.128,0.0216502702784612,-5.819703273979067,1
2025-03-07 12:06:15.135,0.0214280417304698,-3.943976548523685,1
2025-03-07 12:06:15.143,0.0211791117910932,-1.8599895694116984,1
2025-03-07 12:06:15.151,0.0209024710555177,0.4040843683724835,1
2025-03-07 12:06:15.159,0.0205971525147791,2.8142883204410207,1
2025-03-07 12:06:15.167,0.0202622190920887,5.331406384695516,1
2025-03-07 12:06:15.174,0.0198967525825726,7.911667745709438,1
2025-03-07 12:06:15.182,0.0194998439499165,10.5076221317779,1
2025-03-07 12:06:15.190,0.0190705849541523,13.069171264134589,1
2025-03-07 12:06:15.198,0.0186080616359677,15.544733442589331,1
2025-03-07 12:06:15.206,0.0181113508134917,17.882511476535043,1
2025-03-07 12:06:15.213,0.0175795210784079,20.0318281627646,1
2025-03-07 12:06:15.221,0.0170116396852325,21.944488794204936,1
2025-03-07 12:06:15.229,0.0164067861966505,23.57612703253893,1
2025-03-07 12:06:15.237,0.0157640729131003,24.887489073346543,1
2025-03-07 12:06:15.245,0.01508267129097,25.845611457543335,1
2025-03-07 12:06:15.253,0.0143618430369119,26.424850127467327,1
2025-03-07 12:06:15.260,0.0136009744911779,26.60772230152428,1
2025-03-07 12:06:15.268,0.0127996132872113,26.385528299235524,1
2025-03-07 12:06:15.276,0.0119575069570755,25.75872739246752,1
2025-03-07 12:06:15.284,0.0110746437473779,24.737049848068796,1
2025-03-07 12:06:15.292,0.0101512958773325,23.339336278660163,1
2025-03-07 12:06:15.299,0.0091880645554616,21.59310490916252,1
2025-03-07 12:06:15.307,0.0081859245786469,19.533857040070483,1
2025-03-07 12:06:15.315,0.0071462648562451,17.204140462244855,1
2025-03-07 12:06:15.323,0.0060709201731399,14.652399460917923,1
2025-03-07 12:06:15.331,0.0049621891096085,11.931647963294424,1
2025-03-07 12:06:15.338,0.0038228333177136,9.098008999005136,1
2025-03-07 12:06:15.346,0.0026560543143732,6.209168672690825,1
2025-03-07 12:06:15.354,0.0014654455463672,3.3227960640020933,1
2025-03-07 12:06:15.362,0.0002549195496999,0.4949816990078547,1
2025-03-07 12:06:15.370,-0.0009713877671809,-2.221253626087026,1
2025-03-07 12:06:15.378,-0.0022092316989299,-4.777330857602701,1
2025-03-07 12:06:15.385,-0.0034543865780491,-7.130321704309344,1
2025-03-07 12:06:15.393,-0.0047027801566478,-9.243957617812226,1
2025-03-07 12:06:15.401,-0.0059506272319548,-11.089409939652985,1
2025-03-07 12:06:15.409,-0.0071945550881326,-12.645821717214291,1
2025-03-07 12:06:15.417,-0.0084317135295606,-13.90058153801351,1
2025-03-07 12:06:15.424,-0.0096598628145422,-14.849339620588218,1
2025-03-07 12:06:15.432,-0.0108774337368024,-15.495775841461636,1
2025-03-07 12:06:15.440,-0.0120835553038821,-15.85113794043785,1
2025-03-07 12:06:15.448,-0.0132780467807559,-15.933575483463011,1
2025-03-07 12:06:15.456,-0.0144613725503174,-15.767301025928248,1
2025-03-07 12:06:15.463,-0.0156345605812327,-15.381614166075696,1
2025-03-07 12:06:15.471,-0.0167990879756887,-14.809826762775373,1
2025-03-07 12:06:15.479,-0.0179567393759528,-14.088128552462088,1
2025-03-07 12:06:15.487,-0.0191094455697409,-13.254431837851282,1
2025-03-07 12:06:15.495,-0.0202591106667947,-12.347231982175524,1
2025-03-07 12:06:15.503,-0.0214074371045954,-11.404517306576102,1
2025-03-07 12:06:15.510,-0.0225557584872608,-10.462757863319348,1
2025-03-07 12:06:15.518,-0.0237048903697438,-9.555997674656544,1
2025-03-07 12:06:15.526,-0.0248550080701602,-8.715069628061256,1
2025-03-07 12:06:15.534,-0.0260055584885827,-7.966946544961563,1
2025-03-07 12:06:15.542,-0.0271552102408352,-7.334236230483984,1
2025-03-07 12:06:15.549,-0.028301843652429,-6.834822799598488,1
2025-03-07 12:06:15.557,-0.029442579549305,-6.481651478573824,1
2025-03-07 12:06:15.565,-0.030573843458193,-6.282649586863137,1
2025-03-07 12:06:15.573,-0.0316914598915524,-6.2407726595515545,1
2025-03-07 12:06:15.581,-0.0327907699299305,-6.354161780317752,1
2025-03-07 12:06:15.589,-0.0338667644044516,-6.61639622913626,1
2025-03-07 12:06:15.596,-0.0349142246852161,-7.016824538567172,1
2025-03-07 12:06:15.604,-0.0359278634423594,-7.54095698199568,1
2025-03-07 12:06:15.612,-0.0369024587736112,-8.170903320987419,1
2025-03-07 12:06:15.620,-0.0378329766634694,-8.885841206186344,1
2025-03-07 12:06:15.628,-0.0387146784759987,-9.662502810019287,1
2025-03-07 12:06:15.635,-0.0395432115584074,-10.475669893517964,1
2025-03-07 12:06:15.643,-0.0403146818008782,-11.29867037092793,1
2025-03-07 12:06:15.651,-0.0410257074486462,-12.103872309639955,1
2025-03-07 12:06:15.659,-0.0416734540507321,-12.863173954232986,1
2025-03-07 12:06:15.667,-0.042255651217566,-13.548490564394031,1
2025-03-07 12:06:15.674,-0.0427705925111155,-14.13224040655908,1
2025-03-07 12:06:15.682,-0.0432171201086335,-14.587832983904988,1
2025-03-07 12:06:15.690,-0.0435945960744663,-14.890162436540823,1
2025-03-07 12:06:15.698,-0.0439028623775452,-15.016107970250475,1
2025-03-07 12:06:15.706,-0.0441421921172135,-14.945041221418318,1
2025-03-07 12:06:15.714,-0.0443132345839986,-14.659337743631015,1
2025-03-07 12:06:15.721,-0.0444169567753026,-14.144886476425896,1
2025-03-07 12:06:15.729,-0.0444545838790788,-13.391587362349052,1
2025-03-07 12:06:15.737,-0.0444275411036178,-12.39382350853565,1
2025-03-07 12:06:15.745,-0.0443373991581838,-11.15089077804293,1
2025-03-07 12:06:15.753,-0.0441858256497834,-9.66736478889515,1
2025-03-07 12:06:15.760,-0.0439745444557955,-7.953383318235008,1
2025-03-07 12:06:15.768,-0.0437053045828519,-6.024821333393374,1
2025-03-07 12:06:15.776,-0.043379859130523,-3.903336518421459,1
2025-03-07 12:06:15.784,-0.0429999539431303,-1.6162653710955917,1
2025-03-07 12:06:15.792,-0.0425673247063795,0.8036462530279727,1
2025-03-07 12:06:15.799,-0.0420837008758534,3.318688957738253,1
2025-03-07 12:06:15.807,-0.0415508147479918,5.886816162519762,1
2025-03-07 12:06:15.815,-0.0409704138561915,8.462447535136539,1
2025-03-07 12:06:15.823,-0.0403442747436649,10.99743777710606,1
2025-03-07 12:06:15.831,-0.0396742163960143,13.442190615615294,1
2025-03-07 12:06:15.839,-0.038962112242207,15.746889763010437,1
2025-03-07 12:06:15.846,-0.0382099002567051,17.862811337753275,1
2025-03-07 12:06:15.854,-0.0374195909950428,19.743676253897597,1
2025-03-07 12:06:15.862,-0.036593273301209,21.34699675915413,1
2025-03-07 12:06:15.870,-0.03573311697585,22.63536891320661,1
2025-03-07 12:06:15.878,-0.0348413710704479,23.577662515202523,1
2025-03-07 12:06:15.885,-0.0339203560283201,24.15006186830653,1
2025-03-07 12:06:15.893,-0.0329724479549111,24.336914760829696,1
2025-03-07 12:06:15.901,-0.0320000540037761,24.1313530005428,1
2025-03-07 12:06:15.909,-0.031005579114193,23.535655525310908,1
2025-03-07 12:06:15.917,-0.0299913857491248,22.56133421929825,1
2025-03-07 12:06:15.924,-0.0289597493169646,21.228932725333674,1
2025-03-07 12:06:15.932,-0.0279128123301246,19.567539358269407,1
2025-03-07 12:06:15.940,-0.0268525402231875,17.614026259016676,1
2025-03-07 12:06:15.948,-0.0257806814157344,15.412037725124517,1
2025-03-07 12:06:15.956,-0.0246987337884952,13.01076073349292,1
2025-03-07 12:06:15.964,-0.0236079192987652,10.463519558139945,1
2025-03-07 12:06:15.971,-0.0225091680420424,7.826243636450598,1
2025-03-07 12:06:15.979,-0.0214031126798402,5.155863070410982,1
2025-03-07 12:06:15.987,-0.0202900938214997,2.508689076834889,1
2025-03-07 12:06:15.995,-0.0191701767075047,-0.061162851792024,1
2025-03-07 12:06:16.003,-0.0180431793872628,-2.503251392623808,1
2025-03-07 12:06:16.010,-0.0169087125044653,-4.772138275306591,1
2025-03-07 12:06:16.018,-0.0157662307079081,-6.828523160995884,1
2025-03-07 12:06:16.026,-0.0146150953364139,-8.640148672782953,1
2025-03-07 12:06:16.034,-0.0134546472283318,-10.182449758685216,1
2025-03-07 12:06:16.042,-0.0122842874773386,-11.438932513662436,1
2025-03-07 12:06:16.049,-0.0111035629982311,-12.401278901007167,1
2025-03-07 12:06:16.057,-0.0099122530102987,-13.06918493382669,1
2025-03-07 12:06:16.065,-0.0087104520416271,-13.44995026100934,1
2025-03-07 12:06:16.073,-0.007498644847037,-13.55784625567222,1
2025-03-07 12:06:16.081,-0.006277768710048,-13.413297213984835,1
2025-03-07 12:06:16.089,-0.0050492589692222,-13.04191482997612,1
2025-03-07 12:06:16.096,-0.0038150742841695,-12.473429532044513,1
2025-03-07 12:06:16.104,-0.0025776991007297,-11.740563496394651,1
2025-03-07 12:06:16.112,-0.0013401219610737,-10.877889270880257,1
2025-03-07 12:06:16.120,-0.0001057897138291,-9.920715149915631,1
2025-03-07 12:06:16.128,0.0011214607550145,-8.904034032407093,1
2025-03-07 12:06:16.135,0.0023374900038401,-7.861566822637197,1
2025-03-07 12:06:16.143,0.0035379579143048,-6.8249248721665845,1
2025-03-07 12:06:16.151,0.0047184341405189,-5.822908881067678,1
2025-03-07 12:06:16.159,0.0058745112909096,-4.880954440689417,1
2025-03-07 12:06:16.167,0.0070019159961924,-4.020727354099178,1
2025-03-07 12:06:16.174,0.0080966144737285,-3.25986533992797,1
2025-03-07 12:06:16.182,0.0091549104618758,-2.6118570041150444,1
2025-03-07 12:06:16.190,0.0101735340655653,-2.086044292654029,1
2025-03-07 12:06:16.198,0.0111497200338902,-1.6877311803161756,1
2025-03-07 12:06:16.206,0.012081273446499,-1.4183791803230656,1
2025-03-07 12:06:16.214,0.0129666201698683,-1.27586937273472,1
2025-03-07 12:06:16.221,0.0138048393472301,-1.2548109761546555,1
2025-03-07 12:06:16.229,0.0145956758258255,-1.3468779065628755,1
2025-03-07 12:06:16.237,0.0153395313415398,-1.5411571061728204,1
2025-03-07 12:06:16.245,0.0160374338558224,-1.8244954644791975,1
2025-03-07 12:06:16.253,0.0166909847250408,-2.18183564170263,1
2025-03-07 12:06:16.260,0.01730228407832,-2.596534784387795,1
2025-03-07 12:06:16.268,0.0178738363278256,-3.050663755081666,1
2025-03-07 12:06:16.276,0.0184084397385394,-3.525287874349142,1
2025-03-07 12:06:16.284,0.0189090656708111,-4.000733115959188,1
2025-03-07 12:06:16.292,0.0193787341079216,-4.456844054250335,1
2025-03-07 12:06:16.299,0.019820392530728,-4.873241513330552,1
2025-03-07 12:06:16.307,0.0202368052752747,-5.229588717839932,1
2025-03-07 12:06:16.315,0.0206304601087133,-5.5058747324815895,1
2025-03-07 12:06:16.323,0.0210034977048346,-5.682723071203787,1
2025-03-07 12:06:16.331,0.0213576680769133,-5.741731558937459,1
2025-03-07 12:06:16.339,0.0216943161767351,-5.66584688253888,1
2025-03-07 12:06:16.346,0.0220143970503985,-5.439773869454461,1
2025-03-07 12:06:16.354,0.0223185191064998,-5.050415541165656,1
2025-03-07 12:06:16.362,0.0226070120592174,-4.487335623609451,1
2025-03-07 12:06:16.370,0.0228800140655489,-3.743230728810437,1
2025-03-07 12:06:16.378,0.0231375708556712,-2.814395157237145,1
2025-03-07 12:06:16.385,0.0233797386213939,-1.7011575376818764,1
2025-03-07 12:06:16.393,0.0236066822518261,-0.4082656553779921,1
2025-03-07 12:06:16.401,0.0238187611433628,1.054805864969581,1
2025-03-07 12:06:16.409,0.0240165960229793,2.6736505930978947,1
2025-03-07 12:06:16.417,0.0242011117328782,4.428852230296696,1
2025-03-07 12:06:16.424,0.0243735526143181,6.296054556865962,1
2025-03-07 12:06:16.432,0.0245354689904206,8.246195777313767,1
2025-03-07 12:06:16.440,0.024688675249451,10.245917468054714,1
2025-03-07 12:06:16.448,0.0248351821337829,12.258150981255223,1
2025-03-07 12:06:16.456,0.0249771079090298,14.242876027497427,1
2025-03-07 12:06:16.464,0.0251165747232888,16.158037697972915,1
2025-03-07 12:06:16.471,0.0252555972446101,17.960599867766646,1
2025-03-07 12:06:16.479,0.0253959706024494,19.607705215443797,1
2025-03-07 12:06:16.487,0.0255391641930716,21.057905442032105,1
2025-03-07 12:06:16.495,0.0256862273563131,22.27242005987526,1
2025-03-07 12:06:16.503,0.0258377122140326,23.21637864952433,1
2025-03-07 12:06:16.510,0.0259936179842157,23.859999948636897,1
2025-03-07 12:06:16.518,0.0261533600594074,24.17966163193153,1
2025-03-07 12:06:16.526,0.0263157662542438,24.15881715556491,1
2025-03-07 12:06:16.534,0.0264791016742765,23.78872046959201,1
2025-03-07 12:06:16.542,0.0266411222975858,23.06892556309408,1
2025-03-07 12:06:16.549,0.0267991556609753,22.007535447216974,1
2025-03-07 12:06:16.557,0.0269502054799913,20.621184003619828,1
2025-03-07 12:06:16.565,0.027091075930213,18.934743798474305,1
2025-03-07 12:06:16.573,0.0272185104992619,16.98076312917572,1
2025-03-07 12:06:16.581,0.0273293394516929,14.798645856213698,1
2025-03-07 12:06:16.589,0.0274206290992271,12.433597584481014,1
2025-03-07 12:06:16.596,0.02748982570142,9.9353710970988,1
2025-03-07 12:06:16.604,0.0275348872394415,7.356852214130338,1
2025-03-07 12:06:16.612,0.0275543972815133,4.752534066786905,1
2025-03-07 12:06:16.620,0.027547656188369,2.176932793433139,1
2025-03-07 12:06:16.628,0.0275147456579784,-0.3169994200530644,1
2025-03-07 12:06:16.635,0.0274565630998349,-2.679407426326073,1
2025-03-07 12:06:16.643,0.0273748228549467,-4.864957596859192,1
2025-03-07 12:06:16.651,0.0272720221714364,-6.834103128472048,1
2025-03-07 12:06:16.659,0.027151371240361,-8.554145973191316,1
2025-03-07 12:06:16.667,0.0270166883996993,-10.000059470277357,1
2025-03-07 12:06:16.674,0.0268722635856758,-11.15504556916893,1
2025-03-07 12:06:16.682,0.026722694961944,-12.010811394553189,1
2025-03-07 12:06:16.690,0.0265727052504985,-12.567561283171672,1
2025-03-07 12:06:16.698,0.0264269456389208,-12.83371175451749,1
2025-03-07 12:06:16.706,0.0262897962267686,-12.825347614800208,1
2025-03-07 12:06:16.714,0.0261651727627001,-12.565447031196689,1
2025-03-07 12:06:16.721,0.0260563498227506,-12.082911519967375,1
2025-03-07 12:06:16.729,0.0259658102238532,-11.411443032422588,1
2025-03-07 12:06:16.737,0.0258951289729241,-10.588314476273558,1
2025-03-07 12:06:16.745,0.0258448976165044,-9.653081978614424,1
2025-03-07 12:06:16.753,0.0258146922279231,-8.64628700321233,1
2025-03-07 12:06:16.760,0.0258030860493964,-7.608194210752153,1
2025-03-07 12:06:16.768,0.0258077059411412,-6.577606918153268,1
2025-03-07 12:06:16.776,0.0258253298534421,-5.590796461139775,1
2025-03-07 12:06:16.784,0.0258520204453035,-4.680575028578958,1
2025-03-07 12:06:16.792,0.0258832881901636,-3.87553398404873,1
2025-03-07 12:06:16.799,0.0259142762924749,-3.199461701749831,1
2025-03-07 12:06:16.807,0.025939959379665,-2.670946901543001,1
2025-03-07 12:06:16.815,0.0259553477488588,-2.303165735679576,1
2025-03-07 12:06:16.823,0.0259556886975814,-2.103843790624565,1
2025-03-07 12:06:16.831,0.0259366563354459,-2.0753780110003617,1
2025-03-07 12:06:16.839,0.0258945215400012,-2.215098564910471,1
2025-03-07 12:06:16.846,0.0258262945268585,-2.515647023484705,1
2025-03-07 12:06:16.854,0.0257298338875257,-2.9654450247772512,1
2025-03-07 12:06:16.862,0.0256039178906362,-3.549226858607545,1
2025-03-07 12:06:16.870,0.0254482761975914,-4.24861008954649,1
2025-03-07 12:06:16.878,0.0252635825110446,-5.042680298892775,1
2025-03-07 12:06:16.885,0.0250514105054024,-5.90856907852058,1
2025-03-07 12:06:16.893,0.0248141564171434,-6.822008306483887,1
2025-03-07 12:06:16.901,0.0245549321874173,-7.75784819677896,1
2025-03-07 12:06:16.909,0.024277433598625,-8.690531341776737,1
2025-03-07 12:06:16.917,0.0239857887116806,-9.594519649064775,1
2025-03-07 12:06:16.924,0.0236843928687501,-10.444675422956047,1
2025-03-07 12:06:16.932,0.0233777370829822,-11.216601592399847,1
2025-03-07 12:06:16.940,0.0230702365305375,-11.886949018880363,1
2025-03-07 12:06:16.948,0.0227660652778307,-12.433700754773252,1
2025-03-07 12:06:16.956,0.0224690026280386,-12.836443941914416,1
2025-03-07 12:06:16.964,0.0221822956958005,-13.076639679890176,1
2025-03-07 12:06:16.971,0.0219085420766359,-13.137899666335231,1
2025-03-07 12:06:16.979,0.021649595800031,-13.00627581471024,1
2025-03-07 12:06:16.987,0.0214064990537023,-12.670565565729856,1
2025-03-07 12:06:16.995,0.0211794413108704,-12.12263146560822,1
2025-03-07 12:06:17.003,0.0209677465035267,-11.357729070342764,1
2025-03-07 12:06:17.010,0.0207698879353576,-10.37483266685262,1
2025-03-07 12:06:17.018,0.0205835298500422,-9.17694402146034,1
2025-03-07 12:06:17.026,0.0204055939762206,-7.7713657282550415,1
2025-03-07 12:06:17.034,0.0202323489460834,-6.16991807575067,1
2025-03-07 12:06:17.042,0.0200595201367866,-4.389076977794889,1
2025-03-07 12:06:17.049,0.0198824169504357,-2.450010647706809,1
2025-03-07 12:06:17.057,0.0196960736897781,-0.3784944581046895,1
2025-03-07 12:06:17.065,0.0194953992918404,1.7953131662472726,1
2025-03-07 12:06:17.073,0.0192753306767421,4.037246037619853,1
2025-03-07 12:06:17.081,0.0190309843778624,6.309662647224511,1
2025-03-07 12:06:17.089,0.0187578010639539,8.572134510672802,1
2025-03-07 12:06:17.096,0.0184516773199461,10.782281382309806,1
2025-03-07 12:06:17.104,0.0181090789161734,12.896736403665884,1
2025-03-07 12:06:17.112,0.0177271303060684,14.872216691365292,1
2025-03-07 12:06:17.120,0.0173036765093332,16.66666807990282,1
2025-03-07 12:06:17.128,0.0168373156041679,18.24044710045485,1
2025-03-07 12:06:17.135,0.0163274022092498,19.55749912524369,1
2025-03-07 12:06:17.143,0.0157740241546934,20.586489191830356,1
2025-03-07 12:06:17.151,0.0151779558867161,21.30184150989141,1
2025-03-07 12:06:17.159,0.0145405930002717,21.68464511487619,1
2025-03-07 12:06:17.167,0.0138638726420985,21.723386543970708,1
2025-03-07 12:06:17.174,0.0131501844220651,21.41447566195424,1
2025-03-07 12:06:17.182,0.0124022759758938,20.76253767569538,1
2025-03-07 12:06:17.190,0.0116231565854732,19.78045269105722,1
2025-03-07 12:06:17.198,0.0108160016052294,18.48913355639206,1
2025-03-07 12:06:17.206,0.0099840600654738,16.917042810426086,1
2025-03-07 12:06:17.214,0.0091305675002848,15.099459873787094,1
2025-03-07 12:06:17.221,0.0082586654146802,13.077519736490082,1
2025-03-07 12:06:17.229,0.0073713279002326,10.897053839290884,1
2025-03-07 12:06:17.237,0.0064712951656627,8.6072721805046,1
2025-03-07 12:06:17.245,0.005561013445369,6.259332494358007,1
2025-03-07 12:06:17.253,0.0046425806537626,3.9048472962266585,1
2025-03-07 12:06:17.260,0.0037176968754374,1.5943824082915268,1
2025-03-07 12:06:17.268,0.0027876183266759,-0.623998905667073,1
2025-03-07 12:06:17.276,0.0018531131960676,-2.706093918499388,1
2025-03-07 12:06:17.284,0.0009144180332381,-4.612772409494168,1
2025-03-07 12:06:17.292,-2.880604605494853e-05,-6.311000776080139,1
2025-03-07 12:06:17.299,-0.0009775173168271,-7.77464451419678,1
2025-03-07 12:06:17.307,-0.0019333365264583,-8.985024764835119,1
2025-03-07 12:06:17.315,-0.0028985866887028,-9.931215003497242,1
2025-03-07 12:06:17.323,-0.0038763256795789,-10.61007470244794,1
2025-03-07 12:06:17.331,-0.0048703664385177,-11.026027371669542,1
2025-03-07 12:06:17.339,-0.0058852786645698,-11.190600254687444,1
2025-03-07 12:06:17.346,-0.0069263654287579,-11.121751651646289,1
2025-03-07 12:06:17.354,-0.0079996081560218,-10.843018988787176,1
2025-03-07 12:06:17.362,-0.0091115739824928,-10.382526091394986,1
2025-03-07 12:06:17.370,-0.0102692806769711,-9.771891512230848,1
2025-03-07 12:06:17.378,-0.0114800163644852,-9.045081204228778,1
2025-03-07 12:06:17.385,-0.0127511142727788,-8.237248389677235,1
2025-03-07 12:06:17.393,-0.0140896862746433,-7.383601328316228,1
2025-03-07 12:06:17.401,-0.0155023224844031,-6.518336037360493,1
2025-03-07 12:06:17.409,-0.0169947671692008,-5.673666122632159,1
2025-03-07 12:06:17.417,-0.0185715837595828,-4.878976033093643,1
2025-03-07 12:06:17.424,-0.0202358238204789,-4.160117568583207,1
2025-03-07 12:06:17.432,-0.0219887162109289,-3.5388626760300217,1
2025-03-07 12:06:17.440,-0.0238293930723624,-3.032518769763896,1
2025-03-07 12:06:17.448,-0.0257546688191066,-2.653706283708833,1
2025-03-07 12:06:17.456,-0.0277588870628355,-2.4102921518315257,1
2025-03-07 12:06:17.464,-0.029833848208947,-2.305467628222898,1
2025-03-07 12:06:17.471,-0.0319688271722661,-2.3379544676581943,1
2025-03-07 12:06:17.479,-0.0341506864845219,-2.502320111642505,1
2025-03-07 12:06:17.487,-0.0363640853481404,-2.7893802379023085,1
2025-03-07 12:06:17.495,-0.0385917801483272,-3.1866658652987923,1
2025-03-07 12:06:17.503,-0.0408150068464405,-3.678932151924328,1
2025-03-07 12:06:17.510,-0.0430139310799052,-4.248687027412709,1
2025-03-07 12:06:17.518,-0.0451681483368572,-4.87671975915786,1
2025-03-07 12:06:17.526,-0.0472572146418486,-5.542612318104367,1
2025-03-07 12:06:17.534,-0.0492611876280711,-6.2252197975929695,1
2025-03-07 12:06:17.542,-0.0511611582024995,-6.903109939401438,1
2025-03-07 12:06:17.549,-0.0529397539162191,-7.554955815950429,1
2025-03-07 12:06:17.557,-0.0545815965842622,-8.159879688484711,1
2025-03-07 12:06:17.565,-0.0560736986910953,-8.697749796175142,1
2025-03-07 12:06:17.573,-0.05740578572607,-9.14943512808902,1
2025-03-07 12:06:17.581,-0.0585705347803162,-9.497025898251657,1
2025-03-07 12:06:17.589,-0.059563723182809,-9.72402931238768,1
2025-03-07 12:06:17.596,-0.0603842841958491,-9.815551146815254,1
2025-03-07 12:06:17.604,-0.0610342695552179,-9.758473570794717,1
2025-03-07 12:06:17.612,-0.0615187209243803,-9.541638512706356,1
2025-03-07 12:06:17.620,-0.0618454542673939,-9.156043745689637,1
2025-03-07 12:06:17.628,-0.0620247628964003,-8.595055867042635,1
2025-03-07 12:06:17.635,-0.0620690466851562,-7.854640652247959,1
2025-03-07 12:06:17.643,-0.0619923768217814,-6.933607124331884,1
2025-03-07 12:06:17.651,-0.0618100076470201,-5.833857385652043,1
2025-03-07 12:06:17.659,-0.0615378496898286,-4.560630134061381,1
2025-03-07 12:06:17.667,-0.0611919209261455,-3.122722157318429,1
2025-03-07 12:06:17.674,-0.0607877962097757,-1.5326692827750543,1
2025-03-07 12:06:17.682,-0.0603400771321132,0.1931334667851137,1
2025-03-07 12:06:17.690,-0.0598619056351088,2.034393171806216,1
2025-03-07 12:06:17.698,-0.0593645441705369,3.96698137858772,1
2025-03-07 12:06:17.706,-0.0588570429144931,5.963114566916818,1
2025-03-07 12:06:17.714,-0.0583460103810148,7.991665728756695,1
2025-03-07 12:06:17.721,-0.057835497787297,10.018614721419247,1
2025-03-07 12:06:17.729,-0.0573270003367271,12.00763866845989,1
2025-03-07 12:06:17.737,-0.0568195713746941,13.920836588408822,1
2025-03-07 12:06:17.745,-0.0563100391866568,15.719575040150708,1
2025-03-07 12:06:17.753,-0.0557933114023341,17.365434319564983,1
2025-03-07 12:06:17.760,-0.0552627483426006,18.82122805987924,1
2025-03-07 12:06:17.768,-0.0547105840693023,20.052063384755385,1
2025-03-07 12:06:17.776,-0.0541283726088838,21.026404393235826,1
2025-03-07 12:06:17.784,-0.0535074370193853,21.7170990015404,1
2025-03-07 12:06:17.792,-0.0528393004055756,22.1023282216896,1
2025-03-07 12:06:17.799,-0.0521160801527297,22.166437917121687,1
2025-03-07 12:06:17.807,-0.0513308292723632,21.900615937815832,1
2025-03-07 12:06:17.815,-0.0504778119329045,21.30338220207818,1
2025-03-07 12:06:17.823,-0.0495527040969996,20.380865571244964,1
2025-03-07 12:06:17.831,-0.0485527144114906,19.146848997431857,1
2025-03-07 12:06:17.839,-0.0474766245365538,17.622573099154565,1
2025-03-07 12:06:17.846,-0.0463247516735644,15.836297679428078,1
2025-03-07 12:06:17.854,-0.0450988392882131,13.82263035560046,1
2025-03-07 12:06:17.862,-0.0438018850710614,11.6216410012672,1
2025-03-07 12:06:17.870,-0.0424379179011617,9.277789671596077,1
2025-03-07 12:06:17.878,-0.0410117377432314,6.838703657672142,1
2025-03-07 12:06:17.885,-0.0395286339229871,4.353845883390001,1
2025-03-07 12:06:17.893,-0.037994098029878,1.873121668187036,1
2025-03-07 12:06:17.901,-0.0364135475987382,-0.5545263357531027,1
2025-03-07 12:06:17.909,-0.0347920756443187,-2.882484622353622,1
2025-03-07 12:06:17.917,-0.0331342393301276,-5.067747942415537,1
2025-03-07 12:06:17.924,-0.0314438988248574,-7.072066035236622,1
2025-03-07 12:06:17.932,-0.029724114701932,-8.862918698956124,1
2025-03-07 12:06:17.940,-0.0279771089502579,-10.414287308229287,1
2025-03-07 12:06:17.948,-0.0262042908492876,-11.707199560480513,1
2025-03-07 12:06:17.956,-0.0244063447701688,-12.73003374492573,1
2025-03-07 12:06:17.964,-0.0225833725779202,-13.478578706062324,1
2025-03-07 12:06:17.971,-0.0207350790646761,-13.955855430958032,1
2025-03-07 12:06:17.979,-0.0188609853181284,-14.171715357770893,1
2025-03-07 12:06:17.987,-0.0169606529003866,-14.142238653492075,1
2025-03-07 12:06:17.995,-0.0150339018130895,-13.888962486133188,1
2025-03-07 12:06:18.003,-0.0130810073759473,-13.437974462621945,1
2025-03-07 12:06:18.010,-0.0111028645050255,-12.818909770761293,1
2025-03-07 12:06:18.018,-0.0091011114673676,-12.063892111762955,1
2025-03-07 12:06:18.026,-0.0070782084225061,-11.20645829476054,1
2025-03-07 12:06:18.034,-0.0050374687430483,-10.280504520844834,1
2025-03-07 12:06:18.042,-0.0029830433059062,-9.319289107021817,1
2025-03-07 12:06:18.049,-0.0009198600125368,-8.354521929675633,1
2025-03-07 12:06:18.057,0.0011464767869208,-7.415565470995356,1
2025-03-07 12:06:18.065,0.00320981943546,-6.528766314191381,1
2025-03-07 12:06:18.073,0.0052636325552295,-5.716929543105974,1
2025-03-07 12:06:18.081,0.0073011597223501,-4.998942043862836,1
2025-03-07 12:06:18.089,0.0093155905278316,-4.389544450067686,1
2025-03-07 12:06:18.096,0.0113002193178394,-3.899245662624424,1
2025-03-07 12:06:18.104,0.0132485891384389,-3.534368724167907,1
2025-03-07 12:06:18.112,0.0151546161655657,-3.297212519929586,1
2025-03-07 12:06:18.120,0.017012691264195,-3.186310463183595,1
2025-03-07 12:06:18.128,0.0188177567558615,-3.196765117814819,1
2025-03-07 12:06:18.135,0.0205653582078072,-3.3206366792468844,1
2025-03-07 12:06:18.143,0.0222516728265508,-3.5473633883741984,1
2025-03-07 12:06:18.151,0.0238735173228027,-3.864193240679,1
2025-03-07 12:06:18.159,0.0254283386593519,-4.256608662540297,1
2025-03-07 12:06:18.167,0.0269141911820858,-4.70872899252007,1
2025-03-07 12:06:18.174,0.0283297037199171,-5.203679420019949,1
2025-03-07 12:06:18.182,0.0296740403845968,-5.723919263649574,1
2025-03-07 12:06:18.190,0.0309468586748842,-6.251526865565904,1
2025-03-07 12:06:18.198,0.0321482679021403,-6.768442670598756,1
2025-03-07 12:06:18.206,0.0332787901278653,-7.256675977652024,1
2025-03-07 12:06:18.214,0.0343393249879914,-7.698484131051726,1
2025-03-07 12:06:18.221,0.0353311189057416,-8.0765353270854,1
2025-03-07 12:06:18.229,0.0362557381241242,-8.374067565644836,1
2025-03-07 12:06:18.237,0.0371150438500594,-8.575056468543032,1
2025-03-07 12:06:18.245,0.0379111669517579,-8.66440368190037,1
2025-03-07 12:06:18.253,0.0386464794357238,-8.628155424992348,1
2025-03-07 12:06:18.260,0.0393235604288402,-8.453757561495168,1
2025-03-07 12:06:18.268,0.0399451553009452,-8.130349538124747,1
2025-03-07 12:06:18.276,0.0405141274899363,-7.649094905907706,1
2025-03-07 12:06:18.284,0.041033403438642,-7.003541204642412,1
2025-03-07 12:06:18.292,0.0415059118760548,-6.189997080096058,1
2025-03-07 12:06:18.300,0.0419345192496155,-5.20790996273286,1
2025-03-07 12:06:18.307,0.0423219630916243,-4.0602238130598565,1
2025-03-07 12:06:18.315,0.0426707846589507,-2.753693660290693,1
2025-03-07 12:06:18.323,0.0429832620545417,-1.2991322161617054,1
2025-03-07 12:06:18.331,0.0432613456787057,0.288436043475006,1
2025-03-07 12:06:18.339,0.0435065988879636,1.989736143193531,1
2025-03-07 12:06:18.346,0.0437201474064046,3.781338550147814,1
2025-03-07 12:06:18.354,0.043902640990075,5.635904080496574,1
2025-03-07 12:06:18.362,0.0440542302702409,7.522585701857498,1
2025-03-07 12:06:18.370,0.0441745609084777,9.40758785261641,1
2025-03-07 12:06:18.378,0.0442627863735152,11.254876054872089,1
2025-03-07 12:06:18.385,0.0443175998913388,13.027021677822574,1
2025-03-07 12:06:18.393,0.0443372854807332,14.686159171507777,1
2025-03-07 12:06:18.401,0.0443197874231882,16.195026368887806,1
2025-03-07 12:06:18.409,0.0442627968346905,17.518052926758294,1
2025-03-07 12:06:18.417,0.0441638530201209,18.622457949052052,1
2025-03-07 12:06:18.425,0.0440204560882915,19.479315527398324,1
2025-03-07 12:06:18.432,0.0438301862319843,20.06454646681249,1
2025-03-07 12:06:18.440,0.0435908243836691,20.35979587008126,1
2025-03-07 12:06:18.448,0.0433004685860739,20.3531594769028,1
2025-03-07 12:06:18.456,0.0429576402092047,20.03972655798232,1
2025-03-07 12:06:18.464,0.0425613741859092,19.42191354707615,1
2025-03-07 12:06:18.471,0.04211128804983,18.509570198171936,1
2025-03-07 12:06:18.479,0.0416076259363885,17.31984857964543,1
2025-03-07 12:06:18.487,0.04105127562491,15.876834322843663,1
2025-03-07 12:06:18.495,0.0404437586728071,14.210948854708352,1
2025-03-07 12:06:18.503,0.0397871954595829,12.358140462765146,1
2025-03-07 12:06:18.510,0.0390842486589382,10.35889055765754,1
2025-03-07 12:06:18.518,0.0383380503389731,8.257069017570124,1
2025-03-07 12:06:18.526,0.0375521190566874,6.098678658931497,1
2025-03-07 12:06:18.534,0.0367302733337715,3.930533374597764,1
2025-03-07 12:06:18.542,0.0358765467470296,1.79891708821014,1
2025-03-07 12:06:18.550,0.0349951080740423,-0.2517287441038732,1
2025-03-07 12:06:18.557,0.0340901880208215,-2.180042836576797,1
2025-03-07 12:06:18.565,0.0331660123917333,-3.948864222034481,1
2025-03-07 12:06:18.573,0.0322267405535346,-5.526197414424985,1
2025-03-07 12:06:18.581,0.0312764079454252,-6.885992047215109,1
2025-03-07 12:06:18.589,0.0303188719772005,-8.008714536605035,1
2025-03-07 12:06:18.596,0.0293577614465328,-8.881698159783783,1
2025-03-07 12:06:18.604,0.0283964302414952,-9.499267055683402,1
2025-03-07 12:06:18.612,0.0274379164690929,-9.862638574178291,1
2025-03-07 12:06:18.620,0.0264849082774043,-9.97961668635751,1
2025-03-07 12:06:18.628,0.0255397175557697,-9.864096459454933,1
2025-03-07 12:06:18.635,0.0246042624472028,-9.535405616216792,1
2025-03-07 12:06:18.643,0.0236800592363817,-9.017513752844517,1
2025-03-07 12:06:18.651,0.0227682237339533,-8.338142785571643,1
2025-03-07 12:06:18.659,0.0218694818129654,-7.5278136187656175,1
2025-03-07 12:06:18.667,0.0209841883149137,-6.61886393458372,1
2025-03-07 12:06:18.675,0.0201123531780556,-5.644470516829163,1
2025-03-07 12:06:18.682,0.0192536733929369,-4.637706815809352,1
2025-03-07 12:06:18.690,0.0184075692986488,-3.630662755873484,1
2025-03-07 12:06:18.698,0.0175732238317393,-2.653649330805384,1
2025-03-07 12:06:18.706,0.0167496236548536,-1.7345055846890176,1
2025-03-07 12:06:18.714,0.0159356016434625,-0.8980203930415448,1
2025-03-07 12:06:18.721,0.0151298809888271,-0.1654762782014703,1
2025-03-07 12:06:18.729,0.014331122055698,0.4456824747313196,1
2025-03-07 12:06:18.737,0.0135379737399095,0.9220597070093262,1
2025-03-07 12:06:18.745,0.0127491308914955,1.254401608147507,1
2025-03-07 12:06:18.753,0.0119633981839005,1.437584945468272,1
2025-03-07 12:06:18.760,0.0111797589637228,1.4705115525111103,1
2025-03-07 12:06:18.768,0.0103974457416954,1.3559230709954175,1
2025-03-07 12:06:18.776,0.0096160075712918,1.100150828512735,1
2025-03-07 12:06:18.784,0.0088353688350598,0.7128157851239584,1
2025-03-07 12:06:18.792,0.0080558740130335,0.2064927576317927,1
2025-03-07 12:06:18.800,0.0072783138700519,-0.4036482701664972,1
2025-03-07 12:06:18.807,0.0065039300562361,-1.1002128863923553,1
2025-03-07 12:06:18.815,0.0057343969859042,-1.8639565004682757,1
2025-03-07 12:06:18.823,0.0049717815029061,-2.674156095285529,1
2025-03-07 12:06:18.831,0.0042184819835878,-3.5089760272072232,1
2025-03-07 12:06:18.839,0.0034771494243896,-4.345826816775331,1
2025-03-07 12:06:18.846,0.0027505941184067,-5.161717953414195,1
2025-03-07 12:06:18.854,0.0020416827507102,-5.93360735590295,1
2025-03-07 12:06:18.862,0.0013532317201931,-6.638751165005913,1
2025-03-07 12:06:18.870,0.0006879028524992,-7.255057905125677,1
2025-03-07 12:06:18.878,4.8107311018558576e-05,-7.761450689927312,1
2025-03-07 12:06:18.885,-0.0005640775176716,-8.13824006297508,1
2025-03-07 12:06:18.893,-0.0011469749167522,-8.367508309349589,1
2025-03-07 12:06:18.901,-0.0016993578404015,-8.433503747859458,1
2025-03-07 12:06:18.909,-0.00222047949237,-8.323040760436148,1
2025-03-07 12:06:18.917,-0.0027100855980263,-8.025898316518397,1
2025-03-07 12:06:18.925,-0.0031684090011351,-7.53520671216868,1
2025-03-07 12:06:18.932,-0.0035961478355727,-6.847809390069187,1
2025-03-07 12:06:18.940,-0.0039944290846432,-5.964584273533173,1
2025-03-07 12:06:18.948,-0.0043647596696601,-4.890707275099484,1
2025-03-07 12:06:18.956,-0.0047089674353894,-3.6358397527446304,1
2025-03-07 12:06:18.964,-0.0050291346558171,-2.214221868086569,1
2025-03-07 12:06:18.971,-0.0053275268003316,-0.6446551721636199,1
2025-03-07 12:06:18.979,-0.0056065191117566,1.0496396517249016,1
2025-03-07 12:06:18.987,-0.005868523214898,2.841300167779358,1
2025-03-07 12:06:18.995,-0.0061159157549027,4.699240129633704,1
2025-03-07 12:06:19.003,-0.0063509710407877,6.589207757705192,1
2025-03-07 12:06:19.010,-0.0065757998189622,8.474477926169895,1
2025-03-07 12:06:19.018,-0.0067922964992269,10.316665445227407,1
2025-03-07 12:06:19.026,-0.0070020971034872,12.076640411468864,1
2025-03-07 12:06:19.034,-0.0072065497077657,13.715520918007316,1
2025-03-07 12:06:19.042,-0.0074066983552664,15.19571358589166,1
2025-03-07 12:06:19.050,-0.0076032805894361,16.481968662853745,1
2025-03-07 12:06:19.057,-0.0077967379802237,17.542414032332907,1
2025-03-07 12:06:19.065,-0.0079872383054353,18.34953151342516,1
2025-03-07 12:06:19.073,-0.0081747074110039,18.88103937072176,1
2025-03-07 12:06:19.081,-0.0083588681970157,19.120646986051288,1
2025-03-07 12:06:19.089,-0.0085392837593233,19.05865110735639,1
2025-03-07 12:06:19.096,-0.0087154017034208,18.692347871699948,1
2025-03-07 12:06:19.104,-0.008886597137162,18.02624075192479,1
2025-03-07 12:06:19.112,-0.0090522125310503,17.072031517795676,1
2025-03-07 12:06:19.120,-0.0092115929688748,15.848389007194555,1
2025-03-07 12:06:19.128,-0.0093641151096066,14.380498691685686,1
2025-03-07 12:06:19.135,-0.0095092079335201,12.69940436113822,1
2025-03-07 12:06:19.143,-0.0096463637135211,10.841161375702589,1
2025-03-07 12:06:19.151,-0.0097751387156926,8.845828460918405,1
2025-03-07 12:06:19.159,-0.0098951444211015,6.756331586442496,1
2025-03-07 12:06:19.167,-0.0100060311523794,4.617238736332061,1
2025-03-07 12:06:19.175,-0.0101074667133789,2.473488065386487,1
2025-03-07 12:06:19.182,-0.0101991129463417,0.3691138302879009,1
2025-03-07 12:06:19.190,-0.0102806030639902,-1.6539855323071615,1
2025-03-07 12:06:19.198,-0.0103515224718066,-3.557194747635384,1
2025-03-07 12:06:19.206,-0.0104113956974408,-5.306205794250339,1
2025-03-07 12:06:19.214,-0.0104596818272401,-6.871885457944193,1
2025-03-07 12:06:19.221,-0.010495780262619,-8.230959773525608,1
2025-03-07 12:06:19.229,-0.0105190476570958,-9.366496464207074,1
2025-03-07 12:06:19.237,-0.0105288258416446,-10.268174749897282,1
2025-03-07 12:06:19.245,-0.0105244795661547,-10.932340329108126,1
2025-03-07 12:06:19.253,-0.0105054418710114,-11.361851550180695,1
2025-03-07 12:06:19.260,-0.0104712637512302,-11.565730408322151,1
2025-03-07 12:06:19.268,-0.0104216637829249,-11.558638709724994,1
2025-03-07 12:06:19.276,-0.0103565731034611,-11.360205266938202,1
2025-03-07 12:06:19.284,-0.0102761718225638,-10.994234139895145,1
2025-03-07 12:06:19.292,-0.0101809143026641,-10.48782660629394,1
2025-03-07 12:06:19.300,-0.0100715422268879,-9.87045070793176,1
2025-03-07 12:06:19.307,-0.0099490855260179,-9.172991929213053,1
2025-03-07 12:06:19.315,-0.0098148518911814,-8.426816942825925,1
2025-03-07 12:06:19.323,-0.0096704057564657,-7.662879581320267,1
2025-03-07 12:06:19.331,-0.0095175374077779,-6.910894470008579,1
2025-03-07 12:06:19.339,-0.0093582226314468,-6.198599307657688,1
2025-03-07 12:06:19.346,-0.0091945735032512,-5.551121833484549,1
2025-03-07 12:06:19.354,-0.0090287815328046,-4.990462305280143,1
2025-03-07 12:06:19.362,-0.0088630549871629,-4.535097074053585,1
2025-03-07 12:06:19.370,-0.0086995525555862,-4.199703812349814,1
2025-03-07 12:06:19.378,-0.0085403157201974,-3.995004354555309,1
2025-03-07 12:06:19.385,-0.0083872024969906,-3.927717125159533,1
2025-03-07 12:06:19.393,-0.008241825684498,-4.000607914410099,1
2025-03-07 12:06:19.401,-0.0081054992831235,-4.212625417396021,1
2025-03-07 12:06:19.409,-0.0079791970332297,-4.559106543391395,1
2025-03-07 12:06:19.417,-0.007863526758927,-5.03203603854645,1
2025-03-07 12:06:19.425,-0.0077587232787045,-5.620345407697154,1
2025-03-07 12:06:19.432,-0.0076646610899745,-6.310237384059206,1
2025-03-07 12:06:19.440,-0.0075808860056408,-7.085524148993077,1
2025-03-07 12:06:19.448,-0.0075066628504915,-7.927969977290001,1
2025-03-07 12:06:19.456,-0.0074410348179465,-8.817631774947621,1
2025-03-07 12:06:19.464,-0.0073828894475285,-9.733193872311183,1
2025-03-07 12:06:19.471,-0.00733102627223,-10.652296227485571,1
2025-03-07 12:06:19.479,-0.0072842217462549,-11.551857688592344,1
2025-03-07 12:06:19.487,-0.0072412879573105,-12.408397981189143,1
2025-03-07 12:06:19.495,-0.0072011227793007,-13.198363476233194,1
2025-03-07 12:06:19.503,-0.0071627503752201,-13.898462439506796,1
2025-03-07 12:06:19.510,-0.0071253520101153,-14.486015298834,1
2025-03-07 12:06:19.518,-0.0070882876845041,-14.93932447603058,1
2025-03-07 12:06:19.526,-0.0070511091372938,-15.238066553471908,1
2025-03-07 12:06:19.534,-0.0070135645650357,-15.363707067369871,1
2025-03-07 12:06:19.542,-0.006975595243002,-15.299935173645162,1
2025-03-07 12:06:19.550,-0.0069373242446435,-15.033111989995648,1
2025-03-07 12:06:19.557,-0.0068990376716047,-14.552722787756442,1
2025-03-07 12:06:19.565,-0.0068611592139193,-13.851819630557936,1
2025-03-07 12:06:19.573,-0.0068242193459179,-12.927437800881876,1
2025-03-07 12:06:19.581,-0.0067888207805335,-11.78096669976698,1
2025-03-07 12:06:19.589,-0.006755601805769,-10.418454120115303,1
2025-03-07 12:06:19.596,-0.0067251990692694,-8.850822121221684,1
2025-03-07 12:06:19.604,-0.0066982116684748,-7.093973362252862,1
2025-03-07 12:06:19.612,-0.0066751689335973,-5.168768806161945,1
2025-03-07 12:06:19.620,-0.0066565043950399,-3.1008612111757987,1
2025-03-07 12:06:19.628,-0.006642537719604,-0.9203737016173354,1
2025-03-07 12:06:19.635,-0.0066334653107452,1.3385812453091694,1
2025-03-07 12:06:19.643,-0.0066293595031052,3.638540145144989,1
2025-03-07 12:06:19.651,-0.0066301759913034,5.939474522134929,1
2025-03-07 12:06:19.659,-0.0066357689449595,8.199707448336198,1
2025-03-07 12:06:19.667,-0.0066459129495242,10.37693633902893,1
2025-03-07 12:06:19.675,-0.0066603306286641,12.429331413998748,1
2025-03-07 12:06:19.682,-0.0066787247014991,14.316674097015166,1
2025-03-07 12:06:19.690,-0.0067008131735179,16.00149599599591,1
2025-03-07 12:06:19.698,-0.0067263661260924,17.45017721509933,1
2025-03-07 12:06:19.706,-0.0067552421804101,18.633962727862787,1
2025-03-07 12:06:19.714,-0.0067874224423298,19.52985741359585,1
2025-03-07 12:06:19.721,-0.0068230397637202,20.12136405028133,1
2025-03-07 12:06:19.729,-0.0068624013527706,20.39903389432553,1
2025-03-07 12:06:19.737,-0.0069060029017557,20.360806211181,1
2025-03-07 12:06:19.745,-0.0069545324939639,20.01212094504588,1
2025-03-07 12:06:19.753,-0.0070088628661776,19.36579728786557,1
2025-03-07 12:06:19.760,-0.0070700313023281,18.441679864618678,1
2025-03-07 12:06:19.768,-0.007139207367214,17.266063219339525,1
2025-03-07 12:06:19.776,-0.0072176495847005,15.870913885493035,1
2025-03-07 12:06:19.784,-0.0073066529013479,14.292917181047478,1
2025-03-07 12:06:19.792,-0.0074074893500809,12.572382629362853,1
2025-03-07 12:06:19.800,-0.0075213447215816,10.75204725699783,1
2025-03-07 12:06:19.807,-0.0076492542696419,8.875819703243357,1
2025-03-07 12:06:19.815,-0.0077920405501184,6.987509920249977,1
2025-03-07 12:06:19.823,-0.0079502564166742,5.129589172061028,1
2025-03-07 12:06:19.831,-0.0081241359876489,3.3420230807507942,1
2025-03-07 12:06:19.839,-0.0083135560963004,1.661216734778166,1
2025-03-07 12:06:19.846,-0.008518010344764,0.1191055687462377,1
2025-03-07 12:06:19.854,-0.008736597424451,-1.2575808774746255,1
2025-03-07 12:06:19.862,-0.0089680248865001,-2.447862767411324,1
2025-03-07 12:06:19.870,-0.0092106290523792,-3.436849920308099,1
2025-03-07 12:06:19.878,-0.0094624112544606,-4.215874794294933,1
2025-03-07 12:06:19.885,-0.009721090023063,-4.78242349996054,1
2025-03-07 12:06:19.893,-0.009984167959747,-5.139877397070786,1
2025-03-07 12:06:19.901,-0.0102490107524075,-5.297084493636114,1
2025-03-07 12:06:19.909,-0.010512934440569,-5.267785367372836,1
2025-03-07 12:06:19.917,-0.0107732962043135,-5.069922454449377,1
2025-03-07 12:06:19.925,-0.011027583924898,-4.724864175747367,1
2025-03-07 12:06:19.932,-0.0112735003336,-4.256576468670211,1
2025-03-07 12:06:19.940,-0.0115090382316629,-3.6907739240237647,1
2025-03-07 12:06:19.948,-0.0117325437576018,-3.054081025467825,1
2025-03-07 12:06:19.956,-0.0119427651501407,-2.373231137632088,1
2025-03-07 12:06:19.964,-0.0121388850806994,-1.6743271067287058,1
2025-03-07 12:06:19.971,-0.0123205352817753,-0.9821828631193648,1
2025-03-07 12:06:19.979,-0.0124877927514737,-0.3197604950991728,1
2025-03-07 12:06:19.987,-0.01264115744935,0.2922878586359265,1
2025-03-07 12:06:19.995,-0.0127815122733671,0.8359690380664918,1
2025-03-07 12:06:20.003,-0.0129100669792804,1.2961893866438254,1
2025-03-07 12:06:20.010,-0.0130282881980944,1.6608917328835997,1
2025-03-07 12:06:20.018,-0.0131378178566199,1.921097570269932,1
2025-03-07 12:06:20.026,-0.0132403825471207,2.0708662256483934,1
2025-03-07 12:06:20.034,-0.0133376970055951,2.1071850299608474,1
2025-03-07 12:06:20.042,-0.0134313656032057,2.0298058447487404,1
2025-03-07 12:06:20.050,-0.0135227861390948,1.841043734451812,1
2025-03-07 12:06:20.057,-0.0136130600064021,1.5455531337025084,1
2025-03-07 12:06:20.065,-0.0137029121603959,1.150095608048788,1
2025-03-07 12:06:20.073,-0.0137926235661463,0.6633113478235009,1
2025-03-07 12:06:20.081,-0.0138819781126973,0.0955039976162897,1
2025-03-07 12:06:20.089,-0.0139702254037645,-0.5415545400145366,1
2025-03-07 12:06:20.096,-0.0140560604177576,-1.2347959085796745,1
2025-03-07 12:06:20.104,-0.0141376207176617,-1.9700035885889544,1
2025-03-07 12:06:20.112,-0.0142125015498887,-2.7319407464323167,1
2025-03-07 12:06:20.120,-0.0142777888360419,-3.504463623656937,1
2025-03-07 12:06:20.128,-0.0143301099181192,-4.270628915728382,1
2025-03-07 12:06:20.135,-0.0143657019583363,-5.01280546029481,1
2025-03-07 12:06:20.143,-0.0143804977887282,-5.712801696135986,1
2025-03-07 12:06:20.151,-0.014370228393022,-6.352020656814126,1
2025-03-07 12:06:20.159,-0.0143305401208602,-6.911653656617821,1
2025-03-07 12:06:20.167,-0.014257123633864,-7.372922287086262,1
2025-03-07 12:06:20.175,-0.01414585071527,-7.717375896281385,1
2025-03-07 12:06:20.182,-0.0139929141261402,-7.927248442540985,1
2025-03-07 12:06:20.190,-0.0137949644499888,-7.985874616203464,1
2025-03-07 12:06:20.198,-0.0135492368694263,-7.878160567986989,1
2025-03-07 12:06:20.206,-0.0132536608197126,-7.591099677762455,1
2025-03-07 12:06:20.214,-0.0129069466279314,-7.114318792753227,1
2025-03-07 12:06:20.221,-0.0125086451912782,-6.44063555248009,1
2025-03-07 12:06:20.229,-0.0120591789914692,-5.566603129017324,1
2025-03-07 12:06:20.237,-0.0115598447753334,-4.493015296312573,1
2025-03-07 12:06:20.245,-0.0110127895178747,-3.2253425443370696,1
2025-03-07 12:06:20.253,-0.0104209615972329,-1.774069272469449,1
2025-03-07 12:06:20.260,-0.0097880387853757,-0.1549031555094612,1
2025-03-07 12:06:20.268,-0.0091183343130345,1.6111693048987796,1
2025-03-07 12:06:20.276,-0.0084166823694431,3.4980022549145007,1
2025-03-07 12:06:20.284,-0.0076883051307336,5.4745997061288,1
2025-03-07 12:06:20.292,-0.0069386647052895,7.505621267037117,1
2025-03-07 12:06:20.300,-0.0061733048804084,9.552082144960035,1
2025-03-07 12:06:20.307,-0.0053976887286532,11.572235570696323,1
2025-03-07 12:06:20.315,-0.0046170387087797,13.52261614635657,1
2025-03-07 12:06:20.323,-0.0038361860260842,15.359213483309388,1
2025-03-07 12:06:20.331,-0.0030594358789124,17.038737428034846,1
2025-03-07 12:06:20.339,-0.0022904546930217,18.519929661035626,1
2025-03-07 12:06:20.346,-0.0015321844212661,19.764871910843095,1
2025-03-07 12:06:20.354,-0.0007867876611738,20.740238762014577,1
2025-03-07 12:06:20.362,-5.5625920755331805e-05,21.418443238750687,1
2025-03-07 12:06:20.370,0.0006607282543314,21.778626065333164,1
2025-03-07 12:06:20.378,0.0013624464669149,21.807444661771243,1
2025-03-07 12:06:20.385,0.0020503699759065,21.499625328163813,1
2025-03-07 12:06:20.393,0.0027259098603327,20.85825139004786,1
2025-03-07 12:06:20.401,0.0033909269545663,19.89477089623733,1
2025-03-07 12:06:20.409,0.00404759727422,18.628719262312043,1
2025-03-07 12:06:20.417,0.0046982693081365,17.08716444999271,1
2025-03-07 12:06:20.425,0.005345319993555,15.303894244633334,1
2025-03-07 12:06:20.432,0.0059910160076889,13.31837632429938,1
2025-03-07 12:06:20.440,0.0066373862006805,11.174531528428329,1
2025-03-07 12:06:20.448,0.0072861099755449,8.919368527001279,1
2025-03-07 12:06:20.456,0.0079384254764427,6.601533559830528,1
2025-03-07 12:06:20.464,0.0085950604640587,4.269831789289831,1
2025-03-07 12:06:20.471,0.009256187602126,1.971776971049999,1
2025-03-07 12:06:20.479,0.0099214047217655,-0.2477763617920429,1
2025-03-07 12:06:20.487,0.0105897396385363,-2.347868991575239,1
2025-03-07 12:06:20.495,0.0112596781332412,-4.292499309833305,1
2025-03-07 12:06:20.503,0.0119292126335555,-6.051478575659616,1
2025-03-07 12:06:20.510,0.0125959081353161,-7.601055923854705,1
2025-03-07 12:06:20.518,0.0132569812590255,-8.924300540123895,1
2025-03-07 12:06:20.526,0.0139093881494843,-10.01123908669631,1
2025-03-07 12:06:20.534,0.0145499171881724,-10.858756619912404,1
2025-03-07 12:06:20.542,0.015175283067725,-11.470278417968508,1
2025-03-07 12:06:20.550,0.0157822192752203,-11.855257949704878,1
2025-03-07 12:06:20.557,0.0163675660167639,-12.028502385942216,1
2025-03-07 12:06:20.565,0.0169283501162202,-12.009371414672556,1
2025-03-07 12:06:20.573,0.0174618529912635,-11.820887606513931,1
2025-03-07 12:06:20.581,0.0179656631016196,-11.48879721559296,1
2025-03-07 12:06:20.589,0.01843771055035,-11.040619201603104,1
2025-03-07 12:06:20.596,0.0188762835142163,-10.50471760067557,1
2025-03-07 12:06:20.604,0.019280028200455,-9.909428395660564,1
2025-03-07 12:06:20.612,0.0196479353933196,-9.282267022879866,1
2025-03-07 12:06:20.620,0.0199793170844981,-8.649236908451156,1
2025-03-07 12:06:20.628,0.0202737764392975,-8.03425326767745,1
2025-03-07 12:06:20.635,0.0205311739858178,-7.458690136543096,1
2025-03-07 12:06:20.643,0.0207515927391528,-6.941052527242724,1
2025-03-07 12:06:20.651,0.0209353047860713,-6.496769968133582,1
2025-03-07 12:06:20.659,0.0210827413069635,-6.138102717285404,1
2025-03-07 12:06:20.667,0.0211944671564969,-5.874147798877206,1
2025-03-07 12:06:20.675,0.0212711604218545,-5.71092883491164,1
2025-03-07 12:06:20.682,0.0213135971310624,-5.651551526864096,1
2025-03-07 12:06:20.690,0.0213226412742001,-5.6964056422416345,1
2025-03-07 12:06:20.698,0.0212992400551911,-5.8433944980414365,1
2025-03-07 12:06:20.706,0.0212444236102423,-6.088174174554385,1
2025-03-07 12:06:20.714,0.0211593076130313,-6.424386944559871,1
2025-03-07 12:06:20.721,0.0210450968058102,-6.843876504935225,1
2025-03-07 12:06:20.729,0.0209030878592768,-7.336876334349738,1
2025-03-07 12:06:20.737,0.0207346708294521,-7.89216661869986,1
2025-03-07 12:06:20.745,0.0205413293225934,-8.497199415560441,1
2025-03-07 12:06:20.753,0.0203246399252323,-9.138195805154805,1
2025-03-07 12:06:20.760,0.0200862713896519,-9.80022245535897,1
2025-03-07 12:06:20.768,0.01982798351968,-10.46725810156256,1
2025-03-07 12:06:20.776,0.0195516248605476,-11.12226273355728,1
2025-03-07 12:06:20.784,0.0192591275778563,-11.74726365138398,1
2025-03-07 12:06:20.792,0.0189524977830673,-12.32347289869309,1
2025-03-07 12:06:20.800,0.018633800078619,-12.831449847704803,1
2025-03-07 12:06:20.807,0.0183051358511691,-13.251320887070833,1
2025-03-07 12:06:20.815,0.0179686155534868,-13.563065303186916,1
2025-03-07 12:06:20.823,0.0176263259194206,-13.746872659152292,1
2025-03-07 12:06:20.831,0.0172802936366237,-13.783572438153248,1
2025-03-07 12:06:20.839,0.0169324471402046,-13.655131660166912,1
2025-03-07 12:06:20.846,0.0165845779207611,-13.345210875138733,1
2025-03-07 12:06:20.854,0.0162383025022589,-12.839763676492666,1
2025-03-07 12:06:20.862,0.0158950263071222,-12.127659962348307,1
2025-03-07 12:06:20.870,0.0155559108493612,-11.20130888402156,1
2025-03-07 12:06:20.878,0.015221845841312,-10.057254031935596,1
2025-03-07 12:06:20.885,0.0148934277573601,-8.69671116602689,1
2025-03-07 12:06:20.893,0.0145709461596932,-7.126017916410685,1
2025-03-07 12:06:20.901,0.0142543786724747,-5.35696552627471,1
2025-03-07 12:06:20.909,0.0139433949136462,-3.406984982487417,1
2025-03-07 12:06:20.917,0.0136373689852779,-1.2991638022635703,1
2025-03-07 12:06:20.925,0.0133353993352653,0.9379247483319062,1
2025-03-07 12:06:20.932,0.0130363341024068,3.270591297845396,1
2025-03-07 12:06:20.940,0.0127387998327081,5.660602081739982,1
2025-03-07 12:06:20.948,0.0124412321165098,8.065947055045273,1
2025-03-07 12:06:20.956,0.0121419081152163,10.441789522256013,1
2025-03-07 12:06:20.964,0.0118389822934342,12.741573344197027,1
2025-03-07 12:06:20.971,0.0115305271218849,14.918255387724116,1
2025-03-07 12:06:20.979,0.0112145799528007,16.925623631602786,1
2025-03-07 12:06:20.987,0.0108891961227284,18.719655645017284,1
2025-03-07 12:06:20.995,0.0105525070436425,20.25986833561185,1
2025-03-07 12:06:21.003,0.0102027809147686,21.51060813779592,1
2025-03-07 12:06:21.010,0.0098384830518522,22.442231292553423,1
2025-03-07 12:06:21.018,0.0094583328863865,23.03212657517522,1
2025-03-07 12:06:21.026,0.0090613551977558,23.265537682730137,1
2025-03-07 12:06:21.034,0.0086469235931337,23.13614933221041,1
2025-03-07 12:06:21.042,0.0082147943969578,22.646409688407516,1
2025-03-07 12:06:21.050,0.0077651291333852,21.807571701526925,1
2025-03-07 12:06:21.057,0.0072985039613975,20.639446877447696,1
2025-03-07 12:06:21.065,0.0068159048980118,19.169876452536705,1
2025-03-07 12:06:21.073,0.006318708481021,17.43393637771979,1
2025-03-07 12:06:21.081,0.0058086486691289,15.472903391203609,1
2025-03-07 12:06:21.089,0.0052877721188877,13.333019245464502,1
2025-03-07 12:06:21.096,0.0047583851271259,11.064098365436076,1
2025-03-07 12:06:21.104,0.0042229959530025,8.718030440252287,1
2025-03-07 12:06:21.112,0.0036842556912223,6.347233382173029,1
2025-03-07 12:06:21.120,0.0031448996712857,4.00311353840673,1
2025-03-07 12:06:21.128,0.0026076901050254,1.7345889656491529,1
2025-03-07 12:06:21.136,0.0020753598437204,-0.4132719355512624,1
2025-03-07 12:06:21.143,0.0015505568230697,-2.400449857258728,1
2025-03-07 12:06:21.151,0.0010357890993564,-4.192973135624357,1
2025-03-07 12:06:21.159,0.0005333711860159,-5.763685552451508,1
2025-03-07 12:06:21.167,4.537329490106361e-05,-7.092763626916515,1
2025-03-07 12:06:21.175,-0.0004264244765323,-8.167974257868549,1
2025-03-07 12:06:21.182,-0.0008805712624332,-8.984674200537022,1
2025-03-07 12:06:21.190,-0.0013159768414322,-9.54556298916724,1
2025-03-07 12:06:21.198,-0.0017319349709136,-9.86021009331554,1
2025-03-07 12:06:21.206,-0.0021281384149998,-9.944384934204276,1
2025-03-07 12:06:21.214,-0.0025046850921239,-9.819224592860852,1
2025-03-07 12:06:21.221,-0.0028620742994156,-9.510278419469175,1
2025-03-07 12:06:21.229,-0.0032011919251844,-9.04647121047127,1
2025-03-07 12:06:21.237,-0.0035232842047851,-8.459027156031402,1
2025-03-07 12:06:21.245,-0.0038299206259987,-7.780395458739646,1
2025-03-07 12:06:21.253,-0.0041229474865784,-7.043215547762794,1
2025-03-07 12:06:21.261,-0.0044044339610011,-6.27935539856653,1
2025-03-07 12:06:21.268,-0.0046766123329197,-5.519050913548568,1
2025-03-07 12:06:21.276,-0.0049418136565702,-4.790167954084152,1
2025-03-07 12:06:21.284,-0.0052024000601679,-4.117601779672509,1
2025-03-07 12:06:21.292,-0.0054606954549979,-3.5228216786546405,1
2025-03-07 12:06:21.300,-0.0057189172734355,-3.0235617852771832,1
2025-03-07 12:06:21.307,-0.0059791124584921,-2.633652763921242,1
2025-03-07 12:06:21.315,-0.0062431008728138,-2.362983464907192,1
2025-03-07 12:06:21.323,-0.0065124285700623,-2.217577040065797,1
2025-03-07 12:06:21.331,-0.0067883323383167,-2.199762528454489,1
2025-03-07 12:06:21.339,-0.0070717161230452,-2.30842070868754,1
2025-03-07 12:06:21.346,-0.0073631396326017,-2.5392821257408382,1
2025-03-07 12:06:21.354,-0.0076628193435598,-2.885255626807267,1
2025-03-07 12:06:21.362,-0.0079706417251272,-3.3367674033003034,1
2025-03-07 12:06:21.370,-0.0082861875334262,-3.882093292970303,1
2025-03-07 12:06:21.378,-0.0086087647382192,-4.507670750968228,1
2025-03-07 12:06:21.386,-0.0089374465812029,-5.198381206084982,1
2025-03-07 12:06:21.393,-0.0092711108327433,-5.937798192305102,1
2025-03-07 12:06:21.401,-0.0096084766162934,-6.708401374323118,1
2025-03-07 12:06:21.409,-0.0099481361716783,-7.491761050999489,1
2025-03-07 12:06:21.417,-0.0102885804577964,-8.268701621342393,1
2025-03-07 12:06:21.425,-0.0106282190811786,-9.019455568513202,1
2025-03-07 12:06:21.432,-0.0109653960772643,-9.723821546735648,1
2025-03-07 12:06:21.440,-0.0112984032675459,-10.361340997254072,1
2025-03-07 12:06:21.448,-0.0116254924896279,-10.91150729800115,1
2025-03-07 12:06:21.456,-0.011944887476316,-11.354019766236943,1
2025-03-07 12:06:21.464,-0.0122547959268369,-11.669091954334576,1
2025-03-07 12:06:21.471,-0.0125534223667929,-11.837819743563744,1
2025-03-07 12:06:21.479,-0.0128389824790477,-11.842609949541636,1
2025-03-07 12:06:21.487,-0.0131097194510858,-11.66766476599186,1
2025-03-07 12:06:21.495,-0.0133639225057646,-11.299511703992168,1
2025-03-07 12:06:21.503,-0.0135999474148725,-10.727563084122757,1
2025-03-07 12:06:21.511,-0.0138162386181664,-9.944683978371168,1
2025-03-07 12:06:21.518,-0.0140113524408185,-8.947743143076718,1
2025-03-07 12:06:21.526,-0.0141839806757963,-7.738118275628834,1
2025-03-07 12:06:21.534,-0.0143329736358703,-6.322125162083939,1
2025-03-07 12:06:21.542,-0.0144573618433995,-4.711340187003612,1
2025-03-07 12:06:21.550,-0.0145563756508794,-2.922787388802927,1
2025-03-07 12:06:21.557,-0.0146294620322687,-0.9789648004388865,1
2025-03-07 12:06:21.565,-0.0146762975856338,1.0923098572416847,1
2025-03-07 12:06:21.573,-0.0146967967047147,3.2582471535591058,1
2025-03-07 12:06:21.581,-0.0146911141705066,5.481632437745741,1
2025-03-07 12:06:21.589,-0.0146596420871063,7.721566632155024,1
2025-03-07 12:06:21.596,-0.0146030017727967,9.934387695659952,1
2025-03-07 12:06:21.604,-0.0145220314953813,12.074749849939993,1
2025-03-07 12:06:21.612,-0.0144177708151694,14.096829064702275,1
2025-03-07 12:06:21.620,-0.0142914421828498,15.955615868301445,1
2025-03-07 12:06:21.628,-0.0141444305952517,17.608250711139195,1
2025-03-07 12:06:21.636,-0.013978262304534,19.015353192818058,1
2025-03-07 12:06:21.643,-0.0137945834184091,20.142294693922647,1
2025-03-07 12:06:21.651,-0.01359513873848,20.96036443830504,1
2025-03-07 12:06:21.659,-0.0133817507828599,21.44778174778658,1
2025-03-07 12:06:21.667,-0.0131562988958567,21.590512125873698,1
2025-03-07 12:06:21.675,-0.0129206984281731,21.382851606146478,1
2025-03-07 12:06:21.682,-0.0126768797867192,20.82775222154533,1
2025-03-07 12:06:21.690,-0.0124267667164988,19.936871124617696,1
2025-03-07 12:06:21.698,-0.0121722529022006,18.73033640898392,1
2025-03-07 12:06:21.706,-0.0119151761212957,17.236233622742578,1
2025-03-07 12:06:21.714,-0.0116572894972916,15.489827889471616,1
2025-03-07 12:06:21.721,-0.0114002294877783,13.532547021538829,1
2025-03-07 12:06:21.729,-0.0111454800941547,11.410760585170344,1
2025-03-07 12:06:21.737,-0.0108943327964735,9.174398132193526,1
2025-03-07 12:06:21.745,-0.0106478421574953,6.875456357622052,1
2025-03-07 12:06:21.753,-0.0104067777544728,4.566449442154208,1
2025-03-07 12:06:21.761,-0.0101715739045377,2.298859045670872,1
2025-03-07 12:06:21.768,-0.0099422796631081,0.1216401897817253,1
2025-03-07 12:06:21.776,-0.009718512879361,-1.9201634135605787,1
2025-03-07 12:06:21.784,-0.0094994233487747,-3.7866460471576153,1
2025-03-07 12:06:21.792,-0.0092836707270017,-5.44406724923588,1
2025-03-07 12:06:21.800,-0.0090694224696109,-6.865647031180942,1
2025-03-07 12:06:21.807,-0.0088543756396724,-8.032106512442446,1
2025-03-07 12:06:21.815,-0.0086358043748928,-8.931942254015583,1
2025-03-07 12:06:21.823,-0.0084106327156252,-9.561433597863012,1
2025-03-07 12:06:21.831,-0.0081755307116023,-9.924393024126276,1
2025-03-07 12:06:21.839,-0.007927030174607,-10.031679433703443,1
2025-03-07 12:06:21.846,-0.0076616550282257,-9.900502922971452,1
2025-03-07 12:06:21.854,-0.0073760601247051,-9.553556688164267,1
2025-03-07 12:06:21.862,-0.0070671718458158,-9.01801691574268,1
2025-03-07 12:06:21.870,-0.0067323236593171,-8.324454716130072,1
2025-03-07 12:06:21.878,-0.0063693799358018,-7.505705277750497,1
2025-03-07 12:06:21.886,-0.0059768419080602,-6.595738495083152,1
2025-03-07 12:06:21.893,-0.0055539308126889,-5.628572496714465,1
2025-03-07 12:06:21.901,-0.005100644699312,-4.63726699802503,1
2025-03-07 12:06:21.909,-0.0046177866035577,-3.653027536767462,1
2025-03-07 12:06:21.917,-0.00410696250764,-2.7044447803676297,1
2025-03-07 12:06:21.925,-0.0035705480164627,-1.8168856069303576,1
2025-03-07 12:06:21.932,-0.0030116234888873,-1.0120449388650663,1
2025-03-07 12:06:21.940,-0.0024338787781391,-0.3076597060155752,1
2025-03-07 12:06:21.948,-0.0018414905923301,0.2826208420702424,1
2025-03-07 12:06:21.956,-0.0012389774747855,0.7492206800153806,1
2025-03-07 12:06:21.964,-0.0006310392599809,1.0864960537624058,1
2025-03-07 12:06:21.971,-2.23891701466644e-05,1.2924899263535965,1
2025-03-07 12:06:21.979,0.0005824129569788,1.3686066115837372,1
2025-03-07 12:06:21.987,0.0011791183597994,1.3192328271493954,1
2025-03-07 12:06:21.995,0.0017639307366376,1.151331366698635,1
2025-03-07 12:06:22.003,0.0023336245752288,0.8740321357747061,1
2025-03-07 12:06:22.011,0.0028856343011409,0.4982425414757147,1
2025-03-07 12:06:22.018,0.0034181095202436,0.0362953502036093,1
2025-03-07 12:06:22.026,0.0039299338727098,-0.4983526382771053,1
2025-03-07 12:06:22.034,0.0044207075305909,-1.0913631387210387,1
2025-03-07 12:06:22.042,0.0048906955820056,-1.7276978919917283,1
2025-03-07 12:06:22.050,0.0053407462639388,-2.391742577908192,1
2025-03-07 12:06:22.057,0.0057721843249123,-3.0673819244504057,1
2025-03-07 12:06:22.065,0.0061866858058752,-3.73803950856132,1
2025-03-07 12:06:22.073,0.0065861412256101,-4.386699494149859,1
2025-03-07 12:06:22.081,0.006972514631316,-4.995930101489541,1
2025-03-07 12:06:22.089,0.0073477063708547,-5.547929748810418,1
2025-03-07 12:06:22.096,0.0077134276409416,-6.02461641481748,1
2025-03-07 12:06:22.104,0.0080710944482889,-6.407778782197475,1
2025-03-07 12:06:22.112,0.0084217473575232,-6.679304173907585,1
2025-03-07 12:06:22.120,0.0087660015732127,-6.821493327511984,1
2025-03-07 12:06:22.128,0.0091040299814658,-6.817465910984342,1
2025-03-07 12:06:22.136,0.0094355799278787,-6.651653696866739,1
2025-03-07 12:06:22.143,0.0097600226344083,-6.310370878444052,1
2025-03-07 12:06:22.151,0.0100764322151123,-5.782443575427586,1
2025-03-07 12:06:22.159,0.0103836892931303,-5.059873606852808,1
2025-03-07 12:06:22.167,0.0106806023046705,-4.1385055785973694,1
2025-03-07 12:06:22.175,0.0109660378697362,-3.0186616927001237,1
2025-03-07 12:06:22.182,0.0112390504479201,-1.7057058350410466,1
2025-03-07 12:06:22.190,0.0114990011801477,-0.2104977578014195,1
2025-03-07 12:06:22.198,0.0117456564663364,1.4503002429036094,1
2025-03-07 12:06:22.206,0.0119792584229426,3.254097769920065,1
2025-03-07 12:06:22.214,0.0122005617191214,5.172459207282065,1
2025-03-07 12:06:22.221,0.0124108339530865,7.1714140069331735,1
2025-03-07 12:06:22.229,0.0126118190900361,9.212003342921818,1
2025-03-07 12:06:22.237,0.012805665203607,11.251060972634091,1
2025-03-07 12:06:22.245,0.0129948190566037,13.242214509412465,1
2025-03-07 12:06:22.253,0.013181891412849,15.137081816309625,1
2025-03-07 12:06:22.261,0.0133694987057718,16.88662652807196,1
2025-03-07 12:06:22.268,0.0135600887415803,18.44262740245861,1
2025-03-07 12:06:22.276,0.0137557600529501,19.759208810732,1
2025-03-07 12:06:22.284,0.0139580857399674,20.79437460063332,1
2025-03-07 12:06:22.292,0.0141679528178703,21.511485065419997,1
2025-03-07 12:06:22.300,0.0143854274528035,21.88061694932758,1
2025-03-07 12:06:22.307,0.0146096553982335,21.87974930144732,1
2025-03-07 12:06:22.315,0.014838805453946,21.495723431940625,1
2025-03-07 12:06:22.323,0.0150700615015723,20.72493300676636,1
2025-03-07 12:06:22.331,0.0152996655395555,19.57371013553772,1
2025-03-07 12:06:22.339,0.0155230107279258,18.058384778913997,1
2025-03-07 12:06:22.346,0.0157347805202379,16.20500747033307,1
2025-03-07 12:06:22.354,0.0159291276905817,14.048738691248452,1
2025-03-07 12:06:22.362,0.0160998851159985,11.632921691749443,1
2025-03-07 12:06:22.370,0.0162407983512686,9.007868517118403,1
2025-03-07 12:06:22.378,0.0163457685330153,6.229400893750412,1
2025-03-07 12:06:22.386,0.0164090932637977,3.3571978824240296,1
2025-03-07 12:06:22.393,0.0164256930013646,0.4530103212348149,1
2025-03-07 12:06:22.401,0.016391311149125,-2.421192355945702,1
2025-03-07 12:06:22.409,0.0163026775086593,-5.205074619103025,1
2025-03-07 12:06:22.417,0.0161576269724893,-7.84171862818075,1
2025-03-07 12:06:22.425,0.0159551681321192,-10.279274540897957,1
2025-03-07 12:06:22.432,0.0156954994215236,-12.47241867165304,1
2025-03-07 12:06:22.440,0.0153799729292356,-14.383569430625109,1
2025-03-07 12:06:22.448,0.0150110077946551,-15.983821616249989,1
2025-03-07 12:06:22.456,0.0145919564112252,-17.253571751673565,1
2025-03-07 12:06:22.464,0.0141269280252364,-18.18282010737512,1
2025-03-07 12:06:22.471,0.0136205761052092,-18.77114817791782,1
2025-03-07 12:06:22.479,0.0130778580474068,-19.02738304644104,1
2025-03-07 12:06:22.487,0.0125037779845406,-18.96897170860741,1
2025-03-07 12:06:22.495,0.0119031251065671,-18.62109857006067,1
2025-03-07 12:06:22.503,0.011280220669236,-18.015587627312044,1
2025-03-07 12:06:22.511,0.0106386868771347,-17.189637058828406,1
2025-03-07 12:06:22.518,0.0099812502398267,-16.184437966236647,1
2025-03-07 12:06:22.526,0.0093095906819689,-15.043730788017363,1
2025-03-07 12:06:22.534,0.0086242455475429,-13.812352524277708,1
2025-03-07 12:06:22.542,0.0079245749966924,-12.534825507978864,1
2025-03-07 12:06:22.550,0.0072087926163929,-11.254034249205832,1
2025-03-07 12:06:22.557,0.006474062422087,-10.010031130051322,1
2025-03-07 12:06:22.565,0.0057166604886747,-8.839004743976483,1
2025-03-07 12:06:22.573,0.0049321960489595,-7.772436788432727,1
2025-03-07 12:06:22.581,0.0041158833756661,-6.836464975886692,1
2025-03-07 12:06:22.589,0.0032628526375873,-6.051460759871599,1
2025-03-07 12:06:22.596,0.0023684854212336,-5.431822093823751,1
2025-03-07 12:06:22.604,0.0014287587835759,-4.985973245873279,1
2025-03-07 12:06:22.612,0.0004405807681672,-4.71655615836174,1
2025-03-07 12:06:22.620,-0.0005978995272968,-4.620791221358775,1
2025-03-07 12:06:22.628,-0.001687023243555,-4.690979853628564,1
2025-03-07 12:06:22.636,-0.0028254088938753,-4.915117151541101,1
2025-03-07 12:06:22.643,-0.0040098079514285,-5.2775802415976365,1
2025-03-07 12:06:22.651,-0.0052350388170821,-5.759856978149323,1
2025-03-07 12:06:22.659,-0.0064940054129535,-6.341280331142165,1
2025-03-07 12:06:22.667,-0.0077778022886509,-6.9997362043688645,1
2025-03-07 12:06:22.675,-0.0090759037194358,-7.71231642084637,1
2025-03-07 12:06:22.682,-0.0103764303018511,-8.455894018609602,1
2025-03-07 12:06:22.690,-0.0116664831124285,-9.20760452842062,1
2025-03-07 12:06:22.698,-0.0129325324358692,-9.945224178961563,1
2025-03-07 12:06:22.706,-0.014160845237178,-10.647443556971933,1
2025-03-07 12:06:22.714,-0.0153379330459578,-11.2940426712382,1
2025-03-07 12:06:22.721,-0.0164510002012163,-11.86598016632938,1
2025-03-07 12:06:22.729,-0.0174883719792782,-12.345415176250883,1
2025-03-07 12:06:22.737,-0.0184398830639757,-12.71568463363521,1
2025-03-07 12:06:22.745,-0.0192972087619488,-12.96126147432474,1
2025-03-07 12:06:22.753,-0.0200541240742323,-13.067719917757108,1
2025-03-07 12:06:22.761,-0.0207066793293421,-13.021732787932768,1
2025-03-07 12:06:22.768,-0.0212532855722488,-12.811122712012375,1
2025-03-07 12:06:22.776,-0.0216947077332712,-12.424984158152045,1
2025-03-07 12:06:22.784,-0.0220339680437907,-11.853886930776714,1
2025-03-07 12:06:22.792,-0.022276165981683,-11.0901643069982,1
2025-03-07 12:06:22.800,-0.0224282243584456,-10.128280919904986,1
2025-03-07 12:06:22.807,-0.0224985739890614,-8.965267267265576,1
2025-03-07 12:06:22.815,-0.0224967914890435,-7.601199870536118,1
2025-03-07 12:06:22.823,-0.0224332059313181,-6.039699160246484,1
2025-03-07 12:06:22.831,-0.0223184903320958,-4.288411631192869,1
2025-03-07 12:06:22.839,-0.0221632534104815,-2.3594391499645284,1
2025-03-07 12:06:22.846,-0.0219776461719512,-0.2696768695957434,1
2025-03-07 12:06:22.854,-0.0217709969512754,1.9589777563209425,1
2025-03-07 12:06:22.862,-0.0215514876877929,4.299578786604169,1
2025-03-07 12:06:22.870,-0.0213258831114213,6.720276320914032,1
2025-03-07 12:06:22.878,-0.021099322732654,9.184671388357271,1
2025-03-07 12:06:22.886,-0.0208751828697939,11.652390798013592,1
2025-03-07 12:06:22.893,-0.0206550127543688,14.079880247832486,1
2025-03-07 12:06:22.901,-0.0204385455530752,16.421402053151525,1
2025-03-07 12:06:22.909,-0.02022378214821,18.630211978275884,1
2025-03-07 12:06:22.917,-0.0200071426714008,20.659878532982265,1
2025-03-07 12:06:22.925,-0.019783678080328,22.465698396152376,1
2025-03-07 12:06:22.932,-0.0195473315884922,24.006153943455743,1
2025-03-07 12:06:22.940,-0.0192912375843035,25.244353672977468,1
2025-03-07 12:06:22.948,-0.0190080439968374,26.149393998477457,1
2025-03-07 12:06:22.956,-0.0186902432113343,26.697581615095874,1
2025-03-07 12:06:22.964,-0.0183304968055687,26.873459465589832,1
2025-03-07 12:06:22.971,-0.0179219404404971,26.67058610314463,1
2025-03-07 12:06:22.979,-0.0174584569335357,26.09202765497703,1
2025-03-07 12:06:22.987,-0.0169349077470113,25.150533191072967,1
2025-03-07 12:06:22.995,-0.0163473158002154,23.86837752485789,1
2025-03-07 12:06:23.003,-0.0156929955036069,22.276869655571986,1
2025-03-07 12:06:23.011,-0.0149706289260564,20.41553948679059,1
2025-03-07 12:06:23.018,-0.0141802897539713,18.33102938499836,1
2025-03-07 12:06:23.026,-0.0133234190429691,16.075729862962472,1
2025-03-07 12:06:23.034,-0.0124027586859036,13.706209538729672,1
2025-03-07 12:06:23.042,-0.0114222499344957,11.281497996772009,1
2025-03-07 12:06:23.050,-0.01038690499143,8.861285873839126,1
2025-03-07 12:06:23.057,-0.0093026595468821,6.504109187864543,1
2025-03-07 12:06:23.065,-0.0081762134038377,4.265584579959612,1
2025-03-07 12:06:23.073,-0.0070148653832376,2.196758875537008,1
2025-03-07 12:06:23.081,-0.0058263477365153,0.3426304747042422,1
2025-03-07 12:06:23.089,-0.0046186644121998,-1.2591080367314862,1
2025-03-07 12:06:23.096,-0.003399936805183,-2.579066511846065,1
2025-03-07 12:06:23.104,-0.0021782600144209,-3.596864598873084,1
2025-03-07 12:06:23.112,-0.0009615719365136,-4.3015330158358775,1
2025-03-07 12:06:23.120,0.0002424633749287,-4.691603749880818,1
2025-03-07 12:06:23.128,0.0014265575563024,-4.77489565244675,1
2025-03-07 12:06:23.136,0.0025838850673377,-4.568012580254769,1
2025-03-07 12:06:23.143,0.0037081558739893,-4.095580760534618,1
2025-03-07 12:06:23.151,0.004793673727734,-3.389260147376291,1
2025-03-07 12:06:23.159,0.0058353796126933,-2.486570971843033,1
2025-03-07 12:06:23.167,0.0068288795979116,-1.4295813312955412,1
2025-03-07 12:06:23.175,0.0077704565962468,-0.2635044366050005,1
2025-03-07 12:06:23.182,0.0086570663091312,0.9647449826661596,1
2025-03-07 12:06:23.190,0.0094863182860858,2.207986595289819,1
2025-03-07 12:06:23.198,0.0102564431784239,3.420156938869186,1
2025-03-07 12:06:23.206,0.0109662473553376,4.557597033954757,1
2025-03-07 12:06:23.214,0.0116150567627516,5.580209460097176,1
2025-03-07 12:06:23.221,0.0122026532490285,6.452456005475912,1
2025-03-07 12:06:23.229,0.0127292077929426,7.144174508542786,1
2025-03-07 12:06:23.237,0.0131952153893727,7.63120135286766,1
2025-03-07 12:06:23.245,0.0136014356875342,7.895793876267442,1
2025-03-07 12:06:23.253,0.0139488423064056,7.926854356910617,1
2025-03-07 12:06:23.261,0.0142385825430563,7.719963930216363,1
2025-03-07 12:06:23.268,0.0144719481508039,7.277240517478178,1
2025-03-07 12:06:23.276,0.0146503570841719,6.607039428794588,1
2025-03-07 12:06:23.284,0.0147753455704209,5.723518637096495,1
2025-03-07 12:06:23.292,0.0148485693784203,4.64609278002603,1
2025-03-07 12:06:23.300,0.014871812611333,3.398800767488632,1
2025-03-07 12:06:23.307,0.0148470019662023,2.009611539234448,1
2025-03-07 12:06:23.315,0.0147762243720122,0.5096911543148391,1
2025-03-07 12:06:23.323,0.0146617460226133,-1.0673478340500886,1
2025-03-07 12:06:23.331,0.0145060307101661,-2.686196659815423,1
2025-03-07 12:06:23.339,0.0143117550873645,-4.3105855552767975,1
2025-03-07 12:06:23.346,0.0140818184902902,-5.903992685001295,1
2025-03-07 12:06:23.354,0.0138193455247806,-7.430319052499044,1
2025-03-07 12:06:23.362,0.013527680516152,-8.854524795492424,1
2025-03-07 12:06:23.370,0.0132103736276691,-10.143224968767754,1
2025-03-07 12:06:23.378,0.0128711586239707,-11.265244970872295,1
2025-03-07 12:06:23.386,0.0125139219225234,-12.192137114402447,1
2025-03-07 12:06:23.393,0.0121426621424813,-12.898660437319275,1
2025-03-07 12:06:23.401,0.0117614393989682,-13.363225722879507,1
2025-03-07 12:06:23.409,0.0113743143914853,-13.56830689560333,1
2025-03-07 12:06:23.417,0.0109852786309733,-13.500818573136977,1
2025-03-07 12:06:23.425,0.0105981783892931,-13.152457678478108,1
2025-03-07 12:06:23.432,0.010216635733456,-12.520004770021094,1
2025-03-07 12:06:23.440,0.0098439701960526,-11.605578270027618,1
2025-03-07 12:06:23.448,0.0094831243282396,-10.416832243938616,1
2025-03-07 12:06:23.456,0.0091365958604332,-8.967086022347033,1
2025-03-07 12:06:23.464,0.0088063787591048,-7.275372016266152,1
2025-03-07 12:06:23.471,0.0084939152405397,-5.366386823013459,1
2025-03-07 12:06:23.479,0.0082000607846028,-3.270330416735245,1
2025-03-07 12:06:23.487,0.0079250643723463,-1.022619090818101,1
2025-03-07 12:06:23.495,0.0076685664166922,1.3365399735103984,1
2025-03-07 12:06:23.503,0.0074296168582649,3.762721040718834,1
2025-03-07 12:06:23.511,0.007206715377887,6.208002663211727,1
2025-03-07 12:06:23.518,0.006997874521438,8.621838586891887,1
2025-03-07 12:06:23.526,0.0068007047667537,10.952067403962973,1
2025-03-07 12:06:23.534,0.006612518366884,13.146044348762652,1
2025-03-07 12:06:23.542,0.0064304466223966,15.1518713786667,1
2025-03-07 12:06:23.550,0.00625156366329,16.919694922243995,1
2025-03-07 12:06:23.557,0.0060730091735504,18.40303484031833,1
2025-03-07 12:06:23.565,0.0058921025485646,19.560103602086443,1
2025-03-07 12:06:23.573,0.0057064413470179,20.355071716059065,1
2025-03-07 12:06:23.581,0.0055139775812695,20.75923426828901,1
2025-03-07 12:06:23.589,0.0053130667671539,20.75203410761294,1
2025-03-07 12:06:23.596,0.0051024869384768,20.321899794066024,1
2025-03-07 12:06:23.604,0.0048814277003111,19.466860832499005,1
2025-03-07 12:06:23.612,0.0046494522442892,18.194908821857155,1
2025-03-07 12:06:23.620,0.0044064376260822,16.524080774732727,1
2025-03-07 12:06:23.628,0.0041525003192028,14.482249761876458,1
2025-03-07 12:06:23.636,0.0038879150557042,12.106617921985682,1
2025-03-07 12:06:23.643,0.0036130352326441,9.44291740624451,1
2025-03-07 12:06:23.651,0.0033282227174028,6.544335607088899,1
2025-03-07 12:06:23.659,0.0030337937628921,3.4701916163250472,1
2025-03-07 12:06:23.667,0.0027299860055051,0.2844008106280475,1
2025-03-07 12:06:23.675,0.002416949245083,-2.9462266808921505,1
2025-03-07 12:06:23.682,0.0020947600150013,-6.153800534377411,1
2025-03-07 12:06:23.690,0.0017634570867619,-9.271219276383404,1
2025-03-07 12:06:23.698,0.0014230925121515,-12.234032037007566,1
2025-03-07 12:06:23.706,0.0010737912204186,-14.98223041666784,1
2025-03-07 12:06:23.714,0.0007158118947528,-17.4619095957788,1
2025-03-07 12:06:23.721,0.0003496026175924,-19.626742063046706,1
2025-03-07 12:06:23.729,-2.4153935673397083e-05,-21.439213962406647,1
2025-03-07 12:06:23.737,-0.0004045095613954,-22.87158278913234,1
2025-03-07 12:06:23.745,-0.0007902362803609,-23.90652561345412,1
2025-03-07 12:06:23.753,-0.0011798299118588,-24.537458689094848,1
2025-03-07 12:06:23.761,-0.0015715314086152,-24.768521661749688,1
2025-03-07 12:06:23.768,-0.0019633648180519,-24.614232046022817,1
2025-03-07 12:06:23.776,-0.0023531897947107,-24.09882761573832,1
2025-03-07 12:06:23.784,-0.0027387657916944,-23.255325324566638,1
2025-03-07 12:06:23.792,-0.0031178244127427,-22.124334885599936,1
2025-03-07 12:06:23.800,-0.0034881459155407,-20.752672822168066,1
2025-03-07 12:06:23.807,-0.0038476355231855,-19.19182839180284,1
2025-03-07 12:06:23.815,-0.0041943950432229,-17.496336127099095,1
2025-03-07 12:06:23.823,-0.004526785421984,-15.722110794409955,1
2025-03-07 12:06:23.831,-0.0048434765096703,-13.92479942007882,1
2025-03-07 12:06:23.839,-0.0051434816023363,-12.1582018508687,1
2025-03-07 12:06:23.847,-0.0054261759510492,-10.472806358134516,1
2025-03-07 12:06:23.854,-0.005691299804271,-8.914480381912835,1
2025-03-07 12:06:23.862,-0.0059389473682725,-7.523348999532224,1
2025-03-07 12:06:23.870,-0.0061695434574316,-6.33288547337755,1
2025-03-07 12:06:23.878,-0.0063838097973186,-5.369229668457369,1
2025-03-07 12:06:23.886,-0.006582723050394,-4.650741604957084,1
2025-03-07 12:06:23.893,-0.0067674666774545,-4.18778926868649,1
2025-03-07 12:06:23.901,-0.0069393787303655,-3.982762346460956,1
2025-03-07 12:06:23.909,-0.007099897596389,-4.030297035481134,1
2025-03-07 12:06:23.917,-0.0072505075850273,-4.317691687413154,1
2025-03-07 12:06:23.925,-0.0073926860682483,-4.825488915968436,1
2025-03-07 12:06:23.932,-0.0075278536575018,-5.528196982618461,1
2025-03-07 12:06:23.940,-0.0076573286290769,-6.395121776350907,1
2025-03-07 12:06:23.948,-0.0077822864957847,-7.391280456557008,1
2025-03-07 12:06:23.956,-0.0079037252701522,-8.478368712314834,1
2025-03-07 12:06:23.964,-0.0080224365933698,-9.61575543673704,1
2025-03-07 12:06:23.972,-0.0081389826290516,-10.76148121651735,1
2025-03-07 12:06:23.979,-0.0082536786812766,-11.873240166693742,1
2025-03-07 12:06:23.987,-0.0083665820245469,-12.90932805707805,1
2025-03-07 12:06:23.995,-0.0084774881309037,-13.829543131165044,1
2025-03-07 12:06:24.003,-0.0085859357789725,-14.5960292682586,1
2025-03-07 12:06:24.011,-0.0086912221403633,-15.174053966404356,1
2025-03-07 12:06:24.018,-0.0087924280263716,-15.5327158490886,1
2025-03-07 12:06:24.026,-0.0088884524155458,-15.645577898996349,1
2025-03-07 12:06:24.034,-0.0089780545686228,-15.49122334313442,1
2025-03-07 12:06:24.042,-0.0090599017675275,-15.053731081316382,1
2025-03-07 12:06:24.050,-0.0091326209664379,-14.323066874406116,1
2025-03-07 12:06:24.057,-0.0091948530183157,-13.295385380237567,1
2025-03-07 12:06:24.065,-0.0092453081091077,-11.97323680125159,1
2025-03-07 12:06:24.073,-0.0092828203433179,-10.365670685715513,1
2025-03-07 12:06:24.081,-0.0093063984359176,-8.488228601831597,1
2025-03-07 12:06:24.089,-0.0093152688846053,-6.362817241076431,1
2025-03-07 12:06:24.097,-0.0093089081254995,-4.017454197103898,1
2025-03-07 12:06:24.104,-0.0092870607121877,-1.4858803196527013,1
2025-03-07 12:06:24.112,-0.009249741243198,1.1929648209465251,1
2025-03-07 12:06:24.120,-0.0091972187260216,3.975604274420683,1
2025-03-07 12:06:24.128,-0.0091299834086182,6.814817467005969,1
2025-03-07 12:06:24.136,-0.0090486976206927,9.660557152435048,1
2025-03-07 12:06:24.143,-0.0089541335544412,12.460975258962176,1
2025-03-07 12:06:24.151,-0.0088471020202813,15.163538315704892,1
2025-03-07 12:06:24.159,-0.0087283769824784,17.71620848191432,1
2025-03-07 12:06:24.167,-0.0085986210871569,20.068662175102485,1
2025-03-07 12:06:24.175,-0.0084583174267743,22.1735151293935,1
2025-03-07 12:06:24.182,-0.0083077124380435,23.9875205907828,1
2025-03-07 12:06:24.190,-0.008146774113457,25.472706385396418,1
2025-03-07 12:06:24.198,-0.0079751686404854,26.59741682743377,1
2025-03-07 12:06:24.206,-0.0077922572177278,27.3372268467372,1
2025-03-07 12:06:24.214,-0.0075971132879015,27.675698239571737,1
2025-03-07 12:06:24.222,-0.0073885590635115,27.604951474363567,1
2025-03-07 12:06:24.229,-0.0071652192120691,27.126030896367936,1
2025-03-07 12:06:24.237,-0.0069255887930727,26.249046346672632,1
2025-03-07 12:06:24.245,-0.0066681117586487,24.993080016001684,1
2025-03-07 12:06:24.253,-0.0063912655686478,23.38585366916285,1
2025-03-07 12:06:24.261,-0.0060936469063443,21.46315808325025,1
2025-03-07 12:06:24.268,-0.0057740531368021,19.26805352369649,1
2025-03-07 12:06:24.276,-0.0054315540089384,16.849857202893542,1
2025-03-07 12:06:24.284,-0.0050655483490406,14.262940755649232,1
2025-03-07 12:06:24.292,-0.0046758013766117,11.565367603909175,1
2025-03-07 12:06:24.300,-0.0042624597775788,8.817406399832498,1
2025-03-07 12:06:24.307,-0.0038260434968677,6.079962221299891,1
2025-03-07 12:06:24.315,-0.0033674150534656,3.412971515286352,1
2025-03-07 12:06:24.323,-0.002887728877745,0.8738096163410488,1
2025-03-07 12:06:24.331,-0.0023883646633267,-1.4842392728826013,1
2025-03-07 12:06:24.339,-0.0018708499796333,-3.6134006619086367,1
2025-03-07 12:06:24.347,-0.0013367783600763,-5.472670892263701,1
2025-03-07 12:06:24.354,-0.0007877296321699,-7.0288797152351705,1
2025-03-07 12:06:24.362,-0.0002251991387036,-8.257519972091746,1
2025-03-07 12:06:24.370,0.0003494584411721,-9.143318221723112,1
2025-03-07 12:06:24.378,0.0009350665344453,-9.680529435327855,1
2025-03-07 12:06:24.386,0.0015306431055622,-9.872948767594002,1
2025-03-07 12:06:24.393,0.0021353957702431,-9.733643432539534,1
2025-03-07 12:06:24.401,0.0027486971759327,-9.284417381857812,1
2025-03-07 12:06:24.409,0.0033700436966662,-8.555030367288579,1
2025-03-07 12:06:24.417,0.0039990013257079,-7.582200695275706,1
2025-03-07 12:06:24.425,0.0046351429970277,-6.408427266733288,1
2025-03-07 12:06:24.432,0.0052779816589998,-5.080671152715352,1
2025-03-07 12:06:24.440,0.0059269033701936,-3.648939909422957,1
2025-03-07 12:06:24.448,0.0065811045072436,-2.164819101995896,1
2025-03-07 12:06:24.456,0.0072395368719486,-0.6799951852630275,1
2025-03-07 12:06:24.464,0.0079008640650214,0.7551878602448149,1
2025-03-07 12:06:24.472,0.0085634319660853,2.093098722030902,1
2025-03-07 12:06:24.479,0.0092252555351573,3.2900803684888924,1
2025-03-07 12:06:24.487,0.0098840234443876,4.307572476640644,1
2025-03-07 12:06:24.495,0.0105371212775038,5.113069456605332,1
2025-03-07 12:06:24.503,0.0111816732183711,5.680894597797854,1
2025-03-07 12:06:24.511,0.0118146013121954,5.992776747419962,1
2025-03-07 12:06:24.518,0.0124327005486491,6.038221764910719,1
2025-03-07 12:06:24.526,0.0130327272133466,5.81467661067061,1
2025-03-07 12:06:24.534,0.0136114972122956,5.327489188444069,1
2025-03-07 12:06:24.542,0.01416599042419,4.589671858642973,1
2025-03-07 12:06:24.550,0.0146934566092717,3.621480783838311,1
2025-03-07 12:06:24.557,0.0151915180323561,2.449826885748728,1
2025-03-07 12:06:24.565,0.0156582637715933,1.1075371399561045,1
2025-03-07 12:06:24.573,0.0160923307113942,-0.3675128004257643,1
2025-03-07 12:06:24.581,0.0164929664818411,-1.93337205162071,1
2025-03-07 12:06:24.589,0.0168600701271072,-3.5450704043058225,1
2025-03-07 12:06:24.597,0.0171942070749954,-5.155732579604651,1
2025-03-07 12:06:24.604,0.0174965960442452,-6.717726657512021,1
2025-03-07 12:06:24.612,0.0177690668626128,-8.18382275861067,1
2025-03-07 12:06:24.620,0.0180139897640102,-9.508338566516636,1
2025-03-07 12:06:24.628,0.0182341785636596,-10.648248969022005,1
2025-03-07 12:06:24.636,0.0184327721228474,-11.564237931741824,1
2025-03-07 12:06:24.643,0.0186131005331934,-12.221671686803212,1
2025-03-07 12:06:24.651,0.018778544049867,-12.591473433760216,1
2025-03-07 12:06:24.659,0.0189323934200655,-12.650881044094666,1
2025-03-07 12:06:24.667,0.0190777196166963,-12.384070780126724,1
2025-03-07 12:06:24.675,0.0192172593921259,-11.78263183510275,1
2025-03-07 12:06:24.682,0.0193533210996942,-10.845878629818316,1
2025-03-07 12:06:24.690,0.0194877133364857,-9.580990325904056,1
2025-03-07 12:06:24.698,0.0196216973331237,-8.002970003575133,1
2025-03-07 12:06:24.706,0.0197559627215714,-6.134419455768027,1
2025-03-07 12:06:24.714,0.0198906253629351,-4.005129587985242,1
2025-03-07 12:06:24.722,0.0200252452179695,-1.6514909439068333,1
2025-03-07 12:06:24.729,0.0201588615558615,0.8842662054916832,1
2025-03-07 12:06:24.737,0.0202900419777204,3.554987639059851,1
2025-03-07 12:06:24.745,0.0204169410534601,6.309647140952566,1
2025-03-07 12:06:24.753,0.0205373643472929,9.094510116875789,1
2025-03-07 12:06:24.761,0.0206488343723733,11.85438010436468,1
2025-03-07 12:06:24.768,0.0207486561335187,14.533896020201237,1
2025-03-07 12:06:24.776,0.0208339809230555,17.07884568435317,1
2025-03-07 12:06:24.784,0.0209018679004875,19.43746009119192,1
2025-03-07 12:06:24.792,0.020949343803915,21.561653122093613,1
2025-03-07 12:06:24.800,0.0209734616136266,23.408172874070104,1
2025-03-07 12:06:24.807,0.0209713587045821,24.93963340074421,1
2025-03-07 12:06:24.815,0.0209403141282704,26.12539924714896,1
2025-03-07 12:06:24.823,0.0208778038489763,26.9422994960004,1
2025-03-07 12:06:24.831,0.0207815525676371,27.375152910887685,1
2025-03-07 12:06:24.839,0.0206495810833492,27.4170909591604,1
2025-03-07 12:06:24.847,0.0204802484618407,27.069670856420927,1
2025-03-07 12:06:24.854,0.0202722883407339,26.34277616952735,1
2025-03-07 12:06:24.862,0.0200248386468716,25.254307859845024,1
2025-03-07 12:06:24.870,0.019737463981444,23.829673888759807,1
2025-03-07 12:06:24.878,0.0194101698326719,22.101090607595573,1
2025-03-07 12:06:24.886,0.0190434074775303,20.106714078854328,1
2025-03-07 12:06:24.893,0.0186380681156115,17.889624168931828,1
2025-03-07 12:06:24.901,0.0181954647543197,15.49668861968367,1
2025-03-07 12:06:24.909,0.0177173007516321,12.977338204734002,1
2025-03-07 12:06:24.917,0.0172056247087406,10.382287314103507,1
2025-03-07 12:06:24.925,0.0166627724869241,7.762236659549529,1
2025-03-07 12:06:24.932,0.0160912981045538,5.166596020530436,1
2025-03-07 12:06:24.940,0.015493895700643,2.6422648599733907,1
2025-03-07 12:06:24.948,0.0148733146478719,0.2325071016894456,1
2025-03-07 12:06:24.956,0.0142322696880311,-2.0240466617020925,1
2025-03-07 12:06:24.964,0.0135733480184321,-4.094240707866661,1
2025-03-07 12:06:24.972,0.0128989157126053,-5.951056350483035,1
2025-03-07 12:06:24.979,0.0122110266955683,-7.574078304474953,1
2025-03-07 12:06:24.987,0.0115113385459749,-8.949756170086406,1
2025-03-07 12:06:24.995,0.0108010402415121,-10.071459575463342,1
2025-03-07 12:06:25.003,0.0100807970310183,-10.939333021045565,1
2025-03-07 12:06:25.011,0.0093507166258015,-11.559963477887656,1
2025-03-07 12:06:25.018,0.0086103391333997,-11.945879960401795,1
2025-03-07 12:06:25.026,0.0078586511785614,-12.11490933054538,1
2025-03-07 12:06:25.034,0.0070941228942329,-12.089416280401924,1
2025-03-07 12:06:25.042,0.0063147650933086,-11.895457663470031,1
2025-03-07 12:06:25.050,0.0055182029965176,-11.56188208607354,1
2025-03-07 12:06:25.057,0.0047017624058197,-11.119405016115811,1
2025-03-07 12:06:25.065,0.0038625641740562,-10.599687793611018,1
2025-03-07 12:06:25.073,0.0029976232143329,-10.034446079190976,1
2025-03-07 12:06:25.081,0.0021039490689745,-9.454609732299922,1
2025-03-07 12:06:25.089,0.001178646046896,-8.889552153281803,1
2025-03-07 12:06:25.097,0.0002190117400959,-8.366403013306623,1
2025-03-07 12:06:25.104,-0.0007773671001742,-7.909454252618536,1
2025-03-07 12:06:25.112,-0.0018125228332361,-7.539665422690956,1
2025-03-07 12:06:25.120,-0.0028880215392155,-7.274271008391581,1
2025-03-07 12:06:25.128,-0.0040048866467689,-7.126489382959639,1
2025-03-07 12:06:25.136,-0.0051635344089583,-7.105330585474039,1
2025-03-07 12:06:25.143,-0.0063637238442334,-7.215498209342335,1
2025-03-07 12:06:25.151,-0.00760452326449,-7.457379367942237,1
2025-03-07 12:06:25.159,-0.0088842950177844,-7.827115945400336,1
2025-03-07 12:06:25.167,-0.0102006997290823,-8.316750098300204,1
2025-03-07 12:06:25.175,-0.0115507209536792,-8.914437168844431,1
2025-03-07 12:06:25.182,-0.01293071051628,-9.604719698707225,1
2025-03-07 12:06:25.190,-0.0143364538072575,-10.3688569781979,1
2025-03-07 12:06:25.198,-0.0157632530626859,-11.185205404849716,1
2025-03-07 12:06:25.206,-0.0172060254638216,-12.02964573592684,1
2025-03-07 12:06:25.214,-0.0186594120544679,-12.876053979055664,1
2025-03-07 12:06:25.222,-0.0201178930205572,-13.696813060555977,1
2025-03-07 12:06:25.229,-0.0215759045829605,-14.46336244646845,1
