Timestamp,GSR_Filtered,PPG_Filtered
2025-07-23 15:23:31.629,0.0057855665054702,-14.57123112391699
2025-07-23 15:23:31.636,0.0056307026170738,-14.354782833330622
2025-07-23 15:23:31.644,0.00548372723105,-14.16379340224066
2025-07-23 15:23:31.652,0.0053413520368154,-13.999221741968922
2025-07-23 15:23:31.660,0.0052004955321376,-13.86170677757752
2025-07-23 15:23:31.668,0.0050583748371774,-13.751479648088903
2025-07-23 15:23:31.675,0.0049125845842045,-13.668290066046469
2025-07-23 15:23:31.683,0.0047611615113021,-13.61135069946229
2025-07-23 15:23:31.691,0.0046026335002439,-13.579302679353903
2025-07-23 15:23:31.699,0.00443605184545,-13.570204402056213
2025-07-23 15:23:31.707,0.0042610056175843,-13.581544713180763
2025-07-23 15:23:31.715,0.0040776172523724,-13.610280384932842
2025-07-23 15:23:31.722,0.0038865190374557,-13.652896607314492
2025-07-23 15:23:31.730,0.0036888109445438,-13.705488088462
2025-07-23 15:23:31.738,0.0034860011445593,-13.76385737340112
2025-07-23 15:23:31.746,0.0032799314285004,-13.823626204185134
2025-07-23 15:23:31.754,0.003072690540672,-13.880355205343836
2025-07-23 15:23:31.761,0.0028665190626182,-13.929666918682454
2025-07-23 15:23:31.769,0.0026637099495896,-13.967367239715957
2025-07-23 15:23:31.777,0.0024665090768333,-13.989560607304956
2025-07-23 15:23:31.785,0.0022770201216957,-13.992754829828243
2025-07-23 15:23:31.793,0.0020971177552327,-13.973952141870924
2025-07-23 15:23:31.800,0.0019283725303615,-13.930723908807424
2025-07-23 15:23:31.808,0.0017719901939386,-13.86126725760326
2025-07-23 15:23:31.816,0.0016287675081763,-13.764442737412198
2025-07-23 15:23:31.824,0.0014990659842952,-13.639792846550638
2025-07-23 15:23:31.832,0.0013828041060634,-13.487541871012464
2025-07-23 15:23:31.840,0.0012794676670666,-13.308577953965408
2025-07-23 15:23:31.847,0.0011881368993484,-13.104418662832687
2025-07-23 15:23:31.855,0.0011075282573755,-12.877161561329595
2025-07-23 15:23:31.863,0.0010360480907021,-12.629421458209288
2025-07-23 15:23:31.871,0.000971855036,-12.364256123833512
2025-07-23 15:23:31.879,0.0009129278597079,-12.085082364075731
2025-07-23 15:23:31.886,0.0008571357149145,-11.795584431705905
2025-07-23 15:23:31.894,0.0008023082404864,-11.499616843525589
2025-07-23 15:23:31.902,0.0007463034244356,-11.20110375912039
2025-07-23 15:23:31.910,0.0006870715033148,-10.903937164644308
2025-07-23 15:23:31.918,0.0006227133546341,-10.611876189265912
2025-07-23 15:23:31.925,0.0005515319721387,-10.328449952971011
2025-07-23 15:23:31.933,0.0004720758003388,-10.056866385958225
2025-07-23 15:23:31.941,0.0003831729761075,-9.799929451415824
2025-07-23 15:23:31.949,0.0002839558790947,-9.559967123647535
2025-07-23 15:23:31.957,0.0001738757984266,-9.338772304485886
2025-07-23 15:23:31.965,5.270790092609274e-05,-9.13755859411405
2025-07-23 15:23:31.972,-7.945301501611558e-05,-8.95693247123498
2025-07-23 15:23:31.980,-0.0002222052319574,-8.79688299400868
2025-07-23 15:23:31.988,-0.0003748602757669,-8.656789622032758
2025-07-23 15:23:31.996,-0.0005364693114603,-8.535448196188819
2025-07-23 15:23:32.004,-0.000705854534206,-8.431114516311597
2025-07-23 15:23:32.011,-0.0008816444638495,-8.341564351714439
2025-07-23 15:23:32.019,-0.0010623122393176,-8.264168136419807
2025-07-23 15:23:32.027,-0.001246216148953,-8.272656538460033
2025-07-23 15:23:32.035,-0.0014316417507897,-8.232304809806681
2025-07-23 15:23:32.043,-0.0016168450676238,-8.141087713015668
2025-07-23 15:23:32.050,-0.0018000964302437,-7.997921376961787
2025-07-23 15:23:32.058,-0.0019797245098586,-7.802703340715115
2025-07-23 15:23:32.066,-0.0021541599041072,-7.556324963271384
2025-07-23 15:23:32.074,-0.0023219773310735,-7.260655626604027
2025-07-23 15:23:32.082,-0.002481935093074,-6.918499067273985
2025-07-23 15:23:32.090,-0.0026330101331467,-6.533523129621431
2025-07-23 15:23:32.097,-0.0027744268964038,-6.1101652105654205
2025-07-23 15:23:32.105,-0.0029056784127423,-5.653516618977486
2025-07-23 15:23:32.113,-0.0030265384741011,-5.169189946139212
2025-07-23 15:23:32.121,-0.0031370643372192,-4.66317427607429
2025-07-23 15:23:32.129,-0.003237589925411,-4.141683596532812
2025-07-23 15:23:32.136,-0.0033287099906525,-3.611004054923748
2025-07-23 15:23:32.144,-0.0034112560986667,-3.077345705222573
2025-07-23 15:23:32.152,-0.0034862655757528,-2.546704095431415
2025-07-23 15:23:32.160,-0.0035549447420067,-2.024736453697478
2025-07-23 15:23:32.168,-0.0036186279481556,-1.5166563708745036
2025-07-23 15:23:32.175,-0.0036787341418925,-1.0271497999327437
2025-07-23 15:23:32.183,-0.0037367228035372,-0.5603139746065992
2025-07-23 15:23:32.191,-0.0037940510440816,-0.1196195853666104
2025-07-23 15:23:32.199,-0.0038521335076068,0.2921046600071686
2025-07-23 15:23:32.207,-0.0039123065178082,0.672667031249623
2025-07-23 15:23:32.215,-0.003975797627634,1.0204901216674267
2025-07-23 15:23:32.222,-0.0040437013510881,1.3345739461046355
2025-07-23 15:23:32.230,-0.0041169614390623,1.61444853424429
2025-07-23 15:23:32.238,-0.0041963596954684,1.860119855029285
2025-07-23 15:23:32.246,-0.0042825110318982,2.072012774843129
2025-07-23 15:23:32.254,-0.0043758641712839,2.250914424446115
2025-07-23 15:23:32.261,-0.0044767071022415,2.397920864170472
2025-07-23 15:23:32.269,-0.0045851761111401,2.5143893366602272
2025-07-23 15:23:32.277,-0.0047012670646039,2.6018977271052903
2025-07-23 15:23:32.285,-0.0048248476200256,2.66221215495743
2025-07-23 15:23:32.293,-0.0049556692067502,2.697262935329986
2025-07-23 15:23:32.300,-0.0050933779412875,2.709128502750072
2025-07-23 15:23:32.308,-0.005237524068622,2.7000263069994044
2025-07-23 15:23:32.316,-0.0053875699321839,2.6723091861988
2025-07-23 15:23:32.324,-0.0055428967101688,2.628465309010608
2025-07-23 15:23:32.332,-0.0057028101411196,2.5711194696333943
2025-07-23 15:23:32.340,-0.0058665453044763,2.503033332006219
2025-07-23 15:23:32.347,-0.006033270453799,2.4271021704476827
2025-07-23 15:23:32.355,-0.0062020900483597,2.346345759115186
2025-07-23 15:23:32.363,-0.0063720473755946,2.263891333482731
2025-07-23 15:23:32.371,-0.0065421272801784,2.18294698309136
2025-07-23 15:23:32.379,-0.0067112594164692,2.1067644180880625
2025-07-23 15:23:32.386,-0.006878322202167,2.038590746832388
2025-07-23 15:23:32.394,-0.0070421474360924,1.981609660811161
2025-07-23 15:23:32.402,-0.0072015254782791,1.9388731950831932
2025-07-23 15:23:32.410,-0.0073552109955018,1.913225968666761
2025-07-23 15:23:32.418,-0.0075019294832506,1.907224467164848
2025-07-23 15:23:32.425,-0.0076403850109728,1.923054474335525
2025-07-23 15:23:32.433,-0.0077692698420917,1.9624501624409396
2025-07-23 15:23:32.441,-0.0078872766809304,2.026618594654011
2025-07-23 15:23:32.449,-0.0079931142326145,2.1161734689356133
2025-07-23 15:23:32.457,-0.008085526549228,2.2310818389831097
2025-07-23 15:23:32.465,-0.0081633163722779,2.370627277146002
2025-07-23 15:23:32.472,-0.0082253724349261,2.533392484308805
2025-07-23 15:23:32.480,-0.0082707004122591,2.7172636951007
2025-07-23 15:23:32.488,-0.0082984567967728,2.9194583828539957
2025-07-23 15:23:32.496,-0.0083079844198205,3.1365767701223097
2025-07-23 15:23:32.504,-0.0082988477967247,3.3646765514260544
2025-07-23 15:23:32.511,-0.0082708661087645,3.599369103723244
2025-07-23 15:23:32.519,-0.0082241414482756,3.835934371092551
2025-07-23 15:23:32.527,-0.0081590798676578,4.069450636144572
2025-07-23 15:23:32.535,-0.0080764028235597,4.294934598587227
2025-07-23 15:23:32.543,-0.0079771469103174,4.5074866275015415
2025-07-23 15:23:32.550,-0.0078626503751874,4.702435778031284
2025-07-23 15:23:32.558,-0.0077345257378919,4.875479182224101
2025-07-23 15:23:32.566,-0.0075946187985666,5.022810728451862
2025-07-23 15:23:32.574,-0.0074449553271254,5.141234500366068
2025-07-23 15:23:32.582,-0.0072876777334665,5.22825920057791
2025-07-23 15:23:32.590,-0.0071249749698655,5.282170667637066
2025-07-23 15:23:32.597,-0.0069590096650622,5.302080533341485
2025-07-23 15:23:32.605,-0.0067918467979459,5.287949992385722
2025-07-23 15:23:32.613,-0.0066253879452406,5.240588513859629
2025-07-23 15:23:32.621,-0.0064613143573612,5.161628079624271
2025-07-23 15:23:32.629,-0.0063010410549611,5.053474174429107
2025-07-23 15:23:32.636,-0.0061456830606824,4.919235282035723
2025-07-23 15:23:32.644,-0.0059960340221457,4.762633079483797
2025-07-23 15:23:32.652,-0.0058525569555923,4.58789589277866
2025-07-23 15:23:32.660,-0.0057153865600518,4.399638304361778
2025-07-23 15:23:32.668,-0.0055843423112944,4.202730100135272
2025-07-23 15:23:32.675,-0.0054589512027948,4.002158014131757
2025-07-23 15:23:32.683,-0.0053384786089451,3.802883962710336
2025-07-23 15:23:32.691,-0.005221965465076,3.609703639901423
2025-07-23 15:23:32.699,-0.0051082698775638,3.427109451498417
2025-07-23 15:23:32.707,-0.0049961113588862,3.2591617792902223
2025-07-23 15:23:32.715,-0.0048841160587291,3.109372471439375
2025-07-23 15:23:32.722,-0.0047708616004423,2.9806042342765147
2025-07-23 15:23:32.730,-0.0046549204203968,2.874989240930688
2025-07-23 15:23:32.738,-0.0045349008125194,2.793869766197957
2025-07-23 15:23:32.746,-0.0044094851314122,2.7377630093534964
2025-07-23 15:23:32.754,-0.0042774647600283,2.706351494690564
2025-07-23 15:23:32.761,-0.0041377715481107,2.6984995716207694
2025-07-23 15:23:32.769,-0.0039895055304179,2.7122956087855608
2025-07-23 15:23:32.777,-0.0038319587771496,2.7451185334871853
2025-07-23 15:23:32.785,-0.0036646351113888,2.7937264571273164
2025-07-23 15:23:32.793,-0.0034872651789283,2.8543642981351995
2025-07-23 15:23:32.800,-0.0032998161223811,2.922886611889373
2025-07-23 15:23:32.808,-0.0031024950258891,2.9948913013740848
2025-07-23 15:23:32.816,-0.0028957454160327,3.065859539497544
2025-07-23 15:23:32.824,-0.0026802364137091,3.1312970932006623
2025-07-23 15:23:32.832,-0.0024568445334472,3.1868722909843283
2025-07-23 15:23:32.840,-0.002226628476851,3.228546095629689
2025-07-23 15:23:32.847,-0.0019907974983079,3.2526901034105373
2025-07-23 15:23:32.855,-0.0017506741151599,3.256188763651385
2025-07-23 15:23:32.863,-0.001507652215831,3.236522680851893
2025-07-23 15:23:32.871,-0.0012631519949501,3.1918305183725666
2025-07-23 15:23:32.879,-0.0010185734977689,3.120947763958568
2025-07-23 15:23:32.886,-0.0007752507801241,3.0234214336697387
2025-07-23 15:23:32.894,-0.0005344087557125,2.899500661741136
2025-07-23 15:23:32.902,-0.000297124711039,2.750104018972266
2025-07-23 15:23:32.910,-6.429622532131127e-05,2.576765283815286
2025-07-23 15:23:32.918,0.0001633831425307,2.381560216025909
2025-07-23 15:23:32.925,0.0003854395223129,2.1670176075377854
2025-07-23 15:23:32.933,0.00060162542075,1.9360184659171655
2025-07-23 15:23:32.941,0.00081191756548,1.6916875875607826
2025-07-23 15:23:32.949,0.0010165063068608,1.4372819799225829
2025-07-23 15:23:32.957,0.0012157770377034,1.176080590076812
2025-07-23 15:23:32.965,0.001410284091582,0.9112796016732474
2025-07-23 15:23:32.972,0.0016007177031196,0.6458971952170797
2025-07-23 15:23:32.980,0.0017878649312332,0.3826911528238299
2025-07-23 15:23:32.988,0.0019725658783166,0.1240920521500068
2025-07-23 15:23:32.996,0.00215566692383,-0.1278459424510486
2025-07-23 15:23:33.004,0.0023379729339524,-0.3714754963077967
2025-07-23 15:23:33.011,0.0025202005362656,-0.6055673938705143
2025-07-23 15:23:33.019,0.0027029345947101,-0.8293032424987483
2025-07-23 15:23:33.027,0.0028865899358177,-1.0422509844110213
2025-07-23 15:23:33.035,0.0030713801165656,-1.2443253958489933
2025-07-23 15:23:33.043,0.003257294637831,-1.4357364231056626
2025-07-23 15:23:33.050,0.003444085576628,-1.6169287171113873
2025-07-23 15:23:33.058,0.0036312641689058,-1.7885160480647702
2025-07-23 15:23:33.066,0.0038181074349445,-1.951214388477664
2025-07-23 15:23:33.074,0.0040036745134191,-2.1057773384027496
2025-07-23 15:23:33.082,0.004186831959241,-2.252937232867584
2025-07-23 15:23:33.090,0.0043662868711478,-2.393354734684114
2025-07-23 15:23:33.097,0.0045406263602911,-2.5275790116587427
2025-07-23 15:23:33.105,0.004708361558326,-2.656019783741737
2025-07-23 15:23:33.113,0.0048679741328386,-2.7789316760213465
2025-07-23 15:23:33.121,0.0050179632114878,-2.896410502554868
2025-07-23 15:23:33.129,0.0051568907599215,-3.008400397401613
2025-07-23 15:23:33.136,0.0052834237667937,-3.1147101483634465
2025-07-23 15:23:33.144,0.0053963719803163,-3.215036702583232
2025-07-23 15:23:33.152,0.005494720369666,-3.308993610393419
2025-07-23 15:23:33.160,0.0055776559121319,-3.3961421462935117
2025-07-23 15:23:33.168,0.0056445886529879,-3.4760229691237288
2025-07-23 15:23:33.175,0.0056951672010481,-3.5481864213360628
2025-07-23 15:23:33.183,0.0057292889628346,-3.612219879101362
2025-07-23 15:23:33.191,0.0057471055616372,-3.667770912382596
2025-07-23 15:23:33.199,0.0057490240390449,-3.714565366448264
2025-07-23 15:23:33.207,0.0057357045358396,-3.75241981436754
2025-07-23 15:23:33.215,0.0057080551330886,-3.7812481457917135
2025-07-23 15:23:33.222,0.0056672243812157,-3.801062350295956
2025-07-23 15:23:33.230,0.0056145917755681,-3.811967825664453
2025-07-23 15:23:33.238,0.0055517560815934,-3.814153792299692
2025-07-23 15:23:33.246,0.0054805210253962,-3.80787961889688
2025-07-23 15:23:33.254,0.0054028775545007,-3.7934580522448176
2025-07-23 15:23:33.261,0.0053209817436242,-3.771236485924868
2025-07-23 15:23:33.269,0.0052371275087292,-3.741577491498776
2025-07-23 15:23:33.277,0.0051537135738695,-3.704839866849302
2025-07-23 15:23:33.285,0.0050732045052128,-3.661361427726109
2025-07-23 15:23:33.293,0.0049980859277995,-3.611444681219465
2025-07-23 15:23:33.300,0.004930814218788,-3.5553463771611336
2025-07-23 15:23:33.308,0.0048737611411408,-3.493271740427589
2025-07-23 15:23:33.316,0.0048291541625448,-3.4253739517009683
2025-07-23 15:23:33.324,0.004799013600561,-3.351759179167661
2025-07-23 15:23:33.332,0.0047850882282386,-3.2724971855728198
2025-07-23 15:23:33.340,0.0047887915507057,-3.1876372590577087
2025-07-23 15:23:33.347,0.0048111414845646,-3.097228950390625
2025-07-23 15:23:33.355,0.0048527064138707,-3.001346845282437
2025-07-23 15:23:33.363,0.0049135604931023,-2.900118358517738
2025-07-23 15:23:33.371,0.0049932507678162,-2.7937533079319765
2025-07-23 15:23:33.379,0.0050907783259908,-2.682573814065841
2025-07-23 15:23:33.386,0.00520459526611,-2.5670428836400108
2025-07-23 15:23:33.394,0.0053326187299488,-2.447789889047271
2025-07-23 15:23:33.402,0.0054722626413048,-2.3256310785186978
2025-07-23 15:23:33.410,0.0056204871621401,-2.201583271824345
2025-07-23 15:23:33.418,0.0057738651865412,-2.0768690373087937
2025-07-23 15:23:33.425,0.0059286644067576,-1.952911919642373
2025-07-23 15:23:33.433,0.0060809426682944,-1.8313206942371585
2025-07-23 15:23:33.441,0.0062266535782538,-1.7138621516147323
2025-07-23 15:23:33.449,0.006361758692084,-1.6024225361405682
2025-07-23 15:23:33.457,0.006482342106949,-1.4989584368668414
2025-07-23 15:23:33.465,0.0065847229634632,-1.4054386015424345
2025-07-23 15:23:33.472,0.0066655612237972,-1.3237787624196196
2025-07-23 15:23:33.480,0.0067219522061576,-1.255772073869294
2025-07-23 15:23:33.488,0.0067515058056943,-1.2030181294180928
2025-07-23 15:23:33.496,0.0067524071671574,-1.1668537282699694
2025-07-23 15:23:33.504,0.0067234567142837,-1.1482885927884952
2025-07-23 15:23:33.511,0.0066640886945004,-1.1479491052973432
2025-07-23 15:23:33.519,0.00657436856816,-1.166032849231526
2025-07-23 15:23:33.527,0.0064549705428352,-1.202276323489644
2025-07-23 15:23:33.535,0.0063071372929176,-1.255937667750424
2025-07-23 15:23:33.543,0.0061326244219062,-1.325795610359538
2025-07-23 15:23:33.550,0.0059336325415277,-1.4101651536110111
2025-07-23 15:23:33.558,0.0057127299864343,-1.5069297735161633
2025-07-23 15:23:33.566,0.005472769188198,-1.6135891660155537
2025-07-23 15:23:33.574,0.0052167996326024,-1.727320857246914
2025-07-23 15:23:33.582,0.0049479801554408,-1.8450533572883343
2025-07-23 15:23:33.590,0.004669493128763,-1.963548023814419
2025-07-23 15:23:33.597,0.0043844628837997,-2.0794864553016192
2025-07-23 15:23:33.605,0.0040958805314473,-2.18956007416952
2025-07-23 15:23:33.613,0.0038065371673926,-2.2905585870633005
2025-07-23 15:23:33.621,0.0035189672306348,-2.3794542017263454
2025-07-23 15:23:33.629,0.0032354034579449,-2.4534788035629336
2025-07-23 15:23:33.636,0.0029577444283658,-2.510191709096999
2025-07-23 15:23:33.644,0.002687535140842,-2.547536078114992
2025-07-23 15:23:33.652,0.0024259604354973,-2.563882549727934
2025-07-23 15:23:33.660,0.0021738504093547,-2.558059149250976
2025-07-23 15:23:33.668,0.0019316963926675,-2.529366980063413
2025-07-23 15:23:33.676,0.0016996756356255,-2.477581659012762
2025-07-23 15:23:33.683,0.0014776826503086,-2.402940870661711
2025-07-23 15:23:33.691,0.0012653651677905,-2.3061188054609207
2025-07-23 15:23:33.699,0.0010621628948671,-2.188188615105916
2025-07-23 15:23:33.707,0.0008673476390922,-2.0505743688534817
2025-07-23 15:23:33.715,0.0006800637897261,-1.8949943235127455
2025-07-23 15:23:33.722,0.0004993684277584,-1.7233976149790584
2025-07-23 15:23:33.730,0.000324270403745,-1.5378967250150135
2025-07-23 15:23:33.738,0.0001537676412028,-1.3406982583104643
2025-07-23 15:23:33.746,-1.3118148799964983e-05,-1.134034665684929
2025-07-23 15:23:33.754,-0.0001773101114255,-0.920099550656006
2025-07-23 15:23:33.761,-0.0003396488500173,-0.7009890794613278
2025-07-23 15:23:33.769,-0.000500869362055,-0.4786517679590365
2025-07-23 15:23:33.777,-0.0006615824893104,-0.2548485450452976
2025-07-23 15:23:33.785,-0.0008222609272222,-0.0311245055593158
2025-07-23 15:23:33.793,-0.0009832297605043,0.1912068115870633
2025-07-23 15:23:33.801,-0.0011446614649318,0.4110664227557532
2025-07-23 15:23:33.808,-0.0013065752981652,0.6276006421965065
2025-07-23 15:23:33.816,-0.001468840910753,0.8401606795750675
2025-07-23 15:23:33.824,-0.0016311857977851,1.0482727899540496
2025-07-23 15:23:33.832,-0.0017932059551236,1.2516011616399922
2025-07-23 15:23:33.840,-0.0019543789465424,1.4499060871340566
2025-07-23 15:23:33.847,-0.0021140786010974,1.6430001716948446
2025-07-23 15:23:33.855,-0.0022715906643152,1.830705376004352
2025-07-23 15:23:33.863,-0.0024261287972531,2.012813554442421
2025-07-23 15:23:33.871,-0.0025768503439467,2.189052841382882
2025-07-23 15:23:33.879,-0.0027228713752936,2.359061775950323
2025-07-23 15:23:33.886,-0.0028632807267541,2.5223724814480835
2025-07-23 15:23:33.894,-0.0029971529957193,2.678403584560391
2025-07-23 15:23:33.902,-0.003123560625805,2.8264629332466025
2025-07-23 15:23:33.910,-0.0032415852703791,2.965759607792476
2025-07-23 15:23:33.918,-0.0033503287042486,3.0954242561618086
2025-07-23 15:23:33.926,-0.0034489237058638,3.2145364378020465
2025-07-23 15:23:33.933,-0.0035365454860022,3.3221574235291467
2025-07-23 15:23:33.941,-0.003612424273671,3.417366755660293
2025-07-23 15:23:33.949,-0.0036758595793455,3.4993008026358785
2025-07-23 15:23:33.957,-0.0037262365243344,3.567191529872648
2025-07-23 15:23:33.965,-0.003763044459265,3.620403742860921
2025-07-23 15:23:33.972,-0.0037858977845041,3.65846913443354
2025-07-23 15:23:33.980,-0.0037945583753821,3.681115585606238
2025-07-23 15:23:33.988,-0.0037889584087889,3.6882903327048537
2025-07-23 15:23:33.996,-0.0037692218575128,3.680175829478105
2025-07-23 15:23:34.004,-0.0037356825975691,3.657197406394445
2025-07-23 15:23:34.011,-0.0036888970231834,3.620022157303747
2025-07-23 15:23:34.019,-0.0036296492931334,3.5695488525247487
2025-07-23 15:23:34.027,-0.0035589478344559,3.506889066297855
2025-07-23 15:23:34.035,-0.0034780124618854,3.4333400935747584
2025-07-23 15:23:34.043,-0.0033882523012787,3.350350598108422
2025-07-23 15:23:34.051,-0.0032912354584944,3.259480266282594
2025-07-23 15:23:34.058,-0.0031886519547637,3.1623550249353296
2025-07-23 15:23:34.066,-0.0030822718711998,3.0606196002789767
2025-07-23 15:23:34.074,-0.002973900934057,2.955889332423675
2025-07-23 15:23:34.082,-0.0028653358495611,2.8497032047519726
2025-07-23 15:23:34.090,-0.0027583214463415,2.7434799978650126
2025-07-23 15:23:34.097,-0.0026545111435654,2.638479342193962
2025-07-23 15:23:34.105,-0.0025554316478383,2.535769236491566
2025-07-23 15:23:34.113,-0.0024624522903458,2.436201338982504
2025-07-23 15:23:34.121,-0.0023767591212427,2.3403950403342337
2025-07-23 15:23:34.129,-0.0022993337860957,2.248731003449564
2025-07-23 15:23:34.136,-0.0022309372774498,2.1613545072780336
2025-07-23 15:23:34.144,-0.0021720987588934,2.0781885583600457
2025-07-23 15:23:34.152,-0.0021231096617725,1.9989563337696727
2025-07-23 15:23:34.160,-0.00208402313958,1.9232120988332717
2025-07-23 15:23:34.168,-0.0020546588323564,1.8503793198861664
2025-07-23 15:23:34.176,-0.0020346128062292,1.7797942952743722
2025-07-23 15:23:34.183,-0.002023272439973,1.7107532933716945
2025-07-23 15:23:34.191,-0.0020198358746369,1.6425609518623503
2025-07-23 15:23:34.199,-0.0020233354613683,1.5745775884823017
2025-07-23 15:23:34.207,-0.0020326645025412,1.506263117775588
2025-07-23 15:23:34.215,-0.0020466064991894,1.4372154623544673
2025-07-23 15:23:34.222,-0.0020638660879539,1.3672016721558475
2025-07-23 15:23:34.230,-0.0020831008669803,1.296180384985031
2025-07-23 15:23:34.238,-0.0021029533550645,1.2243147311347289
2025-07-23 15:23:34.246,-0.0021220823903031,1.1519752605232043
2025-07-23 15:23:34.254,-0.0021391933483087,1.0797329159269946
2025-07-23 15:23:34.261,-0.0021530666309294,1.0083424633602058
2025-07-23 15:23:34.269,-0.002162583936673,0.93871710690724
2025-07-23 15:23:34.277,-0.0021667518733428,0.871895262237674
2025-07-23 15:23:34.285,-0.0021647225026349,0.8090006541910969
2025-07-23 15:23:34.293,-0.0021558104140561,0.7511970580818692
2025-07-23 15:23:34.301,-0.0021395059175035,0.6996391406976908
2025-07-23 15:23:34.308,-0.0021154839226479,0.6554209898893991
2025-07-23 15:23:34.316,-0.0020836080751423,0.6195240561380699
2025-07-23 15:23:34.324,-0.0020439298238379,0.5927663568202519
2025-07-23 15:23:34.332,-0.0019966823379897,0.5757548919259129
2025-07-23 15:23:34.340,-0.001942269499562,0.5688432588626638
2025-07-23 15:23:34.347,-0.0018812504120114,0.5720964051027475
2025-07-23 15:23:34.355,-0.0018143199154208,0.5852643024321091
2025-07-23 15:23:34.363,-0.0017422855572939,0.6077660630308968
2025-07-23 15:23:34.371,-0.0016660414901807,0.6386856587105578
2025-07-23 15:23:34.379,-0.001586539924917,0.6767799736402168
2025-07-23 15:23:34.386,-0.001504760989283,0.7204994449992371
2025-07-23 15:23:34.394,-0.0014216819754515,0.7680210515851148
2025-07-23 15:23:34.402,-0.0013382469215793,0.8172929200623419
2025-07-23 15:23:34.410,-0.0012553373081677,0.8660893497917312
2025-07-23 15:23:34.418,-0.0011737444446665,0.9120746226023072
2025-07-23 15:23:34.426,-0.0010941439468865,0.95287357246244
2025-07-23 15:23:34.433,-0.0010170726671343,0.9861465508063788
2025-07-23 15:23:34.441,-0.0009429086201625,1.0096661496422483
2025-07-23 15:23:34.449,-0.0008718547353558,1.021392855354685
2025-07-23 15:23:34.457,-0.0008039274062298,1.019546722133999
2025-07-23 15:23:34.465,-0.0007389507154791,1.00267219281624
2025-07-23 15:23:34.472,-0.0006765570398413,0.9696933678548268
2025-07-23 15:23:34.480,-0.0006161945960894,0.9199573336506096
2025-07-23 15:23:34.488,-0.0005571422896586,0.8532636029257296
2025-07-23 15:23:34.496,-0.0004985318636034,0.7698782730170382
2025-07-23 15:23:34.504,-0.0004393768729431,0.6705321423783804
2025-07-23 15:23:34.511,-0.000378607579225,0.5564027051611072
2025-07-23 15:23:34.519,-0.0003151105585092,0.4290806322106965
2025-07-23 15:23:34.527,-0.0002477716126655,0.2905220084124049
2025-07-23 15:23:34.535,-0.0001755204041307,0.1429881939870559
2025-07-23 15:23:34.543,-9.737510351292708e-05,-0.0110243259321709
2025-07-23 15:23:34.551,-1.2485323205905978e-05,-0.1688613740907978
2025-07-23 15:23:34.558,7.98282507192764e-05,-0.3277928512862134
2025-07-23 15:23:34.566,0.0001800388977136,-0.4850958334395518
2025-07-23 15:23:34.574,0.0002883847919121,-0.6381360534676177
2025-07-23 15:23:34.582,0.0004048470305666,-0.7844450002985376
2025-07-23 15:23:34.590,0.0005291360182867,-0.9217901190855704
2025-07-23 15:23:34.597,0.0006606874102812,-1.0482359047480987
2025-07-23 15:23:34.605,0.0007986685792412,-1.162194033941274
2025-07-23 15:23:34.613,0.0009419961813675,-1.262461073185094
2025-07-23 15:23:34.621,0.0010893649297263,-1.3482427304447058
2025-07-23 15:23:34.629,0.0012392871434806,-1.4191640800673258
2025-07-23 15:23:34.636,0.0013901419691312,-1.4752656778475954
2025-07-23 15:23:34.644,0.001540232342858,-1.5169859784077684
2025-07-23 15:23:34.652,0.0016878468853841,-1.5451309498552717
2025-07-23 15:23:34.660,0.0018313232027615,-1.5608322280846412
2025-07-23 15:23:34.668,0.0019691087203058,-1.5654955452533574
2025-07-23 15:23:34.676,0.0020998153228687,-1.5607414901578742
2025-07-23 15:23:34.683,0.0022222647043185,-1.5483409052209758
2025-07-23 15:23:34.691,0.0023355222841236,-1.5301473913317876
2025-07-23 15:23:34.699,0.0024389185429989,-1.508029472464829
2025-07-23 15:23:34.707,0.0025320574093672,-1.4838049600251526
2025-07-23 15:23:34.715,0.002614811870746,-1.4591799469930704
2025-07-23 15:23:34.722,0.0026873074694912,-1.4356946524732848
2025-07-23 15:23:34.730,0.0027498949107878,-1.4146780302405586
2025-07-23 15:23:34.738,0.0028031136113601,-1.3972126572192023
2025-07-23 15:23:34.746,0.0028476484951895,-1.3841109429728522
2025-07-23 15:23:34.754,0.0028842825838568,-1.3759031695265944
2025-07-23 15:23:34.761,0.0029138479031522,-1.372837308971456
2025-07-23 15:23:34.769,0.0029371769765581,-1.3748900075332249
2025-07-23 15:23:34.777,0.0029550568243618,-1.3817876076943825
2025-07-23 15:23:34.785,0.0029681871036774,-1.393035643885615
2025-07-23 15:23:34.793,0.0029771438989767,-1.4079549248069103
2025-07-23 15:23:34.801,0.0029823506360879,-1.425722125692624
2025-07-23 15:23:34.808,0.0029840574959674,-1.4454127598833426
2025-07-23 15:23:34.816,0.0029823304426595,-1.4660444704338311
2025-07-23 15:23:34.824,0.0029770505278718,-1.486618760487599
2025-07-23 15:23:34.832,0.0029679235332281,-1.506159543608737
2025-07-23 15:23:34.840,0.0029544993548387,-1.5237472182366902
2025-07-23 15:23:34.847,0.0029361999251106,-1.538547327905228
2025-07-23 15:23:34.855,0.002912353955694,-1.549833233782724
2025-07-23 15:23:34.863,0.0028822363899026,-1.557002574438815
2025-07-23 15:23:34.871,0.0028451101916797,-1.559587602670703
2025-07-23 15:23:34.879,0.0028002679809771,-1.557259760709642
2025-07-23 15:23:34.886,0.002747071052828,-1.5498290764088791
2025-07-23 15:23:34.894,0.0026849834969491,-1.5372391289508078
2025-07-23 15:23:34.902,0.0026135994644872,-1.5195584404085287
2025-07-23 15:23:34.910,0.0025326620971506,-1.496969197853475
2025-07-23 15:23:34.918,0.0024420732314738,-1.4697541981009368
2025-07-23 15:23:34.926,0.0023418936713283,-1.4382828336493998
2025-07-23 15:23:34.933,0.0022323344882157,-1.4029968098115793
2025-07-23 15:23:34.941,0.0021137403707473,-1.3643961128561546
2025-07-23 15:23:34.949,0.0019865664582975,-1.323025554792434
2025-07-23 15:23:34.957,0.0018513503474182,-1.2794620196863908
2025-07-23 15:23:34.965,0.0017086810576156,-1.234302346012664
2025-07-23 15:23:34.972,0.0015591667216119,-1.18815161967334
2025-07-23 15:23:34.980,0.0014034027065636,-1.1416115485274552
2025-07-23 15:23:34.988,0.0012419418591298,-1.0952685676793676
2025-07-23 15:23:34.996,0.0010752686025656,-1.049681400753589
2025-07-23 15:23:35.004,0.0009037786233299,-1.0053679703607468
2025-07-23 15:23:35.011,0.0007277657926472,-0.9627917833382574
2025-07-23 15:23:35.019,0.0005474177450805,-0.9223481727903162
2025-07-23 15:23:35.027,0.0003628211767307,-0.8843510186218866
2025-07-23 15:23:35.035,0.0001739774082181,-0.8490207573539499
2025-07-23 15:23:35.043,-1.917197202189273e-05,-0.8164746057443147
2025-07-23 15:23:35.051,-0.0002167105243602,-0.7867199447996086
2025-07-23 15:23:35.058,-0.0004187056168044,-0.7596517318978211
2025-07-23 15:23:35.066,-0.0006251633747503,-0.7350546269005804
2025-07-23 15:23:35.074,-0.0008359834747195,-0.7126102420448855
2025-07-23 15:23:35.082,-0.0010509174699553,-0.691909578112244
2025-07-23 15:23:35.090,-0.001269534165243,-0.6724703264578831
2025-07-23 15:23:35.097,-0.0014911951192844,-0.6537583388958723
2025-07-23 15:23:35.105,-0.0017150426963158,-0.6352122335544522
2025-07-23 15:23:35.113,-0.0019400023153743,-0.6162698456673086
2025-07-23 15:23:35.121,-0.0021647997548747,-0.5963950701473761
2025-07-23 15:23:35.129,-0.0023879936184958,-0.57510359065324
2025-07-23 15:23:35.136,-0.0026080223841334,-0.5519860498716
2025-07-23 15:23:35.144,-0.002823264856542,-0.5267273785337792
2025-07-23 15:23:35.152,-0.0030321123131872,-0.4991212477927716
2025-07-23 15:23:35.160,-0.0032330501147903,-0.4690789185230901
2025-07-23 15:23:35.168,-0.003424745991815,-0.4366321088686034
2025-07-23 15:23:35.176,-0.0036061416398463,-0.4019298644006346
2025-07-23 15:23:35.183,-0.0037765437578847,-0.3652297697754958
2025-07-23 15:23:35.191,-0.0039357103146022,-0.3268841656169073
2025-07-23 15:23:35.199,-0.0040839276106091,-0.2873223111838597
2025-07-23 15:23:35.207,-0.0042220735729262,-0.2470296425794712
2025-07-23 15:23:35.215,-0.0043516626936941,-0.2065253965975219
2025-07-23 15:23:35.222,-0.0044748681994575,-0.1663398879359615
2025-07-23 15:23:35.230,-0.0045945174685086,-0.1269926455008222
2025-07-23 15:23:35.238,-0.0047140573658679,-0.0889724515613912
2025-07-23 15:23:35.246,-0.0048374869680331,-0.0527201126237254
2025-07-23 15:23:35.254,-0.00496925609602,-0.0186145480454942
2025-07-23 15:23:35.261,-0.0051141292273975,0.0130374690139836
2025-07-23 15:23:35.269,-0.0052770157678396,0.0420078289194732
2025-07-23 15:23:35.277,-0.005462769320549,0.0681499986204938
2025-07-23 15:23:35.285,-0.0056759604204444,0.0913986655919424
2025-07-23 15:23:35.293,-0.0059206290615452,0.1117666059264127
2025-07-23 15:23:35.301,-0.006200025089726,0.1293393788763989
2025-07-23 15:23:35.308,-0.006516346053661,0.1442685036966805
2025-07-23 15:23:35.316,-0.0068704833319564,0.1567637721250527
2025-07-23 15:23:35.324,-0.0072617882096257,0.1670852972693875
2025-07-23 15:23:35.332,-0.007687869999106,0.1755358076274094
2025-07-23 15:23:35.340,-0.0081444382412462,0.1824535743374254
2025-07-23 15:23:35.347,-0.0086252004324659,0.1882062179729981
2025-07-23 15:23:35.355,-0.0091218255783307,0.1931854827652726
2025-07-23 15:23:35.363,-0.0096239821670688,0.1978028977339621
2025-07-23 15:23:35.371,-0.0101194568999483,0.2024860787784693
2025-07-23 15:23:35.379,-0.0105943577744449,0.2076752806860699
2025-07-23 15:23:35.386,-0.0110334020220025,0.2138197002339666
2025-07-23 15:23:35.394,-0.011420286074736,0.2213729758789793
2025-07-23 15:23:35.402,-0.0117381312279978,0.2307873380966354
2025-07-23 15:23:35.410,-0.0119699950199382,0.24250594344456
2025-07-23 15:23:35.418,-0.0120994346715688,0.2569530719091226
2025-07-23 15:23:35.426,-0.0121111053807832,0.2745220700497475
2025-07-23 15:23:35.433,-0.0119913730122127,0.295561165519654
2025-07-23 15:23:35.441,-0.011728917960179,0.3203575408279612
2025-07-23 15:23:35.449,-0.0113153048842791,0.3491203113613974
2025-07-23 15:23:35.457,-0.0107454918143162,0.3819632797654588
2025-07-23 15:23:35.465,-0.0100182519778653,0.418888512683968
2025-07-23 15:23:35.472,-0.009136482792073,0.4597718865604371
2025-07-23 15:23:35.480,-0.0081073789162821,0.5043517627366375
2025-07-23 15:23:35.488,-0.006942450188516,0.5522218749944481
2025-07-23 15:23:35.496,-0.0056573707325488,0.6028293531644586
2025-07-23 15:23:35.504,-0.0042716525309273,0.6554785795038208
2025-07-23 15:23:35.511,-0.002808145292867,0.7093412956813434
2025-07-23 15:23:35.519,-0.0012923744603289,0.763473060471253
2025-07-23 15:23:35.527,0.0002482595130095,0.8168358134166533
2025-07-23 15:23:35.535,0.0017853856254632,0.8683259412751474
2025-07-23 15:23:35.543,0.0032906248491024,0.9168068911600208
2025-07-23 15:23:35.551,0.0047365580584371,0.9611450535578654
2025-07-23 15:23:35.558,0.0060976456453921,1.0002473802137255
2025-07-23 15:23:35.566,0.007351050188282,1.0330990334380916
2025-07-23 15:23:35.574,0.0084773231371569,1.058799303469679
2025-07-23 15:23:35.582,0.0094609283163749,1.0765940865593209
2025-07-23 15:23:35.590,0.0102905872976387,1.08590338299988
2025-07-23 15:23:35.597,0.0109594431262931,1.086342534403116
2025-07-23 15:23:35.605,0.0114650486985358,1.077736249480891
2025-07-23 15:23:35.613,0.0118091939189302,1.060124842873945
2025-07-23 15:23:35.621,0.0119975916443091,1.0337625095047165
2025-07-23 15:23:35.629,0.0120394465583427,0.9991078560635098
2025-07-23 15:23:35.636,0.0119469336844998,0.9568072898683404
2025-07-23 15:23:35.644,0.0117346143055079,0.9076722020142768
2025-07-23 15:23:35.652,0.011418816726014,0.8526511576242295
2025-07-23 15:23:35.660,0.0110170078422586,0.7927985062812205
2025-07-23 15:23:35.668,0.010547179207611,0.7292409387141476
2025-07-23 15:23:35.676,0.0100272684802198,0.6631435332052802
2025-07-23 15:23:35.683,0.0094746339266827,0.5956767554729356
2025-07-23 15:23:35.691,0.0089055960659369,0.5279857081503251
2025-07-23 15:23:35.699,0.0083350566409951,0.4611626894692199
2025-07-23 15:23:35.707,0.0077762010641887,0.3962238383771587
2025-07-23 15:23:35.715,0.0072402865430507,0.3340903367928212
2025-07-23 15:23:35.722,0.0067365145345864,0.2755743289255811
2025-07-23 15:23:35.730,0.0062719831670931,0.2213694218101377
2025-07-23 15:23:35.738,0.0058517128053788,0.1720453672286717
2025-07-23 15:23:35.746,0.0054787359399463,0.1280463047542483
2025-07-23 15:23:35.754,0.0051542410662497,0.0896917780413017
2025-07-23 15:23:35.761,0.0048777592917045,0.0571796348224678
2025-07-23 15:23:35.769,0.0046473821115581,0.0305899038870981
2025-07-23 15:23:35.777,0.0044599990416624,0.0098888264944063
2025-07-23 15:23:35.785,0.0043115444766318,-0.0050675902162262
2025-07-23 15:23:35.793,0.0041972442209469,-0.0145308479315359
2025-07-23 15:23:35.801,0.0041118535695352,-0.0188580660175182
2025-07-23 15:23:35.808,0.0040498804203331,-0.0185105661938156
2025-07-23 15:23:35.816,0.0040057884477615,-0.0140522365705861
2025-07-23 15:23:35.824,0.0039741767013573,-0.0061467127481117
2025-07-23 15:23:35.832,0.0039499331267084,0.0044477394681676
2025-07-23 15:23:35.840,0.0039283605615054,0.0168867660707584
2025-07-23 15:23:35.847,0.0039052748452766,0.0302528727002014
2025-07-23 15:23:35.855,0.003877075763625,0.0435734636104662
2025-07-23 15:23:35.863,0.003840792474102,0.055844235632805
2025-07-23 15:23:35.871,0.0037941056991098,0.0660576863310263
2025-07-23 15:23:35.879,0.0037353492784705,0.0732359620176414
2025-07-23 15:23:35.886,0.003663493660044,0.0764667676935099
2025-07-23 15:23:35.894,0.0035781136534707,0.0749406404486245
2025-07-23 15:23:35.902,0.0034793424902875,0.0679875916167621
2025-07-23 15:23:35.910,0.0033678141512462,0.0551109793853674
2025-07-23 15:23:35.918,0.0032445960867273,0.0360164982069456
2025-07-23 15:23:35.926,0.0031111147292427,0.0106343641559603
2025-07-23 15:23:35.933,0.0029690764063451,-0.0208668822326646
2025-07-23 15:23:35.941,0.0028203863065522,-0.0580760765789377
2025-07-23 15:23:35.949,0.0026670680298189,-0.1003452258056566
2025-07-23 15:23:35.957,0.0025111860518242,-0.146805430313908
2025-07-23 15:23:35.965,0.002354773211123,-0.1963924173814478
2025-07-23 15:23:35.972,0.0021997650599994,-0.2478806632377297
2025-07-23 15:23:35.980,0.0020479425727243,-0.2999246403764986
2025-07-23 15:23:35.988,0.0019008843342277,-0.3511053722253591
2025-07-23 15:23:35.996,0.0017599289917492,-0.399980226543598
2025-07-23 15:23:36.004,0.0016261484064443,-0.4451337423986509
2025-07-23 15:23:36.011,0.0015003315541076,-0.4852272651883894
2025-07-23 15:23:36.019,0.0013829788430547,-0.5190452544366928
2025-07-23 15:23:36.027,0.0012743061903095,-0.5455363196257654
2025-07-23 15:23:36.035,0.0011742578834963,-0.5638473181866618
2025-07-23 15:23:36.043,0.0010825269187265,-0.5733492051037432
2025-07-23 15:23:36.051,0.0009985812269416,-0.5736537407004666
2025-07-23 15:23:36.058,0.0009216941278313,-0.5646206204045505
2025-07-23 15:23:36.066,0.000850977544523,-0.5463550599564194
2025-07-23 15:23:36.074,0.0007854168876861,-0.519196323392014
2025-07-23 15:23:36.082,0.0007239069020701,-0.4836980950332253
2025-07-23 15:23:36.090,0.0006652880277332,-0.4406019510199422
2025-07-23 15:23:36.097,0.0006083829148986,-0.390805463081645
2025-07-23 15:23:36.105,0.0005520326382485,-0.3353266509003583
2025-07-23 15:23:36.113,0.000495131916834,-0.2752665774760803
2025-07-23 15:23:36.121,0.0004366623804517,-0.2117718508414805
2025-07-23 15:23:36.129,0.000375722793095,-0.1459986615897021
2025-07-23 15:23:36.136,0.0003115552253453,-0.0790797637356412
2025-07-23 15:23:36.144,0.0002435663903443,-0.0120955179307171
2025-07-23 15:23:36.152,0.0001713435730122,0.053950212946437
2025-07-23 15:23:36.160,9.466471140888154e-05,0.1181488680817314
2025-07-23 15:23:36.168,1.35023037941882e-05,0.179700575428498
2025-07-23 15:23:36.176,-7.197896948956084e-05,0.2379222996738644
2025-07-23 15:23:36.183,-0.0001614307043828,0.2922511750342546
2025-07-23 15:23:36.191,-0.0002543348077789,0.3422436271200219
2025-07-23 15:23:36.199,-0.0003500224012793,0.3875709974405527
2025-07-23 15:23:36.207,-0.0004476967421613,0.4280124200476354
2025-07-23 15:23:36.215,-0.0005464591795476,0.4634456683613132
2025-07-23 15:23:36.222,-0.0006453370955581,0.4938366081990038
2025-07-23 15:23:36.230,-0.0007433128424717,0.5192277857544796
2025-07-23 15:23:36.238,-0.0008393528661596,0.5397265745878893
2025-07-23 15:23:36.246,-0.0009324364240339,0.5554932279630025
2025-07-23 15:23:36.254,-0.0010215834776153,0.5667291471366095
2025-07-23 15:23:36.261,-0.0011058814212751,0.5736656826587805
2025-07-23 15:23:36.269,-0.0011845102977373,0.5765538185603931
2025-07-23 15:23:36.277,-0.0012567660556548,0.5756551228124301
2025-07-23 15:23:36.285,-0.0013220812589555,0.5712343563361406
2025-07-23 15:23:36.293,-0.0013800425469872,0.5635540996164381
2025-07-23 15:23:36.301,-0.0014304041268474,0.5528716726573606
2025-07-23 15:23:36.308,-0.0014730966188762,0.5394384911774383
2025-07-23 15:23:36.316,-0.0015082306359216,0.5235018278723641
2025-07-23 15:23:36.324,-0.0015360946052456,0.5053087475426035
2025-07-23 15:23:36.332,-0.0015571465852509,0.4851117795028359
2025-07-23 15:23:36.340,-0.0015720001385894,0.4631757033501634
2025-07-23 15:23:36.347,-0.0015814046202758,0.4397846780051992
2025-07-23 15:23:36.355,-0.0015862204943221,0.4152488595175195
2025-07-23 15:23:36.363,-0.0015873905031983,0.389909646646342
2025-07-23 15:23:36.371,-0.0015859077069247,0.3641427729965021
2025-07-23 15:23:36.379,-0.001582781651152,0.3383586267958018
2025-07-23 15:23:36.386,-0.0015790042222009,0.3129994079710494
2025-07-23 15:23:36.394,-0.0015755169430308,0.2885330009950611
2025-07-23 15:23:36.402,-0.0015731813636502,0.265443719226447
2025-07-23 15:23:36.410,-0.0015727538064541,0.2442203309205518
2025-07-23 15:23:36.418,-0.0015748652429259,0.2253419858716971
2025-07-23 15:23:36.426,-0.0015800066692075,0.2092628137507279
2025-07-23 15:23:36.433,-0.0015885200206415,0.1963960586413794
2025-07-23 15:23:36.441,-0.0016005943896486,0.1870986510546136
2025-07-23 15:23:36.449,-0.0016162671351799,0.1816571020703631
2025-07-23 15:23:36.457,-0.0016354294338263,0.1802755381782284
2025-07-23 15:23:36.465,-0.0016578358426496,0.1830665836017868
2025-07-23 15:23:36.472,-0.0016831174023398,0.1900456419448175
2025-07-23 15:23:36.480,-0.0017107977021948,0.2011289340761567
2025-07-23 15:23:36.488,-0.0017403112670759,0.2161354223404932
2025-07-23 15:23:36.496,-0.0017710236781759,0.2347925075492245
2025-07-23 15:23:36.504,-0.0018022529281192,0.2567451448887498
2025-07-23 15:23:36.511,-0.0018332915169211,0.2815678099242023
2025-07-23 15:23:36.519,-0.0018634287157462,0.3087785783465731
2025-07-23 15:23:36.527,-0.001891972374165,0.3378544826385438
2025-07-23 15:23:36.535,-0.0019182696945769,0.3682472884196937
2025-07-23 15:23:36.543,-0.0019417264730047,0.3993988951986615
2025-07-23 15:23:36.551,-0.0019618242939314,0.4307556998873628
2025-07-23 15:23:36.558,-0.0019781350705717,0.4617814428986879
2025-07-23 15:23:36.566,-0.0019903322602379,0.4919682529577935
2025-07-23 15:23:36.574,-0.0019981981384948,0.5208457845221731
2025-07-23 15:23:36.582,-0.0020016266504524,0.5479884771380089
2025-07-23 15:23:36.590,-0.0020006215298145,0.5730210500106928
2025-07-23 15:23:36.597,-0.0019952896281071,0.5956223813304671
2025-07-23 15:23:36.605,-0.0019858297616106,0.6155279223615228
2025-07-23 15:23:36.613,-0.0019725177733165,0.6325307761898742
2025-07-23 15:23:36.621,-0.0019556887676316,0.64648154478644
2025-07-23 15:23:36.629,-0.0019357175322948,0.6572870264529194
2025-07-23 15:23:36.637,-0.0019129980877271,0.6649078347979451
2025-07-23 15:23:36.644,-0.0018879232510333,0.669355011421414
2025-07-23 15:23:36.652,-0.0018608651509468,0.670685714188118
2025-07-23 15:23:36.660,-0.0018321577069315,0.6689980749640266
2025-07-23 15:23:36.668,-0.0018020820444854,0.6644253289849984
2025-07-23 15:23:36.676,-0.0017708555924267,0.657129319728362
2025-07-23 15:23:36.683,-0.0017386252756132,0.6472934779578072
2025-07-23 15:23:36.691,-0.0017054649358323,0.6351153628941569
2025-07-23 15:23:36.699,-0.0016713769699226,0.6207988414512671
2025-07-23 15:23:36.707,-0.0016362980970853,0.6045459758739004
2025-07-23 15:23:36.715,-0.0016001090138248,0.5865487000228408
2025-07-23 15:23:36.722,-0.0015626474002522,0.5669803973553216
2025-07-23 15:23:36.730,-0.0015237233860785,0.5459875526388432
2025-07-23 15:23:36.738,-0.0014831363269539,0.5236817317322932
2025-07-23 15:23:36.746,-0.0014406916726822,0.5001322381206049
2025-07-23 15:23:36.754,-0.0013962167889938,0.4753598814785558
2025-07-23 15:23:36.762,-0.0013495747474576,0.4493323484617734
2025-07-23 15:23:36.769,-0.0013006752934546,0.4219616685330423
2025-07-23 15:23:36.777,-0.001249482430133,0.3931042059564472
2025-07-23 15:23:36.785,-0.0011960183064887,0.3625634823586335
2025-07-23 15:23:36.793,-0.0011403633646518,0.3300959537825061
2025-07-23 15:23:36.801,-0.0010826529524184,0.2954196530328211
2025-07-23 15:23:36.808,-0.0010230707939627,0.2582253874086184
2025-07-23 15:23:36.816,-0.0009618398585992,0.2181899774871344
2025-07-23 15:23:36.824,-0.0008992113588282,0.1749908545187655
2025-07-23 15:23:36.832,-0.0008354528410603,0.1283212167948734
2025-07-23 15:23:36.840,-0.0007708364815246,0.0779048878470568
2025-07-23 15:23:36.847,-0.0007056286875526,0.0235100267182361
2025-07-23 15:23:36.855,-0.0006400819759081,-0.0350390844006675
2025-07-23 15:23:36.863,-0.0005744298987446,-0.0978528096584822
2025-07-23 15:23:36.871,-0.0005088854794253,-0.1649699262615052
2025-07-23 15:23:36.879,-0.0004436431844824,-0.2363545981712793
2025-07-23 15:23:36.887,-0.0003788839859986,-0.3118965208865528
2025-07-23 15:23:36.894,-0.0003147827231911,-0.3914139595487942
2025-07-23 15:23:36.902,-0.0002515168407915,-0.4746591809276821
2025-07-23 15:23:36.910,-0.000189275594323,-0.5613255938526502
2025-07-23 15:23:36.918,-0.0001282688228716,-0.6510557794280377
2025-07-23 15:23:36.926,-6.873432833602121e-05,-0.7434495304780816
2025-07-23 15:23:36.933,-1.0942839070261311e-05,-0.8380710447011489
2025-07-23 15:23:36.941,4.480037651560834e-05,-0.9344545335708514
2025-07-23 15:23:36.949,9.81578715254662e-05,-1.0321077102603886
2025-07-23 15:23:36.957,0.0001487665318753,-1.1305128825687156
2025-07-23 15:23:36.965,0.0001962479542191,-1.2291256702014666
2025-07-23 15:23:36.972,0.0002402219968068,-1.327371655834749
2025-07-23 15:23:36.980,0.0002803224558605,-1.4246415340329046
2025-07-23 15:23:36.988,0.0003162136118718,-1.520285515790848
2025-07-23 15:23:36.996,0.0003476064488922,-1.613607864181035
2025-07-23 15:23:37.004,0.0003742736422173,-1.7038624754407272
2025-07-23 15:23:37.012,0.0003960627334323,-1.7902503882361025
2025-07-23 15:23:37.019,0.0004129071119415,-1.871920017820237
2025-07-23 15:23:37.027,0.0004248345321047,-1.947970788704075
2025-07-23 15:23:37.035,0.0004319730218967,-2.017460690917803
2025-07-23 15:23:37.043,0.0004345541818827,-2.079418114035538
2025-07-23 15:23:37.051,0.0004329139183397,-2.1328581180482185
2025-07-23 15:23:37.058,0.0004274905344267,-2.1768030799118296
2025-07-23 15:23:37.066,0.0004188199025297,-2.21030741143031
2025-07-23 15:23:37.074,0.000407527321543,-2.2324857829233533
2025-07-23 15:23:37.082,0.0003943157354849,-2.242544015231536
2025-07-23 15:23:37.090,0.0003799502552754,-2.2398115317761524
2025-07-23 15:23:37.097,0.0003652392745855,-2.223774010976003
2025-07-23 15:23:37.105,0.0003510127421394,-2.194104671769632
2025-07-23 15:23:37.113,0.0003380982628576,-2.150692487830938
2025-07-23 15:23:37.121,0.0003272957205988,-2.0936655833616773
2025-07-23 15:23:37.129,0.0003193511900392,-2.023408134064502
2025-07-23 15:23:37.137,0.0003149311000754,-1.9405692927098488
2025-07-23 15:23:37.144,0.0003145978462461,-1.8460629798185677
2025-07-23 15:23:37.152,0.0003187881672696,-1.7410578112482529
2025-07-23 15:23:37.160,0.0003277955161893,-1.6269569469419705
2025-07-23 15:23:37.168,0.0003417574366756,-1.5053682021313377
2025-07-23 15:23:37.176,0.0003606487137145,-1.378065322741121
2025-07-23 15:23:37.183,0.0003842808118048,-1.2469418449822889
2025-07-23 15:23:37.191,0.0004123077635065,-1.1139593907850094
2025-07-23 15:23:37.199,0.0004442382311646,-0.981092564350071
2025-07-23 15:23:37.207,0.0004794530607779,-0.8502727980788726
2025-07-23 15:23:37.215,0.0005172273611935,-0.7233335504088609
2025-07-23 15:23:37.222,0.0005567559339122,-0.601959192426381
2025-07-23 15:23:37.230,0.0005971807118825,-0.4876397450374562
2025-07-23 15:23:37.238,0.0006376187881893,-0.3816333531786263
2025-07-23 15:23:37.246,0.000677189695265,-0.284938014844242
2025-07-23 15:23:37.254,0.0007150408522091,-0.1982736278251815
2025-07-23 15:23:37.262,0.0007503704874471,-0.1220748903006621
2025-07-23 15:23:37.269,0.0007824477427031,-0.0564950192482065
2025-07-23 15:23:37.277,0.0008106299063839,-0.0014196711334275
2025-07-23 15:23:37.285,0.0008343767265278,0.0435100923671192
2025-07-23 15:23:37.293,0.0008532615925221,0.0788674088586631
2025-07-23 15:23:37.301,0.000866979210172,0.1054037397695617
2025-07-23 15:23:37.308,0.0008753493436649,0.124009648403108
2025-07-23 15:23:37.316,0.0008783163041432,0.1356743850852602
2025-07-23 15:23:37.324,0.0008759441283662,0.1414462926389519
2025-07-23 15:23:37.332,0.0008684077692701,0.1423957633579577
2025-07-23 15:23:37.340,0.0008559809959396,0.1395820882562155
2025-07-23 15:23:37.347,0.0008390219134906,0.1340250849725852
2025-07-23 15:23:37.355,0.000817956984682,0.1266819219914084
2025-07-23 15:23:37.363,0.0007932642449978,0.1184291216242432
2025-07-23 15:23:37.371,0.0007654562071829,0.1100493615588744
2025-07-23 15:23:37.379,0.0007350628353217,0.1022224311308363
2025-07-23 15:23:37.387,0.0007026149069184,0.0955195470692004
2025-07-23 15:23:37.394,0.0006686280349782,0.0904001957183211
2025-07-23 15:23:37.402,0.0006335876309146,0.0872107356708718
2025-07-23 15:23:37.410,0.0005979351958894,0.0861841480730341
2025-07-23 15:23:37.418,0.0005620564530773,0.0874405358172035
2025-07-23 15:23:37.426,0.0005262718521978,0.090988218057494
2025-07-23 15:23:37.433,0.0004908298932274,0.0967255144660799
2025-07-23 15:23:37.441,0.0004559036419762,0.1044435390690317
2025-07-23 15:23:37.449,0.0004215908103702,0.1138305039312978
2025-07-23 15:23:37.457,0.0003879177754246,0.124478148381647
2025-07-23 15:23:37.465,0.0003548477640436,0.1358909434495232
2025-07-23 15:23:37.472,0.0003222930622236,0.1474986631436382
2025-07-23 15:23:37.480,0.0002901306020996,0.1586727617378619
2025-07-23 15:23:37.488,0.000258219804308,0.1687467570821228
2025-07-23 15:23:37.496,0.000226421228422,0.1770405120420277
2025-07-23 15:23:37.504,0.0001946144577671,0.1828879548762529
2025-07-23 15:23:37.512,0.0001627137245806,0.1856674146916109
2025-07-23 15:23:37.519,0.0001306800571353,0.1848334039820268
2025-07-23 15:23:37.527,9.8529158307956e-05,0.1799483935879219
2025-07-23 15:23:37.535,6.633471317033609e-05,0.1707129323762204
2025-07-23 15:23:37.543,3.422727230220175e-05,0.1569923939424118
2025-07-23 15:23:37.551,2.3892184911478697e-06,0.1388387015024889
2025-07-23 15:23:37.558,-2.8953416254336283e-05,0.1165055864020583
2025-07-23 15:23:37.566,-5.954136876547515e-05,0.0904562517568478
2025-07-23 15:23:37.574,-8.909382626477334e-05,0.0613627034461689
2025-07-23 15:23:37.582,-0.0001173203883589,0.0300964363648751
2025-07-23 15:23:37.590,-0.0001439323624774,-0.0022894078109879
2025-07-23 15:23:37.597,-0.0001686525731751,-0.0345858865238903
2025-07-23 15:23:37.605,-0.0001912230772188,-0.0654612088141085
2025-07-23 15:23:37.613,-0.0002114103977002,-0.0934995750683851
2025-07-23 15:23:37.621,-0.0002290080743369,-0.1172444224708788
2025-07-23 15:23:37.629,-0.0002438365142008,-0.1352443974810691
2025-07-23 15:23:37.637,-0.0002557403849205,-0.1461002473610612
2025-07-23 15:23:37.644,-0.0002645841161551,-0.1485107646031384
2025-07-23 15:23:37.652,-0.0002702463823207,-0.1413159367781919
2025-07-23 15:23:37.660,-0.0002726146480819,-0.1235355569816568
2025-07-23 15:23:37.668,-0.0002715809323922,-0.0944017417656921
2025-07-23 15:23:37.676,-0.0002670398828611,-0.0533840841235719
2025-07-23 15:23:37.683,-0.0002588900562532,-0.0002065322834099
2025-07-23 15:23:37.691,-0.0002470389839513,0.0651444844089509
2025-07-23 15:23:37.699,-0.0002314121785962,0.1424206915401662
2025-07-23 15:23:37.707,-0.0002119657344974,0.2311209096185209
2025-07-23 15:23:37.715,-0.0001887016498299,0.3305074239075286
2025-07-23 15:23:37.722,-0.0001616845785749,0.4396285868775916
2025-07-23 15:23:37.730,-0.0001310585371786,0.5573462517699082
2025-07-23 15:23:37.738,-9.70621293675318e-05,0.682366557629162
2025-07-23 15:23:37.746,-6.004092789470166e-05,0.813272625946902
2025-07-23 15:23:37.754,-2.045564868264237e-05,0.9485578668142156
2025-07-23 15:23:37.762,2.1115204849679863e-05,1.0866587997115371
2025-07-23 15:23:37.769,6.397926874953859e-05,1.2259865380206545
2025-07-23 15:23:37.777,0.0001073413163196,1.3649563352722425
2025-07-23 15:23:37.785,0.000150321155446,1.5020148185845883
2025-07-23 15:23:37.793,0.0001919776082731,1.6356647223036538
2025-07-23 15:23:37.801,0.0002313372617707,1.7644870730382007
2025-07-23 15:23:37.808,0.0002674263979282,1.8871608644553024
2025-07-23 15:23:37.816,0.000299304384748,2.0024803010978736
2025-07-23 15:23:37.824,0.0003260967244627,2.109369694806579
2025-07-23 15:23:37.832,0.0003470259436505,2.2068960769252426
2025-07-23 15:23:37.840,0.0003614387290931,2.2942795549173387
2025-07-23 15:23:37.847,0.0003688281958735,2.370901400961161
2025-07-23 15:23:37.855,0.0003688507134265,2.4363098170213378
2025-07-23 15:23:37.863,0.000361337076378,2.4902232772468755
2025-07-23 15:23:37.871,0.0003462979511548,2.532531304137849
2025-07-23 15:23:37.879,0.0003239235717297,2.563292490966528
2025-07-23 15:23:37.887,0.0002945777074219,2.582729543999802
2025-07-23 15:23:37.894,0.0002587860268472,2.591221091849361
2025-07-23 15:23:37.902,0.000217219145105,2.589290006638365
2025-07-23 15:23:37.910,0.0001706708682045,2.5775880181486186
2025-07-23 15:23:37.918,0.0001200324386662,2.556876496787185
2025-07-23 15:23:37.926,6.626392962704429e-05,2.528003448836462
2025-07-23 15:23:37.933,1.0364286711789822e-05,2.491877008012404
2025-07-23 15:23:37.941,-4.665823893762401e-05,2.4494360020795884
2025-07-23 15:23:37.949,-0.0001038135433127,2.4016184893223773
2025-07-23 15:23:37.957,-0.0001601536366395,2.3493294583967246
2025-07-23 15:23:37.965,-0.0002147923162292,2.293409129142092
2025-07-23 15:23:37.972,-0.0002669202689841,2.2346034498627865
2025-07-23 15:23:37.980,-0.0003158156618742,2.17353843546343
2025-07-23 15:23:37.988,-0.0003608504432847,2.110699918558615
2025-07-23 15:23:37.996,-0.0004014927160524,2.0464200932726784
2025-07-23 15:23:38.004,-0.0004373057293309,1.9808719327401825
2025-07-23 15:23:38.012,-0.0004679442266307,1.914072178454954
2025-07-23 15:23:38.019,-0.0004931490101862,1.845893156144066
2025-07-23 15:23:38.027,-0.0005127406061442,1.7760831887263715
2025-07-23 15:23:38.035,-0.0005266128405024,1.704294868958284
2025-07-23 15:23:38.043,-0.0005347269708945,1.6301199419994543
2025-07-23 15:23:38.051,-0.0005371067815854,1.5531290601773196
2025-07-23 15:23:38.058,-0.0005338347852646,1.4729142495060623
2025-07-23 15:23:38.066,-0.0005250494760675,1.3891316185007403
2025-07-23 15:23:38.074,-0.000510943531689,1.3015416897740488
2025-07-23 15:23:38.082,-0.0004917629698849,1.2100447730724893
2025-07-23 15:23:38.090,-0.0004678074193399,1.1147090309639245
2025-07-23 15:23:38.097,-0.0004394317151423,1.0157892998710694
2025-07-23 15:23:38.105,-0.0004070488700418,0.913735288261651
2025-07-23 15:23:38.113,-0.000371134114725,0.8091884385579948
2025-07-23 15:23:38.121,-0.0003322292688691,0.7029674601029486
2025-07-23 15:23:38.129,-0.0002909463654481,0.5960432621119542
2025-07-23 15:23:38.137,-0.0002479693013504,0.4895046808449749
2025-07-23 15:23:38.144,-0.0002040523001325,0.3845169527258468
2025-07-23 15:23:38.152,-0.0001600140761532,0.282275296923715
2025-07-23 15:23:38.160,-0.0001167267889131,0.183956215415449
2025-07-23 15:23:38.168,-7.509923821435352e-05,0.0906691883816893
2025-07-23 15:23:38.176,-3.605429666908003e-05,0.0034113431527059
2025-07-23 15:23:38.183,-5.012183455199486e-07,-0.0769725774475765
2025-07-23 15:23:38.191,3.069596653399388e-05,-0.1498230027854642
2025-07-23 15:23:38.199,5.67523677214732e-05,-0.2146896183947337
2025-07-23 15:23:38.207,7.699661595731054e-05,-0.2713458480748129
2025-07-23 15:23:38.215,9.090373865907292e-05,-0.3197934406312483
2025-07-23 15:23:38.222,9.81246054290038e-05,-0.3602574722790726
2025-07-23 15:23:38.230,9.851024209053122e-05,-0.3931726304744116
2025-07-23 15:23:38.238,9.212959357103328e-05,-0.4191621017116358
2025-07-23 15:23:38.246,7.927953995063252e-05,-0.4390107059130201
2025-07-23 15:23:38.254,6.048617976887165e-05,-0.4536340810216963
2025-07-23 15:23:38.262,3.6496731572199945e-05,-0.4640457214370473
2025-07-23 15:23:38.269,8.261908956382126e-06,-0.4713235330527549
2025-07-23 15:23:38.277,-2.309082582594101e-05,-0.4765773244667546
2025-07-23 15:23:38.285,-5.629225326428232e-05,-0.4809183558220936
2025-07-23 15:23:38.293,-8.997333520813787e-05,-0.4854317573103509
2025-07-23 15:23:38.301,-0.0001227123326806,-0.4911523400844447
2025-07-23 15:23:38.308,-0.0001530848600029,-0.499044071509268
2025-07-23 15:23:38.316,-0.0001797143603017,-0.5099832836744587
2025-07-23 15:23:38.324,-0.0002013205717643,-0.5247455334982846
2025-07-23 15:23:38.332,-0.0002167639434379,-0.5439959336615297
2025-07-23 15:23:38.340,-0.0002250844644038,-0.5682827155709071
2025-07-23 15:23:38.347,-0.0002255337989593,-0.5980337497513
2025-07-23 15:23:38.355,-0.0002175998827673,-0.633555717789459
2025-07-23 15:23:38.363,-0.0002010232989862,-0.6750355961171001
2025-07-23 15:23:38.371,-0.0001758049730599,-0.7225440801236571
2025-07-23 15:23:38.379,-0.0001422050776895,-0.7760405568039053
2025-07-23 15:23:38.387,-0.0001007334750487,-0.8353792326844104
2025-07-23 15:23:38.394,-5.2132434328906345e-05,-0.9003160449212028
2025-07-23 15:23:38.402,2.64735722198851e-06,-0.9705160298407738
2025-07-23 15:23:38.410,6.247637074857618e-05,-1.0455608962420262
2025-07-23 15:23:38.418,0.0001260802831715,-1.1249566473618289
2025-07-23 15:23:38.426,0.0001920773577859,-1.208141205543174
2025-07-23 15:23:38.433,0.0002590179636388,-1.2944921016820743
2025-07-23 15:23:38.441,0.0003254250347023,-1.3833343796312887
2025-07-23 15:23:38.449,0.0003898343405353,-1.4739489178201166
2025-07-23 15:23:38.457,0.0004508335328799,-1.5655813753287982
2025-07-23 15:23:38.465,0.0005070990221426,-1.6574519244454171
2025-07-23 15:23:38.472,0.0005574298220787,-1.7487658440875344
2025-07-23 15:23:38.480,0.0006007775696659,-1.838724936314591
2025-07-23 15:23:38.488,0.000636271987936,-1.9265396133188448
2025-07-23 15:23:38.496,0.0006632411222242,-2.011441403327079
2025-07-23 15:23:38.504,0.000681225745302,-2.09269555273076
2025-07-23 15:23:38.512,0.0006899874387337,-2.16961336312943
2025-07-23 15:23:38.519,0.0006895100978493,-2.241563893665479
2025-07-23 15:23:38.527,0.0006799950100736,-2.3079846747906125
2025-07-23 15:23:38.535,0.0006618501418921,-2.3683911123338883
2025-07-23 15:23:38.543,0.0006356746542124,-2.422384303560443
2025-07-23 15:23:38.551,0.0006022397902212,-2.4696570332644963
2025-07-23 15:23:38.558,0.0005624671501667,-2.509997763332109
2025-07-23 15:23:38.566,0.0005174051171118,-2.5432924736695037
2025-07-23 15:23:38.574,0.0004682039475858,-2.5695242606199438
2025-07-23 15:23:38.582,0.0004160898466853,-2.588770656812465
2025-07-23 15:23:38.590,0.0003623382285683,-2.6011987057418087
2025-07-23 15:23:38.597,0.0003082463255948,-2.6070579012021966
2025-07-23 15:23:38.605,0.0002551053266544,-2.6066711784408234
2025-07-23 15:23:38.613,0.0002041722306698,-2.600424213598187
2025-07-23 15:23:38.621,0.0001566415542259,-2.588753346104691
2025-07-23 15:23:38.629,0.0001136170110283,-2.5721324820248608
2025-07-23 15:23:38.637,7.608343127014976e-05,-2.5510593612288366
2025-07-23 15:23:38.644,4.487954153888655e-05,-2.526041574203804
2025-07-23 15:23:38.652,2.067261957318765e-05,-2.4975826953939517
2025-07-23 15:23:38.660,3.936266074373274e-06,-2.4661688643855864
2025-07-23 15:23:38.668,-5.06745360936894e-06,-2.4322561012131247
2025-07-23 15:23:38.676,-6.30034583721916e-06,-2.396258593395244
2025-07-23 15:23:38.683,4.6108514868839496e-08,-2.358538144912128
2025-07-23 15:23:38.691,1.355227016037765e-05,-2.3193949378111567
2025-07-23 15:23:38.699,3.3579611909698914e-05,-2.279059735651687
2025-07-23 15:23:38.707,5.928775779986868e-05,-2.2376876665072296
2025-07-23 15:23:38.715,8.965888892728923e-05,-2.1953537687096807
2025-07-23 15:23:38.722,0.0001235287421414,-2.152050558324925
2025-07-23 15:23:38.730,0.0001596231113244,-2.1076879594381355
2025-07-23 15:23:38.738,0.0001965985048825,-2.0620959913135493
2025-07-23 15:23:38.746,0.0002330854212471,-2.015030597319677
2025-07-23 15:23:38.754,0.0002677325797579,-1.966182910588264
2025-07-23 15:23:38.762,0.0002992503897237,-1.9151920807006455
2025-07-23 15:23:38.769,0.0003264519574779,-1.8616615507149252
2025-07-23 15:23:38.777,0.0003482900209486,-1.8051784032054183
2025-07-23 15:23:38.785,0.00036388836397,-1.7453351224980511
2025-07-23 15:23:38.793,0.0003725664977195,-1.6817528812319191
2025-07-23 15:23:38.801,0.0003738567026914,-1.6141052780229532
2025-07-23 15:23:38.808,0.0003675128987074,-1.542141343144439
2025-07-23 15:23:38.816,0.0003535112483456,-1.4657065922183363
2025-07-23 15:23:38.824,0.0003320428895515,-1.3847609355136263
2025-07-23 15:23:38.832,0.0003034996909437,-1.2993923312358815
2025-07-23 15:23:38.840,0.0002684543186008,-1.2098251993064628
2025-07-23 15:23:38.847,0.0002276360736061,-1.1164227904629471
2025-07-23 15:23:38.855,0.0001819039037255,-1.019682940516973
2025-07-23 15:23:38.863,0.0001322178399358,-0.9202269319741264
2025-07-23 15:23:38.871,7.960994840189162e-05,-0.8187815243493956
2025-07-23 15:23:38.879,2.5155691150241743e-05,-0.716154580382562
2025-07-23 15:23:38.887,-3.00536701632822e-05,-0.6132050843640954
2025-07-23 15:23:38.894,-8.493725068068857e-05,-0.5108086978163923
2025-07-23 15:23:38.902,-0.000138449095929,-0.4098203051445824
2025-07-23 15:23:38.910,-0.0001896009637484,-0.3110352480523282
2025-07-23 15:23:38.918,-0.0002374831445026,-0.2151511176979717
2025-07-23 15:23:38.926,-0.0002812830645498,-0.1227320592800575
2025-07-23 15:23:38.933,-0.0003203013814757,-0.0341775400401395
2025-07-23 15:23:38.941,-0.0003539652378363,0.0503025677520105
2025-07-23 15:23:38.949,-0.0003818382551757,0.1307049399299182
2025-07-23 15:23:38.957,-0.0004036268045043,0.2072404490478839
2025-07-23 15:23:38.965,-0.0004191822081023,0.280331574405498
2025-07-23 15:23:38.972,-0.0004284988060821,0.3505991298036485
2025-07-23 15:23:38.980,-0.0004317081368132,0.4188384213250875
2025-07-23 15:23:38.988,-0.0004290697251727,0.485985543601481
2025-07-23 15:23:38.996,-0.0004209591059298,0.5530751219666853
2025-07-23 15:23:39.004,-0.0004078537270818,0.6211913616756809
2025-07-23 15:23:39.012,-0.000390317290236,0.6914147232622816
2025-07-23 15:23:39.019,-0.0003689829332287,0.7647668603356543
2025-07-23 15:23:39.027,-0.0003445355246328,0.8421566013449931
2025-07-23 15:23:39.035,-0.0003176932784311,0.924329717135208
2025-07-23 15:23:39.043,-0.0002891888783302,1.0118249977416856
2025-07-23 15:23:39.051,-0.0002597502856577,1.1049387876856422
2025-07-23 15:23:39.058,-0.0002300814650327,1.2036996346790187
2025-07-23 15:23:39.066,-0.0002008434829181,1.307854136600826
2025-07-23 15:23:39.074,-0.0001726367271396,1.416864473773908
2025-07-23 15:23:39.082,-0.0001459851555321,1.5299175310301891
2025-07-23 15:23:39.090,-0.0001213234048864,1.6459449774439134
2025-07-23 15:23:39.097,-9.8987347867702e-05,1.7636531993537152
2025-07-23 15:23:39.105,-7.920842686946063e-05,1.8815615884462809
2025-07-23 15:23:39.113,-6.211193342846758e-05,1.9980473868951825
2025-07-23 15:23:39.121,-4.771934697707922e-05,2.111395100820512
2025-07-23 15:23:39.129,-3.595481939634904e-05,2.2198484193974046
2025-07-23 15:23:39.137,-2.6655812674443055e-05,2.321662616677441
2025-07-23 15:23:39.144,-1.958773141344955e-05,2.415155553976692
2025-07-23 15:23:39.152,-1.446213563850072e-05,2.49875562310348
2025-07-23 15:23:39.160,-1.0957782535740234e-05,2.5710452498574528
2025-07-23 15:23:39.168,-8.743374352216761e-06,2.630798884855196
2025-07-23 15:23:39.176,-7.500596080359229e-06,2.677014718179793
2025-07-23 15:23:39.183,-6.945936933781022e-06,2.708939645455638
2025-07-23 15:23:39.191,-6.849910498154555e-06,2.7260872721091425
2025-07-23 15:23:39.199,-7.052495680407771e-06,2.7282489593480337
2025-07-23 15:23:39.207,-7.473830588049373e-06,2.7154980816069725
2025-07-23 15:23:39.215,-8.11943948644929e-06,2.688187778067621
2025-07-23 15:23:39.222,-9.079588146084853e-06,2.6469425452262327
2025-07-23 15:23:39.230,-1.0522691789274208e-05,2.592644044435299
2025-07-23 15:23:39.238,-1.2682999566662529e-05,2.526411503219447
2025-07-23 15:23:39.246,-1.5843110255381868e-05,2.4495770914269595
2025-07-23 15:23:39.254,-2.0312331983977423e-05,2.3636566748497767
2025-07-23 15:23:39.262,-2.640243553772891e-05,2.270316407854052
2025-07-23 15:23:39.269,-3.4402725802189936e-05,2.171335729142052
2025-07-23 15:23:39.277,-4.455636094465321e-05,2.0685674621254475
2025-07-23 15:23:39.285,-5.703952524145835e-05,1.963895872349911
2025-07-23 15:23:39.293,-7.194461224387925e-05,1.8591936727110236
2025-07-23 15:23:39.301,-8.92681483168946e-05,1.7562790692870125
2025-07-23 15:23:39.308,-0.0001089038322438,1.6568739908591252
2025-07-23 15:23:39.316,-0.0001306407986749,1.5625646366511146
2025-07-23 15:23:39.324,-0.0001541670045334,1.4747654087268518
2025-07-23 15:23:39.332,-0.0001790774155951,1.394687171933244
2025-07-23 15:23:39.340,-0.0002048864011237,1.3233106163768116
2025-07-23 15:23:39.347,-0.0002310435084122,1.26136530522234
2025-07-23 15:23:39.355,-0.0002569517307658,1.2093147995178368
2025-07-23 15:23:39.363,-0.0002819875434554,1.167348083630583
2025-07-23 15:23:39.371,-0.0003055222085189,1.1353773794723327
2025-07-23 15:23:39.379,-0.0003269439370135,1.113042330394082
2025-07-23 15:23:39.387,-0.0003456804097716,1.099720442670288
2025-07-23 15:23:39.394,-0.0003612210108059,1.094543579232448
2025-07-23 15:23:39.402,-0.0003731379975154,1.09642019684739
2025-07-23 15:23:39.410,-0.000381105687971,1.1040629006871985
2025-07-23 15:23:39.418,-0.0003849165639109,1.116020762403886
2025-07-23 15:23:39.426,-0.0003844930545062,1.1307157191507398
2025-07-23 15:23:39.433,-0.0003798938351738,1.1464822543546962
2025-07-23 15:23:39.441,-0.0003713138255629,1.1616094662851928
2025-07-23 15:23:39.449,-0.0003590776186474,1.1743845603004406
2025-07-23 15:23:39.457,-0.0003436266534526,1.1831367520907228
2025-07-23 15:23:39.465,-0.0003255009339066,1.1862805385912032
2025-07-23 15:23:39.473,-0.0003053164452319,1.1823572803021496
2025-07-23 15:23:39.480,-0.0002837396138984,1.1700740481867755
2025-07-23 15:23:39.488,-0.0002614602000419,1.1483387283120994
2025-07-23 15:23:39.496,-0.0002391639366837,1.1162904552906303
2025-07-23 15:23:39.504,-0.0002175061132435,1.073324561115146
2025-07-23 15:23:39.512,-0.0001970871958158,1.019111367380085
2025-07-23 15:23:39.519,-0.0001784314500092,0.9536082971138264
2025-07-23 15:23:39.527,-0.0001619693392758,0.87706492188356
2025-07-23 15:23:39.535,-0.0001480242607761,0.7900206871765113
2025-07-23 15:23:39.543,-0.0001368040052527,0.6932951839775343
2025-07-23 15:23:39.551,-0.0001283971417329,0.5879709735266503
2025-07-23 15:23:39.558,-0.0001227742919884,0.4753691422307837
2025-07-23 15:23:39.566,-0.0001197940261629,0.3570179757533083
2025-07-23 15:23:39.574,-0.0001192129269127,0.2346153939981706
2025-07-23 15:23:39.582,-0.0001206992209507,0.1099860636058859
2025-07-23 15:23:39.590,-0.0001238492652027,-0.0149656297362372
2025-07-23 15:23:39.598,-0.0001282061161303,-0.1383053435607333
2025-07-23 15:23:39.605,-0.0001332793609096,-0.2581197137104211
2025-07-23 15:23:39.613,-0.0001385653042895,-0.3725668248096816
2025-07-23 15:23:39.621,-0.0001435665614912,-0.4799245876821389
2025-07-23 15:23:39.629,-0.0001478102240569,-0.5786354872498284
2025-07-23 15:23:39.637,-0.0001508640319162,-0.6673463323512631
2025-07-23 15:23:39.644,-0.0001523502731865,-0.7449418699012524
2025-07-23 15:23:39.652,-0.0001519573314001,-0.8105714023836079
2025-07-23 15:23:39.660,-0.0001494488699127,-0.8636678501292796
2025-07-23 15:23:39.668,-0.0001446706116947,-0.9039590074014262
2025-07-23 15:23:39.676,-0.00013755461873,-0.931471032527197
2025-07-23 15:23:39.683,-0.000128120979224,-0.9465244670332882
2025-07-23 15:23:39.691,-0.000116476875967,-0.9497232809504076
2025-07-23 15:23:39.699,-0.0001028130667565,-0.9419375811616516
2025-07-23 15:23:39.707,-8.739781619010676e-05,-0.9242806934774884
2025-07-23 15:23:39.715,-7.056832362390563e-05,-0.898081340523601
2025-07-23 15:23:39.723,-5.27197677110204e-05,-0.8648515981972343
2025-07-23 15:23:39.730,-3.4292234049554046e-05,-0.8262512441924799
2025-07-23 15:23:39.738,-1.5755931268904315e-05,-0.7840490400296035
2025-07-23 15:23:39.746,2.4048402140718417e-06,-0.7400814389084348
2025-07-23 15:23:39.754,1.970851834340848e-05,-0.6962092016210797
2025-07-23 15:23:39.762,3.569345182364812e-05,-0.6542724349296414
2025-07-23 15:23:39.769,4.99348126299608e-05,-0.6160446356641996
2025-07-23 15:23:39.777,6.206040149698732e-05,-0.5831864226358393
2025-07-23 15:23:39.785,7.176438496542282e-05,-0.5571997639067552
2025-07-23 15:23:39.793,7.881821261680882e-05,-0.5393836558697092
2025-07-23 15:23:39.801,8.30784162298271e-05,-0.5307923731357075
2025-07-23 15:23:39.808,8.449141070608224e-05,-0.5321975650025891
2025-07-23 15:23:39.816,8.309560931640922e-05,-0.5440555999679135
2025-07-23 15:23:39.824,7.902116635838253e-05,-0.5664816284178933
2025-07-23 15:23:39.832,7.248761682518036e-05,-0.5992318211568421
2025-07-23 15:23:39.840,6.37997019761061e-05,-0.6416951278916688
2025-07-23 15:23:39.848,5.334175390835391e-05,-0.6928956754291319
2025-07-23 15:23:39.855,4.157106401340884e-05,-0.75150659579058
2025-07-23 15:23:39.863,2.9010561612887745e-05,-0.8158756573664199
2025-07-23 15:23:39.871,1.624088028174812e-05,-0.8840625893876051
2025-07-23 15:23:39.879,3.891619395338694e-06,-0.9538874656719872
2025-07-23 15:23:39.887,-7.368590843777966e-06,-1.0229889805548265
2025-07-23 15:23:39.894,-1.6843743704467626e-05,-1.0888909520153514
2025-07-23 15:23:39.902,-2.3824377769802708e-05,-1.1490749712395931
2025-07-23 15:23:39.910,-2.760414235403153e-05,-1.2010568206115224
2025-07-23 15:23:39.918,-2.74990254861923e-05,-1.2424641203798048
2025-07-23 15:23:39.926,-2.286885472849242e-05,-1.2711126350493624
2025-07-23 15:23:39.933,-1.314031360925538e-05,-1.2850787543851383
2025-07-23 15:23:39.941,2.169598149403247e-06,-1.282765829704256
2025-07-23 15:23:39.949,2.3430946038627225e-05,-1.2629622603017443
2025-07-23 15:23:39.957,5.088038299494968e-05,-1.224889463189282
2025-07-23 15:23:39.965,8.460392464208435e-05,-1.168238113917191
2025-07-23 15:23:39.973,0.0001245238527071,-1.0931913231671964
2025-07-23 15:23:39.980,0.0001703904811452,-1.0004337253497164
2025-07-23 15:23:39.988,0.0002217794722434,-0.8911458127986076
2025-07-23 15:23:39.996,0.000278095316149,-0.7669832574780702
2025-07-23 15:23:40.004,0.0003385813783685,-0.6300414172994026
2025-07-23 15:23:40.012,0.0004023365691077,-0.4828057115634664
2025-07-23 15:23:40.019,0.0004683382754061,-0.3280890474008133
2025-07-23 15:23:40.027,0.0005354708043589,-0.1689579624620268
2025-07-23 15:23:40.035,0.000602558252948,-0.0086495966087674
2025-07-23 15:23:40.043,0.0006684004587053,0.149518003871104
2025-07-23 15:23:40.051,0.0007318105004795,0.3022394329634414
2025-07-23 15:23:40.058,0.0007916521135035,0.4463162900664291
2025-07-23 15:23:40.066,0.0008468753600004,0.5787492261006291
2025-07-23 15:23:40.074,0.0008965489566503,0.6968245443718378
2025-07-23 15:23:40.082,0.0009398878029522,0.7981923560557347
2025-07-23 15:23:40.090,0.0009762744780508,0.880933528791871
2025-07-23 15:23:40.098,0.001005273774649,0.943613018951868
2025-07-23 15:23:40.105,0.0010266397123104,0.9853176460606948
2025-07-23 15:23:40.113,0.0010403149121788,1.005676948327994
2025-07-23 15:23:40.121,0.0010464227125033,1.00486643391731
2025-07-23 15:23:40.129,0.001045252943698,0.9835932776001306
2025-07-23 15:23:40.137,0.0010372428133994,0.943065255419515
2025-07-23 15:23:40.144,0.0010229547565748,0.884944402988102
2025-07-23 15:23:40.152,0.0010030532248378,0.811287473062069
2025-07-23 15:23:40.160,0.0009782821495509,0.7244757168396476
2025-07-23 15:23:40.168,0.0009494443048429,0.6271368024461856
2025-07-23 15:23:40.176,0.0009173831934953,0.5220618138789017
2025-07-23 15:23:40.183,0.0008829675144713,0.4121202599652369
2025-07-23 15:23:40.191,0.0008470778070992,0.3001758896205034
2025-07-23 15:23:40.199,0.0008105945280651,0.1890058818365063
2025-07-23 15:23:40.207,0.0007743866170568,0.0812256794835122
2025-07-23 15:23:40.215,0.0007392995529491,-0.0207786106120878
2025-07-23 15:23:40.223,0.0007061419966147,-0.1149086949277641
2025-07-23 15:23:40.230,0.0006756703545105,-0.1994022491013508
2025-07-23 15:23:40.238,0.000648570968902,-0.2728698818381682
2025-07-23 15:23:40.246,0.000625440124712,-0.3343203267469916
2025-07-23 15:23:40.254,0.0006067626064312,-0.3831735419750565
2025-07-23 15:23:40.262,0.0005928900421986,-0.4192616475046762
2025-07-23 15:23:40.269,0.0005840206321324,-0.4428178929603789
2025-07-23 15:23:40.277,0.0005801820231426,-0.4544541365490817
2025-07-23 15:23:40.285,0.0005812190502411,-0.4551276222568274
2025-07-23 15:23:40.293,0.0005867878092284,-0.4460981486224643
2025-07-23 15:23:40.301,0.0005963570914808,-0.4288770062833037
2025-07-23 15:23:40.308,0.0006092176868437,-0.4051693052353709
2025-07-23 15:23:40.316,0.0006244995315548,-0.376811505799704
2025-07-23 15:23:40.324,0.0006411961881043,-0.345706106376542
2025-07-23 15:23:40.332,0.0006581957084789,-0.3137555279371309
2025-07-23 15:23:40.340,0.0006743165601643,-0.2827972733909508
2025-07-23 15:23:40.348,0.000688346993173,-0.2545424318318798
2025-07-23 15:23:40.355,0.00069908600261,-0.2305195411720153
2025-07-23 15:23:40.363,0.0007053839054374,-0.2120257092089117
2025-07-23 15:23:40.371,0.0007061805381147,-0.2000867093833417
2025-07-23 15:23:40.379,0.0007005392644132,-0.1954275016224302
2025-07-23 15:23:40.387,0.0006876753982451,-0.1984542779649384
2025-07-23 15:23:40.394,0.0006669782078191,-0.2092487068403063
2025-07-23 15:23:40.402,0.000638026208639,-0.2275745690476489
2025-07-23 15:23:40.410,0.0006005958793722,-0.2528964686542284
2025-07-23 15:23:40.418,0.0005546642486458,-0.2844097913625208
2025-07-23 15:23:40.426,0.0005004059933892,-0.3210805992076612
2025-07-23 15:23:40.433,0.0004381857188919,-0.361693719456696
2025-07-23 15:23:40.441,0.0003685459756568,-0.4049069298047398
2025-07-23 15:23:40.449,0.0002921914287665,-0.4493088802462155
2025-07-23 15:23:40.457,0.0002099695901691,-0.4934782395666174
2025-07-23 15:23:40.465,0.0001228487303424,-0.5360415227147738
2025-07-23 15:23:40.473,3.189389965228302e-05,-0.5757271502352314
2025-07-23 15:23:40.480,-6.175782084474546e-05,-0.61141350977204
2025-07-23 15:23:40.488,-0.0001569218077969,-0.642169120518719
2025-07-23 15:23:40.496,-0.0002523894087181,-0.6672834256627168
2025-07-23 15:23:40.504,-0.0003469501520299,-0.6862872307987218
2025-07-23 15:23:40.512,-0.0004394126595423,-0.6989623360067426
2025-07-23 15:23:40.519,-0.0005286244975537,-0.705340438247558
2025-07-23 15:23:40.527,-0.0006134913182015,-0.70569187376335
2025-07-23 15:23:40.535,-0.0006929956414514,-0.7005052021850104
2025-07-23 15:23:40.543,-0.000766215514158,-0.6904589908227082
2025-07-23 15:23:40.551,-0.0008323430651922,-0.6763874314456854
2025-07-23 15:23:40.558,-0.0008907026742462,-0.6592416070975986
2025-07-23 15:23:40.566,-0.0009407681425358,-0.6400483174906149
2025-07-23 15:23:40.574,-0.0009821780185554,-0.6198683634813927
2025-07-23 15:23:40.582,-0.0010147482216506,-0.5997560846388182
2025-07-23 15:23:40.590,-0.0010384812980103,-0.5807217506871144
2025-07-23 15:23:40.598,-0.0010535718204491,-0.5636981510561068
2025-07-23 15:23:40.605,-0.0010604074158872,-0.5495124342709228
2025-07-23 15:23:40.613,-0.001059564728226,-0.5388639413010876
2025-07-23 15:23:40.621,-0.0010517995113522,-0.5323084638819495
2025-07-23 15:23:40.629,-0.00103803014798,-0.5302490427476286
2025-07-23 15:23:40.637,-0.0010193142453761,-0.5329331054123824
2025-07-23 15:23:40.644,-0.0009968185398151,-0.540455439573917
2025-07-23 15:23:40.652,-0.0009717830290812,-0.5527662249895351
2025-07-23 15:23:40.660,-0.0009454808688378,-0.5696831252751625
2025-07-23 15:23:40.668,-0.0009191759916374,-0.5909062889881127
2025-07-23 15:23:40.676,-0.0008940805951029,-0.616035034941589
2025-07-23 15:23:40.683,-0.0008713145907775,-0.644584999079911
2025-07-23 15:23:40.691,-0.0008518688446415,-0.676004594309055
2025-07-23 15:23:40.699,-0.0008365736658297,-0.7096897767057578
2025-07-23 15:23:40.707,-0.0008260736002413,-0.7449963206918072
2025-07-23 15:23:40.715,-0.0008208092053773,-0.7812490808975084
2025-07-23 15:23:40.723,-0.0008210061376443,-0.8177480524825821
2025-07-23 15:23:40.730,-0.0008266715814282,-0.8537714176379078
2025-07-23 15:23:40.738,-0.0008375977958605,-0.8885761571498487
2025-07-23 15:23:40.746,-0.0008533723534557,-0.9213971781667426
2025-07-23 15:23:40.754,-0.000873394495609,-0.9514462220194608
2025-07-23 15:23:40.762,-0.0008968969323779,-0.9779120233217026
2025-07-23 15:23:40.769,-0.0009229723655059,-0.9999632498831788
2025-07-23 15:23:40.777,-0.0009506040105222,-1.0167556329714882
2025-07-23 15:23:40.785,-0.0009786994259103,-1.027444394945845
2025-07-23 15:23:40.793,-0.0010061269875231,-1.031202620361961
2025-07-23 15:23:40.801,-0.0010317542956848,-1.027245645418275
2025-07-23 15:23:40.808,-0.0010544875962458,-1.0148609214423625
2025-07-23 15:23:40.816,-0.0010733109487542,-0.9934422058338688
2025-07-23 15:23:40.824,-0.0010873235074177,-0.9625264058970258
2025-07-23 15:23:40.832,-0.0010957730615808,-0.9218309918907412
2025-07-23 15:23:40.840,-0.0010980840329311,-0.87128963529138
2025-07-23 15:23:40.848,-0.0010938784566888,-0.8110836307351622
2025-07-23 15:23:40.855,-0.0010829889984941,-0.7416667237531429
2025-07-23 15:23:40.863,-0.0010654636539525,-0.6637811787658342
2025-07-23 15:23:40.871,-0.0010415622969374,-0.5784632666845396
2025-07-23 15:23:40.879,-0.0010117455585402,-0.4870368119974458
2025-07-23 15:23:40.887,-0.0009766566567789,-0.3910939962510236
2025-07-23 15:23:40.894,-0.0009370969512663,-0.292463244998763
2025-07-23 15:23:40.902,-0.0008939962894556,-0.1931646993837622
2025-07-23 15:23:40.910,-0.0008483795218765,-0.0953544545362761
2025-07-23 15:23:40.918,-0.0008013307013193,-0.001259390850058
2025-07-23 15:23:40.926,-0.0007539564199227,0.0868950143882134
2025-07-23 15:23:40.933,-0.0007073495936385,0.1669610683777306
2025-07-23 15:23:40.941,-0.0006625548547067,0.2369463240346425
2025-07-23 15:23:40.949,-0.0006205365352806,0.2950888930211301
2025-07-23 15:23:40.957,-0.0005821499890584,0.3399274441453809
2025-07-23 15:23:40.965,-0.0005481167806677,0.3703629481588241
2025-07-23 15:23:40.973,-0.0005190041987484,0.3857095988959801
2025-07-23 15:23:40.980,-0.0004952096174345,0.3857328174604673
2025-07-23 15:23:40.988,-0.0004769503114045,0.3706727921695638
2025-07-23 15:23:40.996,-0.0004642593110419,0.3412525823153689
2025-07-23 15:23:41.004,-0.0004569877285543,0.2986703818708816
2025-07-23 15:23:41.012,-0.0004548136867815,0.2445760729172058
2025-07-23 15:23:41.019,-0.0004572575763482,0.1810326844609465
2025-07-23 15:23:41.027,-0.0004637029426813,0.1104638098871688
2025-07-23 15:23:41.035,-0.0004734219467178,0.0355884323820772
2025-07-23 15:23:41.043,-0.0004856040914585,-0.0406550298442197
2025-07-23 15:23:41.051,-0.0004993867703719,-0.1151933140766155
2025-07-23 15:23:41.058,-0.0005138861738015,-0.1849090954434589
2025-07-23 15:23:41.066,-0.000528227183496,-0.2467352611953254
2025-07-23 15:23:41.074,-0.0005415710823232,-0.297749780429733
2025-07-23 15:23:41.082,-0.0005531401658127,-0.3352681556388571
2025-07-23 15:23:41.090,-0.0005622385854741,-0.3569304249657163
2025-07-23 15:23:41.098,-0.0005682689306152,-0.360779779585142
2025-07-23 15:23:41.105,-0.000570744231807,-0.3453300710840692
2025-07-23 15:23:41.113,-0.000569295355155,-0.3096198010799636
2025-07-23 15:23:41.121,-0.0005636741136636,-0.2532505958278189
2025-07-23 15:23:41.129,-0.0005537526484242,-0.1764086552496429
2025-07-23 15:23:41.137,-0.0005395195854253,-0.079868209332076
2025-07-23 15:23:41.144,-0.00052107323623,0.0350234055732227
2025-07-23 15:23:41.152,-0.0004986119123446,0.1663788421312381
2025-07-23 15:23:41.160,-0.000472421427561,0.311821204570116
2025-07-23 15:23:41.168,-0.0004428600377441,0.4685504899190684
2025-07-23 15:23:41.176,-0.0004103412670304,0.6334240596853773
2025-07-23 15:23:41.183,-0.0003753152152114,0.8030486736421579
2025-07-23 15:23:41.191,-0.0003382490748257,0.9738811577461468
2025-07-23 15:23:41.199,-0.000299607771088,1.1423344033305067
2025-07-23 15:23:41.207,-0.0002598358635639,1.3048851285196637
2025-07-23 15:23:41.215,-0.0002193420066378,1.4581796947496886
2025-07-23 15:23:41.223,-0.0001784872008253,1.5991342738614864
2025-07-23 15:23:41.230,-0.0001375777062064,1.7250258093847566
2025-07-23 15:23:41.238,-9.686292094506716e-05,1.8335705092154269
2025-07-23 15:23:41.246,-5.65379228016703e-05,1.922987044228356
2025-07-23 15:23:41.254,-1.6749858534440865e-05,1.9920422037232783
2025-07-23 15:23:41.262,2.2392999561857684e-05,2.0400774596409126
2025-07-23 15:23:41.269,6.081091159941085e-05,2.067015688769237
2025-07-23 15:23:41.277,9.84424542431311e-05,2.07334815371326
2025-07-23 15:23:41.285,0.0001352357023141,2.0601026962610742
2025-07-23 15:23:41.293,0.000171141774388,2.028794891235148
2025-07-23 15:23:41.301,0.0002061112575599,1.981364587208704
2025-07-23 15:23:41.308,0.0002400934837227,1.9201007774224317
2025-07-23 15:23:41.316,0.0002730381237852,1.847558073518284
2025-07-23 15:23:41.324,0.0003048982671282,1.766468189200882
2025-07-23 15:23:41.332,0.0003356341481734,1.6796497908242296
2025-07-23 15:23:41.340,0.0003652168957543,1.589919862054334
2025-07-23 15:23:41.348,0.0003936319562671,1.5000093953595257
2025-07-23 15:23:41.355,0.0004208820614801,1.412485804247888
2025-07-23 15:23:41.363,0.0004469897317674,1.3296839883317368
2025-07-23 15:23:41.371,0.0004719993224939,1.253647519133178
2025-07-23 15:23:41.379,0.0004959785687664,1.186080984045765
2025-07-23 15:23:41.387,0.0005190195355773,1.1283141531393583
2025-07-23 15:23:41.394,0.0005412388833554,1.0812783235546812
2025-07-23 15:23:41.402,0.0005627773452859,1.045494933256193
2025-07-23 15:23:41.410,0.0005837981724806,1.0210762902815684
2025-07-23 15:23:41.418,0.0006044840760754,1.0077380056304943
2025-07-23 15:23:41.426,0.0006250320859938,1.0048224316859051
2025-07-23 15:23:41.433,0.0006456459060481,1.0113320990836534
2025-07-23 15:23:41.441,0.0006665257275734,1.0259718376272589
2025-07-23 15:23:41.449,0.0006878559115323,1.0471979935553584
2025-07-23 15:23:41.457,0.000709791339428,1.0732729447699825
2025-07-23 15:23:41.465,0.0007324435155007,1.1023229863948385
2025-07-23 15:23:41.473,0.0007558676615674,1.1323976214236666
2025-07-23 15:23:41.480,0.0007800520760282,1.1615283500453426
2025-07-23 15:23:41.488,0.0008049109288609,1.1877852063330234
2025-07-23 15:23:41.496,0.0008302814380679,1.2093295335617704
2025-07-23 15:23:41.504,0.0008559260276054,1.224461798394939
2025-07-23 15:23:41.512,0.0008815396141137,1.2316635876086286
2025-07-23 15:23:41.519,0.0009067616310002,1.2296332730285864
2025-07-23 15:23:41.527,0.0009311918305439,1.2173151393090615
2025-07-23 15:23:41.535,0.0009544084359848,1.1939220226814815
2025-07-23 15:23:41.543,0.0009759870141458,1.1589516934382678
2025-07-23 15:23:41.551,0.0009955185884608,1.11219732223128
2025-07-23 15:23:41.558,0.0010126259275602,1.0537523940233562
2025-07-23 15:23:41.566,0.0010269774296724,0.98401037339744
2025-07-23 15:23:41.574,0.0010382983855115,0.9036592948304476
2025-07-23 15:23:41.582,0.0010463795517111,0.8136712842192649
2025-07-23 15:23:41.590,0.0010510829720957,0.7152868583255118
2025-07-23 15:23:41.598,0.0010523450006191,0.6099937388973238
2025-07-23 15:23:41.605,0.0010501765878124,0.4994998852479835
2025-07-23 15:23:41.613,0.0010446610508206,0.3857005044004997
2025-07-23 15:23:41.621,0.0010359496855147,0.2706389420040875
2025-07-23 15:23:41.629,0.0010242556659944,0.1564615822509051
2025-07-23 15:23:41.637,0.0010098467089355,0.0453671755974957
2025-07-23 15:23:41.644,0.0009930369618282,-0.0604486503190556
2025-07-23 15:23:41.652,0.0009741785109632,-0.1588525789192361
2025-07-23 15:23:41.660,0.0009536528041656,-0.2478350093086758
2025-07-23 15:23:41.668,0.0009318621529514,-0.3255718555662955
2025-07-23 15:23:41.676,0.0009092213332882,-0.3904846401991423
2025-07-23 15:23:41.683,0.0008861491848635,-0.4412965960548801
2025-07-23 15:23:41.691,0.0008630600932285,-0.4770824260037626
2025-07-23 15:23:41.699,0.0008403553736978,-0.4973094399512437
2025-07-23 15:23:41.707,0.0008184147824574,-0.501867994419149
2025-07-23 15:23:41.715,0.00079758850265,-0.4910894884212641
2025-07-23 15:23:41.723,0.0007781899129741,-0.4657506010018866
2025-07-23 15:23:41.730,0.0007604892892295,-0.4270629678984925
2025-07-23 15:23:41.738,0.0007447083973683,-0.3766480628697528
2025-07-23 15:23:41.746,0.0007310157823616,-0.3164976484555983
2025-07-23 15:23:41.754,0.0007195225219581,-0.2489207661802815
2025-07-23 15:23:41.762,0.0007102783425238,-0.1764788188600746
2025-07-23 15:23:41.769,0.0007032682053651,-0.1019108237460968
2025-07-23 15:23:41.777,0.0006984096075128,-0.0280513503791805
2025-07-23 15:23:41.785,0.0006955508255188,0.0422560245642123
2025-07-23 15:23:41.793,0.0006944702397154,0.1062467245875786
2025-07-23 15:23:41.801,0.0006948768522595,0.1613215663068771
2025-07-23 15:23:41.808,0.0006964122306964,0.2051285350089143
2025-07-23 15:23:41.816,0.0006986542948604,0.2356371323391506
2025-07-23 15:23:41.824,0.0007011234606695,0.2512027800652772
2025-07-23 15:23:41.832,0.0007032915804768,0.2506191396051895
2025-07-23 15:23:41.840,0.0007045939216209,0.2331566426560493
2025-07-23 15:23:41.848,0.0007044441800681,0.1985860022014744
2025-07-23 15:23:41.855,0.0007022522765475,0.1471859648499512
2025-07-23 15:23:41.863,0.0006974444441568,0.0797350591395681
2025-07-23 15:23:41.871,0.0006894848996494,-0.0025124184164733
2025-07-23 15:23:41.879,0.000677898206046,-0.0978654609988577
2025-07-23 15:23:41.887,0.0006622912919606,-0.2042492721689038
2025-07-23 15:23:41.894,0.000642374002573,-0.3192704298411666
2025-07-23 15:23:41.902,0.0006179770269547,-0.4402922710497943
2025-07-23 15:23:41.910,0.0005890660835781,-0.564518123011974
2025-07-23 15:23:41.918,0.0005557513557431,-0.6890797166628082
2025-07-23 15:23:41.926,0.0005182913547704,-0.81112790242376
2025-07-23 15:23:41.933,0.0004770906522592,-0.927922657531116
2025-07-23 15:23:41.941,0.0004326912620336,-1.036919345892566
2025-07-23 15:23:41.949,0.0003857578579714,-1.135848277546426
2025-07-23 15:23:41.957,0.0003370574465385,-1.2227848171409448
2025-07-23 15:23:41.965,0.0002874344888809,-1.296207600323153
2025-07-23 15:23:41.973,0.0002377827045781,-1.3550428184815635
2025-07-23 15:23:41.980,0.0001890148849109,-1.3986930088352432
2025-07-23 15:23:41.988,0.000142032069067,-1.4270493197296583
2025-07-23 15:23:41.996,9.769343789347083e-05,-1.440486789875721
2025-07-23 15:23:42.004,5.678821598941016e-05,-1.4398427647271097
2025-07-23 15:23:42.012,2.001067772707539e-05,-1.4263791545775986
2025-07-23 15:23:42.019,-1.2060966739462028e-05,-1.4017298011661448
2025-07-23 15:23:42.027,-3.898138748718448e-05,-1.3678347485919713
2025-07-23 15:23:42.035,-6.045054525956912e-05,-1.3268636974524222
2025-07-23 15:23:42.043,-7.632181085808619e-05,-1.28113134664417
2025-07-23 15:23:42.051,-8.66060322086923e-05,-1.2330076837678166
2025-07-23 15:23:42.058,-9.147181395641872e-05,-1.1848265577431818
2025-07-23 15:23:42.066,-9.124221181308586e-05,-1.138796033624104
2025-07-23 15:23:42.074,-8.638793211224566e-05,-1.096914061628634
2025-07-23 15:23:42.082,-7.751704510322153e-05,-1.060892866241689
2025-07-23 15:23:42.090,-6.536122457862257e-05,-1.0320951663685067
2025-07-23 15:23:42.098,-5.075858307462452e-05,-1.0114848781909764
2025-07-23 15:23:42.105,-3.4633234474974415e-05,-0.9995943452022952
2025-07-23 15:23:42.113,-1.797182814311239e-05,-0.9965094130143864
2025-07-23 15:23:42.121,-1.7975017812650482e-06,-1.001872859160813
2025-07-23 15:23:42.129,1.2858092676584403e-05,-1.014905846508132
2025-07-23 15:23:42.137,2.498394479738717e-05,-1.0344462413999904
2025-07-23 15:23:42.144,3.3619301359125545e-05,-1.059001873581133
2025-07-23 15:23:42.152,3.788304686638048e-05,-1.0868161638434743
2025-07-23 15:23:42.160,3.700208290885193e-05,-1.115943050782326
2025-07-23 15:23:42.168,3.033777398687686e-05,-1.1443278380200428
2025-07-23 15:23:42.176,1.740935258125693e-05,-1.1698904644352253
2025-07-23 15:23:42.183,-2.086918214946878e-06,-1.1906077588052206
2025-07-23 15:23:42.191,-2.8263996266196795e-05,-1.2045914489041238
2025-07-23 15:23:42.199,-6.103673020437734e-05,-1.210159019292288
2025-07-23 15:23:42.207,-0.0001001216423586,-1.2058949201021898
2025-07-23 15:23:42.215,-0.0001450440756616,-1.1907000987272545
2025-07-23 15:23:42.223,-0.0001951524201665,-1.1638283450204912
2025-07-23 15:23:42.230,-0.0002496386253737,-1.1249084995451144
2025-07-23 15:23:42.238,-0.0003075638801816,-1.0739521609599498
2025-07-23 15:23:42.246,-0.0003678882805852,-1.0113471233854887
2025-07-23 15:23:42.254,-0.0004295034243588,-0.9378373527871884
2025-07-23 15:23:42.262,-0.0004912670090783,-0.8544908465051904
2025-07-23 15:23:42.269,-0.0005520385457204,-0.7626571871752111
2025-07-23 15:23:42.277,-0.0006107151961387,-0.6639169787190093
2025-07-23 15:23:42.285,-0.0006662665317715,-0.5600256165667915
2025-07-23 15:23:42.293,-0.0007177668068112,-0.4528539786500228
2025-07-23 15:23:42.301,-0.000764423299848,-0.3443286171477186
2025-07-23 15:23:42.309,-0.0008055994818911,-0.2363738845795326
2025-07-23 15:23:42.316,-0.0008408321356397,-0.1308581567801808
2025-07-23 15:23:42.324,-0.00086984192618,-0.0295459452284015
2025-07-23 15:23:42.332,-0.0008925372227563,0.0659427490960532
2025-07-23 15:23:42.340,-0.0009090112219268,0.1541649704419992
2025-07-23 15:23:42.348,-0.0009195326644983,0.2338788557821979
2025-07-23 15:23:42.355,-0.0009245306325064,0.3040592911290992
2025-07-23 15:23:42.363,-0.0009245740150607,0.363905688587417
2025-07-23 15:23:42.371,-0.0009203463212866,0.412842728623369
2025-07-23 15:23:42.379,-0.0009126167159585,0.450515144284768
2025-07-23 15:23:42.387,-0.0009022084513722,0.4767777495921695
2025-07-23 15:23:42.394,-0.0008899661425675,0.4916819365548997
2025-07-23 15:23:42.402,-0.0008767234729922,0.4954597978442732
2025-07-23 15:23:42.410,-0.0008632728831748,0.4885068973457174
2025-07-23 15:23:42.418,-0.0008503385825773,0.4713645339328157
2025-07-23 15:23:42.426,-0.0008385538474555,0.444702145807212
2025-07-23 15:23:42.434,-0.0008284430755125,0.4093002970114796
2025-07-23 15:23:42.441,-0.0008204085847851,0.3660344833173511
2025-07-23 15:23:42.449,-0.0008147218346262,0.3158598014031222
2025-07-23 15:23:42.457,-0.000811518693386,0.2597963548431706
2025-07-23 15:23:42.465,-0.0008107985022844,0.1989151346304367
2025-07-23 15:23:42.473,-0.000812426832917,0.134324020736712
2025-07-23 15:23:42.480,-0.0008161419204718,0.0671535124720702
2025-07-23 15:23:42.488,-0.000821564799478,-0.0014581863230365
2025-07-23 15:23:42.496,-0.0008282132041504,-0.0703810266805465
2025-07-23 15:23:42.504,-0.0008355192447741,-0.1385100939320754
2025-07-23 15:23:42.512,-0.0008428506194223,-0.2047837209364256
2025-07-23 15:23:42.519,-0.0008495347041981,-0.2682025641848657
2025-07-23 15:23:42.527,-0.0008548844907083,-0.3278492794919605
2025-07-23 15:23:42.535,-0.000858225163143,-0.3829082491721235
2025-07-23 15:23:42.543,-0.0008589200964879,-0.4326846501636112
2025-07-23 15:23:42.551,-0.0008563950989652,-0.4766220262055561
2025-07-23 15:23:42.559,-0.0008501597823434,-0.5143174486511927
2025-07-23 15:23:42.566,-0.0008398250654653,-0.5455333288806055
2025-07-23 15:23:42.574,-0.0008251160240803,-0.5702049865825658
2025-07-23 15:23:42.582,-0.0008058795895257,-0.5884431856043421
2025-07-23 15:23:42.590,-0.0007820869632745,-0.600531022414837
2025-07-23 15:23:42.598,-0.0007538310126108,-0.60691478513848
2025-07-23 15:23:42.605,-0.0007213192541254,-0.6081886788509269
2025-07-23 15:23:42.613,-0.0006848632334232,-0.6050736142670127
2025-07-23 15:23:42.621,-0.0006448651419972,-0.598390559301669
2025-07-23 15:23:42.629,-0.0006018024061592,-0.5890292346752559
2025-07-23 15:23:42.637,-0.000556210821887,-0.5779131765438064
2025-07-23 15:23:42.644,-0.0005086666840132,-0.5659623763476328
2025-07-23 15:23:42.652,-0.0004597683085432,-0.5540548329360265
2025-07-23 15:23:42.660,-0.0004101173773657,-0.542988414053661
2025-07-23 15:23:42.668,-0.0003603006456591,-0.5334444290339955
2025-07-23 15:23:42.676,-0.0003108727081889,-0.5259542721962379
2025-07-23 15:23:42.684,-0.0002623406348707,-0.5208704190547251
2025-07-23 15:23:42.691,-0.0002151512780029,-0.5183429551224016
2025-07-23 15:23:42.699,-0.0001696818898557,-0.518302695007435
2025-07-23 15:23:42.707,-0.0001262343737861,-0.5204518067271926
2025-07-23 15:23:42.715,-8.503307149387682e-05,-0.5242626856805584
2025-07-23 15:23:42.723,-4.6225583631228976e-05,-0.5289856133570797
2025-07-23 15:23:42.730,-9.885892955221163e-06,-0.5336654763203791
2025-07-23 15:23:42.738,2.398091135680397e-05,-0.537167504373818
2025-07-23 15:23:42.746,5.543280288688505e-05,-0.5382116146830365
2025-07-23 15:23:42.754,8.458415336769267e-05,-0.5354145348100521
2025-07-23 15:23:42.762,0.000111598389358,-0.5273384496276011
2025-07-23 15:23:42.769,0.00013668015199,-0.512544512358956
2025-07-23 15:23:42.777,0.0001600672823789,-0.4896492173613158
2025-07-23 15:23:42.785,0.0001820231000144,-0.4573813840954298
2025-07-23 15:23:42.793,0.0002028294365366,-0.414637370816086
2025-07-23 15:23:42.801,0.0002227806598094,-0.3605321360022961
2025-07-23 15:23:42.809,0.0002421785588525,-0.2944438983602314
2025-07-23 15:23:42.816,0.0002613276249059,-0.2160504055304322
2025-07-23 15:23:42.824,0.0002805300793896,-0.1253551937055788
2025-07-23 15:23:42.832,0.0003000800117353,-0.0227026868922815
2025-07-23 15:23:42.840,0.0003202561996529,0.0912184792678574
2025-07-23 15:23:42.848,0.0003413135466384,0.2153839533342491
2025-07-23 15:23:42.855,0.0003634734658719,0.3484534676006714
2025-07-23 15:23:42.863,0.0003869138011389,0.4888009252523005
2025-07-23 15:23:42.871,0.0004117589190509,0.6345533604327651
2025-07-23 15:23:42.879,0.0004380705060542,0.78363708219451
2025-07-23 15:23:42.887,0.0004658395068016,0.933829166045512
2025-07-23 15:23:42.894,0.0004949796254228,1.0828124253347315
2025-07-23 15:23:42.902,0.0005253228397146,1.2282320594359009
2025-07-23 15:23:42.910,0.0005566173723621,1.3677523108029763
2025-07-23 15:23:42.918,0.0005885284890401,1.4991116392509212
2025-07-23 15:23:42.926,0.0006206423514501,1.6201751124516088
2025-07-23 15:23:42.934,0.000652472947423,1.728982897601151
2025-07-23 15:23:42.941,0.0006834718884311,1.8237939098730611
2025-07-23 15:23:42.949,0.0007130406950178,1.9031238236407344
2025-07-23 15:23:42.957,0.0007405451578394,1.9657767816704688
2025-07-23 15:23:42.965,0.0007653314613176,2.010870249596237
2025-07-23 15:23:42.973,0.0007867438822546,2.037852566944678
2025-07-23 15:23:42.980,0.0008041438724742,2.0465128522463663
2025-07-23 15:23:42.988,0.0008169301288006,2.0369830362164776
2025-07-23 15:23:42.996,0.0008245589306103,2.009731928839197
2025-07-23 15:23:43.004,0.0008265637505262,1.9655513784195724
2025-07-23 15:23:43.012,0.0008225730393694,1.90553475711176
2025-07-23 15:23:43.019,0.0008123251932347,1.8310482068835428
2025-07-23 15:23:43.027,0.0007956799977223,1.7436952946615718
2025-07-23 15:23:43.035,0.0007726261997918,1.6452759439830769
2025-07-23 15:23:43.043,0.0007432851243274,1.5377407203226707
2025-07-23 15:23:43.051,0.0007079103522952,1.4231417353219655
2025-07-23 15:23:43.059,0.0006668834839918,1.3035815874994037
2025-07-23 15:23:43.066,0.00062070604995,1.1811618606300596
2025-07-23 15:23:43.074,0.0005699877419799,1.0579327470853617
2025-07-23 15:23:43.082,0.0005154312777439,0.9358453482510992
2025-07-23 15:23:43.090,0.0004578143587579,0.8167081266417604
2025-07-23 15:23:43.098,0.0003979693342986,0.7021488452270475
2025-07-23 15:23:43.105,0.0003367613364659,0.5935831329027192
2025-07-23 15:23:43.113,0.0002750657977058,0.4921905692336099
2025-07-23 15:23:43.121,0.0002137463722105,0.3988988979091744
2025-07-23 15:23:43.129,0.0001536342794428,0.3143766702841662
2025-07-23 15:23:43.137,9.5509929616681e-05,0.2390343028370387
2025-07-23 15:23:43.144,4.008745816201943e-05,0.1730332197181428
2025-07-23 15:23:43.152,-1.199739086261646e-05,0.1163024560305075
2025-07-23 15:23:43.160,-6.019572924694064e-05,0.0685618308411879
2025-07-23 15:23:43.168,-0.0001040502314206,0.0293505751794155
2025-07-23 15:23:43.176,-0.0001431963029003,-0.0019398650614573
2025-07-23 15:23:43.184,-0.0001773602991945,-0.0260302260489
2025-07-23 15:23:43.191,-0.0002063556386864,-0.0437164172829317
2025-07-23 15:23:43.199,-0.0002300776866115,-0.0558324532071429
2025-07-23 15:23:43.207,-0.0002484981039744,-0.0632145705682314
2025-07-23 15:23:43.215,-0.0002616590696895,-0.0666676444314772
2025-07-23 15:23:43.223,-0.0002696675631089,-0.0669348671914505
2025-07-23 15:23:43.230,-0.000272689826329,-0.064671498039257
2025-07-23 15:23:43.238,-0.0002709461491054,-0.0604233273275214
2025-07-23 15:23:43.246,-0.0002647061197001,-0.0546103315279066
2025-07-23 15:23:43.254,-0.000254284434945,-0.0475158212885413
2025-07-23 15:23:43.262,-0.0002400373115484,-0.0392812125574544
2025-07-23 15:23:43.269,-0.0002223595158754,-0.0299063892170984
2025-07-23 15:23:43.277,-0.0002016820038488,-0.0192554873468139
2025-07-23 15:23:43.285,-0.0001784700765521,-0.0070678233154291
2025-07-23 15:23:43.293,-0.0001532217744906,0.0070263919027665
2025-07-23 15:23:43.301,-0.0001264660290509,0.0234859728282345
2025-07-23 15:23:43.309,-9.875999794859562e-05,0.0428347966376265
2025-07-23 15:23:43.316,-7.068504419240819e-05,0.0656345149952009
2025-07-23 15:23:43.324,-4.284088554801692e-05,0.0924545933347889
2025-07-23 15:23:43.332,-1.5837548885975314e-05,0.1238404449252175
2025-07-23 15:23:43.340,9.71500495625202e-06,0.1602805540993158
2025-07-23 15:23:43.348,3.321938298024852e-05,0.2021736112270946
2025-07-23 15:23:43.355,5.410487238792684e-05,0.2497967946853095
2025-07-23 15:23:43.363,7.184247142022985e-05,0.3032764110789915
2025-07-23 15:23:43.371,8.596014697598372e-05,0.3625621253306745
2025-07-23 15:23:43.379,9.60577725230955e-05,0.4274059677078003
2025-07-23 15:23:43.387,0.0001018213783204,0.4973471969619989
2025-07-23 15:23:43.394,0.0001030364027695,0.5717039352168984
2025-07-23 15:23:43.402,9.959949440329156e-05,0.6495722801658756
2025-07-23 15:23:43.410,9.15281627638591e-05,0.729833351796368
2025-07-23 15:23:43.418,7.896737751166844e-05,0.811168451700356
2025-07-23 15:23:43.426,6.219218841960983e-05,0.8920822109450962
2025-07-23 15:23:43.434,4.160562294198333e-05,0.9709332869068692
2025-07-23 15:23:43.441,1.7731479001687944e-05,1.0459718523587525
2025-07-23 15:23:43.449,-8.797947155997907e-06,1.115382816951848
2025-07-23 15:23:43.457,-3.72588357734425e-05,1.1773334506978146
2025-07-23 15:23:43.465,-6.685701843617625e-05,1.23002386029212
2025-07-23 15:23:43.473,-9.675281752946926e-05,1.2717386188041402
2025-07-23 15:23:43.480,-0.0001260889364171,1.3008977797581602
2025-07-23 15:23:43.488,-0.0001540205603203,1.3161055238716468
2025-07-23 15:23:43.496,-0.0001797464608064,1.3161947874626827
2025-07-23 15:23:43.504,-0.0002025395043733,1.300266392127162
2025-07-23 15:23:43.512,-0.000221774719531,1.267721414072691
2025-07-23 15:23:43.519,-0.0002369531016019,1.2182857743368922
2025-07-23 15:23:43.527,-0.0002477196598859,1.1520262769754863
2025-07-23 15:23:43.535,-0.0002538747927901,1.0693575566699245
2025-07-23 15:23:43.543,-0.0002553787625893,0.9710396136692316
2025-07-23 15:23:43.551,-0.0002523495878109,0.858165815187759
2025-07-23 15:23:43.559,-0.0002450549409406,0.7321414394991028
2025-07-23 15:23:43.566,-0.000233898747794,0.594653047992651
2025-07-23 15:23:43.574,-0.000219403323892,0.4476292061005219
2025-07-23 15:23:43.582,-0.0002021880813321,0.2931933436707969
2025-07-23 15:23:43.590,-0.0001829459831583,0.1336098453117474
2025-07-23 15:23:43.598,-0.0001624189146554,-0.0287752227228892
2025-07-23 15:23:43.605,-0.0001413729819563,-0.1915970289316171
2025-07-23 15:23:43.613,-0.0001205745174463,-0.3525365220396091
2025-07-23 15:23:43.621,-0.0001007673607057,-0.5093843346893885
2025-07-23 15:23:43.629,-8.265183502653604e-05,-0.6601015819805874
2025-07-23 15:23:43.637,-6.686575909722017e-05,-0.8028750029390621
2025-07-23 15:23:43.644,-5.396782387494826e-05,-0.9361639529149736
2025-07-23 15:23:43.652,-4.4423692717856985e-05,-1.058736994728221
2025-07-23 15:23:43.660,-3.8595164747155146e-05,-1.1696962596466272
2025-07-23 15:23:43.668,-3.673260521516678e-05,-1.26848833039331
2025-07-23 15:23:43.676,-3.897059961911048e-05,-1.3549010925128402
2025-07-23 15:23:43.684,-4.532653816649528e-05,-1.4290467541486358
2025-07-23 15:23:43.691,-5.570173983838027e-05,-1.4913319910789684
2025-07-23 15:23:43.699,-6.988485532726073e-05,-1.5424168765077635
2025-07-23 15:23:43.707,-8.755756097299953e-05,-1.5831648489068657
2025-07-23 15:23:43.715,-0.0001083028062155,-1.61458641003009
2025-07-23 15:23:43.723,-0.0001316159836274,-1.637779498710069
2025-07-23 15:23:43.730,-0.0001569193073901,-1.653869544036529
2025-07-23 15:23:43.738,-0.0001835794124461,-1.6639520742857627
2025-07-23 15:23:43.746,-0.0002109277671636,-1.6690404740591722
2025-07-23 15:23:43.754,-0.0002382830478407,-1.6700210831860935
2025-07-23 15:23:43.762,-0.0002649743190389,-1.6676173616580992
2025-07-23 15:23:43.769,-0.0002903637851468,-1.6623643403696469
2025-07-23 15:23:43.777,-0.0003138679587254,-1.654594057982148
2025-07-23 15:23:43.785,-0.0003349762097009,-1.6444321607811612
2025-07-23 15:23:43.793,-0.0003532657815363,-1.631805327079184
2025-07-23 15:23:43.801,-0.0003684125274308,-1.6164586892960335
2025-07-23 15:23:43.809,-0.0003801968558285,-1.5979819892496152
2025-07-23 15:23:43.816,-0.0003885046758364,-1.575842840611959
2025-07-23 15:23:43.824,-0.000393323493362,-1.5494252102367565
2025-07-23 15:23:43.832,-0.0003947341875684,-1.5180710854365835
2025-07-23 15:23:43.840,-0.0003928993053601,-1.4811232765842846
2025-07-23 15:23:43.848,-0.0003880488731704,-1.437967409920258
2025-07-23 15:23:43.855,-0.0003804647395508,-1.3880713754556089
2025-07-23 15:23:43.863,-0.0003704643978021,-1.3310207780672172
2025-07-23 15:23:43.871,-0.0003583851503059,-1.266549259249513
2025-07-23 15:23:43.879,-0.0003445693348441,-1.1945628779448356
2025-07-23 15:23:43.887,-0.0003293511036183,-1.1151580351223995
2025-07-23 15:23:43.894,-0.0003130450143372,-1.0286326820482237
2025-07-23 15:23:43.902,-0.0002959365884568,-0.9354907590439728
2025-07-23 15:23:43.910,-0.0002782750143816,-0.8364399701790157
2025-07-23 15:23:43.918,-0.0002602682050214,-0.7323831176132226
2025-07-23 15:23:43.926,-0.0002420803621174,-0.6244033110003328
2025-07-23 15:23:43.934,-0.0002238320511668,-0.5137434475164916
2025-07-23 15:23:43.941,-0.0002056026206483,-0.4017804392995647
2025-07-23 15:23:43.949,-0.0001874346622337,-0.2899947574170987
2025-07-23 15:23:43.957,-0.00016934007226,-0.1799359719228392
2025-07-23 15:23:43.965,-0.0001513071011046,-0.0731850964920924
2025-07-23 15:23:43.973,-0.0001333076481024,0.0286853155384997
2025-07-23 15:23:43.980,-0.0001153040985765,0.1241522459449822
2025-07-23 15:23:43.988,-9.72552000293744e-05,0.2117832749113109
2025-07-23 15:23:43.996,-7.912071687625438e-05,0.2902763878357362
2025-07-23 15:23:44.004,-6.08648091048713e-05,0.358497267321367
2025-07-23 15:23:44.012,-4.245827528936989e-05,0.4155128473681668
2025-07-23 15:23:44.019,-2.388001567101097e-05,0.4606199845340564
2025-07-23 15:23:44.027,-5.118224235518177e-06,0.4933682142738827
2025-07-23 15:23:44.035,1.3828239870951522e-05,0.5135757075036366
2025-07-23 15:23:44.043,3.294815590504913e-05,0.521337726347304
2025-07-23 15:23:44.051,5.221616205182072e-05,0.5170271050525983
2025-07-23 15:23:44.059,7.159136953440893e-05,0.5012865540843129
2025-07-23 15:23:44.066,9.101681115309569e-05,0.4750128953663992
2025-07-23 15:23:44.074,0.0001104199291081,0.4393336674307342
2025-07-23 15:23:44.082,0.0001297140292198,0.3955768648704706
2025-07-23 15:23:44.090,0.0001488004263251,0.3452348663985555
2025-07-23 15:23:44.098,0.0001675709231982,0.2899238328541789
2025-07-23 15:23:44.105,0.000185910310543,0.2313400044233213
2025-07-23 15:23:44.113,0.0002036987405859,0.1712143906350216
2025-07-23 15:23:44.121,0.0002208140669943,0.1112673299445077
2025-07-23 15:23:44.129,0.0002371344474856,0.053164304020725
2025-07-23 15:23:44.137,0.0002525415462275,-0.0015257637411994
2025-07-23 15:23:44.144,0.0002669245437028,-0.051368696333832
2025-07-23 15:23:44.152,0.0002801849849464,-0.0950989279373851
2025-07-23 15:23:44.160,0.0002922423547456,-0.1316484481512151
2025-07-23 15:23:44.168,0.0003030401230156,-0.1601704180957614
2025-07-23 15:23:44.176,0.0003125518232407,-0.1800572120791186
2025-07-23 15:23:44.184,0.0003207865671911,-0.1909527711665677
2025-07-23 15:23:44.191,0.0003277933312261,-0.1927592570022798
2025-07-23 15:23:44.199,0.0003336633769493,-0.1856380617427636
2025-07-23 15:23:44.207,0.0003385302275395,-0.1700052639650828
2025-07-23 15:23:44.215,0.000342566667172,-0.146521631194858
2025-07-23 15:23:44.223,0.0003459783397547,-0.1160772745542005
2025-07-23 15:23:44.230,0.0003489938374225,-0.0797710791363616
2025-07-23 15:23:44.238,0.0003518517161787,-0.0388850814228668
2025-07-23 15:23:44.246,0.0003547854858966,0.0051459478994827
2025-07-23 15:23:44.254,0.0003580080467503,0.0507693291872514
2025-07-23 15:23:44.262,0.0003616971285427,0.0963531561216442
2025-07-23 15:23:44.269,0.0003659830299587,0.1402280938866164
2025-07-23 15:23:44.277,0.0003709394680056,0.1807313538640041
2025-07-23 15:23:44.285,0.000376577833638,0.2162517221857851
2025-07-23 15:23:44.293,0.0003828448134077,0.2452743751515844
2025-07-23 15:23:44.301,0.0003896232644853,0.2664241287539918
2025-07-23 15:23:44.309,0.0003967363409267,0.2785057553200925
2025-07-23 15:23:44.316,0.0004039549781272,0.2805400644200223
2025-07-23 15:23:44.324,0.0004110087656478,0.2717945888136565
2025-07-23 15:23:44.332,0.0004175999278768,0.251807932368252
2025-07-23 15:23:44.340,0.00042341974175,0.2204071072677071
2025-07-23 15:23:44.348,0.0004281664573047,0.1777174829599015
2025-07-23 15:23:44.355,0.0004315636910793,0.1241652538875406
2025-07-23 15:23:44.363,0.0004333782244856,0.0604725743005463
2025-07-23 15:23:44.371,0.0004334360908939,-0.0123543152332578
2025-07-23 15:23:44.379,0.0004316358218578,-0.0930435378714745
2025-07-23 15:23:44.387,0.0004279578165532,-0.1800821262006105
2025-07-23 15:23:44.394,0.0004224690300536,-0.2717461735827762
2025-07-23 15:23:44.402,0.0004153225394888,-0.3661361131474959
2025-07-23 15:23:44.410,0.0004067519995118,-0.4612166584655767
2025-07-23 15:23:44.418,0.0003970614506937,-0.554860927595481
2025-07-23 15:23:44.426,0.0003866113019354,-0.6448982137107373
2025-07-23 15:23:44.434,0.0003758015278234,-0.7291647505616495
2025-07-23 15:23:44.441,0.0003650531982127,-0.8055566544235542
2025-07-23 15:23:44.449,0.0003547893891841,-0.8720840230353183
2025-07-23 15:23:44.457,0.0003454163479333,-0.926924959868118
2025-07-23 15:23:44.465,0.0003373055867899,-0.9684780937298746
2025-07-23 15:23:44.473,0.0003307774457111,-0.9954120027766318
2025-07-23 15:23:44.480,0.0003260866244225,-1.00670985005973
2025-07-23 15:23:44.488,0.0003234102442482,-1.0017075134064422
2025-07-23 15:23:44.496,0.0003228391129495,-0.9801235595510328
2025-07-23 15:23:44.504,0.0003243729183801,-0.9420795785707762
2025-07-23 15:23:44.512,0.0003279199176079,-0.8881096600160876
2025-07-23 15:23:44.519,0.0003333012762965,-0.819158147191502
2025-07-23 15:23:44.527,0.000340259705005,-0.7365652287407898
2025-07-23 15:23:44.535,0.0003484716431267,-0.6420403833311454
2025-07-23 15:23:44.543,0.0003575620061669,-0.5376241473251762
2025-07-23 15:23:44.551,0.0003671203628654,-0.4256390995226218
2025-07-23 15:23:44.559,0.0003767173479943,-0.3086313393663734
2025-07-23 15:23:44.566,0.0003859202304406,-0.1893040751552451
2025-07-23 15:23:44.574,0.0003943068332131,-0.0704452382653719
2025-07-23 15:23:44.582,0.0004014773129177,0.0451487067530053
2025-07-23 15:23:44.590,0.000407063569408,0.1547503907043533
2025-07-23 15:23:44.598,0.0004107362999613,0.2557781212799549
2025-07-23 15:23:44.605,0.0004122099605979,0.345868906216449
2025-07-23 15:23:44.613,0.0004112460724157,0.422945492747736
2025-07-23 15:23:44.621,0.0004076553009813,0.4852752063400224
2025-07-23 15:23:44.629,0.0004012985713223,0.5315186987995016
2025-07-23 15:23:44.637,0.0003920873564677,0.560767140415277
2025-07-23 15:23:44.644,0.000379983318992,0.5725668760617377
2025-07-23 15:23:44.652,0.0003649975752728,0.5669310658860036
2025-07-23 15:23:44.660,0.0003471898021276,0.544338302122543
2025-07-23 15:23:44.668,0.0003266671925569,0.5057185973923087
2025-07-23 15:23:44.676,0.000303583014797,0.4524274538838732
2025-07-23 15:23:44.684,0.0002781343509628,0.3862089435364685
2025-07-23 15:23:44.691,0.0002505585351786,0.3091488728435297
2025-07-23 15:23:44.699,0.0002211278863256,0.2236192040125011
2025-07-23 15:23:44.707,0.0001901425369549,0.1322149960143313
2025-07-23 15:23:44.715,0.0001579214865806,0.0376852481674614
2025-07-23 15:23:44.723,0.000124792406419,-0.0571408079726858
2025-07-23 15:23:44.730,9.108107271993282e-05,-0.1494302197475992
2025-07-23 15:23:44.738,5.710144464860061e-05,-0.2364236581259151
2025-07-23 15:23:44.746,2.3147250511830837e-05,-0.3155114218632949
2025-07-23 15:23:44.754,-1.051441575545354e-05,-0.3843057781510037
2025-07-23 15:23:44.762,-4.364739355311789e-05,-0.4407072627372743
2025-07-23 15:23:44.769,-7.604888677133598e-05,-0.4829626316717916
2025-07-23 15:23:44.777,-0.0001075504690971,-0.509712360529888
2025-07-23 15:23:44.785,-0.0001380181729193,-0.5200259179032283
2025-07-23 15:23:44.793,-0.0001673521053277,-0.5134234757235644
2025-07-23 15:23:44.801,-0.0001954858716259,-0.4898832280956767
2025-07-23 15:23:44.809,-0.0002223859042116,-0.4498340391501941
2025-07-23 15:23:44.816,-0.0002480506495102,-0.3941336988111923
2025-07-23 15:23:44.824,-0.0002725094274997,-0.3240336073892568
2025-07-23 15:23:44.832,-0.0002958206112968,-0.241131212476731
2025-07-23 15:23:44.840,-0.0003180686616553,-0.1473119661653883
2025-07-23 15:23:44.848,-0.0003393596173841,-0.0446829466329658
2025-07-23 15:23:44.855,-0.0003598148816783,0.0644994085223358
2025-07-23 15:23:44.863,-0.0003795634308811,0.1779047850860044
2025-07-23 15:23:44.871,-0.0003987328005428,0.2932048851689704
2025-07-23 15:23:44.879,-0.000417439361471,0.4081468946287214
2025-07-23 15:23:44.887,-0.0004357785456718,0.5206217705432772
2025-07-23 15:23:44.894,-0.0004538158571263,0.6287247854339967
2025-07-23 15:23:44.902,-0.0004715796240613,0.7308060626260127
2025-07-23 15:23:44.910,-0.0004890563630533,0.8255092399567755
2025-07-23 15:23:44.918,-0.00050618926438,0.9117969053210924
2025-07-23 15:23:44.926,-0.0005228797665687,0.988962047604646
2025-07-23 15:23:44.934,-0.0005389916636319,1.0566254351342914
2025-07-23 15:23:44.941,-0.0005543568832658,1.1147195294086398
2025-07-23 15:23:44.949,-0.0005687820802531,1.1634602147432402
2025-07-23 15:23:44.957,-0.0005820554309538,1.20330822648284
2025-07-23 15:23:44.965,-0.0005939533326478,1.2349226510578162
2025-07-23 15:23:44.973,-0.0006042469865464,1.2591092188599746
2025-07-23 15:23:44.980,-0.0006127090282248,1.2767662941331246
2025-07-23 15:23:44.988,-0.0006191204527383,1.28883147498215
2025-07-23 15:23:44.996,-0.0006232780673432,1.2962315541918452
2025-07-23 15:23:45.004,-0.0006250026268912,1.29983827415537
2025-07-23 15:23:45.012,-0.000624147740028,1.300431866698088
2025-07-23 15:23:45.019,-0.0006206096255321,1.298673840990439
2025-07-23 15:23:45.027,-0.0006143377744395,1.2950899117535215
2025-07-23 15:23:45.035,-0.0006053463875449,1.29006338051836
2025-07-23 15:23:45.043,-0.0005937260490273,1.2838387207901536
2025-07-23 15:23:45.051,-0.0005796545641407,1.2765345927765157
2025-07-23 15:23:45.059,-0.0005634054328685,1.2681650392269512
2025-07-23 15:23:45.066,-0.0005453522557732,1.2586672024372965
2025-07-23 15:23:45.074,-0.0005259675642985,1.2479335658346893
2025-07-23 15:23:45.082,-0.0005058150572032,1.2358464769812103
2025-07-23 15:23:45.090,-0.0004855348431731,1.222312568235579
2025-07-23 15:23:45.098,-0.0004658219105442,1.2072946687107164
2025-07-23 15:23:45.105,-0.0004473986115532,1.1908389024416397
2025-07-23 15:23:45.113,-0.0004309824374684,1.1730948934644654
2025-07-23 15:23:45.121,-0.000417250756677,1.154327345209034
2025-07-23 15:23:45.129,-0.0004068044770647,1.1349177206753838
2025-07-23 15:23:45.137,-0.0004001327662183,1.1153553060686674
2025-07-23 15:23:45.145,-0.0003975810104315,1.0962175707802493
2025-07-23 15:23:45.152,-0.000399324111677,1.0781404097674332
2025-07-23 15:23:45.160,-0.0004053470094487,1.0617795327738326
2025-07-23 15:23:45.168,-0.0004154339740859,1.047764906364072
2025-07-23 15:23:45.176,-0.0004291677559453,1.0366507151330608
2025-07-23 15:23:45.184,-0.000445939100514,1.0288637433523111
2025-07-23 15:23:45.191,-0.0004649664723787,1.0246533487408491
2025-07-23 15:23:45.199,-0.0004853251204296,1.0240462808905302
2025-07-23 15:23:45.207,-0.0005059839574299,1.026809481740058
2025-07-23 15:23:45.215,-0.0005258482180912,1.032423703628474
2025-07-23 15:23:45.223,-0.0005438055473122,1.0400703106245306
2025-07-23 15:23:45.230,-0.0005587730624338,1.0486330161888062
2025-07-23 15:23:45.238,-0.0005697430324558,1.0567155859186748
2025-07-23 15:23:45.246,-0.0005758250872701,1.0626757338624435
2025-07-23 15:23:45.254,-0.0005762832224075,1.064674602076516
2025-07-23 15:23:45.262,-0.0005705662150993,1.0607403730461973
2025-07-23 15:23:45.270,-0.0005583303760101,1.0488437613184904
2025-07-23 15:23:45.277,-0.0005394538236133,1.0269824047435876
2025-07-23 15:23:45.285,-0.0005140417159468,0.9932705697230098
2025-07-23 15:23:45.293,-0.0004824221829101,0.946030139768377
2025-07-23 15:23:45.301,-0.0004451331450334,0.8838786066565528
2025-07-23 15:23:45.309,-0.0004029007698197,0.8058097516973448
2025-07-23 15:23:45.316,-0.0003566108853487,0.7112629004168505
2025-07-23 15:23:45.324,-0.0003072750854223,0.6001770510337378
2025-07-23 15:23:45.332,-0.000255993438356,0.4730267937738833
2025-07-23 15:23:45.340,-0.0002039157170891,0.3308377206019016
2025-07-23 15:23:45.348,-0.0001522030247534,0.1751799331267789
2025-07-23 15:23:45.355,-0.0001019916023032,0.0081392468284867
2025-07-23 15:23:45.363,-5.436036008769394e-05,-0.167733284912574
2025-07-23 15:23:45.371,-1.030321268344997e-05,-0.3494918946532398
2025-07-23 15:23:45.379,2.9293319910608108e-05,-0.5338841007327737
2025-07-23 15:23:45.387,6.36674237110437e-05,-0.7174527915704852
2025-07-23 15:23:45.395,9.219490195931464e-05,-0.8966483480798266
2025-07-23 15:23:45.402,0.000114398577607,-1.0679463040476664
2025-07-23 15:23:45.410,0.0001299549076736,-1.227965814449522
2025-07-23 15:23:45.418,0.0001386981099193,-1.3735842024029932
2025-07-23 15:23:45.426,0.0001406217084307,-1.502043075613691
2025-07-23 15:23:45.434,0.0001358772797029,-1.6110419152392643
2025-07-23 15:23:45.441,0.0001247703421102,-1.698815605572936
2025-07-23 15:23:45.449,0.0001077535602856,-1.7641930487707012
2025-07-23 15:23:45.457,8.541750484604211e-05,-1.806634753085726
2025-07-23 15:23:45.465,5.847908934541065e-05,-1.8262480609989529
2025-07-23 15:23:45.473,2.7767624517097552e-05,-1.8237794736897055
2025-07-23 15:23:45.480,-5.791699627797367e-06,-1.8005843231240803
2025-07-23 15:23:45.488,-4.1197121752458286e-05,-1.7585748415665776
2025-07-23 15:23:45.496,-7.739254057416023e-05,-1.7001484725777494
2025-07-23 15:23:45.504,-0.0001132926039874,-1.6280990346427384
2025-07-23 15:23:45.512,-0.0001478102804076,-1.5455140529360871
2025-07-23 15:23:45.520,-0.0001798861306425,-1.4556621760057211
2025-07-23 15:23:45.527,-0.000208518047707,-1.3618750541666784
2025-07-23 15:23:45.535,-0.0002327898609075,-1.2674283432868128
2025-07-23 15:23:45.543,-0.0002518970751239,-1.1754265877170864
2025-07-23 15:23:45.551,-0.0002651682193092,-1.088696614829513
2025-07-23 15:23:45.559,-0.0002720807311609,-1.0096937371739203
2025-07-23 15:23:45.566,-0.0002722708455983,-0.9404245151363092
2025-07-23 15:23:45.574,-0.0002655374617694,-0.8823891043757672
2025-07-23 15:23:45.582,-0.0002518403874112,-0.8365453311208019
2025-07-23 15:23:45.590,-0.0002312936871033,-0.8032956474341738
2025-07-23 15:23:45.598,-0.0002041550881798,-0.7824970694860183
2025-07-23 15:23:45.605,-0.0001708125244574,-0.773493154185736
2025-07-23 15:23:45.613,-0.0001317689266383,-0.7751660858264584
2025-07-23 15:23:45.621,-8.762630556548308e-05,-0.7860060811283087
2025-07-23 15:23:45.629,-3.907002949973865e-05,-0.8041946193792733
2025-07-23 15:23:45.637,1.314601934157818e-05,-0.8276974871959608
2025-07-23 15:23:45.645,6.821299735495693e-05,-0.8543633037524825
2025-07-23 15:23:45.652,0.0001252792662294,-0.8820230643472314
2025-07-23 15:23:45.660,0.0001834614228536,-0.9085863080241344
2025-07-23 15:23:45.668,0.0002418547918464,-0.9321297763657208
2025-07-23 15:23:45.676,0.000299544283306,-0.9509748752427122
2025-07-23 15:23:45.684,0.0003556166537573,-0.9637508542110867
2025-07-23 15:23:45.691,0.0004091750245203,-0.9694413402766044
2025-07-23 15:23:45.699,0.000459355977687,-0.9674126605405468
2025-07-23 15:23:45.707,0.0005053488686952,-0.9574232232231272
2025-07-23 15:23:45.715,0.0005464164883079,-0.9396140655760435
2025-07-23 15:23:45.723,0.0005819160416275,-0.9144814894316688
2025-07-23 15:23:45.730,0.0006113194568512,-0.8828334620172632
2025-07-23 15:23:45.738,0.0006342320359416,-0.8457321367202479
2025-07-23 15:23:45.746,0.0006504083374514,-0.8044254254776229
2025-07-23 15:23:45.754,0.0006597641045971,-0.760271013701999
2025-07-23 15:23:45.762,0.000662383179539,-0.7146565335169015
2025-07-23 15:23:45.770,0.0006585186644448,-0.6689197859392708
2025-07-23 15:23:45.777,0.0006485880222224,-0.6242729155029914
2025-07-23 15:23:45.785,0.0006331622877872,-0.5817342869408701
2025-07-23 15:23:45.793,0.0006129499620364,-0.5420714963521557
2025-07-23 15:23:45.801,0.0005887763550263,-0.5057584778066261
2025-07-23 15:23:45.809,0.0005615591382412,-0.4729490528558739
2025-07-23 15:23:45.816,0.0005322807841048,-0.4434685304926319
2025-07-23 15:23:45.824,0.0005019585257153,-0.4168241191245398
2025-07-23 15:23:45.832,0.0004716125059541,-0.3922339869916676
2025-07-23 15:23:45.840,0.0004422329108051,-0.3686738376756419
2025-07-23 15:23:45.848,0.0004147470949125,-0.3449388961998674
2025-07-23 15:23:45.855,0.0003899879958803,-0.319718281559995
2025-07-23 15:23:45.863,0.0003686654486734,-0.2916779343993192
2025-07-23 15:23:45.871,0.0003513422314102,-0.2595476379558626
2025-07-23 15:23:45.879,0.0003384166366754,-0.2222072750717961
2025-07-23 15:23:45.887,0.0003301129896407,-0.1787673488338845
2025-07-23 15:23:45.895,0.0003264809091417,-0.1286389833016705
2025-07-23 15:23:45.902,0.0003274033976457,-0.0715891124229919
2025-07-23 15:23:45.910,0.0003326131776536,-0.007777332452576
2025-07-23 15:23:45.918,0.0003417161207245,0.0622281130156602
2025-07-23 15:23:45.926,0.0003542201604036,0.1374565903441237
2025-07-23 15:23:45.934,0.000369567752011,0.2165637062383812
2025-07-23 15:23:45.941,0.0003871697467359,0.2978811886902221
2025-07-23 15:23:45.949,0.0004064384871714,0.3794857139562142
2025-07-23 15:23:45.957,0.0004268180049591,0.4592833402617277
2025-07-23 15:23:45.965,0.0004478094036631,0.5351053838980658
2025-07-23 15:23:45.973,0.0004689898330218,0.6048109984876732
2025-07-23 15:23:45.980,0.0004900238928102,0.6663914078487326
2025-07-23 15:23:45.988,0.0005106668312183,0.7180706902466736
2025-07-23 15:23:45.996,0.000530759506777,0.758398198715064
2025-07-23 15:23:46.004,0.0005502157449273,0.7863281071952494
2025-07-23 15:23:46.012,0.0005690034134352,0.8012821730427941
2025-07-23 15:23:46.020,0.0005871212044846,0.8031925772708192
2025-07-23 15:23:46.027,0.0006045736157067,0.7925226133515211
2025-07-23 15:23:46.035,0.0006213468002524,0.770264005999503
2025-07-23 15:23:46.043,0.0006373877266222,0.7379107103915935
2025-07-23 15:23:46.051,0.0006525885366166,0.697410122404188
2025-07-23 15:23:46.059,0.0006667772852817,0.6510936705482897
2025-07-23 15:23:46.066,0.0006797155230528,0.6015897080223994
2025-07-23 15:23:46.074,0.0006911025007465,0.5517224296949506
2025-07-23 15:23:46.082,0.0007005851771825,0.5044011630073161
2025-07-23 15:23:46.090,0.0007077727401954,0.4625047940879688
2025-07-23 15:23:46.098,0.0007122541007397,0.4287662732428082
2025-07-23 15:23:46.105,0.0007136168383194,0.4056620922609771
2025-07-23 15:23:46.113,0.0007114662881396,0.3953113478985059
2025-07-23 15:23:46.121,0.0007054437086288,0.3993885237093817
2025-07-23 15:23:46.129,0.0006952426695677,0.4190534695365055
2025-07-23 15:23:46.137,0.0006806229940848,0.4549012730020108
2025-07-23 15:23:46.145,0.0006614218329727,0.5069338378362409
2025-07-23 15:23:46.152,0.0006375617421294,0.5745540444534146
2025-07-23 15:23:46.160,0.0006090558972493,0.6565824043368771
2025-07-23 15:23:46.168,0.0005760107287004,0.7512951740744549
2025-07-23 15:23:46.176,0.0005386262665936,0.8564820168215437
2025-07-23 15:23:46.184,0.0004971943886667,0.9695205368306128
2025-07-23 15:23:46.191,0.0004520950406224,1.0874644044887802
2025-07-23 15:23:46.199,0.0004037904349186,1.2071413591979132
2025-07-23 15:23:46.207,0.0003528172423568,1.32525713645346
2025-07-23 15:23:46.215,0.0002997768001409,1.4385013138575575
2025-07-23 15:23:46.223,0.0002453233311854,1.543651199375327
2025-07-23 15:23:46.230,0.0001901501554401,1.6376701749977187
2025-07-23 15:23:46.238,0.0001349739483392,1.7177973317152446
2025-07-23 15:23:46.246,8.051729072257049e-05,1.7816257523633547
2025-07-23 15:23:46.254,2.7490026377582392e-05,1.827167380053512
2025-07-23 15:23:46.262,-2.342978692756781e-05,1.8529030154282529
2025-07-23 15:23:46.270,-7.161437029600532e-05,1.8578165842693997
2025-07-23 15:23:46.277,-0.0001165031539825,1.8414133829677093
2025-07-23 15:23:46.285,-0.0001576172313948,1.803722524186395
2025-07-23 15:23:46.293,-0.0001945706517911,1.7452842545851524
2025-07-23 15:23:46.301,-0.0002270781940813,1.6671231916414404
2025-07-23 15:23:46.309,-0.0002549596018117,1.5707088269512457
2025-07-23 15:23:46.316,-0.0002781405243913,1.4579048795644618
2025-07-23 15:23:46.324,-0.0002966505651601,1.3309092720248683
2025-07-23 15:23:46.332,-0.0003106188775749,1.19218665715205
2025-07-23 15:23:46.340,-0.0003202676810748,1.0443955477330291
2025-07-23 15:23:46.348,-0.0003259039021765,0.8903121870363307
2025-07-23 15:23:46.355,-0.0003279089339573,0.732753334313781
2025-07-23 15:23:46.363,-0.0003267263695984,0.5745001162289721
2025-07-23 15:23:46.371,-0.000322847658742,0.4182250068532194
2025-07-23 15:23:46.379,-0.0003167959980308,0.2664238465836472
2025-07-23 15:23:46.387,-0.0003091092126846,0.1213546023052567
2025-07-23 15:23:46.395,-0.0003003226379908,-0.0150156792184038
2025-07-23 15:23:46.402,-0.0002909529810587,-0.1410545494024693
2025-07-23 15:23:46.410,-0.0002814839878986,-0.255497579090071
2025-07-23 15:23:46.418,-0.0002723545844968,-0.3574709199629289
2025-07-23 15:23:46.426,-0.0002639499293972,-0.4465026808076429
2025-07-23 15:23:46.434,-0.0002565954378787,-0.522523063067057
2025-07-23 15:23:46.441,-0.0002505534516512,-0.5858534615453732
2025-07-23 15:23:46.449,-0.0002460220349031,-0.6371849861135608
2025-07-23 15:23:46.457,-0.0002431354105833,-0.6775470949117401
2025-07-23 15:23:46.465,-0.0002419656945584,-0.708267248613453
2025-07-23 15:23:46.473,-0.0002425257306832,-0.7309227030208959
2025-07-23 15:23:46.480,-0.000244772932122,-0.7472857585715221
2025-07-23 15:23:46.488,-0.0002486140826519,-0.7592639812430524
