Timestamp,GSR_Filtered,PPG_Filtered,FMS,Condition
2025-07-23 15:30:09.536,-0.0003909539091935,-1.184652910836426,3,DB
2025-07-23 15:30:09.543,-0.0003771571051908,-1.1760671239232257,3,DB
2025-07-23 15:30:09.551,-0.0003658363015119,-1.158755823012113,3,DB
2025-07-23 15:30:09.559,-0.0003570177103716,-1.1321633439843448,3,DB
2025-07-23 15:30:09.567,-0.0003506172139312,-1.0958986969665507,3,DB
2025-07-23 15:30:09.575,-0.0003464504034178,-1.0497564271949171,3,DB
2025-07-23 15:30:09.583,-0.0003442449312649,-0.9937333609818064,3,DB
2025-07-23 15:30:09.590,-0.0003436546851271,-0.928040630023078,3,DB
2025-07-23 15:30:09.598,-0.0003442755538858,-0.8531105157628032,3,DB
2025-07-23 15:30:09.606,-0.0003456627121618,-0.7695977813391437,3,DB
2025-07-23 15:30:09.614,-0.0003473493868836,-0.678375256152073,3,DB
2025-07-23 15:30:09.622,-0.0003488669830769,-0.5805235139489675,3,DB
2025-07-23 15:30:09.629,-0.0003497662374837,-0.4773145578313392,3,DB
2025-07-23 15:30:09.637,-0.0003496387498479,-0.3701895186022756,3,DB
2025-07-23 15:30:09.645,-0.0003481378618219,-0.260730506976342,3,DB
2025-07-23 15:30:09.653,-0.0003449975345452,-0.1506269443383904,3,DB
2025-07-23 15:30:09.661,-0.0003400477815188,-0.0416369235608152,3,DB
2025-07-23 15:30:09.668,-0.0003332254240218,0.0644556005852347,3,DB
2025-07-23 15:30:09.676,-0.0003245793712705,0.1658867490814511,3,DB
2025-07-23 15:30:09.684,-0.0003142701229813,0.2609605269864137,3,DB
2025-07-23 15:30:09.692,-0.0003025636252322,0.3480970740508678,3,DB
2025-07-23 15:30:09.700,-0.000289819936652,0.4258798146934296,3,DB
2025-07-23 15:30:09.708,-0.0002764773992884,0.4930999156990774,3,DB
2025-07-23 15:30:09.715,-0.0002630332214225,0.548796481016608,3,DB
2025-07-23 15:30:09.723,-0.0002500216059842,0.5922910001244588,3,DB
2025-07-23 15:30:09.731,-0.0002379907166307,0.6232147108278694,3,DB
2025-07-23 15:30:09.739,-0.0002274797144574,0.6415277302396717,3,DB
2025-07-23 15:30:09.747,-0.0002189967870605,0.6475290433932516,3,DB
2025-07-23 15:30:09.754,-0.0002129986902579,0.6418567135074845,3,DB
2025-07-23 15:30:09.762,-0.0002098720655835,0.6254779850621488,3,DB
2025-07-23 15:30:09.770,-0.0002099167988889,0.5996692793716716,3,DB
2025-07-23 15:30:09.778,-0.0002133318742752,0.5659864180503095,3,DB
2025-07-23 15:30:09.786,-0.0002202043918856,0.5262257391817325,3,DB
2025-07-23 15:30:09.794,-0.0002305025379076,0.4823770829995077,3,DB
2025-07-23 15:30:09.801,-0.0002440732734129,0.4365699089002966,3,DB
2025-07-23 15:30:09.809,-0.0002606453356156,0.3910140553823231,3,DB
2025-07-23 15:30:09.817,-0.0002798378272455,0.3479368617404152,3,DB
2025-07-23 15:30:09.825,-0.0003011742458065,0.3095185263171929,3,DB
2025-07-23 15:30:09.833,-0.0003241013604575,0.2778276685857119,3,DB
2025-07-23 15:30:09.840,-0.0003480119725154,0.2547590790874542,3,DB
2025-07-23 15:30:09.848,-0.00037227033806,0.2419755781179064,3,DB
2025-07-23 15:30:09.856,-0.000396238893936,0.240855770128816,3,DB
2025-07-23 15:30:09.864,-0.0004193049140871,0.2524492954652287,3,DB
2025-07-23 15:30:09.872,-0.0004409057983245,0.2774409649709699,3,DB
2025-07-23 15:30:09.879,-0.000460551781907,0.3161249288821607,3,DB
2025-07-23 15:30:09.887,-0.0004778449063263,0.3683897799131558,3,DB
2025-07-23 15:30:09.895,-0.0004924931525496,0.4337152148639979,3,DB
2025-07-23 15:30:09.903,-0.000504318783771,0.5111805761409023,3,DB
2025-07-23 15:30:09.911,-0.0005132602063583,0.5994852714744172,3,DB
2025-07-23 15:30:09.919,-0.0005193670301305,0.6969807422927146,3,DB
2025-07-23 15:30:09.926,-0.0005227884835794,0.8017133345782422,3,DB
2025-07-23 15:30:09.934,-0.0005237558714515,0.9114771304686352,3,DB
2025-07-23 15:30:09.942,-0.0005225602559437,1.023875525321866,3,DB
2025-07-23 15:30:09.950,-0.0005195269098016,1.1363900763420232,3,DB
2025-07-23 15:30:09.958,-0.0005149882881935,1.2464548944005314,3,DB
2025-07-23 15:30:09.965,-0.0005092572925628,1.3515345920912945,3,DB
2025-07-23 15:30:09.973,-0.0005026024877591,1.4492035374775716,3,DB
2025-07-23 15:30:09.981,-0.0004952267593967,1.5372239047198422,3,DB
2025-07-23 15:30:09.989,-0.000487250711804,1.6136197850438216,3,DB
2025-07-23 15:30:09.997,-0.0004787018450426,1.6767444659280109,3,DB
2025-07-23 15:30:10.004,-0.0004695101083506,1.7253379541638154,3,DB
2025-07-23 15:30:10.012,-0.0004595098543166,1.7585719548701098,3,DB
2025-07-23 15:30:10.020,-0.0004484477261635,1.776079848254628,3,DB
2025-07-23 15:30:10.028,-0.0004359957612255,1.7779697288926295,3,DB
2025-07-23 15:30:10.036,-0.0004217689514345,1.764819269432175,3,DB
2025-07-23 15:30:10.044,-0.0004053465211305,1.7376520081781153,3,DB
2025-07-23 15:30:10.051,-0.0003862961542407,1.6978955883044775,3,DB
2025-07-23 15:30:10.059,-0.0003642002896595,1.6473234298174184,3,DB
2025-07-23 15:30:10.067,-0.0003386834046924,1.587982218721182,3,DB
2025-07-23 15:30:10.075,-0.0003094389359495,1.5221083774375226,3,DB
2025-07-23 15:30:10.083,-0.0002762541953879,1.4520372751102,3,DB
2025-07-23 15:30:10.090,-0.0002390314483333,1.380109305381111,3,DB
2025-07-23 15:30:10.098,-0.0001978033924376,1.3085770856443804,3,DB
2025-07-23 15:30:10.106,-0.0001527416895091,1.2395179202080393,3,DB
2025-07-23 15:30:10.114,-0.0001041578712163,1.1747553408469116,3,DB
2025-07-23 15:30:10.122,-5.2496690163744135e-05,1.1157930219091203,3,DB
2025-07-23 15:30:10.129,1.677341685123375e-06,1.063763697470681,3,DB
2025-07-23 15:30:10.137,5.769902108532654e-05,1.0193949227330508,3,DB
2025-07-23 15:30:10.145,0.0001148257237609,0.9829926661480354,3,DB
2025-07-23 15:30:10.153,0.0001722634671155,0.9544428469090191,3,DB
2025-07-23 15:30:10.161,0.0002291943884028,0.9332301017470428,3,DB
2025-07-23 15:30:10.169,0.0002848042524679,0.9184723247906186,3,DB
2025-07-23 15:30:10.176,0.0003383085941307,0.9089689090243458,3,DB
2025-07-23 15:30:10.184,0.0003889761609025,0.9032601479616608,3,DB
2025-07-23 15:30:10.192,0.0004361484830294,0.8996949414273562,3,DB
2025-07-23 15:30:10.200,0.0004792546615223,0.8965037906319279,3,DB
2025-07-23 15:30:10.208,0.0005178208244238,0.8918740574639245,3,DB
2025-07-23 15:30:10.215,0.0005514741479904,0.8840245875193825,3,DB
2025-07-23 15:30:10.223,0.0005799418556482,0.871277037693238,3,DB
2025-07-23 15:30:10.231,0.0006030461420043,0.8521215833255821,3,DB
2025-07-23 15:30:10.239,0.0006206964000195,0.825275076162582,3,DB
2025-07-23 15:30:10.247,0.0006328802958425,0.7897301475055825,3,DB
2025-07-23 15:30:10.254,0.0006396550620066,0.7447941665732212,3,DB
2025-07-23 15:30:10.262,0.0006411399530169,0.6901173440630093,3,DB
2025-07-23 15:30:10.270,0.0006375102995981,0.6257095968057322,3,DB
2025-07-23 15:30:10.278,0.0006289931406107,0.5519460556675369,3,DB
2025-07-23 15:30:10.286,0.0006158640644111,0.4695613127225359,3,DB
2025-07-23 15:30:10.294,0.0005984446770693,0.3796326807254201,3,DB
2025-07-23 15:30:10.301,0.0005771000455869,0.2835528965669184,3,DB
2025-07-23 15:30:10.309,0.0005522355466599,0.1829928610903942,3,DB
2025-07-23 15:30:10.317,0.000524292780891,0.0798551930214724,3,DB
2025-07-23 15:30:10.325,0.0004937445459497,-0.0237803951025475,3,DB
2025-07-23 15:30:10.333,0.0004610891832757,-0.1257186084435863,3,DB
2025-07-23 15:30:10.340,0.0004268447620416,-0.2237153554076255,3,DB
2025-07-23 15:30:10.348,0.0003915434631749,-0.3155478631930992,3,DB
2025-07-23 15:30:10.356,0.0003557262567611,-0.3990858844379529,3,DB
2025-07-23 15:30:10.364,0.0003199376907777,-0.4723615389851208,3,DB
2025-07-23 15:30:10.372,0.0002847204473374,-0.5336352277743832,3,DB
2025-07-23 15:30:10.379,0.0002506093192889,-0.5814550807554991,3,DB
2025-07-23 15:30:10.387,0.0002181244157813,-0.6147075702477711,3,DB
2025-07-23 15:30:10.395,0.0001877636766942,-0.6326572356040872,3,DB
2025-07-23 15:30:10.403,0.0001599950443656,-0.6349739069118351,3,DB
2025-07-23 15:30:10.411,0.0001352487452383,-0.6217463503264115,3,DB
2025-07-23 15:30:10.419,0.0001139099933212,-0.5934818415815438,3,DB
2025-07-23 15:30:10.426,9.631212585347324e-05,-0.5510917625341285,3,DB
2025-07-23 15:30:10.434,8.272991117833158e-05,-0.4958638687038607,3,DB
2025-07-23 15:30:10.442,7.337271448320832e-05,-0.4294223631982498,3,DB
2025-07-23 15:30:10.450,6.83774429131382e-05,-0.3536773156465416,3,DB
2025-07-23 15:30:10.458,6.780160301319599e-05,-0.2707652774618108,3,DB
2025-07-23 15:30:10.465,7.161715067877827e-05,-0.1829831698536343,3,DB
2025-07-23 15:30:10.473,7.970595570023482e-05,-0.0927176671654436,3,DB
2025-07-23 15:30:10.481,9.185771000741988e-05,-0.0023723774285565,3,DB
2025-07-23 15:30:10.489,0.0001077710883213,0.0857048525085277,3,DB
2025-07-23 15:30:10.497,0.0001270588746553,0.1692921995269961,3,DB
2025-07-23 15:30:10.504,0.0001492574834066,0.2463594515378595,3,DB
2025-07-23 15:30:10.512,0.0001738408403992,0.3151267951412187,3,DB
2025-07-23 15:30:10.520,0.0002002380777257,0.3741148614314674,3,DB
2025-07-23 15:30:10.528,0.000227854053328,0.4221843354779706,3,DB
2025-07-23 15:30:10.536,0.0002560913823002,0.4585637371803102,3,DB
2025-07-23 15:30:10.544,0.0002843724763243,0.4828643188347973,3,DB
2025-07-23 15:30:10.551,0.0003121600354618,0.4950813834528801,3,DB
2025-07-23 15:30:10.559,0.0003389745236037,0.4955817070723083,3,DB
2025-07-23 15:30:10.567,0.0003644073819789,0.4850771599941176,3,DB
2025-07-23 15:30:10.575,0.0003881290869376,0.4645850802459934,3,DB
2025-07-23 15:30:10.583,0.000409891627525,0.435376462183892,3,DB
2025-07-23 15:30:10.590,0.0004295255447737,0.3989135724778749,3,DB
2025-07-23 15:30:10.598,0.0004469322823546,0.3567791677435075,3,DB
2025-07-23 15:30:10.606,0.0004620731202108,0.3106000255971392,3,DB
2025-07-23 15:30:10.614,0.0004749562323673,0.2619679727299476,3,DB
2025-07-23 15:30:10.622,0.0004856233451465,0.2123619582000777,3,DB
2025-07-23 15:30:10.629,0.000494137153218,0.1630749372533817,3,DB
2025-07-23 15:30:10.637,0.0005005702433709,0.115149363166865,3,DB
2025-07-23 15:30:10.645,0.0005049959047027,0.0693249008897472,3,DB
2025-07-23 15:30:10.653,0.0005074809224935,0.0260015588383018,3,DB
2025-07-23 15:30:10.661,0.0005080802787391,-0.0147792120906063,3,DB
2025-07-23 15:30:10.669,0.0005068336227686,-0.0533337506498471,3,DB
2025-07-23 15:30:10.676,0.0005037634281825,-0.0903150444600476,3,DB
2025-07-23 15:30:10.684,0.0004988748838853,-0.1266716022295113,3,DB
2025-07-23 15:30:10.692,0.0004921576975293,-0.1635878499993537,3,DB
2025-07-23 15:30:10.700,0.000483590034166,-0.2024086642719102,3,DB
2025-07-23 15:30:10.708,0.0004731447378189,-0.2445516688489151,3,DB
2025-07-23 15:30:10.715,0.000460797792411,-0.2914117791437414,3,DB
2025-07-23 15:30:10.723,0.000446538678929,-0.3442631122285354,3,DB
2025-07-23 15:30:10.731,0.0004303819223796,-0.4041637384001225,3,DB
2025-07-23 15:30:10.739,0.0004123787905401,-0.4718687901640224,3,DB
2025-07-23 15:30:10.747,0.0003926278960653,-0.5477571446916951,3,DB
2025-07-23 15:30:10.754,0.0003712834063898,-0.6317762572178606,3,DB
2025-07-23 15:30:10.762,0.0003485596916225,-0.7234087747991231,3,DB
2025-07-23 15:30:10.770,0.0003247315372665,-0.8216633594890521,3,DB
2025-07-23 15:30:10.778,0.0003001295024945,-0.925090777385324,3,DB
2025-07-23 15:30:10.786,0.0002751305641584,-1.031824860037697,3,DB
2025-07-23 15:30:10.794,0.0002501447261022,-1.1396465173646906,3,DB
2025-07-23 15:30:10.801,0.0002255986246544,-1.246067671479929,3,DB
2025-07-23 15:30:10.809,0.0002019172383429,-1.348430869499465,3,DB
2025-07-23 15:30:10.817,0.0001795046870802,-1.4440194821848271,3,DB
2025-07-23 15:30:10.825,0.0001587249396013,-1.5301728466165634,3,DB
2025-07-23 15:30:10.833,0.0001398831520021,-1.604400489513916,3,DB
2025-07-23 15:30:10.840,0.000123208375592,-1.6644896800195632,3,DB
2025-07-23 15:30:10.848,0.0001088384969315,-1.7086009946536038,3,DB
2025-07-23 15:30:10.856,9.680846215637271e-05,-1.735347300694328,3,DB
2025-07-23 15:30:10.864,8.704297367972448e-05,-1.7438525262233586,3,DB
2025-07-23 15:30:10.872,7.935477070764958e-05,-1.7337877193969098,3,DB
2025-07-23 15:30:10.879,7.344923908154889e-05,-1.70538313183241,3,DB
2025-07-23 15:30:10.887,6.893552524613855e-05,-1.6594163140840033,3,DB
2025-07-23 15:30:10.895,6.534372102431695e-05,-1.5971774086768549,3,DB
2025-07-23 15:30:10.903,6.214716638858601e-05,-1.5204138979488802,3,DB
2025-07-23 15:30:10.911,5.878853979228329e-05,-1.431257953597171,3,DB
2025-07-23 15:30:10.919,5.470818074574472e-05,-1.3321402055628624,3,DB
2025-07-23 15:30:10.926,4.937299094758799e-05,-1.2256941843125175,3,DB
2025-07-23 15:30:10.934,4.2304220923448914e-05,-1.114655897058227,3,DB
2025-07-23 15:30:10.942,3.310242721863176e-05,-1.0017629942892643,3,DB
2025-07-23 15:30:10.950,2.146795795929163e-05,-0.8896577943852283,3,DB
2025-07-23 15:30:10.958,7.21563665918525e-06,-0.7807980865988721,3,DB
2025-07-23 15:30:10.965,-9.717105367842696e-06,-0.6773791480309996,3,DB
2025-07-23 15:30:10.973,-2.926871697023542e-05,-0.581269807982225,3,DB
2025-07-23 15:30:10.981,-5.1258164940849386e-05,-0.4939646954107251,3,DB
2025-07-23 15:30:10.989,-7.539497546494184e-05,-0.416554040786918,3,DB
2025-07-23 15:30:10.997,-0.0001012938568776,-0.3497116072299351,3,DB
2025-07-23 15:30:11.004,-0.0001284930520754,-0.2937005339758617,3,DB
2025-07-23 15:30:11.012,-0.0001564754810851,-0.2483961217876913,3,DB
2025-07-23 15:30:11.020,-0.0001846915821239,-0.2133239046480978,3,DB
2025-07-23 15:30:11.028,-0.0002125826157956,-0.1877107612409545,3,DB
2025-07-23 15:30:11.036,-0.0002396031460832,-0.1705463448270725,3,DB
2025-07-23 15:30:11.044,-0.0002652414869709,-0.1606517635716096,3,DB
2025-07-23 15:30:11.051,-0.0002890371022627,-0.1567522260183412,3,DB
2025-07-23 15:30:11.059,-0.0003105942621162,-0.1575502723510371,3,DB
2025-07-23 15:30:11.067,-0.0003295916507992,-0.1617962370051729,3,DB
2025-07-23 15:30:11.075,-0.0003457879935767,-0.1683527320743476,3,DB
2025-07-23 15:30:11.083,-0.0003590240404668,-0.1762502051263195,3,DB
2025-07-23 15:30:11.090,-0.0003692213722317,-0.1847310100882518,3,DB
2025-07-23 15:30:11.098,-0.0003763784787133,-0.1932799357808907,3,DB
2025-07-23 15:30:11.106,-0.0003805644440329,-0.2016397606500587,3,DB
2025-07-23 15:30:11.114,-0.0003819104733927,-0.2098111315562525,3,DB
2025-07-23 15:30:11.122,-0.0003805995651667,-0.218036869072318,3,DB
2025-07-23 15:30:11.129,-0.0003768549137372,-0.2267716338162115,3,DB
2025-07-23 15:30:11.137,-0.0003709279653325,-0.2366386911399303,3,DB
2025-07-23 15:30:11.145,-0.0003630872054045,-0.2483762299194656,3,DB
2025-07-23 15:30:11.153,-0.0003536086262032,-0.2627762769431775,3,DB
2025-07-23 15:30:11.161,-0.0003427684837947,-0.2806196608721324,3,DB
2025-07-23 15:30:11.169,-0.000330838564201,-0.3026106889766302,3,DB
2025-07-23 15:30:11.176,-0.0003180838618469,-0.329315192303959,3,DB
2025-07-23 15:30:11.184,-0.0003047623481335,-0.3611053758914404,3,DB
2025-07-23 15:30:11.192,-0.0002911263128171,-0.3981144996772517,3,DB
2025-07-23 15:30:11.200,-0.000277424566026,-0.4402038414798493,3,DB
2025-07-23 15:30:11.208,-0.0002639046715875,-0.4869436942426139,3,DB
2025-07-23 15:30:11.215,-0.0002508144549083,-0.5376093764315301,3,DB
2025-07-23 15:30:11.223,-0.0002384022615908,-0.5911924449171881,3,DB
2025-07-23 15:30:11.231,-0.0002269156398348,-0.6464265463601976,3,DB
2025-07-23 15:30:11.239,-0.0002165981553278,-0.70182666394877,3,DB
2025-07-23 15:30:11.247,-0.000207684039079,-0.755739934720068,3,DB
2025-07-23 15:30:11.254,-0.0002003905052916,-0.8064057415717671,3,DB
2025-07-23 15:30:11.262,-0.000194907879945,-0.8520224282992822,3,DB
2025-07-23 15:30:11.270,-0.0001913880270674,-0.8908177451973457,3,DB
2025-07-23 15:30:11.278,-0.0001899318332627,-0.9211200066664504,3,DB
2025-07-23 15:30:11.286,-0.0001905766632418,-0.9414269347632812,3,DB
2025-07-23 15:30:11.294,-0.0001932847230706,-0.9504692800016316,3,DB
2025-07-23 15:30:11.301,-0.000197933193409,-0.9472665542313404,3,DB
2025-07-23 15:30:11.309,-0.0002043068982311,-0.9311725685388276,3,DB
2025-07-23 15:30:11.317,-0.0002120942317794,-0.9019089151796942,3,DB
2025-07-23 15:30:11.325,-0.0002208870711594,-0.8595850306487088,3,DB
2025-07-23 15:30:11.333,-0.0002301853486018,-0.8047039926362812,3,DB
2025-07-23 15:30:11.340,-0.0002394067319208,-0.7381537135170096,3,DB
2025-07-23 15:30:11.348,-0.0002479014694104,-0.6611836885395672,3,DB
2025-07-23 15:30:11.356,-0.0002549720532398,-0.5753679394875838,3,DB
2025-07-23 15:30:11.364,-0.0002598971063782,-0.482555266872362,3,DB
2025-07-23 15:30:11.372,-0.0002619588095798,-0.3848083824143497,3,DB
2025-07-23 15:30:11.379,-0.0002604731408322,-0.284333927510678,3,DB
2025-07-23 15:30:11.387,-0.0002548220989978,-0.1834057764746228,3,DB
2025-07-23 15:30:11.395,-0.0002444868929081,-0.0842843596069687,3,DB
2025-07-23 15:30:11.403,-0.0002290808005081,0.0108649926475845,3,DB
2025-07-23 15:30:11.411,-0.0002083800587534,0.1000515003494704,3,DB
2025-07-23 15:30:11.419,-0.0001823507889659,0.1815329145864736,3,DB
2025-07-23 15:30:11.426,-0.0001511697210018,0.2538808098901319,3,DB
2025-07-23 15:30:11.434,-0.000115236519437,0.3160341713949794,3,DB
2025-07-23 15:30:11.442,-7.51759177525873e-05,0.3673386298228853,3,DB
2025-07-23 15:30:11.450,-3.1828550503242385e-05,0.4075692354841452,3,DB
2025-07-23 15:30:11.458,1.376982843210704e-05,0.4369353503769215,3,DB
2025-07-23 15:30:11.465,6.04202696615029e-05,0.4560670430481591,3,DB
2025-07-23 15:30:11.473,0.0001068025113662,0.4659832494707173,3,DB
2025-07-23 15:30:11.481,0.0001515250251123,0.4680428603002562,3,DB
2025-07-23 15:30:11.489,0.0001931809278767,0.4638807524337733,3,DB
2025-07-23 15:30:11.497,0.0002304070917575,0.4553315462067152,3,DB
2025-07-23 15:30:11.504,0.0002619435502465,0.4443444926136113,3,DB
2025-07-23 15:30:11.512,0.0002866902154217,0.43289334307738,3,DB
2025-07-23 15:30:11.520,0.0003037579895988,0.4228853077284985,3,DB
2025-07-23 15:30:11.528,0.0003125115802404,0.416073263157898,3,DB
2025-07-23 15:30:11.536,0.0003126017071869,0.4139752363565571,3,DB
2025-07-23 15:30:11.544,0.0003039849217603,0.4178048827138563,3,DB
2025-07-23 15:30:11.551,0.0002869299293291,0.4284162056087381,3,DB
2025-07-23 15:30:11.559,0.0002620101023561,0.4462651441153533,3,DB
2025-07-23 15:30:11.567,0.0002300827354391,0.4713898987114663,3,DB
2025-07-23 15:30:11.575,0.0001922564007582,0.5034109986007668,3,DB
2025-07-23 15:30:11.583,0.0001498483438639,0.5415511756695787,3,DB
2025-07-23 15:30:11.590,0.0001043341309055,0.5846741445691968,3,DB
2025-07-23 15:30:11.598,5.729179498982568e-05,0.6313404477528934,3,DB
2025-07-23 15:30:11.606,1.0342689402461342e-05,0.6798776653915906,3,DB
2025-07-23 15:30:11.614,-3.490874534627972e-05,0.7284615691540579,3,DB
2025-07-23 15:30:11.622,-7.693401876064609e-05,0.7752042628421983,3,DB
2025-07-23 15:30:11.629,-0.0001143360329183,0.8182450344410834,3,DB
2025-07-23 15:30:11.637,-0.0001458984852219,0.8558395612553145,3,DB
2025-07-23 15:30:11.645,-0.0001706269668613,0.8864432659748115,3,DB
2025-07-23 15:30:11.653,-0.0001877799743926,0.9087850036923188,3,DB
2025-07-23 15:30:11.661,-0.0001968887496474,0.9219278366392304,3,DB
2025-07-23 15:30:11.669,-0.0001977656099135,0.925314377451528,3,DB
2025-07-23 15:30:11.676,-0.0001905011013779,0.918794997320404,3,DB
2025-07-23 15:30:11.684,-0.0001754508532007,0.902638046576158,3,DB
2025-07-23 15:30:11.692,-0.0001532134137239,0.8775220720294011,3,DB
2025-07-23 15:30:11.700,-0.0001246006112976,0.8445107954472917,3,DB
2025-07-23 15:30:11.708,-9.060210735298968e-05,0.8050123078695621,3,DB
2025-07-23 15:30:11.715,-5.234583703941468e-05,0.7607245150415509,3,DB
2025-07-23 15:30:11.723,-1.1056041294508048e-05,0.713569333975384,3,DB
2025-07-23 15:30:11.731,3.198936580767967e-05,0.6656184910892565,3,DB
2025-07-23 15:30:11.739,7.55003497246825e-05,0.6190140100172047,3,DB
2025-07-23 15:30:11.747,0.0001182136623525,0.5758866024416628,3,DB
2025-07-23 15:30:11.754,0.0001589279297196,0.53827519046709,3,DB
2025-07-23 15:30:11.762,0.0001965342188642,0.5080506970907703,3,DB
2025-07-23 15:30:11.770,0.0002300417715471,0.4868470406024691,3,DB
2025-07-23 15:30:11.778,0.000258598854384,0.4760019521389316,3,DB
2025-07-23 15:30:11.786,0.0002815088676971,0.476509797932429,3,DB
2025-07-23 15:30:11.794,0.0002982420192428,0.488988036099768,3,DB
2025-07-23 15:30:11.801,0.0003084429604028,0.5136582981629993,3,DB
2025-07-23 15:30:11.809,0.0003119347344528,0.5503424025805387,3,DB
2025-07-23 15:30:11.817,0.0003087192078386,0.5984729358340527,3,DB
2025-07-23 15:30:11.825,0.0002989739352338,0.6571174247952821,3,DB
2025-07-23 15:30:11.833,0.00028304523865,0.7250146023272832,3,DB
2025-07-23 15:30:11.840,0.0002614372064301,0.8006208466943828,3,DB
2025-07-23 15:30:11.848,0.0002347963554686,0.8821645536785399,3,DB
2025-07-23 15:30:11.856,0.0002038918555524,0.9677059762935144,3,DB
2025-07-23 15:30:11.864,0.000169591489543,1.0551999427826917,3,DB
2025-07-23 15:30:11.872,0.0001328339079635,1.1425588464310883,3,DB
2025-07-23 15:30:11.879,9.459818494672496e-05,1.2277133999290752,3,DB
2025-07-23 15:30:11.887,5.587207471170784e-05,1.3086688688651409,3,DB
2025-07-23 15:30:11.895,1.7620542090959775e-05,1.3835548416024073,3,DB
2025-07-23 15:30:11.903,-1.924398233506073e-05,1.4506670422648107,3,DB
2025-07-23 15:30:11.911,-5.388851132873128e-05,1.5085002213260434,3,DB
2025-07-23 15:30:11.919,-8.558285597028679e-05,1.55577172310187,3,DB
2025-07-23 15:30:11.926,-0.0001137190336835,1.591435883315493,3,DB
2025-07-23 15:30:11.934,-0.0001378265475331,1.6146899062054518,3,DB
2025-07-23 15:30:11.942,-0.0001575834421949,1.6249722709622518,3,DB
2025-07-23 15:30:11.950,-0.0001728230123138,1.6219549956916226,3,DB
2025-07-23 15:30:11.958,-0.0001835359368615,1.6055312323617017,3,DB
2025-07-23 15:30:11.965,-0.0001898675507715,1.5757996816982989,3,DB
2025-07-23 15:30:11.973,-0.0001921100696464,1.5330472176589105,3,DB
2025-07-23 15:30:11.981,-0.0001906898627797,1.4777309185937713,3,DB
2025-07-23 15:30:11.989,-0.0001861501965455,1.4104604418759956,3,DB
2025-07-23 15:30:11.997,-0.0001791301308839,1.3319813789368975,3,DB
2025-07-23 15:30:12.004,-0.0001703404152247,1.2431599175991574,3,DB
2025-07-23 15:30:12.012,-0.0001605372904669,1.1449688444958668,3,DB
2025-07-23 15:30:12.020,-0.0001504950896765,1.038474661662176,3,DB
2025-07-23 15:30:12.028,-0.0001409785266182,0.9248253810188274,3,DB
2025-07-23 15:30:12.036,-0.0001327156136847,0.8052384075544754,3,DB
2025-07-23 15:30:12.044,-0.0001263722102142,0.680987835290566,3,DB
2025-07-23 15:30:12.051,-0.0001225291966464,0.5533904705079012,3,DB
2025-07-23 15:30:12.059,-0.0001216631664411,0.4237899753367176,3,DB
2025-07-23 15:30:12.067,-0.0001241313226944,0.2935386950720979,3,DB
2025-07-23 15:30:12.075,-0.0001301609702099,0.1639769833233848,3,DB
2025-07-23 15:30:12.083,-0.0001398436462727,0.0364101460852729,3,DB
2025-07-23 15:30:12.090,-0.0001531336187489,-0.0879165411798213,3,DB
2025-07-23 15:30:12.098,-0.0001698502863464,-0.2078439621040763,3,DB
2025-07-23 15:30:12.106,-0.0001896839723692,-0.3223253645508064,3,DB
2025-07-23 15:30:12.114,-0.0002122046747179,-0.4304513597977257,3,DB
2025-07-23 15:30:12.122,-0.00023687344406,-0.5314723229354658,3,DB
2025-07-23 15:30:12.129,-0.000263056125404,-0.6248168093992047,3,DB
2025-07-23 15:30:12.137,-0.0002900392041615,-0.7101047265552322,3,DB
2025-07-23 15:30:12.145,-0.000317047517875,-0.787154224170568,3,DB
2025-07-23 15:30:12.153,-0.0003432636686437,-0.85598156957109,3,DB
2025-07-23 15:30:12.161,-0.0003678490457674,-0.9167936251286332,3,DB
2025-07-23 15:30:12.169,-0.0003899663693001,-0.9699729210773276,3,DB
2025-07-23 15:30:12.176,-0.0004088035602808,-1.016055691145103,3,DB
2025-07-23 15:30:12.184,-0.0004235985314059,-1.0557035881546524,3,DB
2025-07-23 15:30:12.192,-0.0004336641876876,-1.0896700996258952,3,DB
2025-07-23 15:30:12.200,-0.0004384125818671,-1.118762926133911,3,DB
2025-07-23 15:30:12.208,-0.0004373769081612,-1.1438037680102493,3,DB
2025-07-23 15:30:12.215,-0.0004302300052355,-1.165587098912223,3,DB
2025-07-23 15:30:12.223,-0.0004167983509724,-1.1848395972668262,3,DB
2025-07-23 15:30:12.231,-0.0003970710493885,-1.2021819593675145,3,DB
2025-07-23 15:30:12.239,-0.000371203768951,-1.2180948209503066,3,DB
2025-07-23 15:30:12.247,-0.0003395177617022,-1.2328904494599546,3,DB
2025-07-23 15:30:12.254,-0.0003024939704495,-1.2466917168008615,3,DB
2025-07-23 15:30:12.262,-0.0002607620502056,-1.2594196071595498,3,DB
2025-07-23 15:30:12.270,-0.0002150841310487,-1.270790154095243,3,DB
2025-07-23 15:30:12.278,-0.0001663333730362,-1.2803212496311742,3,DB
2025-07-23 15:30:12.286,-0.0001154676961257,-1.2873492539953562,3,DB
2025-07-23 15:30:12.294,-6.349940141719049e-05,-1.2910547962132397,3,DB
2025-07-23 15:30:12.301,-1.1461690040932484e-05,-1.290496637748294,3,DB
2025-07-23 15:30:12.309,3.962667888683921e-05,-1.2846520211453352,3,DB
2025-07-23 15:30:12.317,8.879717507983406e-05,-1.272461586681755,3,DB
2025-07-23 15:30:12.325,0.0001351662026788,-1.252876744876659,3,DB
2025-07-23 15:30:12.333,0.0001779671574236,-1.2249073553858272,3,DB
2025-07-23 15:30:12.340,0.0002165782982835,-1.187667673764334,3,DB
2025-07-23 15:30:12.348,0.0002505449994368,-1.1404187555879322,3,DB
2025-07-23 15:30:12.356,0.0002795951247608,-1.0826058089009647,3,DB
2025-07-23 15:30:12.364,0.0003036465154738,-1.0138893172315182,3,DB
2025-07-23 15:30:12.372,0.0003228058995938,-0.9341690838885262,3,DB
2025-07-23 15:30:12.379,0.0003373589150139,-0.8436006578963504,3,DB
2025-07-23 15:30:12.387,0.0003477513798748,-0.7426038892792383,3,DB
2025-07-23 15:30:12.395,0.0003545624360877,-0.6318636263437752,3,DB
2025-07-23 15:30:12.403,0.0003584707237501,-0.5123228078325824,3,DB
2025-07-23 15:30:12.411,0.0003602152976334,-0.3851684139075127,3,DB
2025-07-23 15:30:12.419,0.0003605535196873,-0.2518109158331482,3,DB
2025-07-23 15:30:12.426,0.0003602185313724,-0.1138579974203172,3,DB
2025-07-23 15:30:12.434,0.0003598789710802,0.026916594969959,3,DB
2025-07-23 15:30:12.442,0.0003601033115672,0.1686081844394734,3,DB
2025-07-23 15:30:12.450,0.0003613307064257,0.3092194006211547,3,DB
2025-07-23 15:30:12.458,0.0003638497634938,0.4467006897622386,3,DB
2025-07-23 15:30:12.465,0.0003677862538919,0.5789923271853177,3,DB
2025-07-23 15:30:12.473,0.0003731003166113,0.7040672224234423,3,DB
2025-07-23 15:30:12.481,0.0003795931722967,0.8199738517285232,3,DB
2025-07-23 15:30:12.489,0.0003869227740968,0.9248786681493864,3,DB
2025-07-23 15:30:12.497,0.0003946272845224,1.0171073193301283,3,DB
2025-07-23 15:30:12.504,0.0004021548224278,1.095183946677242,3,DB
2025-07-23 15:30:12.512,0.0004088975910728,1.157867751189794,3,DB
2025-07-23 15:30:12.520,0.0004142282856121,1.2041859020922303,3,DB
2025-07-23 15:30:12.528,0.0004175365919099,1.23346175293093,3,DB
2025-07-23 15:30:12.536,0.0004182636305354,1.2453372421270898,3,DB
2025-07-23 15:30:12.544,0.0004159323690835,1.239788323867071,3,DB
2025-07-23 15:30:12.551,0.0004101723182183,1.217132335019372,3,DB
2025-07-23 15:30:12.559,0.0004007372344279,1.1780263805774955,3,DB
2025-07-23 15:30:12.567,0.0003875150646379,1.1234561226417723,3,DB
2025-07-23 15:30:12.575,0.0003705299653618,1.054714774125044,3,DB
2025-07-23 15:30:12.583,0.0003499368579169,0.973372595120928,3,DB
2025-07-23 15:30:12.590,0.0003260095220232,0.8812377147758954,3,DB
2025-07-23 15:30:12.598,0.0002991235506946,0.7803095920967296,3,DB
2025-07-23 15:30:12.606,0.0002697355784117,0.6727268305034539,3,DB
2025-07-23 15:30:12.614,0.0002383601725508,0.5607113402815009,3,DB
2025-07-23 15:30:12.622,0.0002055457257835,0.4465109904389111,3,DB
2025-07-23 15:30:12.630,0.0001718505676059,0.3323429105838662,3,DB
2025-07-23 15:30:12.637,0.000137820296103,0.2203395045871169,3,DB
2025-07-23 15:30:12.645,0.0001039670748796,0.1124990367362919,3,DB
2025-07-23 15:30:12.653,7.0751425153737e-05,0.010642369015053,3,DB
2025-07-23 15:30:12.661,3.856690955869989e-05,-0.0836229116295326,3,DB
2025-07-23 15:30:12.669,7.728056289336454e-06,-0.1689301144092567,3,DB
2025-07-23 15:30:12.676,-2.153812238516189e-05,-0.2441723521392662,3,DB
2025-07-23 15:30:12.684,-4.909668237459129e-05,-0.3085126804123765,3,DB
2025-07-23 15:30:12.692,-7.490515702666146e-05,-0.3613858095323018,3,DB
2025-07-23 15:30:12.700,-9.900982598853016e-05,-0.4024920879330062,3,DB
2025-07-23 15:30:12.708,-0.0001215380511428,-0.4317847481800575,3,DB
2025-07-23 15:30:12.715,-0.0001426869636069,-0.4494516112629619,3,DB
2025-07-23 15:30:12.723,-0.0001627087347929,-0.4558925496748227,3,DB
2025-07-23 15:30:12.731,-0.0001818926366243,-0.451694017022006,3,DB
2025-07-23 15:30:12.739,-0.0002005442460205,-0.4376018781235671,3,DB
2025-07-23 15:30:12.747,-0.0002189624739371,-0.4144936431493553,3,DB
2025-07-23 15:30:12.755,-0.0002374154714188,-0.3833510449003939,3,DB
2025-07-23 15:30:12.762,-0.000256116769685,-0.3452337134313509,3,DB
2025-07-23 15:30:12.770,-0.0002752031998349,-0.3012545017407964,3,DB
2025-07-23 15:30:12.778,-0.0002947161977545,-0.252556804070315,3,DB
2025-07-23 15:30:12.786,-0.0003145880280176,-0.2002939946476029,3,DB
2025-07-23 15:30:12.794,-0.0003346342579661,-0.1456109158383666,3,DB
2025-07-23 15:30:12.801,-0.0003545534848874,-0.0896271777322032,3,DB
2025-07-23 15:30:12.809,-0.0003739348746573,-0.0334219108684676,3,DB
2025-07-23 15:30:12.817,-0.0003922735228601,0.0219804464182316,3,DB
2025-07-23 15:30:12.825,-0.0004089930220335,0.0756237320662675,3,DB
2025-07-23 15:30:12.833,-0.0004234739697303,0.1266333296314971,3,DB
2025-07-23 15:30:12.840,-0.0004350866059088,0.1742292711213147,3,DB
2025-07-23 15:30:12.848,-0.0004432254622543,0.2177391051173077,3,DB
2025-07-23 15:30:12.856,-0.0004473438571897,0.2566102287387126,3,DB
2025-07-23 15:30:12.864,-0.0004469861634523,0.2904211659604121,3,DB
2025-07-23 15:30:12.872,-0.000441815934131,0.3188911010416508,3,DB
2025-07-23 15:30:12.880,-0.0004316382390136,0.341886859139375,3,DB
2025-07-23 15:30:12.887,-0.0004164149689523,0.3594264758418378,3,DB
2025-07-23 15:30:12.895,-0.000396272354647,0.3716785214202708,3,DB
2025-07-23 15:30:12.903,-0.0003715004369123,0.3789564512740937,3,DB
2025-07-23 15:30:12.911,-0.0003425446753502,0.3817074452219136,3,DB
2025-07-23 15:30:12.919,-0.0003099902772329,0.3804954713118478,3,DB
2025-07-23 15:30:12.926,-0.0002745401614878,0.3759786489516559,3,DB
2025-07-23 15:30:12.934,-0.0002369877390087,0.368881362627094,3,DB
2025-07-23 15:30:12.942,-0.0001981858868897,0.359961955186586,3,DB
2025-07-23 15:30:12.950,-0.0001590136189591,0.3499771743023992,3,DB
2025-07-23 15:30:12.958,-0.0001203420080174,0.3396448296109408,3,DB
2025-07-23 15:30:12.965,-8.300089757848484e-05,0.329606318775473,3,DB
2025-07-23 15:30:12.973,-4.774785500351419e-05,0.3203907809275184,3,DB
2025-07-23 15:30:12.981,-1.524066709204139e-05,0.3123826291734545,3,DB
2025-07-23 15:30:12.989,1.398553213393101e-05,0.3057941094602161,3,DB
2025-07-23 15:30:12.997,3.953567818136573e-05,0.3006443517852611,3,DB
2025-07-23 15:30:13.005,6.116622940231965e-05,0.2967461433919254,3,DB
2025-07-23 15:30:13.012,7.879050044083474e-05,0.2937013786061148,3,DB
2025-07-23 15:30:13.020,9.247806165793168e-05,0.2909058355855872,3,DB
2025-07-23 15:30:13.028,0.0001024486143476,0.2875635979173935,3,DB
2025-07-23 15:30:13.036,0.0001090607422763,0.2827110727930087,3,DB
2025-07-23 15:30:13.044,0.0001127957366423,0.2752501495083377,3,DB
2025-07-23 15:30:13.051,0.000114236533649,0.2639895930914124,3,DB
2025-07-23 15:30:13.059,0.0001140419237318,0.2476932961160674,3,DB
2025-07-23 15:30:13.067,0.0001129165899391,0.2251335508727973,3,DB
2025-07-23 15:30:13.075,0.0001115780169021,0.1951470928480969,3,DB
2025-07-23 15:30:13.083,0.0001107217160375,0.1566913402672551,3,DB
2025-07-23 15:30:13.090,0.0001109865241361,0.1088980442668174,3,DB
2025-07-23 15:30:13.098,0.0001129219781653,0.0511215000927424,3,DB
2025-07-23 15:30:13.106,0.0001169598641894,-0.0170214198251412,3,DB
2025-07-23 15:30:13.114,0.0001233918594042,-0.095621846319315,3,DB
2025-07-23 15:30:13.122,0.0001323547425637,-0.1844620484217681,3,DB
2025-07-23 15:30:13.130,0.0001438240703736,-0.2830124075096585,3,DB
2025-07-23 15:30:13.137,0.000157616624605,-0.3904427472476274,3,DB
2025-07-23 15:30:13.145,0.0001734013810676,-0.5056477155914496,3,DB
2025-07-23 15:30:13.153,0.0001907182574363,-0.6272851008183404,3,DB
2025-07-23 15:30:13.161,0.0002090034749243,-0.7538252056741312,3,DB
2025-07-23 15:30:13.169,0.0002276200293119,-0.8836087445184149,3,DB
2025-07-23 15:30:13.176,0.0002458915179127,-1.014910204879682,3,DB
2025-07-23 15:30:13.184,0.0002631374163806,-1.146003260669068,3,DB
2025-07-23 15:30:13.192,0.0002787078461865,-1.2752246676382126,3,DB
2025-07-23 15:30:13.200,0.000292015921162,-1.401033131599,3,DB
2025-07-23 15:30:13.208,0.0003025659084479,-1.5220599230979233,3,DB
2025-07-23 15:30:13.215,0.0003099756819816,-1.6371485106254655,3,DB
2025-07-23 15:30:13.223,0.0003139922795127,-1.7453811738260347,3,DB
2025-07-23 15:30:13.231,0.0003144997890736,-1.8460913967167765,3,DB
2025-07-23 15:30:13.239,0.0003115192776931,-1.93886176843031,3,DB
2025-07-23 15:30:13.247,0.0003052010162772,-2.0235080599415567,3,DB
2025-07-23 15:30:13.255,0.0002958098037645,-2.1000510186289323,3,DB
2025-07-23 15:30:13.262,0.0002837046666829,-2.1686781564101434,3,DB
2025-07-23 15:30:13.270,0.0002693145469328,-2.229698350092655,3,DB
2025-07-23 15:30:13.278,0.0002531118211709,-2.2834923963330214,3,DB
2025-07-23 15:30:13.286,0.000235585658184,-2.330462759756053,3,DB
2025-07-23 15:30:13.294,0.0002172172380116,-2.3709856283397217,3,DB
2025-07-23 15:30:13.301,0.0001984586115575,-2.4053680667545496,3,DB
2025-07-23 15:30:13.309,0.0001797164875424,-2.4338125739715326,3,DB
2025-07-23 15:30:13.317,0.0001613416314569,-2.4563907601381167,3,DB
2025-07-23 15:30:13.325,0.0001436239724163,-2.4730272229940407,3,DB
2025-07-23 15:30:13.333,0.0001267929965328,-2.4834940867987787,3,DB
2025-07-23 15:30:13.340,0.0001110225821965,-2.487416112454288,3,DB
2025-07-23 15:30:13.348,9.64391169264638e-05,-2.484285820053284,3,DB
2025-07-23 15:30:13.356,8.31315365940183e-05,-2.473487687785311,3,DB
2025-07-23 15:30:13.364,7.11618510611334e-05,-2.45433019240994,3,DB
2025-07-23 15:30:13.372,6.057476663303062e-05,-2.4260842171684267,3,DB
2025-07-23 15:30:13.380,5.140518205490993e-05,-2.388026155531656,3,DB
2025-07-23 15:30:13.387,4.368261390569294e-05,-2.3394838765286563,3,DB
2025-07-23 15:30:13.395,3.743198815307839e-05,-2.2798835944412863,3,DB
2025-07-23 15:30:13.403,3.267069741236496e-05,-2.208795611484675,3,DB
2025-07-23 15:30:13.411,2.9402318384486365e-05,-2.125976882172925,3,DB
2025-07-23 15:30:13.419,2.760782252340292e-05,-2.031408384917349,3,DB
2025-07-23 15:30:13.426,2.7235430134546863e-05,-1.92532538538953,3,DB
2025-07-23 15:30:13.434,2.8190478918897276e-05,-1.8082388470658977,3,DB
2025-07-23 15:30:13.442,3.0326836042950724e-05,-1.680946497379198,3,DB
2025-07-23 15:30:13.450,3.3441395416193285e-05,-1.5445323995402982,3,DB
2025-07-23 15:30:13.458,3.7272948308198845e-05,-1.400354310541852,3,DB
2025-07-23 15:30:13.465,4.150620821728728e-05,-1.250018616548596,3,DB
2025-07-23 15:30:13.473,4.578114463574755e-05,-1.0953432087506263,3,DB
2025-07-23 15:30:13.481,4.970716341180751e-05,-0.9383092675354238,3,DB
2025-07-23 15:30:13.489,5.288115435270448e-05,-0.7810035282818036,3,DB
2025-07-23 15:30:13.497,5.49081019919155e-05,-0.6255531774579282,3,DB
2025-07-23 15:30:13.505,5.54228764763439e-05,-0.4740560434054863,3,DB
2025-07-23 15:30:13.512,5.411191498263714e-05,-0.3285091672475401,3,DB
2025-07-23 15:30:13.520,5.0733615775687504e-05,-0.1907391217862802,3,DB
2025-07-23 15:30:13.528,4.5136318271047615e-05,-0.0623375444638412,3,DB
2025-07-23 15:30:13.536,3.727277599245416e-05,0.0553947678061877,3,DB
2025-07-23 15:30:13.544,2.7210116339132808e-05,0.1614921965595597,3,DB
2025-07-23 15:30:13.551,1.5134453980117224e-05,0.2553546159120913,3,DB
2025-07-23 15:30:13.559,1.349580959688359e-06,0.3367619453714705,3,DB
2025-07-23 15:30:13.567,-1.3730541272885004e-05,0.4058720467759704,3,DB
2025-07-23 15:30:13.575,-2.9595491289324978e-05,0.4632019867494882,3,DB
2025-07-23 15:30:13.583,-4.5658109763003166e-05,0.5095936203331364,3,DB
2025-07-23 15:30:13.590,-6.127986000835569e-05,0.5461653455796465,3,DB
2025-07-23 15:30:13.598,-7.580112681884997e-05,0.574252673005573,3,DB
2025-07-23 15:30:13.606,-8.857522628833673e-05,0.5953408921701484,3,DB
2025-07-23 15:30:13.614,-9.900426949492456e-05,0.6109935541767066,3,DB
2025-07-23 15:30:13.622,-0.0001065744909463,0.6227806906569419,3,DB
2025-07-23 15:30:13.630,-0.0001108884221076,0.6322106398561804,3,DB
2025-07-23 15:30:13.637,-0.0001116914526995,0.6406690508212729,3,DB
2025-07-23 15:30:13.645,-0.0001088908000623,0.6493681113988281,3,DB
2025-07-23 15:30:13.653,-0.0001025655361986,0.6593083407009511,3,DB
2025-07-23 15:30:13.661,-9.296697793296584e-05,0.6712544629159946,3,DB
2025-07-23 15:30:13.669,-8.050937248029056e-05,0.6857260015205009,3,DB
2025-07-23 15:30:13.676,-6.575138694590815e-05,0.7030023603660007,3,DB
2025-07-23 15:30:13.684,-4.9369421644329736e-05,0.7231413414637282,3,DB
2025-07-23 15:30:13.692,-3.212420145438756e-05,0.746009330969188,3,DB
2025-07-23 15:30:13.700,-1.4822446701510417e-05,0.7713207989076358,3,DB
2025-07-23 15:30:13.708,1.7243225954776216e-06,0.7986843288634325,3,DB
2025-07-23 15:30:13.715,1.6741643561594943e-05,0.8276521353806783,3,DB
2025-07-23 15:30:13.723,2.9532375286860037e-05,0.8577699452148702,3,DB
2025-07-23 15:30:13.731,3.951317649631114e-05,0.8886242129291717,3,DB
2025-07-23 15:30:13.739,4.624516355501655e-05,0.9198839021529476,3,DB
2025-07-23 15:30:13.747,4.9456980477886905e-05,0.951334470618352,3,DB
2025-07-23 15:30:13.755,4.905887299451558e-05,0.9829022176918026,3,DB
2025-07-23 15:30:13.762,4.514680762245069e-05,1.0146677459502356,3,DB
2025-07-23 15:30:13.770,3.799620411889172e-05,1.0468679092082285,3,DB
2025-07-23 15:30:13.778,2.8045443258864275e-05,1.079886230699892,3,DB
2025-07-23 15:30:13.786,1.5869956958316202e-05,1.1142323505777594,3,DB
2025-07-23 15:30:13.794,2.1483820460552942e-06,1.1505115835582551,3,DB
2025-07-23 15:30:13.801,-1.2377093859738295e-05,1.1893861218159287,3,DB
2025-07-23 15:30:13.809,-2.694357213557408e-05,1.2315297971789343,3,DB
2025-07-23 15:30:13.817,-4.081066533208861e-05,1.2775786200973211,3,DB
2025-07-23 15:30:13.825,-5.330147725079999e-05,1.328079543405846,3,DB
2025-07-23 15:30:13.833,-6.383910217186482e-05,1.3834400537178175,3,DB
2025-07-23 15:30:13.840,-7.197679004358413e-05,1.4438812616648782,3,DB
2025-07-23 15:30:13.848,-7.742026549717896e-05,1.5093971306151592,3,DB
2025-07-23 15:30:13.856,-8.004108906512314e-05,1.5797223409349093,3,DB
2025-07-23 15:30:13.864,-7.988046902227168e-05,1.654311026780436,3,DB
2025-07-23 15:30:13.872,-7.714351550611374e-05,1.7323282437170058,3,DB
2025-07-23 15:30:13.880,-7.218448990823476e-05,1.8126555334824888,3,DB
2025-07-23 15:30:13.887,-6.548409538867355e-05,1.893911357868516,3,DB
2025-07-23 15:30:13.895,-5.7620261367696224e-05,1.9744864912774729,3,DB
2025-07-23 15:30:13.903,-4.923418662396228e-05,2.052593709359377,3,DB
2025-07-23 15:30:13.911,-4.099361545581301e-05,2.1263303172681614,3,DB
2025-07-23 15:30:13.919,-3.3555425156138295e-05,2.193751269099033,3,DB
2025-07-23 15:30:13.926,-2.752959931311536e-05,2.2529498973808035,3,DB
2025-07-23 15:30:13.934,-2.344655121748446e-05,2.302142658426001,3,DB
2025-07-23 15:30:13.942,-2.1729548446869257e-05,2.3397538568969183,3,DB
2025-07-23 15:30:13.950,-2.267367943645085e-05,2.36449607736602,3,DB
2025-07-23 15:30:13.958,-2.6432403804535965e-05,2.375442044648631,3,DB
2025-07-23 15:30:13.965,-3.301225092051499e-05,2.372083869773352,3,DB
2025-07-23 15:30:13.973,-4.227569376155491e-05,2.354376114546642,3,DB
2025-07-23 15:30:13.981,-5.395167424638525e-05,2.322759810482106,3,DB
2025-07-23 15:30:13.989,-6.765278201667286e-05,2.2781654665813083,3,DB
2025-07-23 15:30:13.997,-8.289777835627473e-05,2.2219941474259026,3,DB
2025-07-23 15:30:14.005,-9.913801694645864e-05,2.1560768360751994,3,DB
2025-07-23 15:30:14.012,-0.0001157862688959,2.0826134432959518,3,DB
2025-07-23 15:30:14.020,-0.0001322464337584,2.0040939100075845,3,DB
2025-07-23 15:30:14.028,-0.0001479425826932,1.923204800711288,3,DB
2025-07-23 15:30:14.036,-0.0001623457615775,1.8427255385089012,3,DB
2025-07-23 15:30:14.044,-0.0001749970568001,1.765418939521855,3,DB
2025-07-23 15:30:14.051,-0.0001855256683982,1.6939209408131537,3,DB
2025-07-23 15:30:14.059,-0.000193661137474,1.630634380914772,3,DB
2025-07-23 15:30:14.067,-0.0001992393504408,1.5776314069751038,3,DB
2025-07-23 15:30:14.075,-0.0002022024025253,1.536568583665275,3,DB
2025-07-23 15:30:14.083,-0.0002025928021075,1.5086181125677944,3,DB
2025-07-23 15:30:14.090,-0.000200542820324,1.494417789672048,3,DB
2025-07-23 15:30:14.098,-0.0001962600296002,1.4940414885862472,3,DB
2025-07-23 15:30:14.106,-0.0001900102260098,1.5069911118878203,3,DB
2025-07-23 15:30:14.114,-0.0001820989920544,1.5322101477766736,3,DB
2025-07-23 15:30:14.122,-0.0001728531298387,1.56811823329837,3,DB
2025-07-23 15:30:14.130,-0.0001626030835048,1.6126654696247056,3,DB
2025-07-23 15:30:14.137,-0.0001516672804672,1.6634046546463883,3,DB
2025-07-23 15:30:14.145,-0.0001403390619102,1.717579080287886,3,DB
2025-07-23 15:30:14.153,-0.0001288765600159,1.7722230715214615,3,DB
2025-07-23 15:30:14.161,-0.0001174955566037,1.8242720108145665,3,DB
2025-07-23 15:30:14.169,-0.0001063651122636,1.870678196708322,3,DB
2025-07-23 15:30:14.176,-9.560567026406376e-05,1.9085285443883284,3,DB
2025-07-23 15:30:14.184,-8.528941212838521e-05,1.9351598785970787,3,DB
2025-07-23 15:30:14.192,-7.544276557636322e-05,1.9482674310579613,3,DB
2025-07-23 15:30:14.200,-6.605101612045558e-05,1.9460021719313612,3,DB
2025-07-23 15:30:14.208,-5.706490995875568e-05,1.927052808750843,3,DB
2025-07-23 15:30:14.215,-4.8409001878469856e-05,1.8907086974228893,3,DB
2025-07-23 15:30:14.223,-3.999133914299617e-05,1.8369005331161887,3,DB
2025-07-23 15:30:14.231,-3.1713918189713693e-05,1.7662165103174152,3,DB
2025-07-23 15:30:14.239,-2.3483312455275136e-05,1.6798926283883064,3,DB
2025-07-23 15:30:14.247,-1.5221033438541196e-05,1.5797769224414655,3,DB
2025-07-23 15:30:14.255,-6.873439079280458e-06,1.468268557330171,3,DB
2025-07-23 15:30:14.262,1.578902396475e-06,1.348233866267897,3,DB
2025-07-23 15:30:14.270,1.0112654316125276e-05,1.222902477153336,3,DB
2025-07-23 15:30:14.278,1.865452781635255e-05,1.0957475904247038,3,DB
2025-07-23 15:30:14.286,2.7076297255828025e-05,0.9703552090791026,3,DB
2025-07-23 15:30:14.294,3.5192925559374536e-05,0.8502876463051671,3,DB
2025-07-23 15:30:14.301,4.2764584005016986e-05,0.7389469288890215,3,DB
2025-07-23 15:30:14.309,4.95030424899986e-05,0.6394437580877981,3,DB
2025-07-23 15:30:14.317,5.508250629147297e-05,0.5544774738459883,3,DB
2025-07-23 15:30:14.325,5.915457261042509e-05,0.4862319969714378,3,DB
2025-07-23 15:30:14.333,6.136662093401247e-05,0.4362920173386137,3,DB
2025-07-23 15:30:14.340,6.138265351087838e-05,0.4055827878203351,3,DB
2025-07-23 15:30:14.348,5.890537688243422e-05,0.3943358169251159,3,DB
2025-07-23 15:30:14.356,5.369817129407634e-05,0.4020815807385782,3,DB
2025-07-23 15:30:14.364,4.5605538522238326e-05,0.4276691601171415,3,DB
2025-07-23 15:30:14.372,3.4570654359554534e-05,0.4693115249576912,3,DB
2025-07-23 15:30:14.380,2.0648781264756413e-05,0.5246541072287,3,DB
2025-07-23 15:30:14.387,4.01551833414662e-06,0.5908633894187472,3,DB
2025-07-23 15:30:14.395,-1.5030824220976592e-05,0.6647315254928959,3,DB
2025-07-23 15:30:14.403,-3.60730474061072e-05,0.7427925268974004,3,DB
2025-07-23 15:30:14.411,-5.8584946098851714e-05,0.8214452899259662,3,DB
2025-07-23 15:30:14.419,-8.194664142841322e-05,0.8970787036611279,3,DB
2025-07-23 15:30:14.426,-0.0001054643825637,0.9661942391043356,3,DB
2025-07-23 15:30:14.434,-0.0001283937270539,1.0255217496232674,3,DB
2025-07-23 15:30:14.442,-0.0001499651956212,1.0721246758532708,3,DB
2025-07-23 15:30:14.450,-0.0001694117888192,1.1034914118566292,3,DB
2025-07-23 15:30:14.458,-0.0001859978409724,1.1176102242605956,3,DB
2025-07-23 15:30:14.465,-0.000199048422391,1.1130257949757598,3,DB
2025-07-23 15:30:14.473,-0.0002079780398188,1.088876155782402,3,DB
2025-07-23 15:30:14.481,-0.0002123170424146,1.0449094783420545,3,DB
2025-07-23 15:30:14.489,-0.0002117341152592,0.9814808589676872,3,DB
2025-07-23 15:30:14.497,-0.0002060535022516,0.8995298772418815,3,DB
2025-07-23 15:30:14.505,-0.0001952659958492,0.8005402914821903,3,DB
2025-07-23 15:30:14.512,-0.0001795331462618,0.6864837404587462,3,DB
2025-07-23 15:30:14.520,-0.0001591845310388,0.5597497322907633,3,DB
2025-07-23 15:30:14.528,-0.0001347082748463,0.4230645099132175,3,DB
2025-07-23 15:30:14.536,-0.0001067353130203,0.2794015900849342,3,DB
2025-07-23 15:30:14.544,-7.6018147148108e-05,0.1318868906445139,3,DB
2025-07-23 15:30:14.551,-4.340504381313468e-05,-0.0162985958524109,3,DB
2025-07-23 15:30:14.559,-9.810777297547565e-06,-0.1620156421030334,3,DB
2025-07-23 15:30:14.567,2.3814886969377288e-05,-0.3022602749627208,3,DB
2025-07-23 15:30:14.575,5.651972864463408e-05,-0.434251184540488,3,DB
2025-07-23 15:30:14.583,8.738139811787261e-05,-0.5555085269038956,3,DB
2025-07-23 15:30:14.590,0.0001155383609642,-0.6639218657887912,3,DB
2025-07-23 15:30:14.598,0.0001402183984092,-0.7578053409740497,3,DB
2025-07-23 15:30:14.606,0.0001607637543193,-0.8359385608481424,3,DB
2025-07-23 15:30:14.614,0.0001766522095887,-0.8975921872449366,3,DB
2025-07-23 15:30:14.622,0.0001875135567119,-0.9425376993673472,3,DB
2025-07-23 15:30:14.630,0.0001931410687805,-0.9710413718675248,3,DB
2025-07-23 15:30:14.637,0.0001934975666251,-0.9838430557382578,3,DB
2025-07-23 15:30:14.645,0.0001887156670045,-0.9821208826024184,3,DB
2025-07-23 15:30:14.653,0.0001790919021333,-0.9674434972256544,3,DB
2025-07-23 15:30:14.661,0.0001650747098056,-0.941711836588056,3,DB
2025-07-23 15:30:14.669,0.0001472467191921,-0.9070927957696568,3,DB
2025-07-23 15:30:14.676,0.0001263021194151,-0.8659473319567494,3,DB
2025-07-23 15:30:14.684,0.0001030200444578,-0.8207556435488553,3,DB
2025-07-23 15:30:14.692,7.823486655275126e-05,-0.7740420174306635,3,DB
2025-07-23 15:30:14.700,5.280428820565085e-05,-0.7283017739791832,3,DB
2025-07-23 15:30:14.708,2.7576352878851717e-05,-0.6859324802336161,3,DB
2025-07-23 15:30:14.715,3.3568752154843444e-06,-0.6491712793776254,3,DB
2025-07-23 15:30:14.723,-1.912095248127137e-05,-0.6200398322052876,3,DB
2025-07-23 15:30:14.731,-3.9223076786380416e-05,-0.6002980100979348,3,DB
2025-07-23 15:30:14.739,-5.6435851286625086e-05,-0.5914071360137378,3,DB
2025-07-23 15:30:14.747,-7.0381132451994e-05,-0.5945032478074911,3,DB
2025-07-23 15:30:14.755,-8.082472437463293e-05,-0.6103805599566479,3,DB
2025-07-23 15:30:14.762,-8.767808599865458e-05,-0.6394850284447052,3,DB
2025-07-23 15:30:14.770,-9.09935395639406e-05,-0.6819176819703503,3,DB
2025-07-23 15:30:14.778,-9.095347024484676e-05,-0.737447169753715,3,DB
2025-07-23 15:30:14.786,-8.785418096298879e-05,-0.8055307851678046,3,DB
2025-07-23 15:30:14.794,-8.208516793649702e-05,-0.8853430463986269,3,DB
2025-07-23 15:30:14.801,-7.410464584145065e-05,-0.9758107465764048,3,DB
2025-07-23 15:30:14.809,-6.441225449730494e-05,-1.0756532309423343,3,DB
2025-07-23 15:30:14.817,-5.352009741105199e-05,-1.1834265265279469,3,DB
2025-07-23 15:30:14.825,-4.1923586028260754e-05,-1.2975698483856015,3,DB
2025-07-23 15:30:14.833,-3.007387465402644e-05,-1.4164529430197024,3,DB
2025-07-23 15:30:14.840,-1.835380852594358e-05,-1.5384227144852902,3,DB
2025-07-23 15:30:14.848,-7.059158629970397e-06,-1.661847623176091,3,DB
2025-07-23 15:30:14.856,3.61351406236621e-06,-1.785158459805289,3,DB
2025-07-23 15:30:14.864,1.3571613653765985e-05,-1.9068842801103747,3,DB
2025-07-23 15:30:14.872,2.2823719891315527e-05,-2.0256825366168183,3,DB
2025-07-23 15:30:14.880,3.1469580264750366e-05,-2.140362753072321,3,DB
2025-07-23 15:30:14.887,3.968365162121843e-05,-2.2499034374328395,3,DB
2025-07-23 15:30:14.895,4.769345335637219e-05,-2.353462295989893,3,DB
2025-07-23 15:30:14.903,5.575449298251366e-05,-2.4503801664756786,3,DB
2025-07-23 15:30:14.911,6.41238189314858e-05,-2.540179404404331,3,DB
2025-07-23 15:30:14.919,7.303419612564629e-05,-2.6225577099741257,3,DB
2025-07-23 15:30:14.926,8.267056575633504e-05,-2.697378551538946,3,DB
2025-07-23 15:30:14.934,9.315006953826223e-05,-2.7646594091836763,3,DB
2025-07-23 15:30:14.942,0.0001045066544808,-2.8245590181345563,3,DB
2025-07-23 15:30:14.950,0.0001166810975876,-2.8773646366823447,3,DB
2025-07-23 15:30:14.958,0.0001295170599752,-2.923480110481855,3,DB
2025-07-23 15:30:14.965,0.0001427634270892,-2.963415181719577,3,DB
2025-07-23 15:30:14.973,0.0001560827689222,-2.997776135507497,3,DB
2025-07-23 15:30:14.981,0.0001690653439217,-3.027257530544202,3,DB
2025-07-23 15:30:14.989,0.0001812477173031,-3.052634470451119,3,DB
2025-07-23 15:30:14.997,0.0001921347849406,-3.074754673632873,3,DB
2025-07-23 15:30:15.005,0.0002012237965975,-3.0945295169556486,3,DB
2025-07-23 15:30:15.012,0.0002080288634929,-3.11292326869375,3,DB
2025-07-23 15:30:15.020,0.000212104419274,-3.130939879171044,3,DB
2025-07-23 15:30:15.028,0.0002130661821932,-3.1496069392304014,3,DB
2025-07-23 15:30:15.036,0.0002106083390389,-3.169956712365232,3,DB
2025-07-23 15:30:15.044,0.0002045159350356,-3.193004457279057,3,DB
2025-07-23 15:30:15.051,0.0001946718029005,-3.2197245487068256,3,DB
2025-07-23 15:30:15.059,0.0001810577904168,-3.2510251482029595,3,DB
2025-07-23 15:30:15.067,0.0001637505387206,-3.287722354166647,3,DB
2025-07-23 15:30:15.075,0.000142912604704,-3.330514861086066,3,DB
2025-07-23 15:30:15.083,0.000118780258032,-3.3799601806329083,3,DB
2025-07-23 15:30:15.090,9.164969370055478e-05,-3.43645342936259,3,DB
2025-07-23 15:30:15.098,6.186352356783268e-05,-3.500209583083692,3,DB
2025-07-23 15:30:15.106,2.9799169021259405e-05,-3.5712499518421645,3,DB
2025-07-23 15:30:15.114,-4.139740508509665e-06,-3.649393454108278,3,DB
2025-07-23 15:30:15.122,-3.9528479614003465e-05,-3.734253072104973,3,DB
2025-07-23 15:30:15.130,-7.592295803417113e-05,-3.8252376602456217,3,DB
2025-07-23 15:30:15.137,-0.0001128586810257,-3.921559067902949,3,DB
2025-07-23 15:30:15.145,-0.000149847935414,-4.022244342806355,3,DB
2025-07-23 15:30:15.153,-0.0001863764533794,-4.126152618069502,3,DB
2025-07-23 15:30:15.161,-0.0002219009209152,-4.231996164701734,3,DB
2025-07-23 15:30:15.169,-0.0002558486671877,-4.338365016024407,3,DB
2025-07-23 15:30:15.176,-0.0002876206952873,-4.443754538125083,3,DB
2025-07-23 15:30:15.184,-0.0003165989001091,-4.546595324926543,3,DB
2025-07-23 15:30:15.192,-0.0003421578820131,-4.645284829001564,3,DB
2025-07-23 15:30:15.200,-0.0003636812538856,-4.738220188197541,3,DB
2025-07-23 15:30:15.208,-0.0003805818434005,-4.823831757043068,3,DB
2025-07-23 15:30:15.215,-0.00039232477932,-4.900616880821181,3,DB
2025-07-23 15:30:15.223,-0.0003984520999908,-4.967173440180327,3,DB
2025-07-23 15:30:15.231,-0.0003986072064904,-5.022232633934929,3,DB
2025-07-23 15:30:15.239,-0.0003925572927439,-5.064690359583258,3,DB
2025-07-23 15:30:15.247,-0.0003802119503264,-5.093636412872398,3,DB
2025-07-23 15:30:15.255,-0.0003616364644231,-5.108380589039548,3,DB
2025-07-23 15:30:15.262,-0.0003370587659913,-5.108474662654428,3,DB
2025-07-23 15:30:15.270,-0.0003068694719514,-5.0937291796041775,3,DB
2025-07-23 15:30:15.278,-0.000271614882987,-5.064224032937995,3,DB
2025-07-23 15:30:15.286,-0.0002319832036202,-5.020311920450979,3,DB
2025-07-23 15:30:15.294,-0.0001887845950008,-4.962613990297543,3,DB
2025-07-23 15:30:15.301,-0.0001429259621371,-4.892007256035927,3,DB
2025-07-23 15:30:15.309,-9.538161027158784e-05,-4.809603681674837,3,DB
2025-07-23 15:30:15.317,-4.716107716742398e-05,-4.71672117548654,3,DB
2025-07-23 15:30:15.325,7.244423337257731e-07,-4.6148470679529865,3,DB
2025-07-23 15:30:15.333,4.729561657700591e-05,-4.505594971656335,3,DB
2025-07-23 15:30:15.340,9.16369955327888e-05,-4.39065622155722,3,DB
2025-07-23 15:30:15.348,0.0001329261587655,-4.271747365372985,3,DB
2025-07-23 15:30:15.356,0.0001704587622564,-4.15055540737876,3,DB
2025-07-23 15:30:15.364,0.000203668448778,-4.02868269633223,3,DB
2025-07-23 15:30:15.372,0.0002321408359626,-3.907593478829412,3,DB
2025-07-23 15:30:15.380,0.0002556210955261,-3.788564199436529,3,DB
2025-07-23 15:30:15.387,0.0002740149811868,-3.672639603195738,3,DB
2025-07-23 15:30:15.395,0.0002873835401225,-3.56059657174268,3,DB
2025-07-23 15:30:15.403,0.0002959321141264,-3.4529173944029385,3,DB
2025-07-23 15:30:15.411,0.000299994520119,-3.349773841532084,3,DB
2025-07-23 15:30:15.419,0.0003000134167885,-3.251022979356153,3,DB
2025-07-23 15:30:15.426,0.0002965178228713,-3.1562151625275043,3,DB
2025-07-23 15:30:15.434,0.0002900986630616,-3.064614088650255,3,DB
2025-07-23 15:30:15.442,0.0002813832070834,-2.975228230566427,3,DB
2025-07-23 15:30:15.450,0.0002710093734905,-2.8868524148366714,3,DB
2025-07-23 15:30:15.458,0.000259601016815,-2.798117827617621,3,DB
2025-07-23 15:30:15.465,0.0002477453943835,-2.707548335806368,3,DB
2025-07-23 15:30:15.473,0.0002359739408595,-2.6136207348535385,3,DB
2025-07-23 15:30:15.481,0.0002247472352848,-2.514826385449948,3,DB
2025-07-23 15:30:15.489,0.0002144446628267,-2.4097316781322893,3,DB
2025-07-23 15:30:15.497,0.0002053588455819,-2.2970348580841318,3,DB
2025-07-23 15:30:15.505,0.000197694533312,-2.1756169398322998,3,DB
2025-07-23 15:30:15.512,0.000191571350468,-2.0445847331486333,3,DB
2025-07-23 15:30:15.520,0.0001870296043469,-1.9033043790792907,3,DB
2025-07-23 15:30:15.528,0.0001840382753868,-1.7514242479509086,3,DB
2025-07-23 15:30:15.536,0.0001825043350949,-1.5888865616127146,3,DB
2025-07-23 15:30:15.544,0.0001822826666617,-1.4159276427441885,3,DB
2025-07-23 15:30:15.551,0.0001831860855443,-1.233067229277902,3,DB
2025-07-23 15:30:15.559,0.0001849952243957,-1.0410877829934628,3,DB
2025-07-23 15:30:15.567,0.0001874682450221,-0.8410051326781833,3,DB
2025-07-23 15:30:15.575,0.0001903503482522,-0.6340320979434815,3,DB
2025-07-23 15:30:15.583,0.0001933829019612,-0.4215369260894055,3,DB
2025-07-23 15:30:15.591,0.0001963119235452,-0.2049984391112876,3,DB
2025-07-23 15:30:15.598,0.000198895826839,0.0140402611097673,3,DB
2025-07-23 15:30:15.606,0.0002009126929362,0.2340178267479912,3,DB
2025-07-23 15:30:15.614,0.0002021675731831,0.4533989498803558,3,DB
2025-07-23 15:30:15.622,0.000202500294222,0.6707156668694073,3,DB
2025-07-23 15:30:15.630,0.0002017939487351,0.8846047087794335,3,DB
2025-07-23 15:30:15.637,0.0001999838779615,1.0938401687401882,3,DB
2025-07-23 15:30:15.645,0.0001970666057666,1.2973609694670725,3,DB
2025-07-23 15:30:15.653,0.0001931079209225,1.4942927914236974,3,DB
2025-07-23 15:30:15.661,0.0001882491410758,1.6839642668368595,3,DB
2025-07-23 15:30:15.669,0.0001827105365648,1.865917364135676,3,DB
2025-07-23 15:30:15.676,0.0001767909489848,2.039911992761975,3,DB
2025-07-23 15:30:15.684,0.0001708628084439,2.2059249615891985,3,DB
2025-07-23 15:30:15.692,0.0001653620310435,2.364143531771964,3,DB
2025-07-23 15:30:15.700,0.0001607726564499,2.514953915482239,3,DB
2025-07-23 15:30:15.708,0.0001576065473591,2.65892518024958,3,DB
2025-07-23 15:30:15.716,0.000156378970697,2.796789118103045,3,DB
2025-07-23 15:30:15.723,0.000157581322118,2.9294167222982157,3,DB
2025-07-23 15:30:15.731,0.0001616525497568,3.0577919761141046,3,DB
2025-07-23 15:30:15.739,0.0001689509690415,3.182983697881748,3,DB
2025-07-23 15:30:15.747,0.000179728201232,3.3061162110712843,3,DB
2025-07-23 15:30:15.755,0.0001941069533033,3.428339626345373,3,DB
2025-07-23 15:30:15.762,0.000212064239979,3.550800537124328,3,DB
2025-07-23 15:30:15.770,0.000233421360198,3.674613938664767,3,DB
2025-07-23 15:30:15.778,0.0002578414855772,3.800837178060161,3,DB
2025-07-23 15:30:15.786,0.0002848351838959,3.9304467234562974,3,DB
2025-07-23 15:30:15.794,0.000313773675377,4.064318497024757,3,DB
2025-07-23 15:30:15.801,0.0003439091493551,4.203212435657958,3,DB
2025-07-23 15:30:15.809,0.0003744010709756,4.347761811935096,3,DB
2025-07-23 15:30:15.817,0.0004043470915864,4.498467656174249,3,DB
2025-07-23 15:30:15.825,0.0004328169500802,4.655698371333434,3,DB
2025-07-23 15:30:15.833,0.0004588876211318,4.819694344865495,3,DB
2025-07-23 15:30:15.841,0.0004816779334012,4.990577064333231,3,DB
2025-07-23 15:30:15.848,0.0005003809475896,5.168361967506666,3,DB
2025-07-23 15:30:15.856,0.0005142925498258,5.352974031610923,3,DB
2025-07-23 15:30:15.864,0.00052283497715,5.544264955061785,3,DB
2025-07-23 15:30:15.872,0.0005255743436231,5.742030723158116,3,DB
2025-07-23 15:30:15.880,0.0005222316650058,5.946028375844022,3,DB
2025-07-23 15:30:15.887,0.0005126873454552,6.155990895738902,3,DB
2025-07-23 15:30:15.895,0.0004969795060767,6.371639287164967,3,DB
2025-07-23 15:30:15.903,0.0004752968196534,6.592691104131911,3,DB
2025-07-23 15:30:15.911,0.0004479666659754,6.8188648980215465,3,DB
2025-07-23 15:30:15.919,0.0004154395102816,7.049880291614221,3,DB
2025-07-23 15:30:15.926,0.000378270480887,7.285453642480013,3,DB
2025-07-23 15:30:15.934,0.0003370991426503,7.52528952857876,3,DB
2025-07-23 15:30:15.942,0.0002926283665255,7.769068561688552,3,DB
2025-07-23 15:30:15.950,0.0002456029914709,8.016432297365553,3,DB
2025-07-23 15:30:15.958,0.0001967887512888,8.266966248777653,3,DB
2025-07-23 15:30:15.966,0.0001469517832246,8.520182211017495,3,DB
2025-07-23 15:30:15.973,9.683898853483564e-05,8.77550124954628,3,DB
2025-07-23 15:30:15.981,4.715958155349625e-05,9.032238788651629,3,DB
2025-07-23 15:30:15.989,-1.4316906870825628e-06,9.289593237361323,3,DB
2025-07-23 15:30:15.997,-4.834903213835407e-05,9.546639494035452,3,DB
2025-07-23 15:30:16.005,-9.308710281755666e-05,9.802328467074997,3,DB
2025-07-23 15:30:16.012,-0.0001352289320024,10.05549344317106,3,DB
2025-07-23 15:30:16.020,-0.0001744498190892,10.304863746682862,3,DB
2025-07-23 15:30:16.028,-0.000210517114455,10.5490856934144,3,DB
2025-07-23 15:30:16.036,-0.0002432861648413,10.786750382611295,3,DB
2025-07-23 15:30:16.044,-0.0002726930877319,11.016427427757623,3,DB
2025-07-23 15:30:16.051,-0.0002987453213198,11.236703333702014,3,DB
2025-07-23 15:30:16.059,-0.0003215110419472,11.446222912090972,3,DB
2025-07-23 15:30:16.067,-0.0003411085422603,11.64373190648834,3,DB
2025-07-23 15:30:16.075,-0.0003576965241716,11.82811888132858,3,DB
2025-07-23 15:30:16.083,-0.0003714659894891,11.998454415991464,3,DB
2025-07-23 15:30:16.091,-0.0003826340262261,12.154025730016434,3,DB
2025-07-23 15:30:16.098,-0.0003914393448448,12.29436503345131,3,DB
2025-07-23 15:30:16.106,-0.0003981390371754,12.419270129985698,3,DB
2025-07-23 15:30:16.114,-0.0004030058461402,12.528816084880724,3,DB
2025-07-23 15:30:16.122,-0.0004063252610107,12.623357094547844,3,DB
2025-07-23 15:30:16.130,-0.0004083918734401,12.703518053487704,3,DB
2025-07-23 15:30:16.137,-0.0004095045660063,12.770175703193942,3,DB
2025-07-23 15:30:16.145,-0.0004099602970306,12.824429662247612,3,DB
2025-07-23 15:30:16.153,-0.0004100465249873,12.86756406787744,3,DB
2025-07-23 15:30:16.161,-0.0004100326254779,12.90100098969878,3,DB
2025-07-23 15:30:16.169,-0.0004101609131309,12.926247181415372,3,DB
2025-07-23 15:30:16.176,-0.0004106380486451,12.94483608435471,3,DB
2025-07-23 15:30:16.184,-0.0004116276760939,12.95826725304746,3,DB
2025-07-23 15:30:16.192,-0.0004132450949478,12.967945508921495,3,DB
2025-07-23 15:30:16.200,-0.0004155546259078,12.975122130807613,3,DB
2025-07-23 15:30:16.208,-0.000418570083994,12.980840266101048,3,DB
2025-07-23 15:30:16.216,-0.0004222584342586,12.985886512822049,3,DB
2025-07-23 15:30:16.223,-0.0004265462915958,12.99075030641004,3,DB
2025-07-23 15:30:16.231,-0.0004313284881059,12.99559237742259,3,DB
2025-07-23 15:30:16.239,-0.0004364775919469,13.000223162159196,3,DB
2025-07-23 15:30:16.247,-0.0004418531772497,13.00409167826182,3,DB
2025-07-23 15:30:16.255,-0.0004473098607486,13.006285041353154,3,DB
2025-07-23 15:30:16.262,-0.0004527034835972,13.005538505676776,3,DB
2025-07-23 15:30:16.270,-0.0004578951192537,13.000255663272624,3,DB
2025-07-23 15:30:16.278,-0.000462752787018,12.98853822939322,3,DB
2025-07-23 15:30:16.286,-0.0004671509517703,12.968224670710024,3,DB
2025-07-23 15:30:16.294,-0.0004709681568887,12.936936791479091,3,DB
2025-07-23 15:30:16.301,-0.0004740834172055,12.892133276839973,3,DB
2025-07-23 15:30:16.309,-0.0004763722127267,12.831169098114373,3,DB
2025-07-23 15:30:16.317,-0.0004777030321039,12.751359607446432,3,DB
2025-07-23 15:30:16.325,-0.0004779354085752,12.65004807987837,3,DB
2025-07-23 15:30:16.333,-0.0004769202708039,12.524675386785104,3,DB
2025-07-23 15:30:16.341,-0.000474503201359,12.372850390670846,3,DB
2025-07-23 15:30:16.348,-0.0004705308704667,12.1924195277413,3,DB
2025-07-23 15:30:16.356,-0.0004648605364634,11.981533891520588,3,DB
2025-07-23 15:30:16.364,-0.0004573721609769,11.738711959472637,3,DB
2025-07-23 15:30:16.372,-0.0004479824321774,11.462895937599114,3,DB
2025-07-23 15:30:16.380,-0.0004366597635711,11.153499567959392,3,DB
2025-07-23 15:30:16.387,-0.0004234390353687,10.810445189510611,3,DB
2025-07-23 15:30:16.395,-0.0004084345155048,10.434187900836312,3,DB
2025-07-23 15:30:16.403,-0.0003918492458837,10.02572487375809,3,DB
2025-07-23 15:30:16.411,-0.0003739793598991,9.586588226843393,3,DB
2025-07-23 15:30:16.419,-0.0003552122632024,9.118820388626078,3,DB
2025-07-23 15:30:16.426,-0.0003360182020119,8.624931544417485,3,DB
2025-07-23 15:30:16.434,-0.0003169353358793,8.10783953261943,3,DB
2025-07-23 15:30:16.442,-0.0002985489683982,7.570793386862512,3,DB
2025-07-23 15:30:16.450,-0.0002814660475696,7.017282549288188,3,DB
2025-07-23 15:30:16.458,-0.0002662864128619,6.450934544514944,3,DB
2025-07-23 15:30:16.466,-0.000253572526459,5.875404546676423,3,DB
2025-07-23 15:30:16.473,-0.0002438195726474,5.294260752570023,3,DB
2025-07-23 15:30:16.481,-0.0002374278356238,4.710869768929173,3,DB
2025-07-23 15:30:16.489,-0.0002346791692531,4.128286320873657,3,DB
2025-07-23 15:30:16.497,-0.0002357191528439,3.5491514919824465,3,DB
2025-07-23 15:30:16.505,-0.00024054618857,2.975603424360141,3,DB
2025-07-23 15:30:16.512,-0.0002490083460221,2.409203955906528,3,DB
2025-07-23 15:30:16.520,-0.0002608082082246,1.850884069239338,3,DB
2025-07-23 15:30:16.528,-0.0002755153408696,1.300910292203485,3,DB
2025-07-23 15:30:16.536,-0.0002925853473484,0.7588733531855684,3,DB
2025-07-23 15:30:16.544,-0.0003113839124477,0.2236994986914428,3,DB
2025-07-23 15:30:16.551,-0.0003312139431264,-0.3063160222994118,3,DB
2025-07-23 15:30:16.559,-0.0003513439670407,-0.8334546605453071,3,DB
2025-07-23 15:30:16.567,-0.0003710362673474,-1.360501573897144,3,DB
2025-07-23 15:30:16.575,-0.0003895736506107,-1.89065668977857,3,DB
2025-07-23 15:30:16.583,-0.0004062841385403,-2.427433037041906,3,DB
2025-07-23 15:30:16.591,-0.0004205631909471,-2.9745458373341744,3,DB
2025-07-23 15:30:16.598,-0.0004318932901852,-3.5357959292672154,3,DB
2025-07-23 15:30:16.606,-0.0004398608398446,-4.114951003210759,3,DB
2025-07-23 15:30:16.614,-0.0004441703506488,-4.715627880997426,3,DB
2025-07-23 15:30:16.622,-0.0004446558070433,-5.34117872778003,3,DB
2025-07-23 15:30:16.630,-0.0004412889413113,-5.994583687923908,3,DB
2025-07-23 15:30:16.637,-0.0004341839313654,-6.678352051754506,3,DB
2025-07-23 15:30:16.645,-0.0004235978718769,-7.394433735525911,3,DB
2025-07-23 15:30:16.653,-0.00040992633836,-8.144142624552329,3,DB
2025-07-23 15:30:16.661,-0.0003936935037702,-8.928093198018036,3,DB
2025-07-23 15:30:16.669,-0.0003755365451589,-9.746151812297706,3,DB
2025-07-23 15:30:16.676,-0.000356184419036,-10.597404039100716,3,DB
2025-07-23 15:30:16.684,-0.0003364314053898,-11.480139493525805,3,DB
2025-07-23 15:30:16.692,-0.0003171061089105,-12.391855598785158,3,DB
2025-07-23 15:30:16.700,-0.0002990369246493,-13.329281678618216,3,DB
2025-07-23 15:30:16.708,-0.0002830153256898,-14.288424616406944,3,DB
2025-07-23 15:30:16.716,-0.0002697585827801,-15.26463705250116,3,DB
2025-07-23 15:30:16.723,-0.0002598735584576,-16.25270869391454,3,DB
2025-07-23 15:30:16.731,-0.0002538230719156,-17.246980772358494,3,DB
2025-07-23 15:30:16.739,-0.0002518961541238,-18.241483003761992,3,DB
2025-07-23 15:30:16.747,-0.0002541833839521,-19.230091582839812,3,DB
2025-07-23 15:30:16.755,-0.0002605583779141,-20.20670580932719,3,DB
2025-07-23 15:30:16.762,-0.0002706663597506,-21.16543991684176,3,DB
2025-07-23 15:30:16.770,-0.0002839205979332,-22.10082559980705,3,DB
2025-07-23 15:30:16.778,-0.0002995074048227,-23.00801966140876,3,DB
2025-07-23 15:30:16.786,-0.0003164002615136,-23.883010203191866,3,DB
2025-07-23 15:30:16.794,-0.0003333833197432,-24.72281391754736,3,DB
2025-07-23 15:30:16.801,-0.0003490839985166,-25.525656395652955,3,DB
2025-07-23 15:30:16.809,-0.0003620137704427,-26.291126983171097,3,DB
2025-07-23 15:30:16.817,-0.0003706156901697,-27.02029965457936,3,DB
2025-07-23 15:30:16.825,-0.0003733168362432,-27.715811678435752,3,DB
2025-07-23 15:30:16.833,-0.0003685836361956,-28.38189254167522,3,DB
2025-07-23 15:30:16.841,-0.0003549780304906,-29.024336702732416,3,DB
2025-07-23 15:30:16.848,-0.0003312125746411,-29.650415240725483,3,DB
2025-07-23 15:30:16.856,-0.0002962027988461,-30.268723331304308,3,DB
2025-07-23 15:30:16.864,-0.0002491153640113,-30.888962659493792,3,DB
2025-07-23 15:30:16.872,-0.0001894107402272,-31.52166030447705,3,DB
2025-07-23 15:30:16.880,-0.0001168792869358,-32.177828208549,3,DB
2025-07-23 15:30:16.887,-3.1669739667626794e-05,-32.868569965057894,3,DB
2025-07-23 15:30:16.895,6.569078466357845e-05,-33.60464421133214,3,DB
2025-07-23 15:30:16.903,0.0001742860526925,-34.39599627107955,3,DB
2025-07-23 15:30:16.911,0.0002928099355963,-35.25127173811272,3,DB
2025-07-23 15:30:16.919,0.0004195761535907,-36.177327325638,3,DB
2025-07-23 15:30:16.926,0.0005525389665331,-37.17875544485101,3,DB
2025-07-23 15:30:16.934,0.0006893250525142,-38.257439575643865,3,DB
2025-07-23 15:30:16.942,0.0008272765926014,-39.412157529295854,3,DB
2025-07-23 15:30:16.950,0.0009635053091098,-40.63824917416906,3,DB
2025-07-23 15:30:16.958,0.0010949568864624,-41.9273641073896,3,DB
2025-07-23 15:30:16.966,0.0012184848414633,-43.267303122446194,3,DB
2025-07-23 15:30:16.973,0.0013309325115939,-44.64196516656525,3,DB
2025-07-23 15:30:16.981,0.0014292214080871,-46.03140883512648,3,DB
2025-07-23 15:30:16.989,0.0015104437516864,-47.41203436031688,3,DB
2025-07-23 15:30:16.997,0.001571956593714,-48.75688858396874,3,DB
2025-07-23 15:30:17.005,0.0016114745472956,-50.0360916494161,3,DB
2025-07-23 15:30:17.012,0.0016271578398556,-51.21738021633626,3,DB
2025-07-23 15:30:17.020,0.0016176921764234,-52.26675802484949,3,DB
2025-07-23 15:30:17.028,0.0015823568024747,-53.1492407479952,3,DB
2025-07-23 15:30:17.036,0.0015210772026804,-53.82967841405464,3,DB
2025-07-23 15:30:17.044,0.0014344590934817,-54.27363538626154,3,DB
2025-07-23 15:30:17.051,0.0013238007845365,-54.4483050781621,3,DB
2025-07-23 15:30:17.059,0.001191081613203,-54.32343435872721,3,DB
2025-07-23 15:30:17.067,0.0010389250070677,-53.87223104290239,3,DB
2025-07-23 15:30:17.075,0.0008705358037909,-53.072227038389336,3,DB
2025-07-23 15:30:17.083,0.0006896127477338,-51.90606968769512,3,DB
2025-07-23 15:30:17.091,0.0005002385659894,-50.362214655331655,3,DB
2025-07-23 15:30:17.098,0.0003067516315278,-48.435495398147616,3,DB
2025-07-23 15:30:17.106,0.0001136047661948,-46.12754683804067,3,DB
2025-07-23 15:30:17.114,-7.47820764870643e-05,-43.44706432349017,3,DB
2025-07-23 15:30:17.122,-0.0002541679427549,-40.40988328289513,3,DB
2025-07-23 15:30:17.130,-0.0004206286266031,-37.03887006632184,3,DB
2025-07-23 15:30:17.137,-0.0005706794979276,-33.36362022952167,3,DB
2025-07-23 15:30:17.145,-0.0007013779639216,-29.419966775292316,3,DB
2025-07-23 15:30:17.153,-0.000810401537802,-25.24930742199143,3,DB
2025-07-23 15:30:17.161,-0.0008960990896077,-20.89776655444443,3,DB
2025-07-23 15:30:17.169,-0.0009575144430579,-16.415213819738845,3,DB
2025-07-23 15:30:17.176,-0.0009943829218719,-11.85416702513006,3,DB
2025-07-23 15:30:17.184,-0.0010071026783566,-7.268611751537866,3,DB
2025-07-23 15:30:17.192,-0.0009966836379496,-2.712773632211065,3,DB
2025-07-23 15:30:17.200,-0.0009646776615329,1.7601186488800102,3,DB
2025-07-23 15:30:17.208,-0.0009130940663414,6.099041036033194,3,DB
2025-07-23 15:30:17.216,-0.0008443049665794,10.256314896514414,3,DB
2025-07-23 15:30:17.223,-0.0007609450122676,14.188645938966928,3,DB
2025-07-23 15:30:17.231,-0.000665810034079,17.858030214533382,3,DB
2025-07-23 15:30:17.239,-0.0005617588340081,21.23250127729439,3,DB
2025-07-23 15:30:17.247,-0.0004516218534254,24.286698605630864,3,DB
2025-07-23 15:30:17.255,-0.0003381196899276,27.002244034972904,3,DB
2025-07-23 15:30:17.262,-0.0002237935345067,29.367919930707718,3,DB
2025-07-23 15:30:17.270,-0.0001109487496058,31.37964984148249,3,DB
2025-07-23 15:30:17.278,-1.6121146523505897e-06,33.040289128025776,3,DB
2025-07-23 15:30:17.286,0.0001024972905693,34.359239288364854,3,DB
2025-07-23 15:30:17.294,0.0001999840668196,35.35190515425541,3,DB
2025-07-23 15:30:17.301,0.0002897802531393,36.03901861566636,3,DB
2025-07-23 15:30:17.309,0.0003711381211755,36.44585589279984,3,DB
2025-07-23 15:30:17.317,0.0004436135466608,36.60137752948126,3,DB
2025-07-23 15:30:17.325,0.0005070417129738,36.537321199961546,3,DB
2025-07-23 15:30:17.333,0.0005615070468858,36.287277135594536,3,DB
2025-07-23 15:30:17.341,0.000607309335425,35.885774576632954,3,DB
2025-07-23 15:30:17.348,0.0006449278636953,35.3674052741378,3,DB
2025-07-23 15:30:17.356,0.0006749851171241,34.76600688295771,3,DB
2025-07-23 15:30:17.364,0.0006982112030119,34.11392529897566,3,DB
2025-07-23 15:30:17.372,0.0007154098381336,33.44137081105231,3,DB
2025-07-23 15:30:17.380,0.0007274266095108,32.77587856442268,3,DB
2025-07-23 15:30:17.387,0.0007351201797656,32.141879460214874,3,DB
2025-07-23 15:30:17.395,0.0007393370372714,31.56038342388261,3,DB
2025-07-23 15:30:17.403,0.0007408901831273,31.048773126743523,3,DB
2025-07-23 15:30:17.411,0.0007405418120756,30.620702882187985,3,DB
2025-07-23 15:30:17.419,0.0007389897045639,30.28609467587733,3,DB
2025-07-23 15:30:17.426,0.0007368568609429,30.051221205726744,3,DB
2025-07-23 15:30:17.434,0.0007346839532769,29.91886444043653,3,DB
2025-07-23 15:30:17.442,0.0007329243464832,29.88853755018475,3,DB
2025-07-23 15:30:17.450,0.0007319415474417,29.95675807100995,3,DB
2025-07-23 15:30:17.458,0.0007320088976206,30.11736074213167,3,DB
2025-07-23 15:30:17.466,0.0007333112496629,30.361839472916945,3,DB
2025-07-23 15:30:17.473,0.0007359484017355,30.679709203513475,3,DB
2025-07-23 15:30:17.481,0.0007399402017062,31.058879869494213,3,DB
2025-07-23 15:30:17.489,0.0007452333558707,31.486036127406702,3,DB
2025-07-23 15:30:17.497,0.0007517099746566,31.947017824755218,3,DB
2025-07-23 15:30:17.505,0.0007591977525617,32.427197307717904,3,DB
2025-07-23 15:30:17.512,0.0007674814893015,32.91185048416432,3,DB
2025-07-23 15:30:17.520,0.0007763154937912,33.386519060825506,3,DB
2025-07-23 15:30:17.528,0.0007854363085274,33.837361543030816,3,DB
2025-07-23 15:30:17.536,0.0007945751566209,34.25149043865083,3,DB
2025-07-23 15:30:17.544,0.0008034695469633,34.61729268290434,3,DB
2025-07-23 15:30:17.551,0.0008118735723658,34.92472965913951,3,DB
2025-07-23 15:30:17.559,0.0008195665910616,35.16561241600723,3,DB
2025-07-23 15:30:17.567,0.0008263601551971,35.333846872514066,3,DB
2025-07-23 15:30:17.575,0.0008321031590794,35.42564306368175,3,DB
2025-07-23 15:30:17.583,0.0008366851461052,35.43968190994283,3,DB
2025-07-23 15:30:17.591,0.0008400375439187,35.37723267776623,3,DB
2025-07-23 15:30:17.598,0.0008421324074718,35.24221430309468,3,DB
2025-07-23 15:30:17.606,0.0008429781982802,35.04119411925428,3,DB
2025-07-23 15:30:17.614,0.0008426123208189,34.78331829561645,3,DB
2025-07-23 15:30:17.622,0.0008410905410195,34.480169463547064,3,DB
2025-07-23 15:30:17.630,0.0008384738629144,34.14554857400829,3,DB
2025-07-23 15:30:17.637,0.0008348137713646,33.795179968642955,3,DB
2025-07-23 15:30:17.645,0.0008301369176433,33.44634090644003,3,DB
2025-07-23 15:30:17.653,0.0008244303891035,33.11741930622939,3,DB
2025-07-23 15:30:17.661,0.0008176287102899,32.82740615812807,3,DB
2025-07-23 15:30:17.669,0.0008096036593674,32.59533182341588,3,DB
2025-07-23 15:30:17.676,0.0008001578521063,32.43965816467129,3,DB
2025-07-23 15:30:17.684,0.0007890228923653,32.37764099753332,3,DB
2025-07-23 15:30:17.692,0.0007758627169488,32.4246796013648,3,DB
2025-07-23 15:30:17.700,0.000760282503011,32.59367184779974,3,DB
2025-07-23 15:30:17.708,0.0007418431224897,32.89439480334433,3,DB
2025-07-23 15:30:17.716,0.0007200806811528,33.33293135929189,3,DB
2025-07-23 15:30:17.723,0.0006945302547675,33.911163488739504,3,DB
2025-07-23 15:30:17.731,0.0006647525788691,34.62635209937002,3,DB
2025-07-23 15:30:17.739,0.0006303621801094,35.47082213388076,3,DB
2025-07-23 15:30:17.747,0.0005910552669207,36.43176957307488,3,DB
2025-07-23 15:30:17.755,0.0005466356333149,37.49120433712133,3,DB
2025-07-23 15:30:17.762,0.0004970368771752,38.626039791743445,3,DB
2025-07-23 15:30:17.770,0.0004423393954292,39.80833570373697,3,DB
2025-07-23 15:30:17.778,0.0003827808917285,41.00569713699795,3,DB
2025-07-23 15:30:17.786,0.0003187595129876,42.18182704875895,3,DB
2025-07-23 15:30:17.794,0.0002508292110985,43.29722537766607,3,DB
2025-07-23 15:30:17.801,0.0001796874881761,44.31002237571891,3,DB
2025-07-23 15:30:17.809,0.0001061562805112,45.176929003806606,3,DB
2025-07-23 15:30:17.817,3.1157275961866504e-05,45.85428256744291,3,DB
2025-07-23 15:30:17.825,-4.431665429969185e-05,46.29916158964623,3,DB
2025-07-23 15:30:17.833,-0.0001192320390281,46.470540360117205,3,DB
2025-07-23 15:30:17.841,-0.0001925455459546,46.33045080216276,3,DB
2025-07-23 15:30:17.848,-0.000263233228789,45.845117379003376,3,DB
2025-07-23 15:30:17.856,-0.0003303170059142,44.9860298181456,3,DB
2025-07-23 15:30:17.864,-0.0003928875340041,43.73091854903503,3,DB
2025-07-23 15:30:17.872,-0.0004501230591106,42.064598995050666,3,DB
2025-07-23 15:30:17.880,-0.0005013041839559,39.97965329482907,3,DB
2025-07-23 15:30:17.887,-0.0005458247707008,37.47692169122927,3,DB
2025-07-23 15:30:17.895,-0.0005831994000442,34.5657807253843,3,DB
2025-07-23 15:30:17.903,-0.0006130679305585,31.264191457834205,3,DB
2025-07-23 15:30:17.911,-0.0006351977506047,27.59850808519564,3,DB
2025-07-23 15:30:17.919,-0.0006494842960852,23.6030453246084,3,DB
2025-07-23 15:30:17.926,-0.0006559503305279,19.319411509978785,3,DB
2025-07-23 15:30:17.934,-0.0006547443616569,14.795623111628522,3,DB
2025-07-23 15:30:17.942,-0.0006461384145137,10.085024916077089,3,DB
2025-07-23 15:30:17.950,-0.00063052521031,5.245047917722629,3,DB
2025-07-23 15:30:17.958,-0.000608414627989,0.3358436306604653,3,DB
2025-07-23 15:30:17.966,-0.0005804291673194,-4.581161357807084,3,DB
2025-07-23 15:30:17.973,-0.0005472980029029,-9.444743489184084,3,DB
2025-07-23 15:30:17.981,-0.000509849131077,-14.195344613721474,3,DB
2025-07-23 15:30:17.989,-0.0004689990778358,-18.776471054598616,3,DB
2025-07-23 15:30:17.997,-0.0004257396646726,-23.13598453999329,3,DB
2025-07-23 15:30:18.005,-0.0003811214270036,-27.22724478798348,3,DB
2025-07-23 15:30:18.012,-0.0003362334497118,-31.010069697947085,3,DB
2025-07-23 15:30:18.020,-0.0002921796261259,-34.45148651367279,3,DB
2025-07-23 15:30:18.028,-0.0002500516565882,-37.526255607184936,3,DB
2025-07-23 15:30:18.036,-0.0002108994732394,-40.21715729581533,3,DB
2025-07-23 15:30:18.044,-0.0001757001977718,-42.51504095563857,3,DB
2025-07-23 15:30:18.051,-0.0001453271889658,-44.418644255372,3,DB
2025-07-23 15:30:18.059,-0.0001205211621245,-45.934198257247736,3,DB
2025-07-23 15:30:18.067,-0.0001018656377543,-47.0748411047091,3,DB
2025-07-23 15:30:18.075,-8.976893776866761e-05,-47.85986878210987,3,DB
2025-07-23 15:30:18.083,-8.445451544045773e-05,-48.31385579546372,3,DB
2025-07-23 15:30:18.091,-8.596066557321527e-05,-48.46568146762287,3,DB
2025-07-23 15:30:18.098,-9.414979035851963e-05,-48.34749882573757,3,DB
2025-07-23 15:30:18.106,-0.0001087265587693,-47.99368281748463,3,DB
2025-07-23 15:30:18.114,-0.0001292636238542,-47.439792927358354,3,DB
2025-07-23 15:30:18.122,-0.0001552331184299,-46.721582336613295,3,DB
2025-07-23 15:30:18.130,-0.0001860418692162,-45.87408178917501,3,DB
2025-07-23 15:30:18.137,-0.0002210680112266,-44.930781533299694,3,DB
2025-07-23 15:30:18.145,-0.0002596964150281,-43.92292936620586,3,DB
2025-07-23 15:30:18.153,-0.0003013502161026,-42.87895718322278,3,DB
2025-07-23 15:30:18.161,-0.0003455159753662,-41.82404278345388,3,DB
2025-07-23 15:30:18.169,-0.0003917606684202,-40.77980824902335,3,DB
2025-07-23 15:30:18.176,-0.000439739628716,-39.76415120237442,3,DB
2025-07-23 15:30:18.184,-0.0004891954922674,-38.79120082757745,3,DB
2025-07-23 15:30:18.192,-0.0005399489369126,-37.87138685154347,3,DB
2025-07-23 15:30:18.200,-0.0005918825202532,-37.01160681659034,3,DB
2025-07-23 15:30:18.208,-0.0006449192083177,-36.21547499597821,3,DB
2025-07-23 15:30:18.216,-0.0006989973462662,-35.48363522646392,3,DB
2025-07-23 15:30:18.223,-0.0007540439734209,-34.814119730763124,3,DB
2025-07-23 15:30:18.231,-0.0008099485239494,-34.202736610277064,3,DB
2025-07-23 15:30:18.239,-0.0008665389594302,-33.64346999850234,3,DB
2025-07-23 15:30:18.247,-0.0009235621805794,-33.128878738896724,3,DB
2025-07-23 15:30:18.255,-0.0009806702125334,-32.65048172362192,3,DB
2025-07-23 15:30:18.262,-0.0010374132332257,-32.1991205258726,3,DB
2025-07-23 15:30:18.270,-0.0010932400641089,-31.76529250571336,3,DB
2025-07-23 15:30:18.278,-0.0011475062871153,-31.33945000989449,3,DB
2025-07-23 15:30:18.286,-0.0011994897064365,-30.912263487019867,3,DB
2025-07-23 15:30:18.294,-0.0012484124534567,-30.47484820083996,3,DB
2025-07-23 15:30:18.301,-0.00129346865264,-30.01895568501125,3,DB
2025-07-23 15:30:18.309,-0.0013338562393854,-29.537132118209637,3,DB
2025-07-23 15:30:18.317,-0.0013688112609493,-29.022846415902173,3,DB
2025-07-23 15:30:18.325,-0.0013976428104552,-28.47059106704186,3,DB
2025-07-23 15:30:18.333,-0.0014197666522046,-27.87595864599722,3,DB
2025-07-23 15:30:18.341,-0.0014347356026471,-27.235696578086877,3,DB
2025-07-23 15:30:18.348,-0.0014422648419612,-26.547742222318547,3,DB
2025-07-23 15:30:18.356,-0.0014422505503076,-25.81123975339791,3,DB
2025-07-23 15:30:18.364,-0.0014347805917128,-25.02653976364169,3,DB
2025-07-23 15:30:18.372,-0.0014201364054082,-24.195182029812564,3,DB
2025-07-23 15:30:18.380,-0.001398785804116,-23.319861540189308,3,DB
2025-07-23 15:30:18.387,-0.0013713670071494,-22.404377671186207,3,DB
2025-07-23 15:30:18.395,-0.0013386649034937,-21.45356634209688,3,DB
2025-07-23 15:30:18.403,-0.0013015811247319,-20.473215050425004,3,DB
2025-07-23 15:30:18.411,-0.001261099847623,-19.46996087896809,3,DB
2025-07-23 15:30:18.419,-0.0012182512625781,-18.451171845552818,3,DB
2025-07-23 15:30:18.427,-0.0011740744197854,-17.424812315109545,3,DB
2025-07-23 15:30:18.434,-0.0011295808646888,-16.399293593477402,3,DB
2025-07-23 15:30:18.442,-0.0010857202225647,-15.383311257160328,3,DB
2025-07-23 15:30:18.450,-0.0010433487382949,-14.385671229485943,3,DB
2025-07-23 15:30:18.458,-0.001003201729249,-13.41510708076275,3,DB
2025-07-23 15:30:18.466,-0.0009658709303373,-12.480091499282455,3,DB
2025-07-23 15:30:18.473,-0.000931787690764,-11.588645340809558,3,DB
2025-07-23 15:30:18.481,-0.0009012127745363,-10.748148102443372,3,DB
2025-07-23 15:30:18.489,-0.0008742330823823,-9.96515406292375,3,DB
2025-07-23 15:30:18.497,-0.0008507651082412,-9.245218657845385,3,DB
2025-07-23 15:30:18.505,-0.0008305645762904,-8.592739880300561,3,DB
2025-07-23 15:30:18.512,-0.0008132415153777,-8.01081958098362,3,DB
2025-07-23 15:30:18.520,-0.000798279905815,-7.501149459452414,3,DB
2025-07-23 15:30:18.528,-0.0007850609085335,-7.063926271286071,3,DB
2025-07-23 15:30:18.536,-0.0007728886017995,-6.697800313365433,3,DB
2025-07-23 15:30:18.544,-0.0007610171753402,-6.399860588429744,3,DB
2025-07-23 15:30:18.552,-0.0007486786888469,-6.165659196732572,3,DB
2025-07-23 15:30:18.559,-0.000735110751198,-5.989276475217249,3,DB
2025-07-23 15:30:18.567,-0.0007195837004272,-5.863427235565089,3,DB
2025-07-23 15:30:18.575,-0.0007014269089454,-5.779607186548965,3,DB
2025-07-23 15:30:18.583,-0.0006800536602391,-5.728277313161467,3,DB
2025-07-23 15:30:18.591,-0.0006549837960997,-5.699082671573053,3,DB
2025-07-23 15:30:18.598,-0.0006258632231986,-5.681100785776533,3,DB
2025-07-23 15:30:18.606,-0.0005924794349078,-5.663113636647299,3,DB
2025-07-23 15:30:18.614,-0.0005547723381056,-5.633896155624687,3,DB
2025-07-23 15:30:18.622,-0.0005128398004753,-5.582513212832706,3,DB
2025-07-23 15:30:18.630,-0.0004669374634689,-5.498616362120243,3,DB
2025-07-23 15:30:18.637,-0.0004174725012751,-5.372731110094545,3,DB
2025-07-23 15:30:18.645,-0.0003649911377669,-5.19652524827621,3,DB
2025-07-23 15:30:18.653,-0.0003101599385133,-4.963048865000573,3,DB
2025-07-23 15:30:18.661,-0.000253741284992,-4.66693708087148,3,DB
2025-07-23 15:30:18.669,-0.0001965639719963,-4.30456737636533,3,DB
2025-07-23 15:30:18.677,-0.0001394903383448,-3.874164642238752,3,DB
2025-07-23 15:30:18.684,-8.33815865770833e-05,-3.375848796313049,3,DB
2025-07-23 15:30:18.692,-2.906300570363213e-05,-2.8116219445865056,3,DB
2025-07-23 15:30:18.700,2.2709179004435958e-05,-2.1852945371072265,3,DB
2025-07-23 15:30:18.708,7.127757462358594e-05,-1.5023526400931764,3,DB
2025-07-23 15:30:18.716,0.0001161082747153,-0.7697711292459485,3,DB
2025-07-23 15:30:18.723,0.00015680888782,0.0042199033146198,3,DB
2025-07-23 15:30:18.731,0.0001931389225073,0.8104061400226152,3,DB
2025-07-23 15:30:18.739,0.0002250121883417,1.638886483317759,3,DB
2025-07-23 15:30:18.747,0.0002524915637679,2.4793850832128768,3,DB
2025-07-23 15:30:18.755,0.0002757770616814,3.321565789797436,3,DB
2025-07-23 15:30:18.762,0.0002951885391472,4.1553371951896825,3,DB
2025-07-23 15:30:18.770,0.0003111446355271,4.971137282771826,3,DB
2025-07-23 15:30:18.778,0.0003241395809998,5.760187993748316,3,DB
2025-07-23 15:30:18.786,0.0003347193990531,6.514711655630298,3,DB
2025-07-23 15:30:18.794,0.0003434587471869,7.228103099644747,3,DB
2025-07-23 15:30:18.802,0.0003509392523483,7.895053331904953,3,DB
2025-07-23 15:30:18.809,0.0003577298217098,8.511622724794991,3,DB
2025-07-23 15:30:18.817,0.0003643691801492,9.075263768751746,3,DB
2025-07-23 15:30:18.825,0.0003713508187891,9.584795381237845,3,DB
2025-07-23 15:30:18.833,0.0003791105193717,10.040332529336418,3,DB
2025-07-23 15:30:18.841,0.0003880165726838,10.44317642282694,3,DB
2025-07-23 15:30:18.848,0.0003983627798895,10.795671735300878,3,DB
2025-07-23 15:30:18.856,0.0004103643511793,11.10103819092989,3,DB
2025-07-23 15:30:18.864,0.0004241568458811,11.363184406542905,3,DB
2025-07-23 15:30:18.872,0.0004397982594514,11.586512103492192,3,DB
2025-07-23 15:30:18.880,0.000457274222857,11.775718709262923,3,DB
2025-07-23 15:30:18.887,0.0004765060367677,11.935605971650368,3,DB
2025-07-23 15:30:18.895,0.00049736092948,12.07090153368273,3,DB
2025-07-23 15:30:18.903,0.0005196635523338,12.186099495373874,3,DB
2025-07-23 15:30:18.911,0.0005432074301486,12.285324853179835,3,DB
2025-07-23 15:30:18.919,0.0005677650278754,12.372225403427844,3,DB
2025-07-23 15:30:18.927,0.0005930953554419,12.449893282271798,3,DB
2025-07-23 15:30:18.934,0.0006189485259411,12.520816869992652,3,DB
2025-07-23 15:30:18.942,0.0006450672395866,12.586862398166517,3,DB
2025-07-23 15:30:18.950,0.0006711856598682,12.649283343799569,3,DB
2025-07-23 15:30:18.958,0.0006970265242206,12.708754635540627,3,DB
2025-07-23 15:30:18.966,0.0007222975713069,12.765427870886564,3,DB
2025-07-23 15:30:18.973,0.0007466884632858,12.819003164990065,3,DB
2025-07-23 15:30:18.981,0.0007698693321264,12.86881291855751,3,DB
2025-07-23 15:30:18.989,0.0007914918874526,12.913912690779156,3,DB
2025-07-23 15:30:18.997,0.0008111936981512,12.95317447485622,3,DB
2025-07-23 15:30:19.005,0.0008286058201002,12.9853779780206,3,DB
2025-07-23 15:30:19.012,0.0008433634382703,13.00929598231499,3,DB
2025-07-23 15:30:19.020,0.0008551187192183,13.023770479892164,3,DB
2025-07-23 15:30:19.028,0.0008635547303642,13.027777003188728,3,DB
2025-07-23 15:30:19.036,0.0008683991233858,13.020475363913706,3,DB
2025-07-23 15:30:19.044,0.0008694363101624,13.001245828098284,3,DB
2025-07-23 15:30:19.052,0.0008665170840091,12.96971054081049,3,DB
2025-07-23 15:30:19.059,0.0008595650206643,12.925740732810054,3,DB
2025-07-23 15:30:19.067,0.000848579443121,12.869450861199809,3,DB
2025-07-23 15:30:19.075,0.0008336351603115,12.801181337289878,3,DB
2025-07-23 15:30:19.083,0.0008148795175598,12.721471868172882,3,DB
2025-07-23 15:30:19.091,0.0007925274454794,12.631027681042674,3,DB
2025-07-23 15:30:19.098,0.0007668551215393,12.530681011212469,3,DB
2025-07-23 15:30:19.106,0.0007381926492037,12.421350220181782,3,DB
2025-07-23 15:30:19.114,0.0007069159777892,12.303998780469634,3,DB
2025-07-23 15:30:19.122,0.0006734382198073,12.179596138748932,3,DB
2025-07-23 15:30:19.130,0.0006382005363821,12.049082171245333,3,DB
2025-07-23 15:30:19.137,0.0006016627897787,11.9133365977967,3,DB
2025-07-23 15:30:19.145,0.000564294176093,11.773154344363927,3,DB
2025-07-23 15:30:19.153,0.000526564048647,11.629227458175896,3,DB
2025-07-23 15:30:19.161,0.0004889331270324,11.482133802706972,3,DB
2025-07-23 15:30:19.169,0.000451845261524,11.33233240501401,3,DB
2025-07-23 15:30:19.177,0.0004157198910796,11.180165006573628,3,DB
2025-07-23 15:30:19.184,0.0003809452984605,11.025863091291864,3,DB
2025-07-23 15:30:19.192,0.0003478727309249,10.86955944106233,3,DB
2025-07-23 15:30:19.200,0.0003168114218051,10.71130310741394,3,DB
2025-07-23 15:30:19.208,0.0002880245189653,10.551076590142715,3,DB
2025-07-23 15:30:19.216,0.0002617259020433,10.388813980081244,3,DB
2025-07-23 15:30:19.223,0.0002380778523654,10.22441885296892,3,DB
2025-07-23 15:30:19.231,0.0002171895278962,10.057780795225126,3,DB
2025-07-23 15:30:19.239,0.0001991161904564,9.888789598432515,3,DB
2025-07-23 15:30:19.247,0.0001838591332421,9.717346368992,3,DB
2025-07-23 15:30:19.255,0.0001713662625954,9.543371048323252,3,DB
2025-07-23 15:30:19.262,0.0001615332979142,9.366806111807453,3,DB
2025-07-23 15:30:19.270,0.0001542055663089,9.187616495534924,3,DB
2025-07-23 15:30:19.278,0.0001491803827596,9.00578606781548,3,DB
2025-07-23 15:30:19.286,0.0001462100207609,8.821311191723574,3,DB
2025-07-23 15:30:19.294,0.0001450052915236,8.634192095073194,3,DB
2025-07-23 15:30:19.302,0.0001452397606533,8.444422868549037,3,DB
2025-07-23 15:30:19.309,0.000146554639042,8.251980957320399,3,DB
2025-07-23 15:30:19.317,0.0001485643889793,8.056817005645913,3,DB
2025-07-23 15:30:19.325,0.000150863087084,7.858845863174928,3,DB
2025-07-23 15:30:19.333,0.0001530315828418,7.6579394684734305,3,DB
2025-07-23 15:30:19.341,0.0001546454859691,7.453922195559001,3,DB
2025-07-23 15:30:19.348,0.0001552840086071,7.246569095506834,3,DB
2025-07-23 15:30:19.356,0.0001545396809158,7.035607303608342,3,DB
2025-07-23 15:30:19.364,0.0001520289527912,6.8207207257979885,3,DB
2025-07-23 15:30:19.372,0.0001474036868431,6.601557971340737,3,DB
2025-07-23 15:30:19.380,0.0001403635087063,6.377743361486634,3,DB
2025-07-23 15:30:19.387,0.0001306688445215,6.148890713895659,3,DB
2025-07-23 15:30:19.395,0.0001181542073558,5.914619479970965,3,DB
2025-07-23 15:30:19.403,0.0001027409834453,5.674572699623407,3,DB
2025-07-23 15:30:19.411,8.444878174308302e-05,5.428436140548913,3,DB
2025-07-23 15:30:19.419,6.340442786736287e-05,5.175957912336294,3,DB
2025-07-23 15:30:19.427,3.984783532926107e-05,4.9169677933060045,3,DB
2025-07-23 15:30:19.434,1.413413289239687e-05,4.651395481297174,3,DB
2025-07-23 15:30:19.442,-1.3268507881723376e-05,4.379286979209629,3,DB
2025-07-23 15:30:19.450,-4.178584306352044e-05,4.100818353072939,3,DB
2025-07-23 15:30:19.458,-7.074962369393258e-05,3.816306156707456,3,DB
2025-07-23 15:30:19.466,-9.941467703281164e-05,3.526213905013246,3,DB
2025-07-23 15:30:19.473,-0.000126980475922,3.231154100438575,3,DB
2025-07-23 15:30:19.481,-0.0001526162970153,2.931885478013646,3,DB
2025-07-23 15:30:19.489,-0.0001754887694943,2.629305334896413,3,DB
2025-07-23 15:30:19.497,-0.0001947903620829,2.324437042216557,3,DB
2025-07-23 15:30:19.505,-0.0002097672309238,2.0184130785518857,3,DB
2025-07-23 15:30:19.512,-0.0002197449767631,1.712454147922868,3,DB
2025-07-23 15:30:19.520,-0.0002241512223307,1.407845127593523,3,DB
2025-07-23 15:30:19.528,-0.0002225343578839,1.1059087191628394,3,DB
2025-07-23 15:30:19.536,-0.0002145781295118,0.8079777473494895,3,DB
2025-07-23 15:30:19.544,-0.0002001118724994,0.5153670691736933,3,DB
2025-07-23 15:30:19.552,-0.0001791161912137,0.2293460316687955,3,DB
2025-07-23 15:30:19.559,-0.0001517239141015,-0.0488876389930661,3,DB
2025-07-23 15:30:19.567,-0.00011821628819,-0.3182317083356873,3,DB
2025-07-23 15:30:19.575,-7.901458055911207e-05,-0.5777003418422891,3,DB
2025-07-23 15:30:19.583,-3.4667453743816586e-05,-0.8264414264901394,3,DB
2025-07-23 15:30:19.591,1.4165355454879402e-05,-1.0637497980325916,3,DB
2025-07-23 15:30:19.598,6.673240422027632e-05,-1.2890760055367907,3,DB
2025-07-23 15:30:19.606,0.0001222122310063,-1.5020304034673986,3,DB
2025-07-23 15:30:19.614,0.0001797365951273,-1.7023825337820426,3,DB
2025-07-23 15:30:19.622,0.0002384145005984,-1.8900559417839888,3,DB
2025-07-23 15:30:19.630,0.0002973562693988,-2.065118757634008,3,DB
2025-07-23 15:30:19.637,0.0003556969939885,-2.2277705648536776,3,DB
2025-07-23 15:30:19.645,0.0004126187917537,-2.3783262559600926,3,DB
2025-07-23 15:30:19.653,0.0004673713964678,-2.517197728978412,3,DB
2025-07-23 15:30:19.661,0.0005192907186467,-2.644874394876962,3,DB
2025-07-23 15:30:19.669,0.0005678150167357,-2.7619035360865563,3,DB
2025-07-23 15:30:19.677,0.0006124982044521,-2.8688715717972637,3,DB
2025-07-23 15:30:19.684,0.000653019660271,-2.966387237122221,3,DB
2025-07-23 15:30:19.692,0.000689189864575,-3.0550675618849,3,DB
2025-07-23 15:30:19.700,0.0007209513455561,-3.1355273383127784,3,DB
2025-07-23 15:30:19.708,0.0007483746918378,-3.208372504657442,3,DB
2025-07-23 15:30:19.716,0.0007716496445663,-3.274197566685483,3,DB
2025-07-23 15:30:19.723,0.0007910714365577,-3.3335868636265733,3,DB
2025-07-23 15:30:19.731,0.0008070226719894,-3.3871191935919414,3,DB
2025-07-23 15:30:19.739,0.0008199512841926,-3.435375073120196,3,DB
2025-07-23 15:30:19.747,0.0008303455114272,-3.478945731714603,3,DB
2025-07-23 15:30:19.755,0.0008387072633599,-3.518442837749854,3,DB
2025-07-23 15:30:19.762,0.0008455255522536,-3.5545079117264198,3,DB
2025-07-23 15:30:19.770,0.0008512517603874,-3.5878203995497744,3,DB
2025-07-23 15:30:19.778,0.0008562784025065,-3.6191034469657466,3,DB
2025-07-23 15:30:19.786,0.0008609227249382,-3.649126532844828,3,DB
2025-07-23 15:30:19.794,0.0008654160061737,-3.678704280711664,3,DB
2025-07-23 15:30:19.802,0.0008698988854071,-3.708690971101833,3,DB
2025-07-23 15:30:19.809,0.0008744225401535,-3.739970514873252,3,DB
2025-07-23 15:30:19.817,0.0008789551113337,-3.773441905829124,3,DB
2025-07-23 15:30:19.825,0.0008833924535199,-3.810000429993204,3,DB
2025-07-23 15:30:19.833,0.0008875720795582,-3.850515148145854,3,DB
2025-07-23 15:30:19.841,0.0008912890786406,-3.895803374716382,3,DB
2025-07-23 15:30:19.848,0.0008943128171487,-3.946603047769894,3,DB
2025-07-23 15:30:19.856,0.000896403380206,-4.003544026592837,3,DB
2025-07-23 15:30:19.864,0.0008973269675346,-4.067119469622508,3,DB
2025-07-23 15:30:19.872,0.0008968697728296,-4.1376585347225205,3,DB
2025-07-23 15:30:19.880,0.0008948501382007,-4.215301698012777,3,DB
2025-07-23 15:30:19.887,0.0008911288628788,-4.299979994030916,3,DB
2025-07-23 15:30:19.895,0.000885617483637,-4.391399425635079,3,DB
2025-07-23 15:30:19.903,0.0008782843256139,-4.489031667120937,3,DB
2025-07-23 15:30:19.911,0.0008691582675272,-4.59211198551839,3,DB
2025-07-23 15:30:19.919,0.0008583303533249,-4.699645037818786,3,DB
2025-07-23 15:30:19.927,0.0008459534203908,-4.810418878645473,3,DB
2025-07-23 15:30:19.934,0.0008322397765798,-4.923027152040121,3,DB
2025-07-23 15:30:19.942,0.0008174567649927,-5.0358990639677605,3,DB
2025-07-23 15:30:19.950,0.0008019199182782,-5.147336362400676,3,DB
2025-07-23 15:30:19.958,0.0007859833684476,-5.25555621433102,3,DB
2025-07-23 15:30:19.966,0.0007700272524916,-5.358738585242145,3,DB
2025-07-23 15:30:19.973,0.0007544420374621,-5.455076508483638,3,DB
2025-07-23 15:30:19.981,0.0007396099755598,-5.542827481909187,3,DB
2025-07-23 15:30:19.989,0.0007258842801673,-5.620364145221811,3,DB
2025-07-23 15:30:19.997,0.0007135670681052,-5.686222373151757,3,DB
2025-07-23 15:30:20.005,0.0007028875862058,-5.739144968464903,3,DB
2025-07-23 15:30:20.012,0.0006939826046831,-5.77811925675611,3,DB
2025-07-23 15:30:20.020,0.0006868809490075,-5.802407072212507,3,DB
2025-07-23 15:30:20.028,0.0006814938740295,-5.811565877424165,3,DB
2025-07-23 15:30:20.036,0.0006776124400154,-5.805460074798121,3,DB
2025-07-23 15:30:20.044,0.0006749123960622,-5.784261931445443,3,DB
2025-07-23 15:30:20.052,0.0006729664388436,-5.748441937264511,3,DB
2025-07-23 15:30:20.059,0.0006712631498465,-5.6987488273238975,3,DB
2025-07-23 15:30:20.067,0.000669231443383,-5.6361799054250445,3,DB
2025-07-23 15:30:20.075,0.0006662689933558,-5.561942691831884,3,DB
2025-07-23 15:30:20.083,0.0006617728584228,-5.477409275528142,3,DB
2025-07-23 15:30:20.091,0.0006551703989161,-5.384065071013906,3,DB
2025-07-23 15:30:20.098,0.0006459485772793,-5.2834539472690425,3,DB
2025-07-23 15:30:20.106,0.0006336798561758,-5.177121891803175,3,DB
2025-07-23 15:30:20.114,0.0006180431507171,-5.066561474087056,3,DB
2025-07-23 15:30:20.122,0.000598838640697,-4.95315936414845,3,DB
2025-07-23 15:30:20.130,0.0005759956627591,-4.838149039102106,3,DB
2025-07-23 15:30:20.137,0.0005495732994286,-4.722570580973096,3,DB
2025-07-23 15:30:20.145,0.0005197536084662,-4.607239150278746,3,DB
2025-07-23 15:30:20.153,0.0004868277544389,-4.492723331277039,3,DB
2025-07-23 15:30:20.161,0.0004511757257877,-4.379334106160271,3,DB
2025-07-23 15:30:20.169,0.0004132408336616,-4.267124747321178,3,DB
2025-07-23 15:30:20.177,0.0003735006543985,-4.155901442499033,3,DB
2025-07-23 15:30:20.184,0.0003324363791395,-4.045244011381536,3,DB
2025-07-23 15:30:20.192,0.0002905026299755,-3.934535655369452,3,DB
2025-07-23 15:30:20.200,0.0002480996840601,-3.8230003223329136,3,DB
2025-07-23 15:30:20.208,0.0002055497515538,-3.7097459818427625,3,DB
2025-07-23 15:30:20.216,0.000163078570169,-3.5938119095694727,3,DB
2025-07-23 15:30:20.223,0.0001208031952641,-3.4742179830450146,3,DB
2025-07-23 15:30:20.231,7.8726522703595e-05,-3.35001399318554,3,DB
2025-07-23 15:30:20.239,3.673879014319063e-05,-3.22032706066919,3,DB
2025-07-23 15:30:20.247,-5.373965651321687e-06,-3.084405388945474,3,DB
2025-07-23 15:30:20.255,-4.791482781002776e-05,-2.941656764863012,3,DB
2025-07-23 15:30:20.262,-9.125502125780223e-05,-2.7916804236823345,3,DB
2025-07-23 15:30:20.270,-0.0001358081900374,-2.6342911291443483,3,DB
2025-07-23 15:30:20.278,-0.000182001448419,-2.469534588202776,3,DB
2025-07-23 15:30:20.286,-0.0002302449877497,-2.2976936303268185,3,DB
2025-07-23 15:30:20.294,-0.0002809021431762,-2.1192849345156963,3,DB
2025-07-23 15:30:20.302,-0.0003342617273769,-1.9350464755046848,3,DB
2025-07-23 15:30:20.309,-0.0003905141215947,-1.7459162641484645,3,DB
2025-07-23 15:30:20.317,-0.0004497322398699,-1.5530033484057224,3,DB
2025-07-23 15:30:20.325,-0.0005118582460821,-1.3575523962253009,3,DB
2025-07-23 15:30:20.333,-0.0005766968120862,-1.1609034839106396,3,DB
2025-07-23 15:30:20.341,-0.0006439155447595,-0.9644489532149306,3,DB
2025-07-23 15:30:20.348,-0.0007130527897864,-0.7695893680530916,3,DB
2025-07-23 15:30:20.356,-0.0007835323962605,-0.5776906840397791,3,DB
2025-07-23 15:30:20.364,-0.0008546844129024,-0.3900447218059466,3,DB
2025-07-23 15:30:20.372,-0.0009257702392722,-0.2078348862716713,3,DB
2025-07-23 15:30:20.380,-0.000996010527055,-0.032108784825005,3,DB
2025-07-23 15:30:20.387,-0.0010646141309916,0.1362410265866282,3,DB
2025-07-23 15:30:20.395,-0.0011308066147333,0.2964874701503122,3,DB
2025-07-23 15:30:20.403,-0.0011938571375524,0.4480704357075534,3,DB
2025-07-23 15:30:20.411,-0.0012531028941346,0.5905898188873039,3,DB
2025-07-23 15:30:20.419,-0.0013079705787743,0.7237911446833976,3,DB
2025-07-23 15:30:20.427,-0.0013579945166717,0.8475452774034893,3,DB
2025-07-23 15:30:20.434,-0.001402831106443,0.9618240649906292,3,DB
2025-07-23 15:30:20.442,-0.0014422691327499,1.0666739775351393,3,DB
2025-07-23 15:30:20.450,-0.0014762354987442,1.162189867858646,3,DB
2025-07-23 15:30:20.458,-0.0015047960799397,1.2484909059715286,3,DB
2025-07-23 15:30:20.466,-0.0015281516700361,1.3257005253962852,3,DB
2025-07-23 15:30:20.473,-0.001546629273015,1.393931880009552,3,DB
2025-07-23 15:30:20.481,-0.0015606691919071,1.45327986447463,3,DB
2025-07-23 15:30:20.489,-0.0015708084273395,1.5038202292722256,3,DB
2025-07-23 15:30:20.497,-0.0015776609109926,1.5456157633695642,3,DB
2025-07-23 15:30:20.505,-0.0015818952142533,1.5787289692036064,3,DB
2025-07-23 15:30:20.512,-0.0015842106324353,1.6032401580347833,3,DB
2025-07-23 15:30:20.520,-0.0015853127973306,1.6192694823124612,3,DB
2025-07-23 15:30:20.528,-0.0015858899979002,1.6270011182823356,3,DB
2025-07-23 15:30:20.536,-0.0015865911255242,1.626707628210469,3,DB
2025-07-23 15:30:20.544,-0.0015880057931239,1.6187724684561189,3,DB
2025-07-23 15:30:20.552,-0.0015906469875084,1.603708661367836,3,DB
2025-07-23 15:30:20.559,-0.0015949366866597,1.5821718082382188,3,DB
2025-07-23 15:30:20.567,-0.0016011950194141,1.5549658823993076,3,DB
2025-07-23 15:30:20.575,-0.0016096335339219,1.523040602035554,3,DB
2025-07-23 15:30:20.583,-0.0016203529096219,1.4874796326476594,3,DB
2025-07-23 15:30:20.591,-0.0016333450469149,1.4494793910345214,3,DB
2025-07-23 15:30:20.598,-0.0016484989733864,1.4103187890018367,3,DB
2025-07-23 15:30:20.606,-0.0016656095467344,1.3713208344323002,3,DB
2025-07-23 15:30:20.614,-0.0016843876856325,1.3338075685232271,3,DB
2025-07-23 15:30:20.622,-0.0017044709054938,1.2990503298894445,3,DB
2025-07-23 15:30:20.630,-0.0017254332270458,1.2682177666710597,3,DB
2025-07-23 15:30:20.637,-0.0017467939497949,1.2423243343254204,3,DB
2025-07-23 15:30:20.645,-0.0017680252179263,1.222182190146016,3,DB
2025-07-23 15:30:20.653,-0.0017885586526833,1.208359401768692,3,DB
2025-07-23 15:30:20.661,-0.0018077915401131,1.2011472069618891,3,DB
2025-07-23 15:30:20.669,-0.001825093141302,1.2005386842508317,3,DB
2025-07-23 15:30:20.677,-0.0018398116345044,1.2062206232041122,3,DB
2025-07-23 15:30:20.684,-0.0018512820433458,1.2175796498233906,3,DB
2025-07-23 15:30:20.692,-0.0018588353379714,1.2337228224492436,3,DB
2025-07-23 15:30:20.700,-0.0018618087706807,1.253512039634128,3,DB
2025-07-23 15:30:20.708,-0.00185955739655,1.2756107701996593,3,DB
2025-07-23 15:30:20.716,-0.0018514665997286,1.2985408954807554,3,DB
2025-07-23 15:30:20.723,-0.0018369653461641,1.3207468955299757,3,DB
2025-07-23 15:30:20.731,-0.0018155398669941,1.3406642453032758,3,DB
2025-07-23 15:30:20.739,-0.0017867474765869,1.356788724798517,3,DB
2025-07-23 15:30:20.747,-0.0017502301352264,1.3677433825735072,3,DB
2025-07-23 15:30:20.755,-0.0017057271964755,1.372340103162199,3,DB
2025-07-23 15:30:20.762,-0.0016530866674154,1.369633081987554,3,DB
2025-07-23 15:30:20.770,-0.0015922743672356,1.358961967866029,3,DB
2025-07-23 15:30:20.778,-0.0015233806043719,1.3399829573083,3,DB
2025-07-23 15:30:20.786,-0.0014466243044094,1.3126866889908513,3,DB
2025-07-23 15:30:20.794,-0.0013623547590489,1.2774023722624406,3,DB
2025-07-23 15:30:20.802,-0.0012710512520795,1.234788175161022,3,DB
2025-07-23 15:30:20.809,-0.0011733207968576,1.1858084760380294,3,DB
2025-07-23 15:30:20.817,-0.0010698941459002,1.1316991218994874,3,DB
2025-07-23 15:30:20.825,-0.000961620077278,1.0739223049786135,3,DB
2025-07-23 15:30:20.833,-0.0008494577030761,1.0141130392607396,3,DB
2025-07-23 15:30:20.841,-0.0007344662823601,0.9540194737603253,3,DB
2025-07-23 15:30:20.848,-0.0006177919189261,0.8954394158778475,3,DB
2025-07-23 15:30:20.856,-0.0005006506646896,0.8401554652748686,3,DB
2025-07-23 15:30:20.864,-0.0003843078652618,0.7898710945005459,3,DB
2025-07-23 15:30:20.872,-0.0002700539246976,0.7461498774224695,3,DB
2025-07-23 15:30:20.880,-0.0001591769436261,0.710359875849238,3,DB
2025-07-23 15:30:20.887,-5.293293041887824e-05,0.683624957438935,3,DB
2025-07-23 15:30:20.895,4.7485464622032434e-05,0.6667845405987842,3,DB
2025-07-23 15:30:20.903,0.0001409805377522,0.6603629533085257,3,DB
2025-07-23 15:30:20.911,0.0002265801810897,0.6645492632749724,3,DB
2025-07-23 15:30:20.919,0.0003034662829571,0.6791880956550941,3,DB
2025-07-23 15:30:20.927,0.0003709995435143,0.7037816075439192,3,DB
2025-07-23 15:30:20.934,0.0004287394149212,0.7375024402504985,3,DB
2025-07-23 15:30:20.942,0.0004764580390674,0.779217129503326,3,DB
2025-07-23 15:30:20.950,0.000514147297314,0.8275191344623533,3,DB
2025-07-23 15:30:20.958,0.0005420183626794,0.8807703645909163,3,DB
2025-07-23 15:30:20.966,0.000560493497828,0.9371498481856284,3,DB
2025-07-23 15:30:20.973,0.0005701903065996,0.994707997240093,3,DB
2025-07-23 15:30:20.981,0.0005718991402922,1.0514247767738043,3,DB
2025-07-23 15:30:20.989,0.0005665547557995,1.105269984151151,3,DB
2025-07-23 15:30:20.997,0.0005552035833224,1.1542637919212444,3,DB
2025-07-23 15:30:21.005,0.0005389681284436,1.196535712046532,3,DB
2025-07-23 15:30:21.012,0.0005190101348117,1.2303801999869548,3,DB
2025-07-23 15:30:21.020,0.0004964941716334,1.2543072291346695,3,DB
2025-07-23 15:30:21.028,0.0004725532874409,1.2670863232650025,3,DB
2025-07-23 15:30:21.036,0.0004482582593527,1.2677827299253712,3,DB
2025-07-23 15:30:21.044,0.0004245916952114,1.2557846426627324,3,DB
2025-07-23 15:30:21.052,0.0004024277865937,1.230820627183275,3,DB
2025-07-23 15:30:21.059,0.0003825179542622,1.1929666725969446,3,DB
2025-07-23 15:30:21.067,0.0003654821369884,1.1426425740832131,3,DB
2025-07-23 15:30:21.075,0.0003518051446939,1.080597656550029,3,DB
2025-07-23 15:30:21.083,0.0003418372974468,1.0078861637115295,3,DB
2025-07-23 15:30:21.091,0.000335798462074,0.9258329535169814,3,DB
2025-07-23 15:30:21.098,0.0003337846192691,0.8359904517574813,3,DB
2025-07-23 15:30:21.106,0.0003357762769081,0.740088119733399,3,DB
2025-07-23 15:30:21.114,0.0003416482964286,0.6399759896753865,3,DB
2025-07-23 15:30:21.122,0.0003511808583521,0.5375641084981485,3,DB
2025-07-23 15:30:21.130,0.0003640712790971,0.4347599934575556,3,DB
2025-07-23 15:30:21.137,0.0003799462695338,0.3334064208249656,3,DB
2025-07-23 15:30:21.145,0.0003983741413948,0.2352220098326509,3,DB
2025-07-23 15:30:21.153,0.0004188765003988,0.1417470918320016,3,DB
2025-07-23 15:30:21.161,0.0004409390724207,0.0542972373403907,3,DB
2025-07-23 15:30:21.169,0.0004640214411123,-0.0260734615872326,3,DB
2025-07-23 15:30:21.177,0.0004875656673988,-0.098597680018272,3,DB
2025-07-23 15:30:21.184,0.0005110040413644,-0.1628075923736429,3,DB
2025-07-23 15:30:21.192,0.0005337664922958,-0.2185345546460007,3,DB
2025-07-23 15:30:21.200,0.0005552882963608,-0.2658959263607879,3,DB
2025-07-23 15:30:21.208,0.000575018598621,-0.305269914129982,3,DB
2025-07-23 15:30:21.216,0.0005924299809504,-0.3372599755629486,3,DB
2025-07-23 15:30:21.223,0.0006070290159439,-0.3626508970863628,3,DB
2025-07-23 15:30:21.231,0.0006183675412956,-0.382359105023387,3,DB
2025-07-23 15:30:21.239,0.0006260542407908,-0.3973800455363615,3,DB
2025-07-23 15:30:21.247,0.0006297659913487,-0.4087355491053891,3,DB
2025-07-23 15:30:21.255,0.0006292583805079,-0.4174239725354799,3,DB
2025-07-23 15:30:21.263,0.0006243748579187,-0.4243756017437434,3,DB
2025-07-23 15:30:21.270,0.0006150540838881,-0.4304153365926417,3,DB
2025-07-23 15:30:21.278,0.000601335065427,-0.4362341115385804,3,DB
2025-07-23 15:30:21.286,0.0005833596292247,-0.4423698837852806,3,DB
2025-07-23 15:30:21.294,0.0005613717910212,-0.4491983937169516,3,DB
2025-07-23 15:30:21.302,0.0005357137168751,-0.4569333154978446,3,DB
2025-07-23 15:30:21.309,0.0005068181645574,-0.4656349046791059,3,DB
2025-07-23 15:30:21.317,0.0004751974283998,-0.4752258374226714,3,DB
2025-07-23 15:30:21.325,0.0004414288889327,-0.4855126327166796,3,DB
2025-07-23 15:30:21.333,0.0004061374047952,-0.4962108571220973,3,DB
2025-07-23 15:30:21.341,0.0003699750483055,-0.5069722315185569,3,DB
2025-07-23 15:30:21.348,0.0003335989969342,-0.517411790077908,3,DB
2025-07-23 15:30:21.356,0.0002976485975728,-0.5271333770847663,3,DB
2025-07-23 15:30:21.364,0.0002627226441796,-0.5357519940097439,3,DB
2025-07-23 15:30:21.372,0.0002293578229976,-0.5429118111422251,3,DB
2025-07-23 15:30:21.380,0.0001980092323208,-0.5482990202122431,3,DB
2025-07-23 15:30:21.388,0.0001690339526338,-0.5516491127546435,3,DB
2025-07-23 15:30:21.395,0.0001426787489237,-0.5527486060127985,3,DB
2025-07-23 15:30:21.403,0.0001190729788777,-0.5514316786329613,3,DB
2025-07-23 15:30:21.411,9.822758068673326e-05,-0.547572587721056,3,DB
2025-07-23 15:30:21.419,8.004066380044694e-05,-0.5410750767933399,3,DB
2025-07-23 15:30:21.427,6.430980966245191e-05,-0.5318602129755244,3,DB
2025-07-23 15:30:21.434,5.075075094105549e-05,-0.5198541852732975,3,DB
2025-07-23 15:30:21.442,3.902164948250126e-05,-0.5049775447113733,3,DB
2025-07-23 15:30:21.450,2.8751753600544065e-05,-0.4871371801938013,3,DB
2025-07-23 15:30:21.458,1.957280315609561e-05,-0.4662220246796641,3,DB
2025-07-23 15:30:21.466,1.1151206288493715e-05,-0.442103108495416,3,DB
2025-07-23 15:30:21.473,3.218821603148388e-06,-0.4146381593625663,3,DB
2025-07-23 15:30:21.481,-4.399800426284232e-06,-0.383680533280322,3,DB
2025-07-23 15:30:21.489,-1.1765675602299286e-05,-0.3490918863856787,3,DB
2025-07-23 15:30:21.497,-1.881079504809904e-05,-0.3107576953879217,3,DB
2025-07-23 15:30:21.505,-2.5331874337694885e-05,-0.2686045168988684,3,DB
2025-07-23 15:30:21.513,-3.09929905344525e-05,-0.2226177438240797,3,DB
2025-07-23 15:30:21.520,-3.533693435192373e-05,-0.1728585660020045,3,DB
2025-07-23 15:30:21.528,-3.780447197315783e-05,-0.1194788716987037,3,DB
2025-07-23 15:30:21.536,-3.77602604783301e-05,-0.0627329358447523,3,DB
2025-07-23 15:30:21.544,-3.452386727925383e-05,-0.0029849223667218,3,DB
2025-07-23 15:30:21.552,-2.740413963440451e-05,0.0592885347508774,3,DB
2025-07-23 15:30:21.559,-1.5735028094621072e-05,0.123501132928753,3,DB
2025-07-23 15:30:21.567,1.089108278250133e-06,0.1889652507282187,3,DB
2025-07-23 15:30:21.575,2.358069373645501e-05,0.2549057060601977,3,DB
2025-07-23 15:30:21.583,5.213050658911988e-05,0.3204784782496792,3,DB
2025-07-23 15:30:21.591,8.698523549806523e-05,0.3847936586316762,3,DB
2025-07-23 15:30:21.598,0.0001282321428573,0.4469416348726938,3,DB
2025-07-23 15:30:21.606,0.0001757913499718,0.5060213053541788,3,DB
2025-07-23 15:30:21.614,0.0002294156920514,0.5611689798162101,3,DB
2025-07-23 15:30:21.622,0.0002886976598697,0.6115865639402187,3,DB
2025-07-23 15:30:21.630,0.0003530826212992,0.6565676541639115,3,DB
2025-07-23 15:30:21.638,0.000421887262584,0.695520282999967,3,DB
2025-07-23 15:30:21.645,0.0004943220526403,0.7279852472343449,3,DB
2025-07-23 15:30:21.653,0.0005695165513696,0.7536492103279965,3,DB
2025-07-23 15:30:21.661,0.0006465464748571,0.7723520794593095,3,DB
2025-07-23 15:30:21.669,0.0007244614771405,0.7840884923143824,3,DB
2025-07-23 15:30:21.677,0.0008023126065312,0.789003578043803,3,DB
2025-07-23 15:30:21.684,0.0008791784567712,0.787383451371882,3,DB
2025-07-23 15:30:21.692,0.0009541892281158,0.7796411392760334,3,DB
2025-07-23 15:30:21.700,0.0010265481658865,0.7662988182565826,3,DB
2025-07-23 15:30:21.708,0.0010955500299941,0.7479673559089106,3,DB
2025-07-23 15:30:21.716,0.001160596333857,0.7253242035413515,3,DB
2025-07-23 15:30:21.723,0.0012212071206011,0.6990906771168514,3,DB
2025-07-23 15:30:21.731,0.0012770290509971,0.6700095930669591,3,DB
2025-07-23 15:30:21.739,0.0013278395687243,0.6388240981325483,3,DB
2025-07-23 15:30:21.747,0.001373546898351,0.6062583595284528,3,DB
2025-07-23 15:30:21.755,0.0014141856346532,0.5730005828961683,3,DB
2025-07-23 15:30:21.763,0.0014499077347247,0.5396886249076761,3,DB
2025-07-23 15:30:21.770,0.001480968909605,0.5068982861987106,3,DB
2025-07-23 15:30:21.778,0.0015077107754462,0.475134221215325,3,DB
2025-07-23 15:30:21.786,0.0015305395806524,0.4448232899023244,3,DB
2025-07-23 15:30:21.794,0.0015499027163142,0.4163101047400825,3,DB
2025-07-23 15:30:21.802,0.0015662644288462,0.3898544977034545,3,DB
2025-07-23 15:30:21.809,0.0015800821482076,0.36563064493564,3,DB
2025-07-23 15:30:21.817,0.0015917846297754,0.343727637210422,3,DB
2025-07-23 15:30:21.825,0.0016017527349466,0.3241513617742159,3,DB
2025-07-23 15:30:21.833,0.0016103032719925,0.3068276525924525,3,DB
2025-07-23 15:30:21.841,0.0016176760549665,0.2916067565555361,3,DB
2025-07-23 15:30:21.848,0.0016240243037035,0.2782692387843432,3,DB
2025-07-23 15:30:21.856,0.001629408631499,0.266533498735135,3,DB
2025-07-23 15:30:21.864,0.0016337949965318,0.2560650810487336,3,DB
2025-07-23 15:30:21.872,0.0016370570184402,0.2464879361269504,3,DB
2025-07-23 15:30:21.880,0.0016389829461846,0.2373977154029697,3,DB
2025-07-23 15:30:21.888,0.00163928730851,0.2283770787159059,3,DB
2025-07-23 15:30:21.895,0.0016376269012153,0.219012851018781,3,DB
2025-07-23 15:30:21.903,0.0016336203205086,0.2089146993306489,3,DB
2025-07-23 15:30:21.911,0.0016268698608892,0.1977348185197072,3,DB
2025-07-23 15:30:21.919,0.0016169843957915,0.1851879314547765,3,DB
2025-07-23 15:30:21.927,0.001603601866912,0.1710707440303051,3,DB
2025-07-23 15:30:21.934,0.0015864101104071,0.1552798663217052,3,DB
2025-07-23 15:30:21.942,0.0015651648719597,0.1378271315827143,3,DB
2025-07-23 15:30:21.950,0.0015397040532511,0.1188512267238354,3,DB
2025-07-23 15:30:21.958,0.0015099575277644,0.0986246037129829,3,DB
2025-07-23 15:30:21.966,0.0014759522130294,0.0775547820642557,3,DB
2025-07-23 15:30:21.973,0.0014378124153289,0.0561793815602472,3,DB
2025-07-23 15:30:21.981,0.0013957557360895,0.0351545329938918,3,DB
2025-07-23 15:30:21.989,0.0013500850403789,0.0152366838298826,3,DB
2025-07-23 15:30:21.997,0.0013011771384261,-0.0027417816212587,3,DB
2025-07-23 15:30:22.005,0.0012494689242234,-0.0179022856090062,3,DB
2025-07-23 15:30:22.013,0.0011954417561103,-0.0293539794924409,3,DB
2025-07-23 15:30:22.020,0.0011396048592125,-0.0362303756584263,3,DB
2025-07-23 15:30:22.028,0.0010824784862036,-0.0377270354083452,3,DB
2025-07-23 15:30:22.036,0.0010245774992492,-0.0331385831705212,3,DB
2025-07-23 15:30:22.044,0.0009663959407263,-0.0218933386694422,3,DB
2025-07-23 15:30:22.052,0.0009083930519749,-0.0035839606223642,3,DB
2025-07-23 15:30:22.059,0.0008509810862611,0.0220073387049667,3,DB
2025-07-23 15:30:22.067,0.0007945151521469,0.0548902328451677,3,DB
2025-07-23 15:30:22.075,0.000739285223633,0.0948553419726111,3,DB
2025-07-23 15:30:22.083,0.00068551036993,0.1414715874462971,3,DB
2025-07-23 15:30:22.091,0.0006333351955821,0.1940921782226715,3,DB
2025-07-23 15:30:22.098,0.000582828444797,0.2518691973505516,3,DB
2025-07-23 15:30:22.106,0.0005339837148505,0.3137763626583236,3,DB
2025-07-23 15:30:22.114,0.0004867222436808,0.3786391392189553,3,DB
2025-07-23 15:30:22.122,0.0004408977809593,0.4451710101098151,3,DB
2025-07-23 15:30:22.130,0.0003963035868932,0.5120143944111155,3,DB
2025-07-23 15:30:22.138,0.0003526815584607,0.5777844598738491,3,DB
2025-07-23 15:30:22.145,0.0003097333184087,0.6411139268035396,3,DB
2025-07-23 15:30:22.153,0.0002671328954074,0.7006969072578397,3,DB
2025-07-23 15:30:22.161,0.0002245405017279,0.7553298732101276,3,DB
2025-07-23 15:30:22.169,0.0001816168841725,0.8039479993839476,3,DB
2025-07-23 15:30:22.177,0.0001380376700997,0.8456553769276902,3,DB
2025-07-23 15:30:22.184,9.350699372503372e-05,0.8797479297407608,3,DB
2025-07-23 15:30:22.192,4.776955233605365e-05,0.9057282593014264,3,DB
2025-07-23 15:30:22.200,6.202618877322309e-07,0.9233120581896448,3,DB
2025-07-23 15:30:22.208,-4.808903748553121e-05,0.932426128707354,3,DB
2025-07-23 15:30:22.216,-9.844587116948271e-05,0.933198395172058,3,DB
2025-07-23 15:30:22.223,-0.0001504759291363,0.925940598233208,3,DB
2025-07-23 15:30:22.231,-0.0002041435713432,0.9111246105863328,3,DB
2025-07-23 15:30:22.239,-0.0002593532470686,0.8893535219716945,3,DB
2025-07-23 15:30:22.247,-0.0003159512985932,0.8613288103899276,3,DB
2025-07-23 15:30:22.255,-0.00037372796882,0.8278150453185787,3,DB
2025-07-23 15:30:22.263,-0.0004324197420536,0.7896036540025535,3,DB
2025-07-23 15:30:22.270,-0.0004917123628025,0.7474773172361664,3,DB
2025-07-23 15:30:22.278,-0.0005512449807332,0.7021765365640776,3,DB
2025-07-23 15:30:22.286,-0.0006106158522921,0.6543698202403493,3,DB
2025-07-23 15:30:22.294,-0.0006693898926661,0.6046287660512015,3,DB
2025-07-23 15:30:22.302,-0.0007271081489788,0.5534090803914068,3,DB
2025-07-23 15:30:22.309,-0.0007832990366861,0.5010382787552047,3,DB
2025-07-23 15:30:22.317,-0.0008374910263613,0.447710481984829,3,DB
2025-07-23 15:30:22.325,-0.0008892263901824,0.393488375770172,3,DB
2025-07-23 15:30:22.333,-0.0009380755469357,0.3383120584318163,3,DB
2025-07-23 15:30:22.341,-0.0009836514389188,0.2820141824593081,3,DB
2025-07-23 15:30:22.348,-0.0010256232793152,0.2243405132625722,3,DB
2025-07-23 15:30:22.356,-0.0010637289971513,0.1649747954182202,3,DB
2025-07-23 15:30:22.364,-0.0010977857792393,0.1035666434837154,3,DB
2025-07-23 15:30:22.372,-0.0011276981926595,0.0397610727875266,3,DB
2025-07-23 15:30:22.380,-0.0011534634224243,-0.0267717371852056,3,DB
2025-07-23 15:30:22.388,-0.0011751732144227,-0.0963077994938566,3,DB
2025-07-23 15:30:22.395,-0.0011930122166428,-0.1690430266171833,3,DB
2025-07-23 15:30:22.403,-0.0012072525231014,-0.245070342012451,3,DB
2025-07-23 15:30:22.411,-0.0012182443004767,-0.3243610406613094,3,DB
2025-07-23 15:30:22.419,-0.001226402492263,-0.406751018269808,3,DB
2025-07-23 15:30:22.427,-0.0012321898657391,-0.4919322690264234,3,DB
2025-07-23 15:30:22.434,-0.0012360970797484,-0.5794498512286002,3,DB
2025-07-23 15:30:22.442,-0.001238620874078,-0.6687043444574071,3,DB
2025-07-23 15:30:22.450,-0.001240241796841,-0.7589596687838235,3,DB
2025-07-23 15:30:22.458,-0.0012414030451421,-0.8493559988786669,3,DB
2025-07-23 15:30:22.466,-0.0012424919840553,-0.9389273766969576,3,DB
2025-07-23 15:30:22.473,-0.0012438257280071,-1.0266234994628936,3,DB
2025-07-23 15:30:22.481,-0.0012456418209947,-1.111335030241076,3,DB
2025-07-23 15:30:22.489,-0.0012480945524868,-1.191921645602839,3,DB
2025-07-23 15:30:22.497,-0.0012512568465317,-1.267241906154279,3,DB
2025-07-23 15:30:22.505,-0.0012551270878454,-1.3361839278112757,3,DB
2025-07-23 15:30:22.513,-0.0012596398675251,-1.397695765589006,3,DB
2025-07-23 15:30:22.520,-0.0012646795270226,-1.4508144139298451,3,DB
2025-07-23 15:30:22.528,-0.0012700954758729,-1.4946923857834384,3,DB
2025-07-23 15:30:22.536,-0.0012757183976974,-1.528620955386117,3,DB
2025-07-23 15:30:22.544,-0.0012813765287486,-1.5520493279057328,3,DB
2025-07-23 15:30:22.552,-0.0012869111822642,-1.5645992164157527,3,DB
2025-07-23 15:30:22.559,-0.0012921906676613,-1.566074540727196,3,DB
2025-07-23 15:30:22.567,-0.0012971217955335,-1.5564661901036425,3,DB
2025-07-23 15:30:22.575,-0.0013016582966714,-1.5359519946656377,3,DB
2025-07-23 15:30:22.583,-0.0013058057096828,-1.5048922182529043,3,DB
2025-07-23 15:30:22.591,-0.0013096225979281,-1.463821014631728,3,DB
2025-07-23 15:30:22.598,-0.0013132182980929,-1.4134343778406686,3,DB
2025-07-23 15:30:22.606,-0.0013167476858726,-1.3545751659477232,3,DB
2025-07-23 15:30:22.614,-0.0013204035826504,-1.2882157865056587,3,DB
2025-07-23 15:30:22.622,-0.0013244073881563,-1.2154391039922627,3,DB
2025-07-23 15:30:22.630,-0.0013289983410386,-1.137418069609823,3,DB
2025-07-23 15:30:22.638,-0.0013344215956245,-1.055394491415594,3,DB
2025-07-23 15:30:22.645,-0.0013409152162024,-0.970657272067411,3,DB
2025-07-23 15:30:22.653,-0.001348696306821,-0.8845203595829793,3,DB
2025-07-23 15:30:22.661,-0.0013579467331571,-0.798300599471642,3,DB
2025-07-23 15:30:22.669,-0.001368799091502,-0.7132956555061886,3,DB
2025-07-23 15:30:22.677,-0.0013813236258328,-0.6307621853328655,3,DB
2025-07-23 15:30:22.684,-0.0013955166822927,-0.5518945125384593,3,DB
2025-07-23 15:30:22.692,-0.0014112911239251,-0.4778041179077357,3,DB
2025-07-23 15:30:22.700,-0.0014284690599867,-0.4095003627038947,3,DB
2025-07-23 15:30:22.708,-0.0014467773471023,-0.3478729356917182,3,DB
2025-07-23 15:30:22.716,-0.0014658465101787,-0.2936765632879547,3,DB
2025-07-23 15:30:22.723,-0.0014852138468443,-0.2475185234753029,3,DB
2025-07-23 15:30:22.731,-0.0015043314034065,-0.209849452573938,3,DB
2025-07-23 15:30:22.739,-0.0015225792086727,-0.1809578332965437,3,DB
2025-07-23 15:30:22.747,-0.0015392836635852,-0.1609684137264215,3,DB
2025-07-23 15:30:22.755,-0.0015537404313683,-0.1498446431355295,3,DB
2025-07-23 15:30:22.763,-0.0015652407227124,-0.147395033915324,3,DB
2025-07-23 15:30:22.770,-0.0015730996130724,-0.1532831809779853,3,DB
2025-07-23 15:30:22.778,-0.0015766849027764,-0.1670410038489322,3,DB
2025-07-23 15:30:22.786,-0.0015754449269508,-0.1880846357363146,3,DB
2025-07-23 15:30:22.794,-0.0015689336461234,-0.215732279288733,3,DB
2025-07-23 15:30:22.802,-0.0015568314177122,-0.2492232880718622,3,DB
2025-07-23 15:30:22.809,-0.0015389601342286,-0.2877377197372152,3,DB
2025-07-23 15:30:22.817,-0.0015152918400083,-0.3304156412823273,3,DB
2025-07-23 15:30:22.825,-0.0014859503760388,-0.3763755452045682,3,DB
2025-07-23 15:30:22.833,-0.0014512060095303,-0.4247313514755423,3,DB
2025-07-23 15:30:22.841,-0.0014114634156131,-0.4746076140218306,3,DB
2025-07-23 15:30:22.848,-0.0013672438110978,-0.5251527064980916,3,DB
2025-07-23 15:30:22.856,-0.0013191624794076,-0.5755499124542991,3,DB
2025-07-23 15:30:22.864,-0.0012679033285703,-0.6250264741980862,3,DB
2025-07-23 15:30:22.872,-0.0012141923782125,-0.6728607538263529,3,DB
2025-07-23 15:30:22.880,-0.0011587720475659,-0.7183877254278616,3,DB
2025-07-23 15:30:22.888,-0.0011023778182077,-0.7610030479581633,3,DB
2025-07-23 15:30:22.895,-0.0010457184035241,-0.8001659643811864,3,DB
2025-07-23 15:30:22.903,-0.0009894600639652,-0.8354012398486691,3,DB
2025-07-23 15:30:22.911,-0.0009342151756042,-0.8663003007691102,3,DB
2025-07-23 15:30:22.919,-0.0008805346453572,-0.8925216789431423,3,DB
2025-07-23 15:30:22.927,-0.0008289034046203,-0.9137908076611716,3,DB
2025-07-23 15:30:22.934,-0.0007797380845019,-0.9298991638706046,3,DB
2025-07-23 15:30:22.942,-0.0007333860119336,-0.9407027081018244,3,DB
2025-07-23 15:30:22.950,-0.000690124748991,-0.9461195513356336,3,DB
2025-07-23 15:30:22.958,-0.0006501615155398,-0.9461267845961328,3,DB
2025-07-23 15:30:22.966,-0.0006136320602128,-0.940756445192103,3,DB
2025-07-23 15:30:22.973,-0.0005805988644748,-0.9300906560034288,3,DB
2025-07-23 15:30:22.981,-0.0005510488451773,-0.9142560472058328,3,DB
2025-07-23 15:30:22.989,-0.0005248908729657,-0.8934176386474901,3,DB
2025-07-23 15:30:22.997,-0.0005019534859279,-0.8677724142090422,3,DB
2025-07-23 15:30:23.005,-0.0004819832135821,-0.8375428502034201,3,DB
2025-07-23 15:30:23.013,-0.0004646439572448,-0.8029706668642119,3,DB
2025-07-23 15:30:23.020,-0.0004495179045074,-0.7643110579263183,3,DB
2025-07-23 15:30:23.028,-0.0004361084826193,-0.7218276214275429,3,DB
2025-07-23 15:30:23.036,-0.0004238458674217,-0.6757881667433401,3,DB
2025-07-23 15:30:23.044,-0.0004120955564683,-0.6264615108017867,3,DB
2025-07-23 15:30:23.052,-0.0004001704511325,-0.5741153071921814,3,DB
2025-07-23 15:30:23.059,-0.0003873466963407,-0.5190148870373336,3,DB
2025-07-23 15:30:23.067,-0.0003728831646714,-0.4614230422535674,3,DB
2025-07-23 15:30:23.075,-0.0003560440302017,-0.4016006571560291,3,DB
2025-07-23 15:30:23.083,-0.0003361235165171,-0.3398080913506478,3,DB
2025-07-23 15:30:23.091,-0.0003124717105905,-0.276307225381074,3,DB
2025-07-23 15:30:23.098,-0.0002845202472755,-0.2113640860091816,3,DB
2025-07-23 15:30:23.106,-0.0002518065795999,-0.1452519557739964,3,DB
2025-07-23 15:30:23.114,-0.0002139954636096,-0.078254832956019,3,DB
2025-07-23 15:30:23.122,-0.0001708963227892,-0.0106710454558929,3,DB
2025-07-23 15:30:23.130,-0.0001224753891476,0.0571832514676712,3,DB
2025-07-23 15:30:23.138,-6.88618675485036e-05,0.1249710295265125,3,DB
2025-07-23 15:30:23.145,-1.0347684961380884e-05,0.1923321708717044,3,DB
2025-07-23 15:30:23.153,5.2619407692649496e-05,0.2588824627609563,3,DB
2025-07-23 15:30:23.161,0.000119449447061,0.3242141482605916,3,DB
2025-07-23 15:30:23.169,0.0001894303752679,0.3878982964899611,3,DB
2025-07-23 15:30:23.177,0.000261754005685,0.4494891341371019,3,DB
2025-07-23 15:30:23.184,0.0003355466336752,0.5085303298473414,3,DB
2025-07-23 15:30:23.192,0.0004099026177054,0.5645630640985391,3,DB
2025-07-23 15:30:23.200,0.0004839189781139,0.6171355700261839,3,DB
2025-07-23 15:30:23.208,0.0005567290214173,0.6658137118697738,3,DB
2025-07-23 15:30:23.216,0.0006275331972047,0.7101920891087177,3,DB
2025-07-23 15:30:23.223,0.000695625787048,0.7499051240443612,3,DB
2025-07-23 15:30:23.231,0.000760416489436,0.7846376104017003,3,DB
2025-07-23 15:30:23.239,0.0008214463362513,0.8141342615435613,3,DB
2025-07-23 15:30:23.247,0.0008783975695145,0.8382078795003829,3,DB
2025-07-23 15:30:23.255,0.0009310971950491,0.8567458470218341,3,DB
2025-07-23 15:30:23.263,0.0009795140654084,0.8697147071273724,3,DB
2025-07-23 15:30:23.270,0.0010237496312216,0.8771626338751273,3,DB
2025-07-23 15:30:23.278,0.0010640229338098,0.879219624017396,3,DB
2025-07-23 15:30:23.286,0.0011006508804321,0.8760952709179564,3,DB
2025-07-23 15:30:23.294,0.0011340251848113,0.8680740393135166,3,DB
2025-07-23 15:30:23.302,0.0011645874817014,0.8555080542785098,3,DB
