Timestamp,GSR_Filtered,PPG_Filtered
2025-03-05 15:05:09.341,-0.0002067907339697,19.760543920617444
2025-03-05 15:05:09.348,-0.0002420079092152,25.202011455970123
2025-03-05 15:05:09.356,-0.0002769485519239,31.137491121422105
2025-03-05 15:05:09.364,-0.0003106052404194,37.50115395111767
2025-03-05 15:05:09.372,-0.0003420295210576,44.216344709591056
2025-03-05 15:05:09.380,-0.0003703705176662,51.19684075170496
2025-03-05 15:05:09.388,-0.000394907579709,58.348355860115085
2025-03-05 15:05:09.395,-0.0004150755261704,65.57025488130517
2025-03-05 15:05:09.403,-0.0004304815506416,72.75743827194069
2025-03-05 15:05:09.411,-0.0004409133717144,79.80234998616126
2025-03-05 15:05:09.419,-0.0004463387176008,86.59705783621352
2025-03-05 15:05:09.427,-0.0004468967103382,93.03535284004091
2025-03-05 15:05:09.434,-0.0004428821417341,99.01481332705256
2025-03-05 15:05:09.442,-0.000434723971388,104.43878077593624
2025-03-05 15:05:09.450,-0.0004229595858466,109.21819743498392
2025-03-05 15:05:09.458,-0.0004082064347349,113.27326053009298
2025-03-05 15:05:09.466,-0.0003911326436241,116.53485401592611
2025-03-05 15:05:09.473,-0.0003724281228562,118.94572604599858
2025-03-05 15:05:09.481,-0.0003527775404266,120.4613882926138
2025-03-05 15:05:09.489,-0.0003328363021976,121.05072161532895
2025-03-05 15:05:09.497,-0.0003132104086519,120.69628106176933
2025-03-05 15:05:09.505,-0.0002944407657888,119.3943015264489
2025-03-05 15:05:09.513,-0.0002769922385372,117.1544133667142
2025-03-05 15:05:09.520,-0.0002612474574024,113.9990846852693
2025-03-05 15:05:09.528,-0.0002475051212818,109.96281366307176
2025-03-05 15:05:09.536,-0.0002359822675524,105.0911001083866
2025-03-05 15:05:09.544,-0.0002268197004324,99.4392301388308
2025-03-05 15:05:09.552,-0.0002200895218684,93.07091151587576
2025-03-05 15:05:09.559,-0.0002158035802235,86.05679951224533
2025-03-05 15:05:09.567,-0.0002139217112397,78.4729542492677
2025-03-05 15:05:09.575,-0.0002143588964169,70.39927017379821
2025-03-05 15:05:09.583,-0.0002169908389555,61.91791678846313
2025-03-05 15:05:09.591,-0.0002216578525925,53.11182699934961
2025-03-05 15:05:09.598,-0.0002281672775483,44.063265651005736
2025-03-05 15:05:09.606,-0.0002362948325846,34.852506177848966
2025-03-05 15:05:09.614,-0.0002457853952862,25.556638055779374
2025-03-05 15:05:09.622,-0.0002563537152598,16.2485221601228
2025-03-05 15:05:09.630,-0.0002676855378475,6.995905502033225
2025-03-05 15:05:09.638,-0.0002794395603322,-2.139298623662185
2025-03-05 15:05:09.645,-0.0002912505609551,-11.101564081329904
2025-03-05 15:05:09.653,-0.0003027339352372,-19.84214239795032
2025-03-05 15:05:09.661,-0.000313491746986,-28.319297579686804
2025-03-05 15:05:09.669,-0.0003231202568791,-36.49839552411615
2025-03-05 15:05:09.677,-0.0003312187344769,-44.35186057139932
2025-03-05 15:05:09.684,-0.00033739919563,-51.85901325754807
2025-03-05 15:05:09.692,-0.0003412965445807,-59.00580417128045
2025-03-05 15:05:09.700,-0.0003425784569488,-65.78445905195458
2025-03-05 15:05:09.708,-0.0003409542556055,-72.19304999279782
2025-03-05 15:05:09.716,-0.0003361820569135,-78.23500693321867
2025-03-05 15:05:09.723,-0.0003280736243113,-83.91858264000679
2025-03-05 15:05:09.731,-0.000316496632329,-89.25628318608265
2025-03-05 15:05:09.739,-0.0003013743532271,-95.44869765490856
2025-03-05 15:05:09.747,-0.0002826830591224,-101.4175554897559
2025-03-05 15:05:09.755,-0.0002604476324389,-107.17758110041363
2025-03-05 15:05:09.763,-0.0002347359997329,-112.74656956365322
2025-03-05 15:05:09.770,-0.0002056531029549,-118.14475647851332
2025-03-05 15:05:09.778,-0.0001733352222887,-123.39414273916393
2025-03-05 15:05:09.786,-0.0001379454985665,-128.51778160962692
2025-03-05 15:05:09.794,-9.967137971295384e-05,-133.53903629224197
2025-03-05 15:05:09.802,-5.872443211499579e-05,-138.480817180215
2025-03-05 15:05:09.809,-1.5342597118847402e-05,-143.36480917476553
2025-03-05 15:05:09.817,3.0205394044318503e-05,-148.21070081883872
2025-03-05 15:05:09.825,7.761408126719726e-05,-153.03542852247045
2025-03-05 15:05:09.833,0.0001265347376547,-157.85245077362143
2025-03-05 15:05:09.841,0.0001765693188302,-162.67106885028946
2025-03-05 15:05:09.848,0.0002272659666707,-167.49581203868925
2025-03-05 15:05:09.856,0.0002781169591916,-172.32590654554835
2025-03-05 15:05:09.864,0.0003285597475402,-177.1548479867946
2025-03-05 15:05:09.872,0.0003779814808087,-181.9700973745477
2025-03-05 15:05:09.880,0.0004257272310858,-186.75291977585405
2025-03-05 15:05:09.888,0.0004711119791476,-191.47838318126767
2025-03-05 15:05:09.895,0.0005134362642602,-196.1155325393282
2025-03-05 15:05:09.903,0.0005520052122284,-200.62775037209
2025-03-05 15:05:09.911,0.0005861504296324,-204.97331092660468
2025-03-05 15:05:09.919,0.0006152539966733,-209.1061295209213
2025-03-05 15:05:09.927,0.0006387735174487,-212.97670272282969
2025-03-05 15:05:09.934,0.0006562669094416,-216.5332283839358
2025-03-05 15:05:09.942,0.0006674153608983,-219.7228874822332
2025-03-05 15:05:09.950,0.0006720427158312,-222.49326236470048
2025-03-05 15:05:09.958,0.000670129563761,-224.7938585282844
2025-03-05 15:05:09.966,0.0006618206208634,-226.57768979847933
2025-03-05 15:05:09.973,0.0006474246180601,-227.80288001089917
2025-03-05 15:05:09.981,0.000627406741846,-228.43422851432257
2025-03-05 15:05:09.989,0.0006023744594488,-228.444682505799
2025-03-05 15:05:09.997,0.0005730580456876,-227.8166569152891
2025-03-05 15:05:10.005,0.000540287203641,-226.54314277007805
2025-03-05 15:05:10.013,0.0005049649391394,-224.6285480597513
2025-03-05 15:05:10.020,0.0004680395488889,-222.08922128123976
2025-03-05 15:05:10.028,0.0004304754196873,-218.95361703940216
2025-03-05 15:05:10.036,0.0003932233679022,-215.2620750440564
2025-03-05 15:05:10.044,0.0003571913897239,-211.0661980813154
2025-03-05 15:05:10.052,0.0003232168162071,-206.42783034461317
2025-03-05 15:05:10.059,0.000292040891845,-201.4176540313942
2025-03-05 15:05:10.067,0.000264286708037,-196.1134383967534
2025-03-05 15:05:10.075,0.000240441255358,-190.59799055391937
2025-03-05 15:05:10.083,0.0002208421694244,-184.95687037280825
2025-03-05 15:05:10.091,0.0002056695925439,-179.2759421994281
2025-03-05 15:05:10.098,0.0001949434708289,-173.63884340187917
2025-03-05 15:05:10.106,0.000188526506415,-168.1244537868619
2025-03-05 15:05:10.114,0.0001861328175442,-162.80445074119564
2025-03-05 15:05:10.122,0.0001873420927212,-157.74103264221154
2025-03-05 15:05:10.130,0.0001916186853347,-152.98488778914034
2025-03-05 15:05:10.138,0.0001983347457489,-148.57347799729277
2025-03-05 15:05:10.145,0.0002067962016965,-144.52969527372235
2025-03-05 15:05:10.153,0.0002162702378266,-140.86093694199258
2025-03-05 15:05:10.161,0.0002260129180679,-137.55862960672945
2025-03-05 15:05:10.169,0.0002352957146754,-134.59821599501674
2025-03-05 15:05:10.177,0.0002434299035956,-131.9396016858206
2025-03-05 15:05:10.184,0.0002497880165785,-129.52804187407398
2025-03-05 15:05:10.192,0.0002538217850768,-127.29543250845234
2025-03-05 15:05:10.200,0.0002550762503789,-125.16195624892003
2025-03-05 15:05:10.208,0.0002531999193112,-123.03802242601408
2025-03-05 15:05:10.216,0.0002479509880204,-120.82643204233533
2025-03-05 15:05:10.223,0.0002391997379916,-118.42469408117724
2025-03-05 15:05:10.231,0.0002269272624513,-115.72741798565836
2025-03-05 15:05:10.239,0.0002112207558838,-112.62870896563618
2025-03-05 15:05:10.247,0.0001922657274138,-109.02449747926696
2025-03-05 15:05:10.255,0.0001703356703394,-104.81474145970112
2025-03-05 15:05:10.263,0.0001457798777179,-99.90544922643817
2025-03-05 15:05:10.270,0.0001190101673691,-94.21048212265244
2025-03-05 15:05:10.278,9.04872372748933e-05,-87.6531082904595
2025-03-05 15:05:10.286,6.070724003471947e-05,-80.16729207403985
2025-03-05 15:05:10.294,3.0188995964563104e-05,-71.6987166258167
2025-03-05 15:05:10.302,-5.379004545497059e-07,-62.205549547840185
2025-03-05 15:05:10.309,-3.094396773034503e-05,-51.65897193995076
2025-03-05 15:05:10.317,-6.0509715749549445e-05,-40.04349926546639
2025-03-05 15:05:10.325,-8.873458834382096e-05,-27.3571274706516
2025-03-05 15:05:10.333,-0.0001151450803704,-13.611339626480651
2025-03-05 15:05:10.341,-0.0001393021385299,1.1689928979494653
2025-03-05 15:05:10.348,-0.0001608079168134,16.94578477998471
2025-03-05 15:05:10.356,-0.0001793118867129,33.66796309276825
2025-03-05 15:05:10.364,-0.000194516213707,51.271730433988665
2025-03-05 15:05:10.372,-0.0002061802337242,69.68085912999149
2025-03-05 15:05:10.380,-0.0002141238265359,88.8070208819867
2025-03-05 15:05:10.388,-0.0002182295001143,108.55016611505476
2025-03-05 15:05:10.395,-0.0002184430640082,128.798976265732
2025-03-05 15:05:10.403,-0.0002147728592944,149.4314195758201
2025-03-05 15:05:10.411,-0.0002072875956767,170.31544598776046
2025-03-05 15:05:10.419,-0.0001961129009834,191.30985891234232
2025-03-05 15:05:10.427,-0.0001814267264935,212.2654005673724
2025-03-05 15:05:10.434,-0.0001634538100212,233.0260830500573
2025-03-05 15:05:10.442,-0.0001424594987132,253.43078928854916
2025-03-05 15:05:10.450,-0.0001187433440309,273.3151567175659
2025-03-05 15:05:10.458,-9.263293317798896e-05,292.51374236383714
2025-03-05 15:05:10.466,-6.447836978366802e-05,310.8624516566708
2025-03-05 15:05:10.473,-3.4647679552328385e-05,328.2011955500525
2025-03-05 15:05:10.481,-3.5232452776441675e-06,344.3767224900958
2025-03-05 15:05:10.489,2.850078895923536e-05,359.2455545745488
2025-03-05 15:05:10.497,6.1020343235929616e-05,372.67694223752153
2025-03-05 15:05:10.505,9.362276032161992e-05,384.55574032329935
2025-03-05 15:05:10.513,0.0001258880664193,394.7851018074848
2025-03-05 15:05:10.520,0.000157390526816,403.2888847318867
2025-03-05 15:05:10.528,0.0001877008692532,410.0136736334688
2025-03-05 15:05:10.536,0.0002163894850019,414.9303286044264
2025-03-05 15:05:10.544,0.0002430308142246,418.0349921447412
2025-03-05 15:05:10.552,0.000267208984055,419.3495047164117
2025-03-05 15:05:10.559,0.0002885246105145,418.9212027539363
2025-03-05 15:05:10.567,0.0003066025269732,416.82209624398297
2025-03-05 15:05:10.575,0.0003211000840015,413.1474454618479
2025-03-05 15:05:10.583,0.0003317155730642,408.01377692031286
2025-03-05 15:05:10.591,0.0003381962524113,401.5563962332392
2025-03-05 15:05:10.598,0.0003403454262045,393.92646990706567
2025-03-05 15:05:10.606,0.0003380280875702,385.2877587984527
2025-03-05 15:05:10.614,0.0003311747828283,375.8130930872928
2025-03-05 15:05:10.622,0.0003197835504373,365.6806822628444
2025-03-05 15:05:10.630,0.0003039199986601,355.0703540990206
2025-03-05 15:05:10.638,0.0002837157844295,344.15981429739594
2025-03-05 15:05:10.645,0.0002593659053113,333.12101386463127
2025-03-05 15:05:10.653,0.000231125270201,322.1167048586324
2025-03-05 15:05:10.661,0.0001993049520888,311.2972573763607
2025-03-05 15:05:10.669,0.0001642683772877,300.7978020223036
2025-03-05 15:05:10.677,0.0001264275251464,290.73575298551594
2025-03-05 15:05:10.684,8.623904354896687e-05,281.20875757825104
2025-03-05 15:05:10.692,4.420004958110284e-05,272.29310886444927
2025-03-05 15:05:10.700,8.432914663034505e-07,264.04264893484
2025-03-05 15:05:10.708,-4.326869651540697e-05,256.48818146021745
2025-03-05 15:05:10.716,-8.75508057816498e-05,249.63740327295332
2025-03-05 15:05:10.723,-0.0001314042281139,243.4753557165481
2025-03-05 15:05:10.731,-0.0001742271719154,237.96538716057256
2025-03-05 15:05:10.739,-0.000215427430162,233.0506082224162
2025-03-05 15:05:10.747,-0.0002544365977313,228.65581076834857
2025-03-05 15:05:10.755,-0.0002907254971171,224.68981071972436
2025-03-05 15:05:10.763,-0.0003238201388492,221.04816327394053
2025-03-05 15:05:10.770,-0.0003533173523051,217.61618776269333
2025-03-05 15:05:10.778,-0.0003788991043924,214.27222858636603
2025-03-05 15:05:10.786,-0.0004003445159994,210.8910691752196
2025-03-05 15:05:10.794,-0.0004175387271823,207.34740845498615
2025-03-05 15:05:10.802,-0.0004304780311145,203.5193044873816
2025-03-05 15:05:10.809,-0.0004392709957558,199.29148832396928
2025-03-05 15:05:10.817,-0.0004441355254624,194.55845298021663
2025-03-05 15:05:10.825,-0.0004453919693821,189.22722793038503
2025-03-05 15:05:10.833,-0.0004434525130644,183.2197585664917
2025-03-05 15:05:10.841,-0.0004388072389733,176.47482238884118
2025-03-05 15:05:10.848,-0.000432007398867,168.94942886413787
2025-03-05 15:05:10.856,-0.0004236465613141,160.6196673193158
2025-03-05 15:05:10.864,-0.0004143403579098,151.48098624297012
2025-03-05 15:05:10.872,-0.0004047055663562,141.54790717109586
2025-03-05 15:05:10.880,-0.00039533926087,130.85319611751092
2025-03-05 15:05:10.888,-0.000386798742342,119.44653441432152
2025-03-05 15:05:10.895,-0.0003795829356255,107.39274797518956
2025-03-05 15:05:10.903,-0.0003741159086634,94.7696685166626
2025-03-05 15:05:10.911,-0.0003707331185597,81.66571137957878
2025-03-05 15:05:10.919,-0.0003696709006546,68.17726165375927
2025-03-05 15:05:10.927,-0.0003710595664894,54.405962934710175
2025-03-05 15:05:10.934,-0.0003749202697258,40.45600113478449
2025-03-05 15:05:10.942,-0.0003811655727737,26.431469554326
2025-03-05 15:05:10.950,-0.0003896034517251,12.433891420619082
2025-03-05 15:05:10.958,-0.0003999443495306,-1.4400368736018618
2025-03-05 15:05:10.966,-0.0004118108300751,-15.100433541985222
2025-03-05 15:05:10.973,-0.0004247493749162,-28.465917672475307
2025-03-05 15:05:10.981,-0.0004382438745069,-41.46497695800345
2025-03-05 15:05:10.989,-0.0004517303839959,-54.03701404489084
2025-03-05 15:05:10.997,-0.0004646127358152,-66.1330807815369
2025-03-05 15:05:11.005,-0.0004762786249884,-77.71631922079222
2025-03-05 15:05:11.013,-0.0004861158067711,-88.76213500635859
2025-03-05 15:05:11.020,-0.0004935280689478,-99.25813273404862
2025-03-05 15:05:11.028,-0.0004979506626499,-109.20384415861508
2025-03-05 15:05:11.036,-0.0004988648965154,-118.61027895777418
2025-03-05 15:05:11.044,-0.000495811620644,-127.49932447987496
2025-03-05 15:05:11.052,-0.0004884033510649,-135.90301587003773
2025-03-05 15:05:11.059,-0.0004763348147524,-143.8626916653671
2025-03-05 15:05:11.067,-0.0004593917324339,-151.42804298453524
2025-03-05 15:05:11.075,-0.0004374577045396,-158.65605758501772
2025-03-05 15:05:11.083,-0.0004105191260023,-165.60985422633
2025-03-05 15:05:11.091,-0.0003786681196864,-172.35739887241766
2025-03-05 15:05:11.098,-0.000342103516374,-178.97009302116948
2025-03-05 15:05:11.106,-0.000301129881604,-185.52122623725944
2025-03-05 15:05:11.114,-0.0002561544898925,-192.084289750484
2025-03-05 15:05:11.122,-0.0002076820299213,-198.731155404495
2025-03-05 15:05:11.130,-0.0001563067700939,-205.53013374538065
2025-03-05 15:05:11.138,-0.0001027019704366,-212.54393597026188
2025-03-05 15:05:11.145,-4.76064969193082e-05,-219.82757609885985
2025-03-05 15:05:11.153,8.191155117817149e-06,-227.4262613324624
2025-03-05 15:05:11.161,6.387095332149898e-05,-235.37332935151505
2025-03-05 15:05:11.169,0.0001186008408982,-243.6883005093363
2025-03-05 15:05:11.177,0.0001715568400681,-252.37511977984272
2025-03-05 15:05:11.184,0.0002219428852345,-261.4206672586451
2025-03-05 15:05:11.192,0.0002690095973928,-270.79361644717113
2025-03-05 15:05:11.200,0.0003120713734947,-280.4437160471201
2025-03-05 15:05:11.208,0.0003505213776479,-290.30156330188674
2025-03-05 15:05:11.216,0.0003838442244778,-300.27892498758524
2025-03-05 15:05:11.223,0.0004116262793454,-310.2696461503743
2025-03-05 15:05:11.231,0.0004335635501178,-320.1511670201069
2025-03-05 15:05:11.239,0.0004494671498975,-329.786645856126
2025-03-05 15:05:11.247,0.0004592663189955,-339.02766068674794
2025-03-05 15:05:11.255,0.0004630090213678,-347.7174370926075
2025-03-05 15:05:11.263,0.0004608601501666,-355.6945236438138
2025-03-05 15:05:11.270,0.0004530973508588,-362.79681276332826
2025-03-05 15:05:11.278,0.0004401043850575,-368.8657841776881
2025-03-05 15:05:11.286,0.0004223618546711,-373.750832280662
2025-03-05 15:05:11.294,0.0004004350647362,-377.31352913153273
2025-03-05 15:05:11.302,0.0003749588892911,-379.4316725730954
2025-03-05 15:05:11.309,0.0003466197368858,-380.0029746015937
2025-03-05 15:05:11.317,0.0003161350662513,-378.9482583491866
2025-03-05 15:05:11.325,0.000284231294671,-376.21405177784646
2025-03-05 15:05:11.333,0.0002516212353942,-371.7744908467728
2025-03-05 15:05:11.341,0.0002189822950711,-365.6324726981065
2025-03-05 15:05:11.348,0.0001869365690886,-357.8200285098852
2025-03-05 15:05:11.356,0.0001560337760734,-348.39791445478505
2025-03-05 15:05:11.364,0.0001267377435617,-337.4544463019909
2025-03-05 15:05:11.372,9.94169252848212e-05,-325.10362753496537
2025-03-05 15:05:11.380,7.433920668588952e-05,-311.4826416596616
2025-03-05 15:05:11.388,5.16710448310952e-05,-296.74879615137
2025-03-05 15:05:11.395,3.1480796376827897e-05,-281.0760179842104
2025-03-05 15:05:11.403,1.3745916200176464e-05,-264.6510088720819
2025-03-05 15:05:11.411,-1.636437827140701e-06,-247.66917237985624
2025-03-05 15:05:11.419,-1.483598008430794e-05,-230.3304252545622
2025-03-05 15:05:11.427,-2.607373405337149e-05,-212.8350021185246
2025-03-05 15:05:11.434,-3.5605081534811524e-05,-195.3793565833141
2025-03-05 15:05:11.442,-4.370221844427366e-05,-178.15225344833968
2025-03-05 15:05:11.450,-5.063683016152772e-05,-161.33113650709316
2025-03-05 15:05:11.458,-5.666379317607131e-05,-145.07884513930688
2025-03-05 15:05:11.466,-6.200667048674988e-05,-129.54074081671
2025-03-05 15:05:11.473,-6.68456770421936e-05,-114.84229233154356
2025-03-05 15:05:11.481,-7.13086391705335e-05,-101.0871563338777
2025-03-05 15:05:11.489,-7.546528513724563e-05,-88.35577791291709
2025-03-05 15:05:11.497,-7.932502490610625e-05,-76.70452466103265
2025-03-05 15:05:11.505,-8.283821329291653e-05,-66.16535700575122
2025-03-05 15:05:11.513,-8.590072099469053e-05,-56.74602759423475
2025-03-05 15:05:11.520,-8.836146763363131e-05,-48.430793122408495
2025-03-05 15:05:11.528,-9.003243128863428e-05,-41.18161314198051
2025-03-05 15:05:11.536,-9.070054432655527e-05,-34.93980197014195
2025-03-05 15:05:11.544,-9.014079299065644e-05,-29.628091805698716
2025-03-05 15:05:11.552,-8.812976306647907e-05,-25.15305751205954
2025-03-05 15:05:11.559,-8.445885493804006e-05,-21.407846330414618
2025-03-05 15:05:11.567,-7.894645112764212e-05,-18.275149186695
2025-03-05 15:05:11.575,-7.144844398966851e-05,-15.630344472681598
2025-03-05 15:05:11.583,-6.186669486099466e-05,-13.344740479075403
2025-03-05 15:05:11.591,-5.015517511287495e-05,-11.28883932274828
2025-03-05 15:05:11.599,-3.632370717640318e-05,-9.335543529616205
2025-03-05 15:05:11.606,-2.0439361542009667e-05,-7.363226677798602
2025-03-05 15:05:11.614,-2.6256830843452466e-06,-5.258591905581024
2025-03-05 15:05:11.622,1.6939971609176647e-05,-2.9192468281443795
2025-03-05 15:05:11.630,3.803062889950139e-05,-0.2559306033559991
2025-03-05 15:05:11.638,6.037506130890925e-05,2.8056614407192844
2025-03-05 15:05:11.645,8.366401440495244e-05,6.323498183953339
2025-03-05 15:05:11.653,0.0001075570757549,10.338306620246588
2025-03-05 15:05:11.661,0.0001316900363604,14.873152279458637
2025-03-05 15:05:11.669,0.0001556826400548,19.933502857215643
2025-03-05 15:05:11.677,0.0001791466300126,25.50775554775494
2025-03-05 15:05:11.684,0.000201693984178,31.56819338004314
2025-03-05 15:05:11.692,0.0002229451932037,38.07232250835626
2025-03-05 15:05:11.700,0.0002425373997708,44.96453160152177
2025-03-05 15:05:11.708,0.0002601322115771,52.1780067008248
2025-03-05 15:05:11.716,0.0002754230230208,59.63683043634451
2025-03-05 15:05:11.724,0.0002881417120082,67.25819333910351
2025-03-05 15:05:11.731,0.0002980646042382,74.95464698674307
2025-03-05 15:05:11.739,0.0003050176221259,82.63633351565271
2025-03-05 15:05:11.747,0.0003088805606694,90.21313311650448
2025-03-05 15:05:11.755,0.0003095904451435,97.59667989324646
2025-03-05 15:05:11.763,0.0003071439182213,104.70220624583504
2025-03-05 15:05:11.770,0.0003015985820197,111.45018607276285
2025-03-05 15:05:11.778,0.0002930731878027,117.76775696969288
2025-03-05 15:05:11.786,0.0002817465354457,123.5899107077582
2025-03-05 15:05:11.794,0.0002678549453197,128.8604492161354
2025-03-05 15:05:11.802,0.0002516882134259,133.53270981548462
2025-03-05 15:05:11.809,0.0002335840416663,137.570068440756
2025-03-05 15:05:11.817,0.0002139210182902,140.94623307186458
2025-03-05 15:05:11.825,0.0001931102777439,143.6453416828113
2025-03-05 15:05:11.833,0.0001715859804533,145.66187992831976
2025-03-05 15:05:11.841,0.0001497947462995,147.00043377532575
2025-03-05 15:05:11.849,0.0001281841986116,147.67529165706082
2025-03-05 15:05:11.856,0.0001071908519213,147.70990979475576
2025-03-05 15:05:11.864,8.722769004195975e-05,147.13625338796837
2025-03-05 15:05:11.872,6.867189655154423e-05,145.994025651481
2025-03-05 15:05:11.880,5.185328207769907e-05,144.32979632126404
2025-03-05 15:05:11.888,3.704398184824008e-05,142.1960413194972
2025-03-05 15:05:11.895,2.444998179726266e-05,139.65010574241677
2025-03-05 15:05:11.903,1.4204983858927925e-05,136.75310316140133
2025-03-05 15:05:11.911,6.367019251031704e-06,133.56876534751055
2025-03-05 15:05:11.919,9.180392412005964e-07,130.16225788590157
2025-03-05 15:05:11.927,-2.2335076380998845e-06,126.59897867480008
2025-03-05 15:05:11.934,-3.247289665798842e-06,122.94335791630668
2025-03-05 15:05:11.942,-2.3432014376961144e-06,119.25767978467806
2025-03-05 15:05:11.950,2.0861689627453226e-07,115.60094735673712
2025-03-05 15:05:11.958,4.099309336468785e-06,112.02781345008138
2025-03-05 15:05:11.966,8.993735320763844e-06,108.587600580314
2025-03-05 15:05:11.974,1.454312884267324e-05,105.32343317321028
2025-03-05 15:05:11.981,2.0397372205119368e-05,102.27150432516292
2025-03-05 15:05:11.989,2.6216380946991987e-05,99.46049769530671
2025-03-05 15:05:11.997,3.168021953647846e-05,96.9111824715728
2025-03-05 15:05:12.005,3.64976875171905e-05,94.63619576502089
2025-03-05 15:05:12.013,4.04132270235033e-05,92.64002229695744
2025-03-05 15:05:12.020,4.321210147457831e-05,90.9191759644166
2025-03-05 15:05:12.028,4.472387918645407e-05,89.46258198001766
2025-03-05 15:05:12.036,4.482432285334177e-05,88.25215201337816
2025-03-05 15:05:12.044,4.343583544866613e-05,87.26353838177785
2025-03-05 15:05:12.052,4.052664501195972e-05,86.46704714018865
2025-03-05 15:05:12.059,3.610892570762131e-05,85.82868420740817
2025-03-05 15:05:12.067,3.023605182945813e-05,85.31130372725403
2025-03-05 15:05:12.075,2.2999167018773247e-05,84.87582395609921
2025-03-05 15:05:12.083,1.4523225261640726e-05,84.48247328517496
2025-03-05 15:05:12.091,4.96262596856882e-06,84.0920276713395
2025-03-05 15:05:12.099,-5.503474436848772e-06,83.66700081728177
2025-03-05 15:05:12.106,-1.667613283017586e-05,83.1727499080164
2025-03-05 15:05:12.114,-2.834185913317077e-05,82.57846252776038
2025-03-05 15:05:12.122,-4.0278107011030696e-05,81.85799446459892
2025-03-05 15:05:12.130,-5.2258942135386674e-05,80.99053333438097
2025-03-05 15:05:12.138,-6.406073500079533e-05,79.96106914989812
2025-03-05 15:05:12.145,-7.546766904645524e-05,78.760659907258
2025-03-05 15:05:12.153,-8.627684669475092e-05,77.38648768833212
2025-03-05 15:05:12.161,-9.630280320604314e-05,75.84170837362106
2025-03-05 15:05:12.169,-0.0001053812790663,74.13510549050056
2025-03-05 15:05:12.177,-0.0001133721452038,72.28056565996943
2025-03-05 15:05:12.184,-0.0001201614191857,70.29639925000919
2025-03-05 15:05:12.192,-0.0001256623540295,68.20453494008216
2025-03-05 15:05:12.200,-0.0001298156239271,66.02962075830612
2025-03-05 15:05:12.208,-0.0001325886727305,63.79806665531581
2025-03-05 15:05:12.216,-0.0001339743313461,61.537064779820845
2025-03-05 15:05:12.224,-0.000133988849143,59.27362332268929
2025-03-05 15:05:12.231,-0.0001326695204651,57.03364813915832
2025-03-05 15:05:12.239,-0.0001300721106199,54.84110342585516
2025-03-05 15:05:12.247,-0.0001262682756158,52.717278660368365
2025-03-05 15:05:12.255,-0.0001213431150946,50.68018400674497
2025-03-05 15:05:12.263,-0.0001153929227705,48.74409069969333
2025-03-05 15:05:12.270,-0.0001085231430049,46.91922681654044
2025-03-05 15:05:12.278,-0.0001008465106426,45.21163260043779
2025-03-05 15:05:12.286,-9.248131997543428e-05,43.62317336220122
2025-03-05 15:05:12.294,-8.354974131440202e-05,42.15170218440792
2025-03-05 15:05:12.302,-7.417611603490993e-05,40.79135937438383
2025-03-05 15:05:12.309,-6.448522301711566e-05,39.53299103175553
2025-03-05 15:05:12.317,-5.460057533202768e-05,38.36466535571426
2025-03-05 15:05:12.325,-4.464281840253643e-05,37.27226253125789
2025-03-05 15:05:12.333,-3.472825791494593e-05,36.240112278531655
2025-03-05 15:05:12.341,-2.496750626908684e-05,35.25165245808598
2025-03-05 15:05:12.349,-1.546424749124808e-05,34.29008248913183
2025-03-05 15:05:12.356,-6.314167183298585e-06,33.33898671410699
2025-03-05 15:05:12.364,2.395869654823666e-06,32.382905156597374
2025-03-05 15:05:12.372,1.058831682180293e-05,31.40783226482319
2025-03-05 15:05:12.380,1.819510463979697e-05,30.401628068110373
2025-03-05 15:05:12.388,2.515753348672137e-05,29.35433052040222
2025-03-05 15:05:12.395,3.142605510628255e-05,28.258362452588987
2025-03-05 15:05:12.403,3.696010437956924e-05,27.10863127752428
2025-03-05 15:05:12.411,4.172808204113299e-05,25.90252416509887
2025-03-05 15:05:12.419,4.570748766241845e-05,24.63980562746264
2025-03-05 15:05:12.427,4.888511223969325e-05,23.322428156277955
2025-03-05 15:05:12.434,5.125715763267243e-05,21.95426960326262
2025-03-05 15:05:12.442,5.28291599043089e-05,20.54081330044604
2025-03-05 15:05:12.450,5.361563295068661e-05,19.08878842132526
2025-03-05 15:05:12.458,5.363939422385038e-05,17.60578876395508
2025-03-05 15:05:12.466,5.293057519699775e-05,16.099887999354006
2025-03-05 15:05:12.474,5.1525353191120514e-05,14.57926851420066
2025-03-05 15:05:12.481,4.94644678569702e-05,13.051879357393291
2025-03-05 15:05:12.489,4.679160482202276e-05,11.525136572757493
2025-03-05 15:05:12.497,4.355174084134681e-05,10.005676482362707
2025-03-05 15:05:12.505,3.978954952204987e-05,8.499169410933904
2025-03-05 15:05:12.513,3.554796480363055e-05,7.0101980605638206
2025-03-05 15:05:12.520,3.086699151830978e-05,5.5422014163967335
2025-03-05 15:05:12.528,2.5782839313774e-05,4.097481853619104
2025-03-05 15:05:12.536,2.0327438896385463e-05,2.677270184644827
2025-03-05 15:05:12.544,1.4528378932196075e-05,1.2818408758807187
2025-03-05 15:05:12.552,8.409279070954392e-06,-0.0893323105224417
2025-03-05 15:05:12.559,1.9905905112704034e-06,-1.437391357724087
2025-03-05 15:05:12.567,-4.709208614991973e-06,-2.7638915454330544
2025-03-05 15:05:12.575,-1.167207893294759e-05,-4.070593421291356
2025-03-05 15:05:12.583,-1.887862367169108e-05,-5.359260585943562
2025-03-05 15:05:12.591,-2.6306126009770616e-05,-6.63147363301587
2025-03-05 15:05:12.599,-3.3926529740807034e-05,-7.888469082146093
2025-03-05 15:05:12.606,-4.170448304770846e-05,-9.13101029245154
2025-03-05 15:05:12.614,-4.959557003316491e-05,-10.359295260189093
2025-03-05 15:05:12.622,-5.7544853971301344e-05,-11.572904008150156
2025-03-05 15:05:12.630,-6.548584976468139e-05,-12.770786085283389
2025-03-05 15:05:12.638,-7.334003075155556e-05,-13.951286624471622
2025-03-05 15:05:12.645,-8.101695695814434e-05,-15.112207547472735
2025-03-05 15:05:12.653,-8.841508849585226e-05,-16.250898926350725
2025-03-05 15:05:12.661,-9.542331965292316e-05,-17.36437425317846
2025-03-05 15:05:12.669,-0.0001019232371364,-18.44944246226098
2025-03-05 15:05:12.677,-0.000107792070912,-19.50284901466393
2025-03-05 15:05:12.684,-0.0001129062693977,-20.52141821348847
2025-03-05 15:05:12.692,-0.0001171455938047,-21.50218918000017
2025-03-05 15:05:12.700,-0.0001203975907515,-22.4425385760456
2025-03-05 15:05:12.708,-0.0001225622695827,-23.34028417381013
2025-03-05 15:05:12.716,-0.0001235567828514,-24.193764692363875
2025-03-05 15:05:12.724,-0.0001233198869381,-25.00189286115985
2025-03-05 15:05:12.731,-0.0001218159464933,-25.764180332149834
2025-03-05 15:05:12.739,-0.0001190382429162,-26.48073472873451
2025-03-05 15:05:12.747,-0.0001150113548397,-27.152230675945844
2025-03-05 15:05:12.755,-0.0001097923987495,-27.77985800250087
2025-03-05 15:05:12.763,-0.0001034709512691,-28.365251365291325
2025-03-05 15:05:12.770,-9.61675217364468e-05,-28.910406266377343
2025-03-05 15:05:12.778,-8.803050446650832e-05,-29.41758677889442
2025-03-05 15:05:12.786,-7.923161401636617e-05,-29.88923026442696
2025-03-05 15:05:12.794,-6.99598927558402e-05,-30.32785397480955
2025-03-05 15:05:12.802,-6.0414476436908576e-05,-30.735967743181533
2025-03-05 15:05:12.809,-5.079640798864412e-05,-31.1159960673988
2025-03-05 15:05:12.817,-4.129989960425385e-05,-31.47021187629387
2025-03-05 15:05:12.825,-3.210355332163936e-05,-31.800683253326632
2025-03-05 15:05:12.833,-2.336214554297339e-05,-32.10923347231788
2025-03-05 15:05:12.841,-1.5199626720699554e-05,-32.39741395505539
2025-03-05 15:05:12.849,-7.703945763403107e-06,-32.66648923717149
2025-03-05 15:05:12.856,-9.241786835622516e-07,-32.91743273371272
2025-03-05 15:05:12.864,5.129737859623508e-06,-33.15093199638374
2025-03-05 15:05:12.872,1.0484567097576494e-05,-33.367402184327936
2025-03-05 15:05:12.880,1.519875161404759e-05,-33.567006544180444
2025-03-05 15:05:12.888,1.9355183470100495e-05,-33.749682733269566
2025-03-05 15:05:12.895,2.3052359526331065e-05,-33.91517377624532
2025-03-05 15:05:12.903,2.639466428933534e-05,-34.06306232360866
2025-03-05 15:05:12.911,2.9482581232910905e-05,-34.19280672749008
2025-03-05 15:05:12.919,3.2403621147952234e-05,-34.303777332253986
2025-03-05 15:05:12.927,3.522468659218014e-05,-34.39529135456615
2025-03-05 15:05:12.934,3.79864562250293e-05,-34.46664483348686
2025-03-05 15:05:12.942,4.070016513154439e-05,-34.51714036835644
2025-03-05 15:05:12.950,4.334690718137613e-05,-34.54610970515714
2025-03-05 15:05:12.958,4.587934885370429e-05,-34.55293063713079
2025-03-05 15:05:12.966,4.822556133132115e-05,-34.53703810420309
2025-03-05 15:05:12.974,5.0294563085026567e-05,-34.49792976745918
2025-03-05 15:05:12.981,5.198311389937791e-05,-34.43516667446433
2025-03-05 15:05:12.989,5.3183283592882016e-05,-34.3483699081768
2025-03-05 15:05:12.997,5.379029731455287e-05,-34.23721432263482
2025-03-05 15:05:13.005,5.371013490567569e-05,-34.10142060804762
2025-03-05 15:05:13.013,5.286637131835567e-05,-33.94074698981901
2025-03-05 15:05:13.020,5.120580981784546e-05,-33.754981844221305
2025-03-05 15:05:13.028,4.870256504876048e-05,-33.54393840764141
2025-03-05 15:05:13.036,4.536037498890611e-05,-33.307452578735386
2025-03-05 15:05:13.044,4.121304629828872e-05,-33.04538458876169
2025-03-05 15:05:13.052,3.632306170298082e-05,-32.75762507350666
2025-03-05 15:05:13.059,3.0778497696482675e-05,-32.444105838698555
2025-03-05 15:05:13.067,2.468851301168458e-05,-32.10481536977861
2025-03-05 15:05:13.075,1.817776858080333e-05,-31.73981888314553
2025-03-05 15:05:13.083,1.1380215760068243e-05,-31.34928243653074
2025-03-05 15:05:13.091,4.432718449959895e-06,-30.93350031110343
2025-03-05 15:05:13.099,-2.5310569478369253e-06,-30.49292456328471
2025-03-05 15:05:13.106,-9.38611757215325e-06,-30.028195344829136
2025-03-05 15:05:13.114,-1.6020677189519425e-05,-29.54017033039465
2025-03-05 15:05:13.122,-2.233947064024291e-05,-29.02995139412479
2025-03-05 15:05:13.130,-2.826562642295651e-05,-28.49890655908678
2025-03-05 15:05:13.138,-3.374099988634426e-05,-27.948685220723032
2025-03-05 15:05:13.145,-3.8725064461710695e-05,-27.381224728869025
2025-03-05 15:05:13.153,-4.3192649384047264e-05,-26.7987466113122
2025-03-05 15:05:13.161,-4.713092472265058e-05,-26.20374104436224
2025-03-05 15:05:13.169,-5.053605512586154e-05,-25.59893862852167
2025-03-05 15:05:13.177,-5.340990668932589e-05,-24.987269104714056
2025-03-05 15:05:13.184,-5.575712982355595e-05,-24.37180732584845
2025-03-05 15:05:13.192,-5.758286922351146e-05,-23.755707540573084
2025-03-05 15:05:13.200,-5.889127479324824e-05,-23.14212780063063
2025-03-05 15:05:13.208,-5.968490785349396e-05,-22.53414701504193
2025-03-05 15:05:13.216,-5.996505834152415e-05,-21.934677788538576
2025-03-05 15:05:13.224,-5.973291408550277e-05,-21.346378647678844
2025-03-05 15:05:13.231,-5.899145551164811e-05,-20.77156953361531
2025-03-05 15:05:13.239,-5.774789099164689e-05,-20.212154497048164
2025-03-05 15:05:13.247,-5.601640182127985e-05,-19.66955535907786
2025-03-05 15:05:13.255,-5.382093353331207e-05,-19.14465971262665
2025-03-05 15:05:13.263,-5.119775346114238e-05,-18.637786062350187
2025-03-05 15:05:13.270,-4.81974942888733e-05,-18.148668179829293
2025-03-05 15:05:13.278,-4.488642034444614e-05,-17.676459935044697
2025-03-05 15:05:13.286,-4.1346687671447306e-05,-17.219761001098096
2025-03-05 15:05:13.294,-3.767541994602831e-05,-16.776662952915892
2025-03-05 15:05:13.302,-3.398248900790449e-05,-16.344814419633465
2025-03-05 15:05:13.309,-3.03869694943756e-05,-15.92150313283441
2025-03-05 15:05:13.317,-2.701232958869472e-05,-15.503751976507324
2025-03-05 15:05:13.325,-2.398052147071873e-05,-15.08842553462753
2025-03-05 15:05:13.333,-2.140524245051311e-05,-14.67234318963682
2025-03-05 15:05:13.341,-1.938474730597481e-05,-14.252394573884114
2025-03-05 15:05:13.349,-1.7994698385966456e-05,-13.825653117796463
2025-03-05 15:05:13.356,-1.7281628612953123e-05,-13.38948355570228
2025-03-05 15:05:13.364,-1.72576369621319e-05,-12.94163951605791
2025-03-05 15:05:13.372,-1.7896909357894225e-05,-12.480347710975709
2025-03-05 15:05:13.380,-1.91345503012884e-05,-12.004375730969244
2025-03-05 15:05:13.388,-2.086802461426701e-05,-11.51308103459845
2025-03-05 15:05:13.395,-2.29612516130052e-05,-11.006439394929195
2025-03-05 15:05:13.403,-2.5251095158986603e-05,-10.48505181852808
2025-03-05 15:05:13.411,-2.7555719199980423e-05,-9.95012977136522
2025-03-05 15:05:13.419,-2.968410703162152e-05,-9.403459401653228
2025-03-05 15:05:13.427,-3.144601157446308e-05,-8.847346306942637
2025-03-05 15:05:13.434,-3.266169112028192e-05,-8.284543212531384
2025-03-05 15:05:13.442,-3.3170931248013384e-05,-7.718163667387358
2025-03-05 15:05:13.450,-3.2840998111902845e-05,-7.15158547400944
2025-03-05 15:05:13.458,-3.157327188924852e-05,-6.588348000150198
2025-03-05 15:05:13.466,-2.9308367181517496e-05,-6.032047731478176
2025-03-05 15:05:13.474,-2.602958142138512e-05,-5.486236389668342
2025-03-05 15:05:13.481,-2.176454585628383e-05,-4.954325652030783
2025-03-05 15:05:13.489,-1.6584996662625093e-05,-4.439501973741538
2025-03-05 15:05:13.497,-1.0604638012033762e-05,-3.944654254253004
2025-03-05 15:05:13.505,-3.975134259544265e-06,-3.472316146191849
2025-03-05 15:05:13.513,3.1196558025120843e-06,-3.0246237418736173
2025-03-05 15:05:13.520,1.047100464049367e-05,-2.6032882779507003
2025-03-05 15:05:13.528,1.7853911026717064e-05,-2.2095824784150437
2025-03-05 15:05:13.536,2.5036577520632525e-05,-1.8443383177930237
2025-03-05 15:05:13.544,3.179029591538476e-05,-1.5079534218600643
2025-03-05 15:05:13.552,3.789921292594432e-05,-1.2004030949139728
2025-03-05 15:05:13.559,4.316945405797488e-05,-0.9212550952126562
2025-03-05 15:05:13.567,4.743714819005358e-05,-0.6696847580284064
2025-03-05 15:05:13.575,5.057499432118354e-05,-0.4444888339609879
2025-03-05 15:05:13.583,5.249711965091415e-05,-0.2440973760057018
2025-03-05 15:05:13.591,5.316208216567582e-05,-0.0665840455535615
2025-03-05 15:05:13.599,5.257396725887288e-05,0.0903238336242969
2025-03-05 15:05:13.606,5.078161479618492e-05,0.229233407957162
2025-03-05 15:05:13.614,4.7876089113559495e-05,0.3530701425068274
2025-03-05 15:05:13.622,4.398656880948625e-05,0.4650548902685614
2025-03-05 15:05:13.630,3.927488536745119e-05,0.5686720321041849
2025-03-05 15:05:13.638,3.3928979461853696e-05,0.6676271901083006
2025-03-05 15:05:13.645,2.8155571385307115e-05,0.7657938853012642
2025-03-05 15:05:13.653,2.217235773280888e-05,0.8671494797814128
2025-03-05 15:05:13.661,1.6200050799053915e-05,0.9757016912541872
2025-03-05 15:05:13.669,1.0454570713074324e-05,1.095407780267005
2025-03-05 15:05:13.677,5.139683844075725e-06,1.2300891008621977
2025-03-05 15:05:13.684,4.403551962727878e-07,1.3833440274545028
2025-03-05 15:05:13.692,-3.482951883035738e-06,1.5584623243196998
2025-03-05 15:05:13.700,-6.498837575639455e-06,1.7583438513194127
2025-03-05 15:05:13.708,-8.508247221588733e-06,1.9854241701694288
2025-03-05 15:05:13.716,-9.446386456779634e-06,2.2416092060675514
2025-03-05 15:05:13.724,-9.283244668088172e-06,2.528220695614805
2025-03-05 15:05:13.731,-8.02276724836796e-06,2.8459537608820744
2025-03-05 15:05:13.739,-5.700786466234379e-06,3.194847618062101
2025-03-05 15:05:13.747,-2.3818910577580658e-06,3.574270163766609
2025-03-05 15:05:13.755,1.8445250075802668e-06,3.982916969718034
2025-03-05 15:05:13.763,6.868765730750662e-06,4.418825029876564
2025-03-05 15:05:13.770,1.2565635697851034e-05,4.879401409463669
2025-03-05 15:05:13.778,1.879932596870417e-05,5.361466713036894
2025-03-05 15:05:13.786,2.5428177367903423e-05,5.861312999724969
2025-03-05 15:05:13.794,3.230908691477869e-05,6.374775421590724
2025-03-05 15:05:13.802,3.9301302246303433e-05,6.89731644904105
2025-03-05 15:05:13.809,4.62694011379443e-05,7.424121085511151
2025-03-05 15:05:13.817,5.3085399311522254e-05,7.950200981978283
2025-03-05 15:05:13.825,5.963012016864912e-05,8.47050487194537
2025-03-05 15:05:13.833,6.579411779399849e-05,8.980032299586288
2025-03-05 15:05:13.841,7.147852139418135e-05,9.473947248613218
2025-03-05 15:05:13.849,7.659615118934065e-05,9.94768803369604
2025-03-05 15:05:13.856,8.107314201109906e-05,10.397069721848554
2025-03-05 15:05:13.864,8.485111755891412e-05,10.818375434932902
2025-03-05 15:05:13.872,8.788972901738457e-05,11.208433164657224
2025-03-05 15:05:13.880,9.016917112585032e-05,11.56467521293598
2025-03-05 15:05:13.888,9.169218043291632e-05,11.885178040137506
2025-03-05 15:05:13.895,9.248503368028368e-05,12.168681128587991
2025-03-05 15:05:13.903,9.25971766879933e-05,12.414584397684044
2025-03-05 15:05:13.911,9.209927698360436e-05,12.622924676648578
2025-03-05 15:05:13.919,9.107966916783752e-05,12.79433268391387
2025-03-05 15:05:13.927,8.963933380334906e-05,12.92997281649049
2025-03-05 15:05:13.934,8.78857115155756e-05,13.03146877075091
2025-03-05 15:05:13.942,8.592579736914372e-05,13.100818568067632
2025-03-05 15:05:13.950,8.385907211800059e-05,13.140302930011948
2025-03-05 15:05:13.958,8.177088023304587e-05,13.152391131873788
2025-03-05 15:05:13.966,7.972683520923424e-05,13.139648456159676
2025-03-05 15:05:13.974,7.776872168089636e-05,13.104649165966997
2025-03-05 15:05:13.981,7.591219805866058e-05,13.049898520790444
2025-03-05 15:05:13.989,7.414641294506138e-05,12.977766771893869
2025-03-05 15:05:13.997,7.243545956494078e-05,12.890437322693842
2025-03-05 15:05:14.005,7.072143565069456e-05,12.789870358898211
2025-03-05 15:05:14.013,6.892877955302848e-05,12.6777822922958
2025-03-05 15:05:14.020,6.696951968863432e-05,12.555640377937491
2025-03-05 15:05:14.028,6.474908161628776e-05,12.4246709220811
2025-03-05 15:05:14.036,6.21723215092462e-05,12.285878671599326
2025-03-05 15:05:14.044,5.914948560674739e-05,12.140074341201217
2025-03-05 15:05:14.052,5.56018295677559e-05,11.98790685899086
2025-03-05 15:05:14.059,5.1466668444263006e-05,11.829896835501447
2025-03-05 15:05:14.067,4.670166630436297e-05,11.666467995306238
2025-03-05 15:05:14.075,4.1288213577486414e-05,11.497973827220967
2025-03-05 15:05:14.083,3.523377931995671e-05,11.324717450515742
2025-03-05 15:05:14.091,2.8573164295377158e-05,11.146963579041753
2025-03-05 15:05:14.099,2.136861863097636e-05,10.964942402850165
2025-03-05 15:05:14.106,1.370882453405203e-05,10.778846113763922
2025-03-05 15:05:14.114,5.706779873572568e-06,10.588819606758516
2025-03-05 15:05:14.122,-2.503347885623708e-06,10.394947534478987
2025-03-05 15:05:14.130,-1.0770296112517368e-05,10.19724032825274
2025-03-05 15:05:14.138,-1.8930578900323196e-05,9.9956219862855
2025-03-05 15:05:14.145,-2.681399843019017e-05,9.789922345892924
2025-03-05 15:05:14.153,-3.4249613719459025e-05,9.579876202655228
2025-03-05 15:05:14.161,-4.107196409532457e-05,9.365131043508136
2025-03-05 15:05:14.169,-4.712732834516179e-05,9.145264379040324
2025-03-05 15:05:14.177,-5.2279789029422384e-05,8.919810772081528
2025-03-05 15:05:14.185,-5.641686571905682e-05,8.688297756659484
2025-03-05 15:05:14.192,-5.94544817973264e-05,8.450289013177608
2025-03-05 15:05:14.200,-6.134103780881388e-05,8.205432488060298
2025-03-05 15:05:14.208,-6.206038096287665e-05,7.953510674359942
2025-03-05 15:05:14.216,-6.163348601797067e-05,7.694490035929681
2025-03-05 15:05:14.224,-6.011869793601551e-05,7.428566569386561
2025-03-05 15:05:14.231,-5.761043172331796e-05,7.156204737242854
2025-03-05 15:05:14.239,-5.423627979747452e-05,6.878167430385121
2025-03-05 15:05:14.247,-5.015254172089724e-05,6.5955351709247205
2025-03-05 15:05:14.255,-4.553826450525309e-05,6.309713386206664
2025-03-05 15:05:14.263,-4.058796276307899e-05,6.022427216521685
2025-03-05 15:05:14.270,-3.5503275145399386e-05,5.735703917274719
2025-03-05 15:05:14.278,-3.04839046674101e-05,5.451843443433043
2025-03-05 15:05:14.286,-2.571828151184688e-05,5.173378230872737
2025-03-05 15:05:14.294,-2.1374465046501364e-05,4.903023501351544
2025-03-05 15:05:14.302,-1.7591841516768088e-05,4.643619621249305
2025-03-05 15:05:14.310,-1.4474150661288137e-05,4.3980681604669645
2025-03-05 15:05:14.317,-1.208428862298787e-05,4.169263350451249
2025-03-05 15:05:14.325,-1.0441211071489451e-05,3.960020645115157
2025-03-05 15:05:14.333,-9.519125620740713e-06,3.773004055903424
2025-03-05 15:05:14.341,-9.249029793148696e-06,3.610653876307444
2025-03-05 15:05:14.349,-9.522524946940514e-06,3.4751163543931045
2025-03-05 15:05:14.356,-1.0197720785167808e-05,3.3681768412543263
2025-03-05 15:05:14.364,-1.1106941997577254e-05,3.291197957719527
2025-03-05 15:05:14.372,-1.2065860599628852e-05,3.245064380182937
2025-03-05 15:05:14.380,-1.288360662999294e-05,3.230135924681852
2025-03-05 15:05:14.388,-1.337335608239954e-05,3.246210665743624
2025-03-05 15:05:14.395,-1.3362851531498592e-05,3.2924998194982327
2025-03-05 15:05:14.403,-1.2704267905523214e-05,3.36761601336077
2025-03-05 15:05:14.411,-1.1282804900057427e-05,3.469576334016182
2025-03-05 15:05:14.419,-9.023416035022176e-06,3.5958211811499554
2025-03-05 15:05:14.427,-5.8952162477491e-06,3.743249459466793
2025-03-05 15:05:14.435,-1.9133301695138737e-06,3.9082700352528
2025-03-05 15:05:14.442,2.8618216072029288e-06,4.08686870398801
2025-03-05 15:05:14.450,8.327624751458842e-06,4.274689217494306
2025-03-05 15:05:14.458,1.434448732430554e-05,4.467126267311683
2025-03-05 15:05:14.466,2.0742827363760157e-05,4.659427775767807
2025-03-05 15:05:14.474,2.733141172095036e-05,4.8468034501204444
2025-03-05 15:05:14.481,3.39065398186111e-05,5.024536326380662
2025-03-05 15:05:14.489,4.026150784870214e-05,5.18809396438914
2025-03-05 15:05:14.497,4.619579116664453e-05,5.333236035977454
2025-03-05 15:05:14.505,5.152344652144696e-05,5.456115245012644
2025-03-05 15:05:14.513,5.608033618404777e-05,5.553368796125771
2025-03-05 15:05:14.520,5.972988690469803e-05,5.622197952498461
2025-03-05 15:05:14.528,6.236720483680936e-05,5.660433568773049
2025-03-05 15:05:14.536,6.392146856262833e-05,5.666585848336444
2025-03-05 15:05:14.544,6.435661375679963e-05,5.639876964081765
2025-03-05 15:05:14.552,6.367040298277996e-05,5.580255610448892
2025-03-05 15:05:14.560,6.189204132582659e-05,5.488393029558075
2025-03-05 15:05:14.567,5.9078552229050336e-05,5.365660574238778
2025-03-05 15:05:14.575,5.5310167695637e-05,5.214089422902455
2025-03-05 15:05:14.583,5.06850130596364e-05,5.036313621770472
2025-03-05 15:05:14.591,4.531337929396472e-05,4.835498169031292
2025-03-05 15:05:14.599,3.931187611977067e-05,4.615254343114457
2025-03-05 15:05:14.606,3.2797748067885344e-05,4.379544888456593
2025-03-05 15:05:14.614,2.5883614384736e-05,4.132581990059872
2025-03-05 15:05:14.622,1.8672863684027238e-05,3.8787211841872846
2025-03-05 15:05:14.630,1.1255897032624736e-05,3.622354462846006
2025-03-05 15:05:14.638,3.7073702904599138e-06,3.3678058312024475
2025-03-05 15:05:14.645,-3.915460416416703e-06,3.119232465940623
2025-03-05 15:05:14.653,-1.1573235653159718e-05,2.880534394428459
2025-03-05 15:05:14.661,-1.9243828040715603e-05,2.655275265559224
2025-03-05 15:05:14.669,-2.692056191627822e-05,2.4466163149012825
2025-03-05 15:05:14.677,-3.4609411190697546e-05,2.257265054646352
2025-03-05 15:05:14.685,-4.232531410699116e-05,2.089439575862853
2025-03-05 15:05:14.692,-5.008778398583001e-05,1.944848681632948
2025-03-05 15:05:14.700,-5.791602990066896e-05,1.824687419797184
2025-03-05 15:05:14.708,-6.582382957234686e-05,1.729646989447698
2025-03-05 15:05:14.716,-7.381441775644173e-05,1.6599374807118807
2025-03-05 15:05:14.724,-8.187566630680258e-05,1.6153214866300527
2025-03-05 15:05:14.731,-8.997583638626385e-05,1.5951563035148382
2025-03-05 15:05:14.739,-9.806017858991635e-05,1.5984422116314925
2025-03-05 15:05:14.747,-0.0001060486428752,1.6238742047893282
2025-03-05 15:05:14.755,-0.0001138349372036,1.6698945298092809
2025-03-05 15:05:14.763,-0.0001212871403521,1.7347435276466157
2025-03-05 15:05:14.770,-0.0001282500213089,1.8165065574196324
2025-03-05 15:05:14.778,-0.0001345491252497,1.913155238433708
2025-03-05 15:05:14.786,-0.0001399965442157,2.022581847888394
2025-03-05 15:05:14.794,-0.00014439812704,2.1426264254202083
2025-03-05 15:05:14.802,-0.0001475617493329,2.271096902824006
2025-03-05 15:05:14.810,-0.000149306188337,2.4057833271651043
2025-03-05 15:05:14.817,-0.0001494701194014,2.544467901584207
2025-03-05 15:05:14.825,-0.0001479207512792,2.684933061039431
2025-03-05 15:05:14.833,-0.0001445616377001,2.824970079116576
2025-03-05 15:05:14.841,-0.0001393392417423,2.962390737653875
2025-03-05 15:05:14.849,-0.0001322478877428,3.095044372487544
2025-03-05 15:05:14.856,-0.0001233328127744,3.220842142816072
2025-03-05 15:05:14.864,-0.0001126911255106,3.3377896869077808
2025-03-05 15:05:14.872,-0.0001004705935215,3.444028474896656
2025-03-05 15:05:14.880,-8.686630740690282e-05,3.537885217953804
2025-03-05 15:05:14.888,-7.211539967477825e-05,3.6179277149616538
2025-03-05 15:05:14.895,-5.6490104363481774e-05,3.683024585935875
2025-03-05 15:05:14.903,-4.02895136315394e-05,3.732405530965622
2025-03-05 15:05:14.911,-2.3830430643102223e-05,3.765718142022349
2025-03-05 15:05:14.919,-7.437748711389151e-06,3.783076955368019
2025-03-05 15:05:14.927,8.56520811618181e-06,3.785100420213122
2025-03-05 15:05:14.935,2.386598210770551e-05,3.772931802865997
2025-03-05 15:05:14.942,3.81715731111889e-05,3.7482407380838
2025-03-05 15:05:14.950,5.1216046330622985e-05,3.713203135549816
2025-03-05 15:05:14.958,6.276696396349513e-05,3.670458369970894
2025-03-05 15:05:14.966,7.263055183577678e-05,3.623044027138735
2025-03-05 15:05:14.974,8.065559631817223e-05,3.5743098379401403
2025-03-05 15:05:14.981,8.673609563542099e-05,3.527813705622315
2025-03-05 15:05:14.989,9.0812677057992e-05,3.4872038294156344
2025-03-05 15:05:14.997,9.287278395355328e-05,3.4560917787247325
2025-03-05 15:05:15.005,9.294965962169786e-05,3.4379219277467645
2025-03-05 15:05:15.013,9.11201966941659e-05,3.435842898083016
2025-03-05 15:05:15.020,8.750176125489404e-05,3.452586581227581
2025-03-05 15:05:15.028,8.22481307256376e-05,3.490359949380099
2025-03-05 15:05:15.036,7.554470343519478e-05,3.550754247586945
2025-03-05 15:05:15.044,6.760314702713275e-05,3.634675330482872
2025-03-05 15:05:15.052,5.865565404158675e-05,3.742297903365545
2025-03-05 15:05:15.060,4.894896780574441e-05,3.873045298865527
2025-03-05 15:05:15.067,3.873833186008107e-05,4.025595225230978
2025-03-05 15:05:15.075,2.8281503122312057e-05,4.197910722440573
2025-03-05 15:05:15.083,1.7832954276060883e-05,4.387294420552268
2025-03-05 15:05:15.091,7.638375670753358e-06,4.590463174610835
2025-03-05 15:05:15.099,-2.070427732730329e-06,4.803639316118128
2025-03-05 15:05:15.106,-1.108016250672473e-05,5.02265417043764
2025-03-05 15:05:15.114,-1.9200126399645144e-05,5.243059185716678
2025-03-05 15:05:15.122,-2.626568275352427e-05,5.460240022261135
2025-03-05 15:05:15.130,-3.214108072844544e-05,5.669529251524569
2025-03-05 15:05:15.138,-3.672158156089732e-05,5.866313866219587
2025-03-05 15:05:15.145,-3.993486048386776e-05,6.046134533667816
2025-03-05 15:05:15.153,-4.174166446750569e-05,6.204774345359136
2025-03-05 15:05:15.161,-4.213571861519639e-05,6.338335642956307
2025-03-05 15:05:15.169,-4.114288990325165e-05,6.443304268446799
2025-03-05 15:05:15.177,-3.881963695653143e-05,6.516601248373973
2025-03-05 15:05:15.185,-3.525079954474968e-05,6.555622449646453
2025-03-05 15:05:15.192,-3.0546812092295376e-05,6.558267119348452
2025-03-05 15:05:15.200,-2.484046044144064e-05,6.522956436567809
2025-03-05 15:05:15.208,-1.8283330719880888e-05,6.448643265879143
2025-03-05 15:05:15.216,-1.1042102459605757e-05,6.33481422492568
2025-03-05 15:05:15.224,-3.2948014932120725e-06,6.1814849835925205
2025-03-05 15:05:15.231,4.772932955835761e-06,5.989189425094214
2025-03-05 15:05:15.239,1.2971570577136138e-05,5.758962952284285
2025-03-05 15:05:15.247,2.111144748677993e-05,5.492319856763816
2025-03-05 15:05:15.255,2.9006619322827448e-05,5.191224330936981
2025-03-05 15:05:15.263,3.647883353011711e-05,4.858054441171014
2025-03-05 15:05:15.270,4.336155601521731e-05,4.49555823670352
2025-03-05 15:05:15.278,4.950389627752595e-05,4.106801180418902
2025-03-05 15:05:15.286,5.477424208947195e-05,3.695104280751872
2025-03-05 15:05:15.294,5.906345290232642e-05,3.2639726900028645
2025-03-05 15:05:15.302,6.228753375160422e-05,2.817015102213846
2025-03-05 15:05:15.310,6.438978233819177e-05,2.357854994934734
2025-03-05 15:05:15.317,6.534244983030495e-05,1.890035548794692
2025-03-05 15:05:15.325,6.514794745338166e-05,1.4169208651550127
2025-03-05 15:05:15.333,6.383954161409129e-05,0.9415968011690116
2025-03-05 15:05:15.341,6.148134905990024e-05,0.4667752786699588
2025-03-05 15:05:15.349,5.8167358205001685e-05,-0.0052937596219863
2025-03-05 15:05:15.356,5.401922170072782e-05,-0.472898513677591
2025-03-05 15:05:15.364,4.918267798025074e-05,-0.9349255903546846
2025-03-05 15:05:15.372,4.38226190845313e-05,-1.3909008295538496
2025-03-05 15:05:15.380,3.811698967713496e-05,-1.8410078746098852
2025-03-05 15:05:15.388,3.224985145010908e-05,-2.2860825872691275
2025-03-05 15:05:15.395,2.640404903934692e-05,-2.7275824681652274
2025-03-05 15:05:15.403,2.075394222693354e-05,-3.1675313879370592
2025-03-05 15:05:15.411,1.5458624017413802e-05,-3.608441102570868
2025-03-05 15:05:15.419,1.0655949829347463e-05,-4.05321215694272
2025-03-05 15:05:15.427,6.457587433700777e-06,-4.505017805870653
2025-03-05 15:05:15.435,2.9451839261245106e-06,-4.967175434451353
2025-03-05 15:05:15.442,1.676629967612069e-07,-5.443010579175462
2025-03-05 15:05:15.450,-1.8603619014365792e-06,-5.93571899538594
2025-03-05 15:05:15.458,-3.1590468500663693e-06,-6.448232266184935
2025-03-05 15:05:15.466,-3.782592618538724e-06,-6.983092211751066
2025-03-05 15:05:15.474,-3.817262092778176e-06,-7.542338870902682
2025-03-05 15:05:15.481,-3.3781021663185483e-06,-8.127416141614004
2025-03-05 15:05:15.489,-2.6044011757444896e-06,-8.739098345578022
2025-03-05 15:05:15.497,-1.6539777731288294e-06,-9.37744008521464
2025-03-05 15:05:15.505,-6.964548502442514e-07,-10.041750843896184
2025-03-05 15:05:15.513,9.425247599947125e-08,-10.73059488320567
2025-03-05 15:05:15.520,5.479165187827423e-07,-11.441816141923203
2025-03-05 15:05:15.528,5.060615652091896e-07,-12.172587055418653
2025-03-05 15:05:15.536,-1.7028563020195378e-07,-12.919479501036449
2025-03-05 15:05:15.544,-1.5935385264578718e-06,-13.678555446685529
2025-03-05 15:05:15.552,-3.843531419463657e-06,-14.445474352424815
2025-03-05 15:05:15.560,-6.962844189163394e-06,-15.21561396307545
2025-03-05 15:05:15.567,-1.0953734940703744e-05,-15.984200837352226
2025-03-05 15:05:15.575,-1.5776888604648915e-05,-16.74644677395843
2025-03-05 15:05:15.583,-2.135210002646273e-05,-17.497687195821772
2025-03-05 15:05:15.591,-2.756087550380603e-05,-18.233517518418395
2025-03-05 15:05:15.599,-3.425078340867064e-05,-18.94992354274341
2025-03-05 15:05:15.606,-4.1241262298639616e-05,-19.643401973956514
2025-03-05 15:05:15.614,-4.833052978630574e-05,-20.31106727774599
2025-03-05 15:05:15.622,-5.530321563492488e-05,-20.950741257468785
2025-03-05 15:05:15.630,-6.193834671447176e-05,-21.5610219777961
2025-03-05 15:05:15.638,-6.801732901115942e-05,-22.141328990479405
2025-03-05 15:05:15.645,-7.333160024441547e-05,-22.69192225712757
2025-03-05 15:05:15.653,-7.768966480421825e-05,-23.213892738106917
2025-03-05 15:05:15.661,-8.092326966217502e-05,-23.70912334456934
2025-03-05 15:05:15.669,-8.289253461719202e-05,-24.1802198340326
2025-03-05 15:05:15.677,-8.348991170096208e-05,-24.63041225047008
2025-03-05 15:05:15.685,-8.26429157762197e-05,-25.063428632344312
2025-03-05 15:05:15.692,-8.031564027753874e-05,-25.48334389185581
2025-03-05 15:05:15.700,-7.650914596607692e-05,-25.894407960505006
2025-03-05 15:05:15.708,-7.126087565860036e-05,-26.300858460334016
2025-03-05 15:05:15.716,-6.464328066366897e-05,-26.706724262452184
2025-03-05 15:05:15.724,-5.6761822861468296e-05,-27.11562729610137
2025-03-05 15:05:15.731,-4.775244420025498e-05,-27.5305908210426
2025-03-05 15:05:15.739,-3.777850819899151e-05,-27.95386300959488
2025-03-05 15:05:15.747,-2.7027156552578525e-05,-28.38676503396924
2025-03-05 15:05:15.755,-1.5705003343540078e-05,-28.829572852900995
2025-03-05 15:05:15.763,-4.033100410206841e-06,-29.28144147642613
2025-03-05 15:05:15.770,7.758849136997769e-06,-29.740379606932542
2025-03-05 15:05:15.778,1.943895595451462e-05,-30.20328117915223
2025-03-05 15:05:15.786,3.0780066910778066e-05,-30.66601845630798
2025-03-05 15:05:15.794,4.1566776760832645e-05,-31.12359902592875
2025-03-05 15:05:15.802,5.160208683844466e-05,-31.570386351315264
2025-03-05 15:05:15.810,6.07133014075081e-05,-32.000380572912256
2025-03-05 15:05:15.817,6.875686035980764e-05,-32.40755313389963
2025-03-05 15:05:15.825,7.562192014110637e-05,-32.78622564867228
2025-03-05 15:05:15.833,8.123256436547446e-05,-33.1314803630622
2025-03-05 15:05:15.841,8.554856167432944e-05,-33.43958668916518
2025-03-05 15:05:15.849,8.856463519735018e-05,-33.708425752038615
2025-03-05 15:05:15.856,9.030828825458192e-05,-33.9378927807462
2025-03-05 15:05:15.864,9.08363304691428e-05,-34.130255641208194
2025-03-05 15:05:15.872,9.02303441130373e-05,-34.29044697816343
2025-03-05 15:05:15.880,8.859140898519489e-05,-34.426267438385146
2025-03-05 15:05:15.888,8.603445264632996e-05,-34.548478400306884
2025-03-05 15:05:15.895,8.268258985165525e-05,-34.67076462528945
2025-03-05 15:05:15.903,7.866174888294822e-05,-34.80955032980401
2025-03-05 15:05:15.911,7.409577953122843e-05,-34.9836563680505
2025-03-05 15:05:15.919,6.91021480254844e-05,-35.21379146647447
2025-03-05 15:05:15.927,6.378827503520107e-05,-35.52187665993862
2025-03-05 15:05:15.935,5.824855325019405e-05,-35.930209080313055
2025-03-05 15:05:15.942,5.256207076843194e-05,-36.460478824112535
2025-03-05 15:05:15.950,4.679105629365506e-05,-37.13266050801756
2025-03-05 15:05:15.958,4.098005067577644e-05,-37.96380899473528
2025-03-05 15:05:15.966,3.51557969247718e-05,-38.9667962830867
2025-03-05 15:05:15.974,2.932782776996808e-05,-40.14903332771226
2025-03-05 15:05:15.981,2.3489716377001663e-05,-41.51122620612424
2025-03-05 15:05:15.989,1.7620942219141126e-05,-43.04622023081424
2025-03-05 15:05:15.997,1.1689310573777602e-05,-44.737988008726816
2025-03-05 15:05:16.005,5.653850936293336e-06,-46.56081783809263
2025-03-05 15:05:16.013,-5.318929082781097e-07,-48.478757020419295
2025-03-05 15:05:16.020,-6.916280031581079e-06,-50.445360522011306
2025-03-05 15:05:16.028,-1.3545805940483004e-05,-52.403788867783895
2025-03-05 15:05:16.036,-2.0461270487385168e-05,-54.28729018480301
2025-03-05 15:05:16.044,-2.7694004640244284e-05,-56.02009002177854
2025-03-05 15:05:16.052,-3.526228478922604e-05,-57.51869914993544
2025-03-05 15:05:16.060,-4.316806450999345e-05,-58.69363431089839
2025-03-05 15:05:16.067,-5.139415162974249e-05,-59.45153024616561
2025-03-05 15:05:16.075,-5.990195267904016e-05,-59.697603866793685
2025-03-05 15:05:16.083,-6.862989705372646e-05,-59.33841376100273
2025-03-05 15:05:16.091,-7.749263924455916e-05,-58.28484114935343
2025-03-05 15:05:16.099,-8.638111923007487e-05,-56.45520271428983
2025-03-05 15:05:16.106,-9.516353863568508e-05,-53.77839233351258
2025-03-05 15:05:16.114,-0.0001036872837845,-50.196938530665456
2025-03-05 15:05:16.122,-0.0001117817967504,-45.66985828519754
2025-03-05 15:05:16.130,-0.0001192623626374,-40.17518647893391
2025-03-05 15:05:16.138,-0.0001259347464474,-33.71206428797291
2025-03-05 15:05:16.145,-0.0001316005771811,-26.30227959833129
2025-03-05 15:05:16.153,-0.000136063341587,-17.991168064451006
2025-03-05 15:05:16.161,-0.0001391348167693,-8.847804399409595
2025-03-05 15:05:16.169,-0.0001406417413779,1.0355608711890865
2025-03-05 15:05:16.177,-0.0001404325011637,11.544834800129324
2025-03-05 15:05:16.185,-0.0001383835881468,22.54616996923565
2025-03-05 15:05:16.192,-0.0001344055853991,33.88875986839698
2025-03-05 15:05:16.200,-0.0001284484332427,45.40826439757204
2025-03-05 15:05:16.208,-0.0001205057491361,56.93076098769125
2025-03-05 15:05:16.216,-0.0001106180039833,68.27709394456882
2025-03-05 15:05:16.224,-9.887440304567136e-05,79.26747701385368
2025-03-05 15:05:16.231,-8.541337896637115e-05,89.72619249886579
2025-03-05 15:05:16.239,-7.04216679372211e-05,99.4862249638002
2025-03-05 15:05:16.247,-5.413198490179975e-05,108.393668880768
2025-03-05 15:05:16.255,-3.6819317737340935e-05,116.3117575798542
2025-03-05 15:05:16.263,-1.879582731362482e-05,123.1243752867642
2025-03-05 15:05:16.270,-4.043061211848444e-07,128.73893428216206
2025-03-05 15:05:16.278,1.79898384218622e-05,133.08852435803058
2025-03-05 15:05:16.286,3.600801679285415e-05,136.13327057654325
2025-03-05 15:05:16.294,5.3269086412438336e-05,137.86086645982508
2025-03-05 15:05:16.302,6.940078924853046e-05,138.28628164922964
2025-03-05 15:05:16.310,8.405150817145907e-05,137.45067424778838
2025-03-05 15:05:16.317,9.69018424535148e-05,135.41956705613055
2025-03-05 15:05:16.325,0.0001076755439385,132.2803724570823
2025-03-05 15:05:16.333,0.0001161493883866,128.13937176214966
2025-03-05 15:05:16.341,0.0001221615718924,123.11827064704296
2025-03-05 15:05:16.349,0.0001256182557617,117.3504624142692
2025-03-05 15:05:16.356,0.0001264979572375,110.97713507600209
2025-03-05 15:05:16.364,0.000124853585083,104.14335679626232
2025-03-05 15:05:16.372,0.0001208120264071,96.994267483264
2025-03-05 15:05:16.380,0.0001145712937724,89.67149291718746
2025-03-05 15:05:16.388,0.000106395337435,82.3098825392501
2025-03-05 15:05:16.395,9.660671627230944e-05,75.03465383202156
2025-03-05 15:05:16.403,8.557740240058704e-05,67.95900606775855
2025-03-05 15:05:16.411,7.371806690179803e-05,61.18224508300042
2025-03-05 15:05:16.419,6.146624752836626e-05,54.78843961374501
2025-03-05 15:05:16.427,4.927381272338436e-05,48.84560948552322
2025-03-05 15:05:16.435,3.7594097925867664e-05,43.40542737975258
2025-03-05 15:05:16.442,2.686902533291878e-05,38.50339963583316
2025-03-05 15:05:16.450,1.7516475683919436e-05,34.15947807670096
2025-03-05 15:05:16.458,9.918183007720942e-06,30.379044466089685
2025-03-05 15:05:16.466,4.408447197581514e-06,27.15420204616964
2025-03-05 15:05:16.474,1.263960420284995e-06,24.46530463256368
2025-03-05 15:05:16.481,6.949972953492405e-07,22.28265279206606
2025-03-05 15:05:16.489,2.8381463581077377e-06,20.568288420814547
2025-03-05 15:05:16.497,7.750707424507195e-06,19.277823221903287
2025-03-05 15:05:16.505,1.540686811724088e-05,18.36224274356744
2025-03-05 15:05:16.513,2.5695787336930834e-05,17.769635344030224
2025-03-05 15:05:16.520,3.842172886998237e-05,17.446804244043246
2025-03-05 15:05:16.528,5.330639083872711e-05,17.340730254702425
2025-03-05 15:05:16.536,6.99935611254443e-05,17.399862371300223
2025-03-05 15:05:16.544,8.805619240464216e-05,17.575222766104368
2025-03-05 15:05:16.552,0.0001070059310874,17.821321392476655
2025-03-05 15:05:16.560,0.0001263050514984,18.096883085479064
2025-03-05 15:05:16.567,0.0001453806403701,18.36539644410708
2025-03-05 15:05:16.575,0.0001636407489747,18.595498734222367
2025-03-05 15:05:16.583,0.0001804920856124,18.76121448015859
2025-03-05 15:05:16.591,0.000195358673876,18.84206732247039
2025-03-05 15:05:16.599,0.0002077007800572,18.82308518590088
2025-03-05 15:05:16.606,0.0002170333456843,18.69471796129605
2025-03-05 15:05:16.614,0.0002229431603336,18.452684944986373
2025-03-05 15:05:16.622,0.0002251040678172,18.09776642864933
2025-03-05 15:05:16.630,0.0002232895934081,17.635550350897432
2025-03-05 15:05:16.638,0.0002173824783411,17.076141081151924
2025-03-05 15:05:16.646,0.0002073806881284,16.433833478085656
2025-03-05 15:05:16.653,0.0001933995348127,15.726751610015878
2025-03-05 15:05:16.661,0.0001756696583834,14.976448188767012
2025-03-05 15:05:16.669,0.0001545307816683,14.207458078221952
2025-03-05 15:05:16.677,0.0001304213851977,13.446797395360834
2025-03-05 15:05:16.685,0.0001038647078844,12.723398893191332
2025-03-05 15:05:16.692,7.545171553800826e-05,12.067474629163591
2025-03-05 15:05:16.700,4.582185367402477e-05,11.509798459923829
2025-03-05 15:05:16.708,1.564249971882639e-05,11.080903688845371
2025-03-05 15:05:16.716,-1.4411948059406611e-05,10.81019518655218
2025-03-05 15:05:16.724,-4.36804603045854e-05,10.724980393788604
2025-03-05 15:05:16.731,-7.153447506471544e-05,10.8494296143825
2025-03-05 15:05:16.739,-9.739508251363632e-05,11.203482658253249
2025-03-05 15:05:16.747,-0.0001207478258745,11.80172588086583
2025-03-05 15:05:16.755,-0.0001411547920138,12.652270611011152
2025-03-05 15:05:16.763,-0.0001582637949574,13.755670449159172
2025-03-05 15:05:16.771,-0.0001718145697905,15.103920526214957
2025-03-05 15:05:16.778,-0.0001816419923345,16.679586122771923
2025-03-05 15:05:16.786,-0.0001876764220378,18.45511067944664
2025-03-05 15:05:16.794,-0.0001899413329742,20.39235383859361
2025-03-05 15:05:16.802,-0.0001885484527597,22.44240845403245
2025-03-05 15:05:16.810,-0.0001836906741842,24.54574125871388
2025-03-05 15:05:16.817,-0.0001756330423383,26.63269494884889
2025-03-05 15:05:16.825,-0.0001647021540386,28.62437980144161
2025-03-05 15:05:16.833,-0.0001512743393537,30.433970703382016
2025-03-05 15:05:16.841,-0.000135763029627,31.96841089944976
2025-03-05 15:05:16.849,-0.0001186057530756,33.130507287046115
2025-03-05 15:05:16.856,-0.000100251229585,33.821384275062904
2025-03-05 15:05:16.864,-8.114703916146005e-05,33.94324480065999
2025-03-05 15:05:16.872,-6.172829257650587e-05,33.40236889507885
2025-03-05 15:05:16.880,-4.2407641024670935e-05,32.11226313131723
2025-03-05 15:05:16.888,-2.3566851075625808e-05,29.996859353265947
2025-03-05 15:05:16.896,-5.550068956409617e-06,26.99364927594991
2025-03-05 15:05:16.903,1.134118408629556e-05,23.05663382292112
2025-03-05 15:05:16.911,2.6851310110316757e-05,18.158963290311345
2025-03-05 15:05:16.919,4.077231367832383e-05,12.295147276576763
2025-03-05 15:05:16.927,5.294400819660856e-05,5.4827222063154695
2025-03-05 15:05:16.935,6.325293783374721e-05,-2.236720724700447
2025-03-05 15:05:16.942,7.163022739144091e-05,-10.797223585225613
2025-03-05 15:05:16.950,7.804859225492411e-05,-20.108916355408603
2025-03-05 15:05:16.958,8.251874925870084e-05,-30.05925922269351
2025-03-05 15:05:16.966,8.50854410027664e-05,-40.51506165769485
2025-03-05 15:05:16.974,8.582322554705889e-05,-51.325234894018976
2025-03-05 15:05:16.981,8.483213053311545e-05,-62.32420310576958
2025-03-05 15:05:16.989,8.22332506415284e-05,-73.335870096365
2025-03-05 15:05:16.997,7.816436937074777e-05,-84.17801409154715
2025-03-05 15:05:17.005,7.277569077627798e-05,-94.6669643218789
2025-03-05 15:05:17.013,6.62257655475215e-05,-104.62240021145436
2025-03-05 15:05:17.021,5.8677688349810814e-05,-113.87210765693013
2025-03-05 15:05:17.028,5.029563116349927e-05,-122.25652740458268
2025-03-05 15:05:17.036,4.124176187536767e-05,-129.63293800287917
2025-03-05 15:05:17.044,3.1673580047319915e-05,-135.87912998590798
2025-03-05 15:05:17.052,2.1741683939175803e-05,-140.89644821354833
2025-03-05 15:05:17.060,1.1587965694899603e-05,-144.6121046875772
2025-03-05 15:05:17.067,1.3442161391407322e-06,-146.98069341899733
2025-03-05 15:05:17.075,-8.868892304455546e-06,-147.9848705746226
2025-03-05 15:05:17.083,-1.8942485869167063e-05,-147.63519560818895
2025-03-05 15:05:17.091,-2.8779880480840503e-05,-145.96916081230603
2025-03-05 15:05:17.099,-3.829673385229939e-05,-143.04946624436846
2025-03-05 15:05:17.106,-4.742100804001192e-05,-138.961623001535
2025-03-05 15:05:17.114,-5.6092787739004e-05,-133.81098931715954
2025-03-05 15:05:17.122,-6.426399269842986e-05,-127.71936018374008
2025-03-05 15:05:17.130,-7.189801362804095e-05,-120.82124174389568
2025-03-05 15:05:17.138,-7.896929061189244e-05,-113.2599464079862
2025-03-05 15:05:17.146,-8.546284222027687e-05,-105.18364372087122
2025-03-05 15:05:17.153,-9.13737431390116e-05,-96.74149582877966
2025-03-05 15:05:17.161,-9.670653915598736e-05,-88.07999561355267
2025-03-05 15:05:17.169,-0.0001014745816707,-79.33961094671896
2025-03-05 15:05:17.177,-0.0001056992603686,-70.65182095871687
2025-03-05 15:05:17.185,-0.0001094091130678,-62.13661066123531
2025-03-05 15:05:17.192,-0.0001126387965978,-53.90046964733471
2025-03-05 15:05:17.200,-0.0001154279123341,-46.03491983022949
2025-03-05 15:05:17.208,-0.000117819694905,-38.61557710228759
2025-03-05 15:05:17.216,-0.000119859592614,-31.70173313678355
2025-03-05 15:05:17.224,-0.0001215937930344,-25.33642692794742
2025-03-05 15:05:17.231,-0.0001230677749236,-19.546961541160385
2025-03-05 15:05:17.239,-0.0001243249876554,-14.345810249880062
2025-03-05 15:05:17.247,-0.0001254057501989,-9.731847950309572
2025-03-05 15:05:17.255,-0.0001263464109143,-5.6918385159136005
2025-03-05 15:05:17.263,-0.0001271787404234,-2.2021065105643065
2025-03-05 15:05:17.271,-0.00012792948117,0.769677750313117
2025-03-05 15:05:17.278,-0.0001286199527051,3.2626676756637187
2025-03-05 15:05:17.286,-0.0001292655862883,5.321026950488828
2025-03-05 15:05:17.294,-0.0001298752389133,6.992188528822696
2025-03-05 15:05:17.302,-0.0001304501522399,8.325232870005637
2025-03-05 15:05:17.310,-0.0001309824969589,9.36942272881927
2025-03-05 15:05:17.317,-0.0001314535605502,10.172921862535569
2025-03-05 15:05:17.325,-0.0001318317610267,10.781715077119843
2025-03-05 15:05:17.333,-0.0001320707639313,11.238737535215384
2025-03-05 15:05:17.341,-0.0001321080166644,11.5832125755104
2025-03-05 15:05:17.349,-0.000131863991791,11.850189758704468
2025-03-05 15:05:17.356,-0.0001312423712925,12.070268676865446
2025-03-05 15:05:17.364,-0.0001301313236265,12.269489355660074
2025-03-05 15:05:17.372,-0.0001284059262465,12.469366864293484
2025-03-05 15:05:17.380,-0.0001259316813487,12.687045968227563
2025-03-05 15:05:17.388,-0.0001225690017527,12.935551189485404
2025-03-05 15:05:17.396,-0.0001181785324472,13.22410829746939
2025-03-05 15:05:17.403,-0.0001126271975296,13.558514820517878
2025-03-05 15:05:17.411,-0.0001057948757876,13.94153940947414
2025-03-05 15:05:17.419,-9.758157994995792e-05,14.3733325677181
2025-03-05 15:05:17.427,-8.791493499082277e-05,14.85183417511689
2025-03-05 15:05:17.435,-7.675763185362628e-05,15.373166195395
2025-03-05 15:05:17.442,-6.411440628697485e-05,15.932001826763996
2025-03-05 15:05:17.450,-5.0037996975301945e-05,16.521905035032788
2025-03-05 15:05:17.458,-3.463350903886809e-05,17.1356368311805
2025-03-05 15:05:17.466,-1.8060665924199382e-05,17.76542677590494
2025-03-05 15:05:17.474,-5.335535136191462e-07,18.40320997548769
2025-03-05 15:05:17.481,1.7682393164442488e-05,19.040831246288786
2025-03-05 15:05:17.489,3.627624281710106e-05,19.67021914993626
2025-03-05 15:05:17.497,5.490013394963184e-05,20.28353323739484
2025-03-05 15:05:17.505,7.318019515144944e-05,20.873288113567856
2025-03-05 15:05:17.513,9.07292681625912e-05,21.4324578986418
2025-03-05 15:05:17.521,0.0001071607716028,21.954564391179897
2025-03-05 15:05:17.528,0.0001221029933407,22.433751807484064
2025-03-05 15:05:17.536,0.0001352130778315,22.864850445698885
2025-03-05 15:05:17.544,0.0001461899939726,23.243431045788736
2025-03-05 15:05:17.552,0.0001547858538629,23.56585101765299
2025-03-05 15:05:17.560,0.000160815079031,23.8292931133927
2025-03-05 15:05:17.567,0.0001641610269539,24.031796548246746
2025-03-05 15:05:17.575,0.0001647797873488,24.17228004686241
2025-03-05 15:05:17.583,0.0001627009685931,24.25055582418625
2025-03-05 15:05:17.591,0.0001580254402856,24.267333124835854
2025-03-05 15:05:17.599,0.0001509201636569,24.2242096743251
2025-03-05 15:05:17.606,0.0001416104036512,24.12364928344027
2025-03-05 15:05:17.614,0.0001303697628204,23.968943935885296
2025-03-05 15:05:17.622,0.000117508603998,23.76415900440286
2025-03-05 15:05:17.630,0.0001033615327092,23.51406077873699
2025-03-05 15:05:17.638,8.82746803556451e-05,23.224026216297304
2025-03-05 15:05:17.646,7.25935436582535e-05,22.89993568483758
2025-03-05 15:05:17.653,5.665208093201228e-05,22.548050382749707
2025-03-05 15:05:17.661,4.076365584737259e-05,22.17487702023811
2025-03-05 15:05:17.669,2.5214273472465985e-05,21.787023153755943
2025-03-05 15:05:17.677,1.0258363823246816e-05,21.39104722717885
2025-03-05 15:05:17.685,-3.882871686243137e-06,20.993307835537777
2025-03-05 15:05:17.692,-1.702079156757252e-05,20.599816949686783
2025-03-05 15:05:17.700,-2.899678238639566e-05,20.21610180205422
2025-03-05 15:05:17.708,-3.967846564503548e-05,19.847079847000447
2025-03-05 15:05:17.716,-4.8955297564639536e-05,19.49695072080676
2025-03-05 15:05:17.724,-5.6734185046488606e-05,19.169108498472177
2025-03-05 15:05:17.731,-6.293565415239277e-05,18.86607683030908
2025-03-05 15:05:17.739,-6.749099178125754e-05,18.58946876952644
2025-03-05 15:05:17.747,-7.034065210445782e-05,18.33997228147252
2025-03-05 15:05:17.755,-7.143408426690638e-05,18.11736156191413
2025-03-05 15:05:17.763,-7.073100287951767e-05,17.920533403088175
2025-03-05 15:05:17.771,-6.820399390109895e-05,17.747566963986483
2025-03-05 15:05:17.778,-6.384223140991017e-05,17.595804465364942
2025-03-05 15:05:17.786,-5.765598090918456e-05,17.461949582662097
2025-03-05 15:05:17.794,-4.968148708846008e-05,17.34217969515022
2025-03-05 15:05:17.802,-3.998579259708387e-05,17.232267711858018
2025-03-05 15:05:17.810,-2.86710127952086e-05,17.127708973360395
2025-03-05 15:05:17.817,-1.5877602117396968e-05,17.023848746386292
2025-03-05 15:05:17.825,-1.7861920599964422e-06,16.91600608400341
2025-03-05 15:05:17.833,1.338234080157261e-05,16.79959029234765
2025-03-05 15:05:17.841,2.9368806836052655e-05,16.670206881392414
2025-03-05 15:05:17.849,4.58797246031836e-05,16.523750625992506
2025-03-05 15:05:17.856,6.259336334628748e-05,16.35648416263515
2025-03-05 15:05:17.864,7.916759057811146e-05,16.16510133648385
2025-03-05 15:05:17.872,9.524918808444714e-05,15.946775239876764
2025-03-05 15:05:17.880,0.0001104841987381,15.699191508731127
2025-03-05 15:05:17.888,0.0001245287751881,15.420567946821611
2025-03-05 15:05:17.896,0.0001370599457083,15.109661928006592
2025-03-05 15:05:17.903,0.0001477857304007,14.765767294373276
2025-03-05 15:05:17.911,0.0001564541310148,14.388702636999074
2025-03-05 15:05:17.919,0.0001628606419324,13.978792921724889
2025-03-05 15:05:17.927,0.0001668540545207,13.536846404009772
2025-03-05 15:05:17.935,0.0001683404381566,13.064128663112715
2025-03-05 15:05:17.942,0.0001672852754992,12.56233538103047
2025-03-05 15:05:17.950,0.0001637138063227,12.03356520753186
2025-03-05 15:05:17.958,0.000157709693523,11.48029370475176
2025-03-05 15:05:17.966,0.0001494121676528,10.90534896788019
2025-03-05 15:05:17.974,0.0001390118339873,10.311889084980702
2025-03-05 15:05:17.981,0.0001267453406599,9.703381142269777
2025-03-05 15:05:17.989,0.0001128891101317,9.083581020599008
2025-03-05 15:05:17.997,9.775233168266311e-05,8.456512792009066
2025-03-05 15:05:18.005,8.166940228278703e-05,7.82644614566084
2025-03-05 15:05:18.013,6.499198959396824e-05,7.197869983942499
2025-03-05 15:05:18.021,4.80808762111504e-05,6.575460159453018
2025-03-05 15:05:18.028,3.1297730515395736e-05,5.964039290100436
2025-03-05 15:05:18.036,1.4996938195735044e-05,5.36852670700642
2025-03-05 15:05:18.044,-4.82379352332788e-07,4.793876878504269
2025-03-05 15:05:18.052,-1.4824037405086889e-05,4.245005142370598
2025-03-05 15:05:18.060,-2.774202860673316e-05,3.72670029377092
2025-03-05 15:05:18.067,-3.8987205981718855e-05,3.2435245216774216
2025-03-05 15:05:18.075,-4.835327632464594e-05,2.799702327795732
2025-03-05 15:05:18.083,-5.568196517078632e-05,2.3990013246435877
2025-03-05 15:05:18.091,-6.086720859787008e-05,2.0446090833253017
2025-03-05 15:05:18.099,-6.3858224147219e-05,1.7390113531686
2025-03-05 15:05:18.106,-6.466131540383976e-05,1.4838778655636935
2025-03-05 15:05:18.114,-6.334027447909966e-05,1.2799624388645732
2025-03-05 15:05:18.122,-6.001526591426487e-05,1.1270241282243871
2025-03-05 15:05:18.130,-5.486010623018346e-05,1.023775666332956
2025-03-05 15:05:18.138,-4.8097896959462966e-05,0.9678644239866256
2025-03-05 15:05:18.146,-3.9995026469039965e-05,0.9558896466241498
2025-03-05 15:05:18.153,-3.0853627542223445e-05,0.983457909482391
2025-03-05 15:05:18.161,-2.1002663148529067e-05,1.0452767280179924
2025-03-05 15:05:18.169,-1.0787909279342052e-05,1.135284217424313
2025-03-05 15:05:18.177,-5.611994673039887e-07,1.2468107552348353
2025-03-05 15:05:18.185,9.330634449390069e-06,1.3727668747260564
2025-03-05 15:05:18.192,1.85566711533727e-05,1.5058501862772051
2025-03-05 15:05:18.200,2.681223515566156e-05,1.6387630516605591
2025-03-05 15:05:18.208,3.382829491005236e-05,1.764432071582265
2025-03-05 15:05:18.216,3.937963150127288e-05,1.8762202237462025
2025-03-05 15:05:18.224,4.329156900992156e-05,1.9681227207341416
2025-03-05 15:05:18.231,4.544514135178912e-05,2.034938333571634
2025-03-05 15:05:18.239,4.578061723948426e-05,2.0724090149826297
2025-03-05 15:05:18.247,4.429929246465375e-05,2.077322104393664
2025-03-05 15:05:18.255,4.106341420303043e-05,2.04757113741434
2025-03-05 15:05:18.263,3.61940753303687e-05,1.982173234622474
2025-03-05 15:05:18.271,2.9866942430074503e-05,1.8812431140864911
2025-03-05 15:05:18.278,2.2305772392171927e-05,1.74592585204216
2025-03-05 15:05:18.286,1.3773820268552766e-05,1.5782924860103684
2025-03-05 15:05:18.294,4.5634177911043045e-06,1.3812042869504706
2025-03-05 15:05:18.302,-5.015821258842732e-06,1.158152904770095
2025-03-05 15:05:18.310,-1.4649561856038276e-05,0.9130845303191132
2025-03-05 15:05:18.317,-2.4031379806620545e-05,0.6502166787709183
2025-03-05 15:05:18.325,-3.287478167088069e-05,0.3738561895212789
2025-03-05 15:05:18.333,-4.092402936791627e-05,0.0882265925454519
2025-03-05 15:05:18.341,-4.796330491352801e-05,-0.2026878346506343
2025-03-05 15:05:18.349,-5.3823826931233934e-05,-0.4952751342569808
2025-03-05 15:05:18.356,-5.8388585411105385e-05,-0.7864010490754602
2025-03-05 15:05:18.364,-6.159447231187188e-05,-1.073483434078128
2025-03-05 15:05:18.372,-6.343179301190839e-05,-1.354534012080936
2025-03-05 15:05:18.380,-6.39413975831239e-05,-1.6281673747468686
2025-03-05 15:05:18.388,-6.32098743812889e-05,-1.8935786432504975
2025-03-05 15:05:18.396,-6.136334056993773e-05,-2.150492590413705
2025-03-05 15:05:18.403,-5.856035482378645e-05,-2.399088247882898
2025-03-05 15:05:18.411,-5.4984412717368975e-05,-2.6399040409725565
2025-03-05 15:05:18.419,-5.0836401778473975e-05,-2.873729271846788
2025-03-05 15:05:18.427,-4.632730669817277e-05,-3.1014882720291523
2025-03-05 15:05:18.435,-4.167137156992032e-05,-3.324123739764713
2025-03-05 15:05:18.442,-3.7079849041874616e-05,-3.5424856531809503
2025-03-05 15:05:18.450,-3.27553991175692e-05,-3.757231709899465
2025-03-05 15:05:18.458,-2.888714559637442e-05,-3.968744506236793
2025-03-05 15:05:18.466,-2.5646357666747363e-05,-4.177069667056632
2025-03-05 15:05:18.474,-2.318269906763789e-05,-4.381877920153309
2025-03-05 15:05:18.481,-2.1620977874649896e-05,-4.582452745432147
2025-03-05 15:05:18.489,-2.1058335959895964e-05,-4.777703803534522
2025-03-05 15:05:18.497,-2.156183741960891e-05,-4.966204951655646
2025-03-05 15:05:18.505,-2.31664480098201e-05,-5.146254371587461
2025-03-05 15:05:18.513,-2.587344054988781e-05,-5.3159532362364335
2025-03-05 15:05:18.521,-2.9649311536795463e-05,-5.473298473756529
2025-03-05 15:05:18.528,-3.4425347052991105e-05,-5.61628457986042
2025-03-05 15:05:18.536,-4.009801832971027e-05,-5.743009091622673
2025-03-05 15:05:18.544,-4.653039489079696e-05,-5.851776274773815
2025-03-05 15:05:18.552,-5.355471970627957e-05,-5.941193788603203
2025-03-05 15:05:18.560,-6.09762095081842e-05,-6.010257565440764
2025-03-05 15:05:18.567,-6.85780505317511e-05,-6.058420847131228
2025-03-05 15:05:18.575,-7.61274675256009e-05,-6.085644212275732
2025-03-05 15:05:18.583,-8.338266251696086e-05,-6.092424443181428
2025-03-05 15:05:18.591,-9.010036640389976e-05,-6.079801150248304
2025-03-05 15:05:18.599,-9.604371428461956e-05,-6.049341122818655
2025-03-05 15:05:18.606,-0.0001009901178288,-6.003101344349099
2025-03-05 15:05:18.614,-0.0001047387681036,-5.943572446976728
2025-03-05 15:05:18.622,-0.0001071173978647,-5.873605062132126
2025-03-05 15:05:18.630,-0.000107987985562,-5.796322051653231
2025-03-05 15:05:18.638,-0.0001072511802977,-5.715019994062456
2025-03-05 15:05:18.646,-0.0001048493426765,-5.633063567559577
2025-03-05 15:05:18.653,-0.0001007682086356,-5.553776618298575
2025-03-05 15:05:18.661,-9.503726510828304e-05,-5.48033372538472
2025-03-05 15:05:18.669,-8.772895386832876e-05,-5.415655969968015
2025-03-05 15:05:18.677,-7.895679576347024e-05,-5.362314390403911
2025-03-05 15:05:18.685,-6.887248570507817e-05,-5.322444273984096
2025-03-05 15:05:18.692,-5.766198865516672e-05,-5.297673020516344
2025-03-05 15:05:18.700,-4.55406808976637e-05,-5.289063839100336
2025-03-05 15:05:18.708,-3.2747609188752005e-05,-5.297077030139532
2025-03-05 15:05:18.716,-1.9538960690128765e-05,-5.321550077741238
2025-03-05 15:05:18.724,-6.1808495187938025e-06,-5.361697242963391
2025-03-05 15:05:18.731,7.0584533894109385e-06,-5.416128807052291
2025-03-05 15:05:18.739,1.9916675246247003e-05,-5.482889560322024
2025-03-05 15:05:18.747,3.214582805039012e-05,-5.559515558822438
2025-03-05 15:05:18.755,4.352026898481133e-05,-5.64310757371882
2025-03-05 15:05:18.763,5.384409820185549e-05,-5.730419044858504
2025-03-05 15:05:18.771,6.295745460979161e-05,-5.817955744654219
2025-03-05 15:05:18.778,7.074134377138842e-05,-5.9020838027899325
2025-03-05 15:05:18.786,7.712074473427252e-05,-5.979142287994783
2025-03-05 15:05:18.794,8.206586092170077e-05,-6.045556239004961
2025-03-05 15:05:18.802,8.559149007721873e-05,-6.097945916570703
2025-03-05 15:05:18.810,8.775458591159898e-05,-6.133228125637235
2025-03-05 15:05:18.817,8.865016797879915e-05,-6.148705728963485
2025-03-05 15:05:18.825,8.840580538165215e-05,-6.142141928988744
2025-03-05 15:05:18.833,8.717495364127232e-05,-6.111816518373998
2025-03-05 15:05:18.841,8.512946235632295e-05,-6.056562072337744
2025-03-05 15:05:18.849,8.245159440481621e-05,-5.97577895223338
2025-03-05 15:05:18.856,7.932590599230078e-05,-5.869428972885638
2025-03-05 15:05:18.864,7.593133167225391e-05,-5.738008602185726
2025-03-05 15:05:18.872,7.2433800604814e-05,-5.582503539684401
2025-03-05 15:05:18.880,6.897968098001422e-05,-5.404327385080872
2025-03-05 15:05:18.888,6.569031002680584e-05,-5.205247793229773
2025-03-05 15:05:18.896,6.26578187578469e-05,-4.987303979365056
2025-03-05 15:05:18.903,5.9942405021499896e-05,-4.75271967068962
2025-03-05 15:05:18.911,5.757114705258705e-05,-4.503815599585785
2025-03-05 15:05:18.919,5.5538384077530674e-05,-4.242925413710914
2025-03-05 15:05:18.927,5.380762222062302e-05,-3.9723184682431487
2025-03-05 15:05:18.935,5.2314854598795695e-05,-3.694132410951605
2025-03-05 15:05:18.942,5.097311574721734e-05,-3.410317826810916
2025-03-05 15:05:18.950,4.967802409646312e-05,-3.122596527191453
2025-03-05 15:05:18.958,4.831400387604684e-05,-2.83243438479032
2025-03-05 15:05:18.966,4.676082296246923e-05,-2.541028944905486
2025-03-05 15:05:18.974,4.490004731824174e-05,-2.249311388146408
2025-03-05 15:05:18.981,4.26210198190128e-05,-1.9579617784265904
2025-03-05 15:05:18.989,3.982604407934991e-05,-1.6674359094028162
2025-03-05 15:05:18.997,3.643458831680845e-05,-1.3780014822542217
2025-03-05 15:05:19.005,3.238648321827729e-05,-1.0897808436050855
2025-03-05 15:05:19.013,2.7644220278614293e-05,-0.8027971324419576
2025-03-05 15:05:19.021,2.2194526404529864e-05,-0.5170204801683387
2025-03-05 15:05:19.028,1.604939336021524e-05,-0.2324109223095109
2025-03-05 15:05:19.036,9.24670050150438e-06,0.0510450592598969
2025-03-05 15:05:19.044,1.8505114622970036e-06,0.3333069369112499
2025-03-05 15:05:19.052,-6.048937098707151e-06,0.6142633282418264
2025-03-05 15:05:19.060,-1.433559903665093e-05,0.8937269400343465
2025-03-05 15:05:19.067,-2.2868438049280228e-05,1.171441262687594
2025-03-05 15:05:19.075,-3.1482859136669624e-05,1.4470980528605804
2025-03-05 15:05:19.083,-3.99929506601604e-05,1.720363766497336
2025-03-05 15:05:19.091,-4.819475480588056e-05,1.9909123772584476
2025-03-05 15:05:19.099,-5.5870756631666106e-05,2.2584614842002217
2025-03-05 15:05:19.106,-6.279568500178076e-05,2.522808308601185
2025-03-05 15:05:19.114,-6.874355750503122e-05,2.783862119909923
2025-03-05 15:05:19.122,-7.349571439770813e-05,3.0416698204992896
2025-03-05 15:05:19.130,-7.684942646306569e-05,3.296431855321769
2025-03-05 15:05:19.138,-7.862656744094597e-05,3.5485062818020507
2025-03-05 15:05:19.146,-7.86818192727923e-05,3.798399705697966
2025-03-05 15:05:19.153,-7.690990697352525e-05,4.046744804794793
2025-03-05 15:05:19.161,-7.325141707250019e-05,4.294265245541029
2025-03-05 15:05:19.169,-6.769682916240724e-05,4.541729854953618
2025-03-05 15:05:19.177,-6.028848183973335e-05,4.789898846482628
2025-03-05 15:05:19.185,-5.112030118891271e-05,5.0394656276624
2025-03-05 15:05:19.192,-4.033524054417059e-05,5.290998168103426
2025-03-05 15:05:19.200,-2.81205127105109e-05,5.544884031217208
2025-03-05 15:05:19.208,-1.4700837809018076e-05,5.801282958896301
2025-03-05 15:05:19.216,-3.300769635565262e-07,6.060090371533048
2025-03-05 15:05:19.224,1.4718238891141076e-05,6.32091436662168
2025-03-05 15:05:19.232,3.0160870850695944e-05,6.583067849365862
2025-03-05 15:05:19.239,4.571466634925115e-05,6.845576396502987
2025-03-05 15:05:19.247,6.110555519286903e-05,7.107201422537932
2025-03-05 15:05:19.255,7.607621382325214e-05,7.366477254622681
2025-03-05 15:05:19.263,9.039202760204706e-05,7.621759880547566
2025-03-05 15:05:19.271,0.0001038451946212,7.871284451323907
2025-03-05 15:05:19.278,0.0001162570452598,8.11322812515566
2025-03-05 15:05:19.286,0.0001274788574877,8.345774559255178
2025-03-05 15:05:19.294,0.0001373915814896,8.56717630878076
2025-03-05 15:05:19.302,0.0001459049090361,8.775811581355775
2025-03-05 15:05:19.310,0.000152956041945,8.970232206488795
2025-03-05 15:05:19.317,0.000158508393086,9.149200284920983
2025-03-05 15:05:19.325,0.0001625503459381,9.31171174881665
2025-03-05 15:05:19.333,0.0001650941069759,9.45700594603865
2025-03-05 15:05:19.341,0.0001661746026096,9.584561306337925
2025-03-05 15:05:19.349,0.0001658483181658,9.69407809097671
2025-03-05 15:05:19.357,0.000164191965251,9.785450100446258
2025-03-05 15:05:19.364,0.0001613008828987,9.858727945935058
2025-03-05 15:05:19.372,0.0001572871065926,9.914077014121215
2025-03-05 15:05:19.380,0.000152277068047,9.9517335241615
2025-03-05 15:05:19.388,0.0001464089160419,9.971962069275186
2025-03-05 15:05:19.396,0.0001398294748488,9.975017762617613
2025-03-05 15:05:19.403,0.0001326908819816,9.961115605913188
2025-03-05 15:05:19.411,0.000125146971231,9.930409026820518
2025-03-05 15:05:19.419,0.0001173494901677,9.8829787538845
2025-03-05 15:05:19.427,0.0001094442633703,9.81883238408528
2025-03-05 15:05:19.435,0.0001015674332537,9.737914210341073
2025-03-05 15:05:19.442,9.384192911987316e-05,9.640124167982515
2025-03-05 15:05:19.450,8.637433134156523e-05,9.525344171032776
2025-03-05 15:05:19.458,7.925230912482705e-05,9.393469670388864
2025-03-05 15:05:19.466,7.254280658750817e-05,9.244443996164378
2025-03-05 15:05:19.474,6.629111150448951e-05,9.078292954319013
2025-03-05 15:05:19.482,6.052085194588741e-05,8.895157228940294
2025-03-05 15:05:19.489,5.5234853682800245e-05,8.695320378441432
2025-03-05 15:05:19.497,5.041670475861568e-05,8.479230578094727
2025-03-05 15:05:19.505,4.603283833417036e-05,8.247514718112285
2025-03-05 15:05:19.513,4.20349483820456e-05,8.000983979737816
2025-03-05 15:05:19.521,3.8362573024227904e-05,7.740630545974133
2025-03-05 15:05:19.528,3.494570610104683e-05,7.467615622952338
2025-03-05 15:05:19.536,3.170732578062254e-05,7.183249416723531
2025-03-05 15:05:19.544,2.8565758172458173e-05,6.888964096302395
2025-03-05 15:05:19.552,2.543682258133257e-05,6.586281054714333
2025-03-05 15:05:19.560,2.2235731939286923e-05,6.276773946882811
2025-03-05 15:05:19.567,1.887874596105621e-05,5.962029041970539
2025-03-05 15:05:19.575,1.5284594756885226e-05,5.643604397080456
2025-03-05 15:05:19.583,1.1375706304403816e-05,5.322989268633659
2025-03-05 15:05:19.591,7.079281865786371e-06,5.001565061146652
2025-03-05 15:05:19.599,2.328268923366389e-06,4.680568999436257
2025-03-05 15:05:19.607,-2.937718470065847e-06,4.3610616160963485
2025-03-05 15:05:19.614,-8.771486596677603e-06,4.043899072301308
2025-03-05 15:05:19.622,-1.52173198618437e-05,3.729711262174196
2025-03-05 15:05:19.630,-2.2309985736344407e-05,3.418886564290537
2025-03-05 15:05:19.638,-3.0073678577196185e-05,3.111563971260777
2025-03-05 15:05:19.646,-3.852091129651024e-05,2.807633128447876
2025-03-05 15:05:19.653,-4.7651381763256216e-05,2.506742537168796
2025-03-05 15:05:19.661,-5.745085822951176e-05,2.208315835575372
2025-03-05 15:05:19.669,-6.78901437775703e-05,1.911575689557248
2025-03-05 15:05:19.677,-7.892419262782963e-05,1.6155744464352295
2025-03-05 15:05:19.685,-9.049146005214288e-05,1.3192303687800495
2025-03-05 15:05:19.692,-0.0001025135716548,1.0213680116869035
2025-03-05 15:05:19.700,-0.0001148953961399,0.7207611590059018
2025-03-05 15:05:19.708,-0.0001275255978207,0.4161766999685038
2025-03-05 15:05:19.716,-0.0001402777307423,0.1064178987531123
2025-03-05 15:05:19.724,-0.000153011915362,-0.2096343325822464
2025-03-05 15:05:19.732,-0.0001655771115512,-0.5329833251334364
2025-03-05 15:05:19.739,-0.0001778139688635,-0.864482615623964
2025-03-05 15:05:19.747,-0.0001895581974923,-1.2048066238745598
2025-03-05 15:05:19.755,-0.0002006443623793,-1.5544264574523143
2025-03-05 15:05:19.763,-0.0002109099601003,-1.9135910853420008
2025-03-05 15:05:19.771,-0.0002201995969043,-2.2823140235331216
2025-03-05 15:05:19.778,-0.0002283690583742,-2.660365639471492
2025-03-05 15:05:19.786,-0.0002352890694528,-3.047271190475265
2025-03-05 15:05:19.794,-0.0002408486015642,-3.4423147426586125
2025-03-05 15:05:19.802,-0.0002449576672926,-3.844549150656031
2025-03-05 15:05:19.810,-0.0002475496049994,-4.252812290131697
2025-03-05 15:05:19.817,-0.0002485828720984,-4.665749697104919
2025-03-05 15:05:19.825,-0.0002480423503615,-5.081843656904376
2025-03-05 15:05:19.833,-0.0002459401429619,-5.499448590302
2025-03-05 15:05:19.841,-0.0002423158233537,-5.916832310861124
2025-03-05 15:05:19.849,-0.0002372360846671,-6.3322223957955215
2025-03-05 15:05:19.857,-0.0002307937372721,-6.743856551642296
2025-03-05 15:05:19.864,-0.0002231060133519,-7.150035498092386
2025-03-05 15:05:19.872,-0.0002143121620402,-7.549176569329174
2025-03-05 15:05:19.880,-0.0002045703560401,-7.939865968792859
2025-03-05 15:05:19.888,-0.0001940539710665,-8.32090743305399
2025-03-05 15:05:19.896,-0.0001829473217527,-8.691364985750859
2025-03-05 15:05:19.903,-0.0001714409293434,-9.050597516935692
2025-03-05 15:05:19.911,-0.0001597263818809,-9.39828312581725
2025-03-05 15:05:19.919,-0.0001479908721806,-9.73443152039049
2025-03-05 15:05:19.927,-0.0001364115755491,-10.059383261748104
2025-03-05 15:05:19.935,-0.0001251501197246,-10.37379524700989
2025-03-05 15:05:19.942,-0.000114347455136,-10.678612510514258
2025-03-05 15:05:19.950,-0.0001041194326168,-10.975027151024983
2025-03-05 15:05:19.958,-9.455333792856356e-05,-11.264425916243402
2025-03-05 15:05:19.966,-8.570552933662562e-05,-11.548328637484625
2025-03-05 15:05:19.974,-7.760021181012008e-05,-11.828320247860852
2025-03-05 15:05:19.982,-7.022930980569977e-05,-12.105979488963396
2025-03-05 15:05:19.989,-6.355339288885604e-05,-12.382807587252582
2025-03-05 15:05:19.997,-5.750364102394319e-05,-12.660160160527123
2025-03-05 15:05:20.005,-5.198486285623962e-05,-12.939185418723616
2025-03-05 15:05:20.013,-4.68795659764551e-05,-13.22077138973778
2025-03-05 15:05:20.021,-4.2053020801379125e-05,-13.505504471085969
2025-03-05 15:05:20.028,-3.7359183284578106e-05,-13.793641113361325
2025-03-05 15:05:20.036,-3.264727102300638e-05,-14.085093897770038
2025-03-05 15:05:20.044,-2.776873422125343e-05,-14.379432683560545
2025-03-05 15:05:20.052,-2.258433058269676e-05,-14.675900877123311
2025-03-05 15:05:20.060,-1.697100249455563e-05,-14.973446223598083
2025-03-05 15:05:20.067,-1.0828264635942653e-05,-15.270764860547402
2025-03-05 15:05:20.075,-4.083830489129356e-06,-15.56635672295093
2025-03-05 15:05:20.083,3.301784214754481e-06,-15.858589777448934
2025-03-05 15:05:20.091,1.1331956897610156e-05,-16.14577003024316
2025-03-05 15:05:20.099,1.9972240973061e-05,-16.42621384690013
2025-03-05 15:05:20.107,2.9150489203320326e-05,-16.698318894787054
2025-03-05 15:05:20.114,3.875896401094682e-05,-16.96063000883751
2025-03-05 15:05:20.122,4.865841903764815e-05,-17.2118965046845
2025-03-05 15:05:20.130,5.868394616035187e-05,-17.451117910619736
2025-03-05 15:05:20.138,6.86521912897046e-05,-17.677575730901296
2025-03-05 15:05:20.146,7.836939097400932e-05,-17.890849643032727
2025-03-05 15:05:20.153,8.763962064259329e-05,-18.09081741906368
2025-03-05 15:05:20.161,9.627269724901876e-05,-18.27763879156744
2025-03-05 15:05:20.169,0.0001040913094661,-18.451724404042224
2025-03-05 15:05:20.177,0.0001109370860129,-18.613691838571004
2025-03-05 15:05:20.185,0.0001166754069995,-18.76431144757429
2025-03-05 15:05:20.192,0.0001211988231625,-18.90444528236825
2025-03-05 15:05:20.200,0.0001244290164733,-19.0349827679917
2025-03-05 15:05:20.208,0.0001263173345325,-19.156776892366107
2025-03-05 15:05:20.216,0.0001268440452785,-19.27058454536332
2025-03-05 15:05:20.224,0.0001260165624063,-19.377014268633403
2025-03-05 15:05:20.232,0.0001238669637147,-19.476484095549424
2025-03-05 15:05:20.239,0.0001204491405024,-19.569191431914835
2025-03-05 15:05:20.247,0.0001158358640579,-19.655096123209542
2025-03-05 15:05:20.255,0.0001101159614478,-19.733917039071383
2025-03-05 15:05:20.263,0.00010339170765,-19.805141731863003
2025-03-05 15:05:20.271,9.577649177996517e-05,-19.86804803227259
2025-03-05 15:05:20.278,8.739279156872118e-05,-19.92173586174896
2025-03-05 15:05:20.286,7.837047296111353e-05,-19.965167092485668
2025-03-05 15:05:20.294,6.884541229928982e-05,-19.99721098490948
2025-03-05 15:05:20.302,5.895841675259327e-05,-20.016692586332663
2025-03-05 15:05:20.310,4.8854395764240285e-05,-20.02244148230037
2025-03-05 15:05:20.317,3.868171358305372e-05,-20.01333844596589
2025-03-05 15:05:20.325,2.8591631606673465e-05,-19.988357810658016
2025-03-05 15:05:20.333,1.873773032172729e-05,-19.94660376452639
2025-03-05 15:05:20.341,9.275184960171075e-06,-19.887339194424605
2025-03-05 15:05:20.349,3.597572810878674e-07,-19.81000615033573
2025-03-05 15:05:20.357,-7.853641395816132e-06,-19.714237431380084
2025-03-05 15:05:20.364,-1.5212961762480328e-05,-19.599859193858688
2025-03-05 15:05:20.372,-2.157173353823482e-05,-19.466884850344343
2025-03-05 15:05:20.380,-2.679256734760504e-05,-19.31550087493517
2025-03-05 15:05:20.388,-3.075142230282477e-05,-19.14604545965228
2025-03-05 15:05:20.396,-3.334249974456658e-05,-18.958981275258665
2025-03-05 15:05:20.403,-3.448352237027767e-05,-18.754863857014016
2025-03-05 15:05:20.411,-3.412108219782111e-05,-18.534307333608112
2025-03-05 15:05:20.419,-3.2235668349367534e-05,-18.29794931779405
2025-03-05 15:05:20.427,-2.8845922148390487e-05,-18.04641676125136
2025-03-05 15:05:20.435,-2.4011652227346118e-05,-17.78029443949129
2025-03-05 15:05:20.442,-1.7835199709706185e-05,-17.500097487026537
2025-03-05 15:05:20.450,-1.0460859794979543e-05,-17.206249075257425
2025-03-05 15:05:20.458,-2.072217716982041e-06,-16.89906395220365
2025-03-05 15:05:20.466,7.112571001485709e-06,-16.578738183988463
2025-03-05 15:05:20.474,1.684734969230509e-05,-16.245345088122207
2025-03-05 15:05:20.482,2.6866019544528305e-05,-15.898837052515798
2025-03-05 15:05:20.489,3.689162739329409e-05,-15.53905270273509
2025-03-05 15:05:20.497,4.664598201958773e-05,-15.165728713899403
2025-03-05 15:05:20.505,5.585931254735485e-05,-14.77851545848374
2025-03-05 15:05:20.513,6.427952720887446e-05,-14.376995631201709
2025-03-05 15:05:20.521,7.168068168124934e-05,-13.96070499060801
2025-03-05 15:05:20.528,7.787032018270659e-05,-13.52915439639974
2025-03-05 15:05:20.536,8.269543108213271e-05,-13.081852391257346
2025-03-05 15:05:20.544,8.604687149337495e-05,-12.618327662483294
2025-03-05 15:05:20.552,8.786223498725193e-05,-12.138150806162052
2025-03-05 15:05:20.560,8.8127218038129e-05,-11.640954891792408
2025-03-05 15:05:20.567,8.687556018530836e-05,-11.126454378830992
2025-03-05 15:05:20.575,8.418761262184323e-05,-10.59446196217085
2025-03-05 15:05:20.583,8.018757848961305e-05,-10.04490291900419
2025-03-05 15:05:20.591,7.503949089384258e-05,-9.477826497707328
2025-03-05 15:05:20.599,6.894203970332978e-05,-8.893413839133766
2025-03-05 15:05:20.607,6.21224045936534e-05,-8.291981867676734
2025-03-05 15:05:20.614,5.482928969114198e-05,-7.673982556097855
2025-03-05 15:05:20.622,4.732538299496864e-05,-7.03999697882737
2025-03-05 15:05:20.630,3.987948165286752e-05,-6.390723642538811
2025-03-05 15:05:20.638,3.275853237940235e-05,-5.726960732426591
2025-03-05 15:05:20.646,2.6219835109722275e-05,-5.049582145865116
2025-03-05 15:05:20.653,2.0503647662101267e-05,-4.359507506119525
2025-03-05 15:05:20.661,1.5826410019589008e-05,-3.657666750076773
2025-03-05 15:05:20.669,1.2374779106152684e-05,-2.9449603373485345
2025-03-05 15:05:20.677,1.0300628897049248e-05,-2.222216584727436
2025-03-05 15:05:20.685,9.71712665854688e-06,-1.490148034135408
2025-03-05 15:05:20.692,1.0695944401323611e-05,-0.7493090692609928
2025-03-05 15:05:20.700,1.3265607312623904e-05,-5.7181572387321467e-05
2025-03-05 15:05:20.708,1.7410928255646235e-05,0.7574796578783117
2025-03-05 15:05:20.716,2.307345236416495e-05,1.5234271416593703
2025-03-05 15:05:20.724,3.0152860151127006e-05,2.298178122566588
2025-03-05 15:05:20.732,3.850934688179127e-05,3.082393671309867
2025-03-05 15:05:20.739,4.7967073079612325e-05,3.876990429581349
2025-03-05 15:05:20.747,5.831881549971372e-05,4.683113666994915
2025-03-05 15:05:20.755,6.933190402120614e-05,5.50209624416008
2025-03-05 15:05:20.763,8.075540603919183e-05,6.335404554211286
2025-03-05 15:05:20.771,9.23283437546022e-05,7.184573406977023
2025-03-05 15:05:20.778,0.0001037885409897,8.051132672500007
2025-03-05 15:05:20.786,0.0001148815434808,8.936529250430292
2025-03-05 15:05:20.794,0.0001253689925794,9.842048515995334
2025-03-05 15:05:20.802,0.0001350358821056,10.76873975183829
2025-03-05 15:05:20.810,0.0001436962674445,11.717350157020077
2025-03-05 15:05:20.817,0.0001511971747638,12.68827179701017
2025-03-05 15:05:20.825,0.0001574206382612,13.681505313175023
2025-03-05 15:05:20.833,0.0001622839578299,14.696643362784169
2025-03-05 15:05:20.841,0.0001657384106333,15.732875646224484
2025-03-05 15:05:20.849,0.000167766754487,16.789016050449025
2025-03-05 15:05:20.857,0.0001683799053943,17.863550971337705
2025-03-05 15:05:20.864,0.0001676131432145,18.95470636951952
2025-03-05 15:05:20.872,0.0001655221238986,20.060529677545848
2025-03-05 15:05:20.880,0.0001621789040725,21.178981430670248
2025-03-05 15:05:20.888,0.0001576681410383,22.30803055511639
2025-03-05 15:05:20.896,0.0001520836084074,23.44574671852577
2025-03-05 15:05:20.903,0.0001455251454466,24.59038309957696
2025-03-05 15:05:20.911,0.0001380961288663,25.74044339565288
2025-03-05 15:05:20.919,0.0001299015195496,26.894727838111844
2025-03-05 15:05:20.927,0.0001210464957277,28.052354360443815
2025-03-05 15:05:20.935,0.0001116356405499,29.21275276705863
2025-03-05 15:05:20.942,0.0001017726080632,30.375631653673956
2025-03-05 15:05:20.950,9.1560149481454e-05,31.540919789459963
2025-03-05 15:05:20.958,8.110034330588857e-05,32.70868553558773
2025-03-05 15:05:20.966,7.049484186189154e-05,33.87903950171064
2025-03-05 15:05:20.974,5.984493447296254e-05,35.05202690713791
2025-03-05 15:05:20.982,4.925125578758084e-05,36.22751692100079
2025-03-05 15:05:20.989,3.881304896444769e-05,37.40509654595484
2025-03-05 15:05:20.997,2.8627001899308973e-05,38.58397636633224
2025-03-05 15:05:21.005,1.878576094755811e-05,39.7629147332566
2025-03-05 15:05:21.013,9.376264711550797e-06,40.94016577678818
2025-03-05 15:05:21.021,4.780420071267588e-07,42.1134551192047
2025-03-05 15:05:21.028,-7.838395890449597e-06,43.27998542936565
2025-03-05 15:05:21.036,-1.5512958109104563e-05,44.43647212475573
2025-03-05 15:05:21.044,-2.2497084481552177e-05,45.57920771242623
2025-03-05 15:05:21.052,-2.8754501621505265e-05,46.70415157415109
2025-03-05 15:05:21.060,-3.4261591782114336e-05,47.8070405443498
2025-03-05 15:05:21.067,-3.900737243216682e-05,48.883514481471
2025-03-05 15:05:21.075,-4.299311723146583e-05,49.929250249112286
2025-03-05 15:05:21.083,-4.62316831723025e-05,50.94009713215037
2025-03-05 15:05:21.091,-4.874664354701404e-05,51.91220672530917
2025-03-05 15:05:21.099,-5.057135987940909e-05,52.842150738827264
2025-03-05 15:05:21.107,-5.174814766253688e-05,53.72702094058064
2025-03-05 15:05:21.114,-5.2327677695369287e-05,54.56450654597257
2025-03-05 15:05:21.122,-5.236868530591863e-05,55.35294570226795
2025-03-05 15:05:21.130,-5.193793862018048e-05,56.09134919779608
2025-03-05 15:05:21.138,-5.11102819928065e-05,56.77939605105107
2025-03-05 15:05:21.146,-4.9968473014912775e-05,57.41740209546885
2025-03-05 15:05:21.153,-4.8602507977993775e-05,58.006263985457664
2025-03-05 15:05:21.161,-4.710818438057414e-05,58.54738214475378
2025-03-05 15:05:21.169,-4.558475574048218e-05,59.04256701894439
2025-03-05 15:05:21.177,-4.413166730415165e-05,59.49393356221084
2025-03-05 15:05:21.185,-4.284450523095973e-05,59.903789188714974
2025-03-05 15:05:21.192,-4.181042998295783e-05,60.27452047229645
2025-03-05 15:05:21.200,-4.110346917260266e-05,60.6084837072443
2025-03-05 15:05:21.208,-4.078008932123335e-05,60.90790406158131
2025-03-05 15:05:21.216,-4.087544803363544e-05,61.174787467424494
2025-03-05 15:05:21.224,-4.140067109182404e-05,61.410848607938114
2025-03-05 15:05:21.232,-4.2341427264487774e-05,61.61745739943628
2025-03-05 15:05:21.239,-4.365799726728643e-05,61.79560527301649
2025-03-05 15:05:21.247,-4.528694607482268e-05,61.9458913941593
2025-03-05 15:05:21.255,-4.7144390760011e-05,62.06852779475309
2025-03-05 15:05:21.263,-4.913069956943232e-05,62.16336130761602
2025-03-05 15:05:21.271,-5.113628975898757e-05,62.229909262799126
2025-03-05 15:05:21.278,-5.304806291403597e-05,62.26740519210869
2025-03-05 15:05:21.286,-5.475595410178125e-05,62.274850341982656
2025-03-05 15:05:21.294,-5.6159065858011775e-05,62.25106664386911
2025-03-05 15:05:21.302,-5.717089842253543e-05,62.194746945934256
2025-03-05 15:05:21.310,-5.772328549137254e-05,62.1044987653376
2025-03-05 15:05:21.317,-5.776881631329526e-05,61.97887855330707
2025-03-05 15:05:21.325,-5.72817529653886e-05,61.81641442644285
2025-03-05 15:05:21.333,-5.6257672889485885e-05,61.61561642906998
2025-03-05 15:05:21.341,-5.471220536622237e-05,61.37497455582112
2025-03-05 15:05:21.349,-5.267924962322428e-05,61.09294587963685
2025-03-05 15:05:21.357,-5.020898302465106e-05,60.767933105045095
2025-03-05 15:05:21.364,-4.736583966755353e-05,60.39825762370317
2025-03-05 15:05:21.372,-4.422650249623049e-05,59.98213063568872
2025-03-05 15:05:21.380,-4.087783436647701e-05,59.517626090591065
2025-03-05 15:05:21.388,-3.741461286909267e-05,59.00265910102646
2025-03-05 15:05:21.396,-3.393696699818712e-05,58.4349731174008
2025-03-05 15:05:21.403,-3.054753012931073e-05,57.81213857216144
2025-03-05 15:05:21.411,-2.7348450603660308e-05,57.13156495455832
2025-03-05 15:05:21.419,-2.4438465340271323e-05,56.39052741241884
2025-03-05 15:05:21.427,-2.1910231021090403e-05,55.58620804635174
2025-03-05 15:05:21.435,-1.984805590400076e-05,54.71575111895221
2025-03-05 15:05:21.442,-1.8326115785791508e-05,53.77633050339428
2025-03-05 15:05:21.450,-1.740718327971506e-05,52.7652268941032
2025-03-05 15:05:21.458,-1.7141853518311035e-05,51.679911639602025
2025-03-05 15:05:21.466,-1.756821271884395e-05,50.51813356612927
2025-03-05 15:05:21.474,-1.871186940286181e-05,49.27800486114724
2025-03-05 15:05:21.482,-2.058625166667289e-05,47.95808198789595
2025-03-05 15:05:21.489,-2.319306757468996e-05,46.55743770593068
2025-03-05 15:05:21.497,-2.6522828934758235e-05,45.07572057218671
2025-03-05 15:05:21.505,-3.055535051644114e-05,43.51319877933889
2025-03-05 15:05:21.513,-3.5260155997561986e-05,41.8707858272388
2025-03-05 15:05:21.521,-4.059674713465615e-05,40.15004627737977
2025-03-05 15:05:21.528,-4.6514722224201365e-05,38.35318065619379
2025-03-05 15:05:21.536,-5.295376209852774e-05,36.482989394632845
2025-03-05 15:05:21.544,-5.984353485924122e-05,34.54281647003213
2025-03-05 15:05:21.552,-6.710360246076605e-05,32.53647411636705
2025-03-05 15:05:21.560,-7.464344134023622e-05,30.468150573158027
2025-03-05 15:05:21.567,-8.23627138839142e-05,28.342303353216195
2025-03-05 15:05:21.575,-9.01519461307437e-05,26.163540942549098
2025-03-05 15:05:21.583,-9.789377684327408e-05,23.936496225182427
2025-03-05 15:05:21.591,-0.0001054649332365,21.66569526823103
2025-03-05 15:05:21.599,-0.0001127390379493,19.355425410416675
2025-03-05 15:05:21.607,-0.000119590248737,17.009606855376372
2025-03-05 15:05:21.614,-0.0001258976032185,14.631672149653571
2025-03-05 15:05:21.622,-0.0001315498360853,12.224457984625143
2025-03-05 15:05:21.630,-0.0001364503821822,9.790113659051883
2025-03-05 15:05:21.638,-0.0001405222649649,7.330030236019788
2025-03-05 15:05:21.646,-0.0001437125757057,4.844793899064214
2025-03-05 15:05:21.653,-0.0001459962650137,2.334166252195386
2025-03-05 15:05:21.661,-0.0001473789932717,-0.202906663668019
2025-03-05 15:05:21.669,-0.0001478988204866,-2.7682560114274715
2025-03-05 15:05:21.677,-0.0001476265586758,-5.364423101363858
2025-03-05 15:05:21.685,-0.0001466646609345,-7.994565630473205
2025-03-05 15:05:21.693,-0.0001451445801749,-10.662340578033623
2025-03-05 15:05:21.700,-0.000143222596382,-13.37176844059813
2025-03-05 15:05:21.708,-0.0001410741829458,-16.127084687500652
2025-03-05 15:05:21.716,-0.0001388870587706,-18.93258529759402
2025-03-05 15:05:21.724,-0.0001368531516552,-21.7924739042847
2025-03-05 15:05:21.732,-0.0001351597777912,-24.71071834923714
2025-03-05 15:05:21.739,-0.000133980419747,-27.69092427231537
2025-03-05 15:05:21.747,-0.0001334655567146,-30.73623272170024
2025-03-05 15:05:21.755,-0.0001337340535484,-33.84924765737635
2025-03-05 15:05:21.763,-0.0001348656256058,-37.03199768293073
2025-03-05 15:05:21.771,-0.000136894850408,-40.285934460359584
2025-03-05 15:05:21.778,-0.0001398071163848,-43.611968170142
2025-03-05 15:05:21.786,-0.0001435368208497,-47.0105382299348
2025-03-05 15:05:21.794,-0.0001479680550671,-50.48171543548975
2025-03-05 15:05:21.802,-0.0001529379089096,-54.0253298714424
2025-03-05 15:05:21.810,-0.0001582423719829,-57.6411174617423
2025-03-05 15:05:21.818,-0.000163644619159,-61.32887696184357
2025-03-05 15:05:21.825,-0.0001688852743549,-65.0886285766919
2025-03-05 15:05:21.833,-0.0001736940724827,-68.92076522734733
2025-03-05 15:05:21.841,-0.0001778022156346,-72.82618776530786
2025-03-05 15:05:21.849,-0.0001809546724945,-76.80641610682822
2025-03-05 15:05:21.857,-0.0001829217012635,-80.86366927000668
2025-03-05 15:05:21.864,-0.000183508962373,-85.00090856658737
2025-03-05 15:05:21.872,-0.0001825657027495,-89.22183963622005
2025-03-05 15:05:21.880,-0.0001799906255962,-93.53087051670744
2025-03-05 15:05:21.888,-0.0001757352037482,-97.9330244252197
2025-03-05 15:05:21.896,-0.0001698043473596,-102.43380729437936
2025-03-05 15:05:21.903,-0.0001622544946332,-107.03903128829548
2025-03-05 15:05:21.911,-0.0001531893540707,-111.7545964688289
2025-03-05 15:05:21.919,-0.0001427536831692,-116.58623348586973
2025-03-05 15:05:21.927,-0.0001311256267019,-121.53921067024568
2025-03-05 15:05:21.935,-0.0001185082237373,-126.61800929848054
2025-03-05 15:05:21.943,-0.0001051206892121,-131.82597118404163
2025-03-05 15:05:21.950,-9.118998326433936e-05,-137.16492324363367
2025-03-05 15:05:21.958,-7.6943041788452e-05,-142.63478438800382
2025-03-05 15:05:21.966,-6.259989511554905e-05,-148.23316105909197
2025-03-05 15:05:21.974,-4.8367773897581645e-05,-153.95493899365093
2025-03-05 15:05:21.982,-3.443622965149257e-05,-159.79188029322333
2025-03-05 15:05:21.989,-2.0973310457974176e-05,-165.7322365195578
2025-03-05 15:05:21.997,-8.122894727752871e-06,-171.76039016510097
2025-03-05 15:05:22.005,3.99668684719193e-06,-177.85653829643536
2025-03-05 15:05:22.013,1.5292674820916772e-05,-183.99643326032177
2025-03-05 15:05:22.021,2.5696624129173337e-05,-190.15119592518909
2025-03-05 15:05:22.028,3.5162100262888405e-05,-196.28721688840284
2025-03-05 15:05:22.036,4.366168148787947e-05,-202.36616033049128
2025-03-05 15:05:22.044,5.118367058876932e-05,-208.34508369032775
2025-03-05 15:05:22.052,5.772891159029012e-05,-214.17668404395795
2025-03-05 15:05:22.060,6.33080645286791e-05,-219.80967899855904
2025-03-05 15:05:22.068,6.793961716073362e-05,-225.1893261061493
2025-03-05 15:05:22.075,7.164879875698556e-05,-230.25808034727743
2025-03-05 15:05:22.083,7.446742424872775e-05,-234.9563842604188
2025-03-05 15:05:22.091,7.643457697921109e-05,-239.22357995938023
2025-03-05 15:05:22.099,7.759796142825956e-05,-242.99892678355693
2025-03-05 15:05:22.107,7.801570749015609e-05,-246.2227028950261
2025-03-05 15:05:22.114,7.77583518780257e-05,-248.8373640358968
2025-03-05 15:05:22.122,7.691066280212408e-05,-250.78872817704857
2025-03-05 15:05:22.130,7.557295004421977e-05,-252.0271512247033
2025-03-05 15:05:22.138,7.386153685392235e-05,-252.5086565980886
2025-03-05 15:05:22.146,7.190814934099023e-05,-252.19598061731085
2025-03-05 15:05:22.153,6.985808003948332e-05,-251.05949646190595
2025-03-05 15:05:22.161,6.786709245069771e-05,-249.0779821163522
2025-03-05 15:05:22.169,6.60971477564773e-05,-246.23920224679125
2025-03-05 15:05:22.177,6.471114839473768e-05,-242.54028027255583
2025-03-05 15:05:22.185,6.386699240303902e-05,-237.9878447963811
2025-03-05 15:05:22.193,6.371129290914319e-05,-232.59794369
2025-03-05 15:05:22.200,6.437312379225553e-05,-226.39572900631623
2025-03-05 15:05:22.208,6.595812620558108e-05,-219.4149258788188
2025-03-05 15:05:22.216,6.854328778771538e-05,-211.6971079397601
2025-03-05 15:05:22.224,7.217268722376009e-05,-203.29080976428352
2025-03-05 15:05:22.232,7.68544453735032e-05,-194.25051272229985
2025-03-05 15:05:22.239,8.255902177521059e-05,-184.63554391380853
2025-03-05 15:05:22.247,8.921886736866265e-05,-174.5089284515792
2025-03-05 15:05:22.255,9.672933820941128e-05,-163.93623347675077
2025-03-05 15:05:22.263,0.0001049507259533,-152.984438433983
2025-03-05 15:05:22.271,0.0001137112710754,-141.72086087717346
2025-03-05 15:05:22.278,0.0001228110696402,-130.21216100804088
2025-03-05 15:05:22.286,0.0001320268366009,-118.52344180700234
2025-03-05 15:05:22.294,0.0001411175254705,-106.7174554699641
2025-03-05 15:05:22.302,0.0001498308007008,-94.85392130167806
2025-03-05 15:05:22.310,0.0001579103016939,-82.98895552428485
2025-03-05 15:05:22.318,0.0001651035506266,-71.17460982433008
2025-03-05 15:05:22.325,0.0001711702889236,-59.45851296800358
2025-03-05 15:05:22.333,0.0001758910047639,-47.883608453387936
2025-03-05 15:05:22.341,0.0001790754230839,-36.48798084667333
2025-03-05 15:05:22.349,0.000180570739614,-25.3047640007164
2025-03-05 15:05:22.357,0.0001802693612993,-14.362125550738996
2025-03-05 15:05:22.364,0.0001781158545029,-3.683323640980543
2025-03-05 15:05:22.372,0.0001741127264939,6.713166567149901
2025-03-05 15:05:22.380,0.0001683246253922,16.81345776455337
2025-03-05 15:05:22.388,0.0001608805655832,26.60798723801169
2025-03-05 15:05:22.396,0.0001519738582881,36.09118618911645
2025-03-05 15:05:22.403,0.000141859529199,45.261083507794
2025-03-05 15:05:22.411,0.0001308491259012,54.11884798292482
2025-03-05 15:05:22.419,0.0001193029536533,62.66827577779608
2025-03-05 15:05:22.427,0.000107619926337,70.91523330308746
2025-03-05 15:05:22.435,9.622537665061472e-05,78.86706904203447
2025-03-05 15:05:22.443,8.555733015607241e-05,86.53201105664117
2025-03-05 15:05:22.450,7.605189545319734e-05,93.91856948514264
2025-03-05 15:05:22.458,6.81285201575866e-05,101.03496504536204
2025-03-05 15:05:22.466,6.217586197907507e-05,107.88860519544951
2025-03-05 15:05:22.474,5.85389125192448e-05,114.48562908785242
2025-03-05 15:05:22.482,5.750783543677266e-05,120.830540797049
2025-03-05 15:05:22.489,5.930880547938468e-05,126.92594759689324
2025-03-05 15:05:22.497,6.409698602246298e-05,132.7724164554943
2025-03-05 15:05:22.505,7.195166139136334e-05,138.36845758735654
2025-03-05 15:05:22.513,8.287347215634784e-05,143.71063905655512
2025-03-05 15:05:22.521,9.678371996823852e-05,148.7938312682265
2025-03-05 15:05:22.528,0.0001135257958399,153.61157492180772
2025-03-05 15:05:22.536,0.0001328688664914,158.15656082691018
2025-03-05 15:05:22.544,0.0001545139439863,162.42120510076765
2025-03-05 15:05:22.552,0.0001781023284129,166.39829887960903
2025-03-05 15:05:22.560,0.0002032261859441,170.08170799260444
2025-03-05 15:05:22.568,0.0002294407887962,173.4670952618922
2025-03-05 15:05:22.575,0.0002562777836812,176.55263636488192
2025-03-05 15:05:22.583,0.0002832588092338,179.33969962370327
2025-03-05 15:05:22.591,0.0003099088294272,181.8334606954681
2025-03-05 15:05:22.599,0.0003357686406707,184.04342487942623
2025-03-05 15:05:22.607,0.0003604061086322,185.9838325292341
2025-03-05 15:05:22.614,0.0003834257835422,187.67392671375367
2025-03-05 15:05:22.622,0.0004044766352877,189.13806663233697
2025-03-05 15:05:22.630,0.0004232577610924,190.40567517087973
2025-03-05 15:05:22.638,0.0004395220597115,191.51101419664317
2025-03-05 15:05:22.646,0.0004530780110521,192.4927865633788
2025-03-05 15:05:22.653,0.0004637898005497,193.39356918580492
2025-03-05 15:05:22.661,0.0004715760597917,194.25908681244604
2025-03-05 15:05:22.669,0.0004764074736451,195.13734115184133
2025-03-05 15:05:22.677,0.0004783034562889,196.07761465814863
2025-03-05 15:05:22.685,0.0004773280486222,197.12937242124215
2025-03-05 15:05:22.693,0.0004735851653601,198.341089098882
2025-03-05 15:05:22.700,0.0004672133387249,199.75903055403785
2025-03-05 15:05:22.708,0.0004583801464205,201.426021723232
2025-03-05 15:05:22.716,0.0004472765301889,203.3802331794972
2025-03-05 15:05:22.724,0.0004341111867868,205.6540188457324
2025-03-05 15:05:22.732,0.0004191051620394,208.2728363853612
2025-03-05 15:05:22.739,0.0004024867260298,211.25428001155643
2025-03-05 15:05:22.747,0.0003844865672204,214.60725290924145
2025-03-05 15:05:22.755,0.0003653333202848,218.33130327628544
2025-03-05 15:05:22.763,0.0003452494374165,222.4161443034112
2025-03-05 15:05:22.771,0.0003244474175768,226.84137437791324
2025-03-05 15:05:22.778,0.0003031264022926,231.57640955606303
2025-03-05 15:05:22.786,0.0002814691183128,236.58063601591533
2025-03-05 15:05:22.794,0.0002596391196,241.8037858524049
2025-03-05 15:05:22.802,0.00023777829115,247.18653525129864
2025-03-05 15:05:22.810,0.0002160046265678,252.66131978554213
2025-03-05 15:05:22.818,0.0001944103507799,258.15335729021007
2025-03-05 15:05:22.825,0.0001730605166598,263.5818644314453
2025-03-05 15:05:22.833,0.0001519922605047,268.8614486106947
2025-03-05 15:05:22.841,0.0001312149292912,273.9036521631133
2025-03-05 15:05:22.849,0.0001107112550827,278.6186208843958
2025-03-05 15:05:22.857,9.04396512798507e-05,282.9168638016336
2025-03-05 15:05:22.864,7.033758055682737e-05,286.7110659532091
2025-03-05 15:05:22.872,5.032583029802088e-05,289.91791104555426
2025-03-05 15:05:22.880,3.0313443198287656e-05,292.45986659978365
2025-03-05 15:05:22.888,1.0202992851755415e-05,294.266881037612
2025-03-05 15:05:22.896,-1.0104131627300973e-05,295.2779405364322
2025-03-05 15:05:22.903,-3.0702760896786325e-05,295.4424338081624
2025-03-05 15:05:22.911,-5.1679590055010045e-05,294.7212755235285
2025-03-05 15:05:22.919,-7.310965153761933e-05,293.087744071088
2025-03-05 15:05:22.927,-9.505373570172804e-05,290.5279967054011
2025-03-05 15:05:22.935,-0.0001175567552969,287.04123473389774
2025-03-05 15:05:22.943,-0.0001406469167695,282.63950289959416
2025-03-05 15:05:22.950,-0.0001643354453234,277.347120096147
2025-03-05 15:05:22.958,-0.0001886165400719,271.1997524738115
2025-03-05 15:05:22.966,-0.0002134672223457,264.24315427806863
2025-03-05 15:05:22.974,-0.0002388467842929,256.5316157971312
2025-03-05 15:05:22.982,-0.0002646956442418,248.1261709467304
2025-03-05 15:05:22.989,-0.0002909335560648,239.0926286235146
2025-03-05 15:05:22.997,-0.0003174572719893,229.4995013083813
2025-03-05 15:05:23.005,-0.0003441378932297,219.4159107884283
2025-03-05 15:05:23.013,-0.0003708182454288,208.9095536622303
2025-03-05 15:05:23.021,-0.0003973106805271,198.04480808576864
2025-03-05 15:05:23.028,-0.0004233957307089,186.88105792685585
2025-03-05 15:05:23.036,-0.0004488220223735,175.47130139016733
2025-03-05 15:05:23.044,-0.0004733078007244,163.86109876709244
2025-03-05 15:05:23.052,-0.0004965443302327,152.08789890425876
2025-03-05 15:05:23.060,-0.0005182013470991,140.18076700037346
2025-03-05 15:05:23.068,-0.0005379346631308,128.1605182284483
2025-03-05 15:05:23.075,-0.0005553959362789,116.04024329244514
2025-03-05 15:05:23.083,-0.0005702444892979,103.82619424820756
2025-03-05 15:05:23.091,-0.0005821608574362,91.5189826241971
2025-03-05 15:05:23.099,-0.0005908615020307,79.11502788943328
2025-03-05 15:05:23.107,-0.0005961138827321,66.60818335424156
2025-03-05 15:05:23.114,-0.0005977508906056,53.99145923091945
2025-03-05 15:05:23.122,-0.0005956835647591,41.25875922577259
2025-03-05 15:05:23.130,-0.0005899110757053,28.40654787327786
2025-03-05 15:05:23.138,-0.0005805271383051,15.435370813566822
2025-03-05 15:05:23.146,-0.0005677222680511,2.351159054102625
2025-03-05 15:05:23.153,-0.0005517815795084,-10.833739617443616
2025-03-05 15:05:23.161,-0.0005330781279557,-24.09984428330189
2025-03-05 15:05:23.169,-0.0005120621051803,-37.42016566620698
2025-03-05 15:05:23.177,-0.0004892464999354,-50.760181398131216
2025-03-05 15:05:23.185,-0.0004651900835324,-64.07815493317585
2025-03-05 15:05:23.193,-0.0004404787305138,-77.32577631974513
2025-03-05 15:05:23.200,-0.0004157061082885,-90.44909010453472
2025-03-05 15:05:23.208,-0.0003914546924746,-103.38966517914112
2025-03-05 15:05:23.216,-0.0003682779366602,-116.08595367723306
2025-03-05 15:05:23.224,-0.0003466842828545,-128.4747811485874
2025-03-05 15:05:23.232,-0.0003271235489045,-140.49290804797565
2025-03-05 15:05:23.239,-0.0003099760566682,-152.07860281789226
2025-03-05 15:05:23.247,-0.0002955446614921,-163.1731691886472
2025-03-05 15:05:23.255,-0.000284049637581,-173.72237445003907
2025-03-05 15:05:23.263,-0.0002756262156354,-183.67773109733864
2025-03-05 15:05:23.271,-0.0002703244841535,-192.99759120551732
2025-03-05 15:05:23.278,-0.0002681113407331,-201.64802095759808
2025-03-05 15:05:23.286,-0.0002688741906906,-209.60343176830588
2025-03-05 15:05:23.294,-0.0002724261234946,-216.84695420020503
2025-03-05 15:05:23.302,-0.0002785123447785,-223.37055110559447
2025-03-05 15:05:23.310,-0.0002868176880786,-229.1748767897816
2025-03-05 15:05:23.318,-0.0002969750498545,-234.26889901387992
2025-03-05 15:05:23.325,-0.0003085745671664,-238.66930978642603
2025-03-05 15:05:23.333,-0.0003211733108177,-242.39975857537016
2025-03-05 15:05:23.341,-0.0003343052430313,-245.4899473397748
2025-03-05 15:05:23.349,-0.0003474912098258,-247.974630328744
2025-03-05 15:05:23.357,-0.0003602487891017,-249.8925627973297
2025-03-05 15:05:23.364,-0.0003721018721813,-251.2854416802037
2025-03-05 15:05:23.372,-0.0003825899069035,-252.19687801196412
2025-03-05 15:05:23.380,-0.0003912767709715,-252.67143576537825
2025-03-05 15:05:23.388,-0.0003977592741717,-252.753765160346
2025-03-05 15:05:23.396,-0.0004016753072286,-252.4878508051682
2025-03-05 15:05:23.403,-0.0004027116625498,-251.91638673502615
2025-03-05 15:05:23.411,-0.0004006115397421,-251.08028199683096
2025-03-05 15:05:23.419,-0.0003951816980722,-250.01829238531548
2025-03-05 15:05:23.427,-0.0003862991205079,-248.76676673893587
2025-03-05 15:05:23.435,-0.000373916938999,-247.35949029129952
2025-03-05 15:05:23.443,-0.0003580692914067,-245.8276033066489
2025-03-05 15:05:23.450,-0.0003388747662233,-244.199570864103
2025-03-05 15:05:23.458,-0.0003165381315151,-242.50117932286636
2025-03-05 15:05:23.466,-0.0002913501091095,-240.75553668274785
2025-03-05 15:05:23.474,-0.0002636850030876,-238.98305758663463
2025-03-05 15:05:23.482,-0.0002339959797673,-237.2014187898718
2025-03-05 15:05:23.489,-0.0002028077176653,-235.42547712114649
2025-03-05 15:05:23.497,-0.0001707060627474,-233.66714876687675
2025-03-05 15:05:23.505,-0.0001383243330887,-231.9352555667087
2025-03-05 15:05:23.513,-0.0001063260666701,-230.2353503575212
2025-03-05 15:05:23.521,-7.538426132120913e-05,-228.56953875312595
2025-03-05 15:05:23.528,-4.61574527288581e-05,-226.9363187085211
2025-03-05 15:05:23.536,-1.9263294203056328e-05,-225.33046153559383
2025-03-05 15:05:23.544,4.749347701460983e-06,-223.74295859213944
2025-03-05 15:05:23.552,2.5428409151882592e-05,-222.16105666228955
2025-03-05 15:05:23.560,4.244509237219117e-05,-220.5684021921884
2025-03-05 15:05:23.568,5.561695585937653e-05,-218.94531023063504
2025-03-05 15:05:23.575,6.492581901051641e-05,-217.26916840189617
2025-03-05 15:05:23.583,7.052884687674274e-05,-215.5149797983205
2025-03-05 15:05:23.591,7.276151817171555e-05,-213.6560416348757
2025-03-05 15:05:23.599,7.213163573684475e-05,-211.66474917025468
2025-03-05 15:05:23.607,6.930405589439469e-05,-209.5135070729114
2025-03-05 15:05:23.614,6.507634656775371e-05,-207.17572337653516
2025-03-05 15:05:23.622,6.034610920163845e-05,-204.62685468299588
2025-03-05 15:05:23.630,5.607120304902227e-05,-201.84546557177129
2025-03-05 15:05:23.638,5.32245902535974e-05,-198.81426051710227
2025-03-05 15:05:23.646,5.27459917257151e-05,-195.52104329344277
2025-03-05 15:05:23.653,5.54930128909105e-05,-191.9595572058276
2025-03-05 15:05:23.661,6.21947940045732e-05,-188.13015986178968
2025-03-05 15:05:23.669,7.341139716286849e-05,-184.04028889984104
2025-03-05 15:05:23.677,8.950190524908936e-05,-179.70468028635602
2025-03-05 15:05:23.685,0.0001106035508881,-175.1453085045153
2025-03-05 15:05:23.693,0.0001366232345927,-170.39102800846186
2025-03-05 15:05:23.700,0.0001672417228678,-165.47690732669514
2025-03-05 15:05:23.708,0.0002019298183255,-160.44326061829145
2025-03-05 15:05:23.716,0.0002399749662335,-155.33439562769726
2025-03-05 15:05:23.724,0.0002805161370298,-150.19711108124508
2025-03-05 15:05:23.732,0.0003225844285252,-145.07898982911414
2025-03-05 15:05:23.739,0.0003651466983293,-140.02654570578414
2025-03-05 15:05:23.747,0.0004071496542411,-135.08329150793486
2025-03-05 15:05:23.755,0.000447562129281,-130.28780217424398
2025-03-05 15:05:23.763,0.0004854136783491,-125.67185088267232
2025-03-05 15:05:23.771,0.0005198281086014,-121.25869622716046
2025-03-05 15:05:23.778,0.0005500510434909,-117.06159593055511
2025-03-05 15:05:23.786,0.0005754710587531,-113.08261685875536
2025-03-05 15:05:23.794,0.0005956342828899,-109.31180267760536
2025-03-05 15:05:23.802,0.0006102526304674,-105.72674964049268
2025-03-05 15:05:23.810,0.000619206051307,-102.29262802402818
2025-03-05 15:05:23.818,0.0006225393413805,-98.96267195384245
2025-03-05 15:05:23.825,0.000620454174966,-95.67914410958966
2025-03-05 15:05:23.833,0.0006132970856613,-92.37476444688927
2025-03-05 15:05:23.841,0.0006015441509919,-88.97457409688644
2025-03-05 15:05:23.849,0.0005857831275502,-85.39818759380069
2025-03-05 15:05:23.857,0.000566693747595,-81.56236924734554
2025-03-05 15:05:23.864,0.0005450268309595,-77.38385361510356
2025-03-05 15:05:23.872,0.0005215827951139,-72.78231646176425
2025-03-05 15:05:23.880,0.0004971900681448,-67.68339209806908
2025-03-05 15:05:23.888,0.0004726838304625,-62.02162625021661
2025-03-05 15:05:23.896,0.0004488854365596,-55.74325115347919
2025-03-05 15:05:23.903,0.0004265828023603,-48.80867175537502
2025-03-05 15:05:23.911,0.0004065119896221,-41.1945589290502
2025-03-05 15:05:23.919,0.0003893401781556,-32.89545740237297
2025-03-05 15:05:23.927,0.0003756501896415,-23.92483243565446
2025-03-05 15:05:23.935,0.0003659267125654,-14.315499608863734
2025-03-05 15:05:23.943,0.0003605443740662,-4.119405618367998
