Timestamp,GSR_Filtered,PPG_Filtered,FMSQ
2025-03-05 15:12:34.156,4.258085177458017e-05,7.541103744070446,5.0
2025-03-05 15:12:34.164,4.691295044559784e-05,6.940877486853299,5.0
2025-03-05 15:12:34.172,5.116920689638045e-05,6.352761605568608,5.0
2025-03-05 15:12:34.180,5.524589169965296e-05,5.780347866811212,5.0
2025-03-05 15:12:34.188,5.909033598197008e-05,5.226753572931657,5.0
2025-03-05 15:12:34.195,6.270173719786324e-05,4.694632615206771,5.0
2025-03-05 15:12:34.203,6.612791974146972e-05,4.186188943343773,5.0
2025-03-05 15:12:34.211,6.945862252667964e-05,3.703190760736197,5.0
2025-03-05 15:12:34.219,7.281610582691257e-05,3.2469838013115666,5.0
2025-03-05 15:12:34.227,7.634401552269584e-05,2.818502195606328,5.0
2025-03-05 15:12:34.234,8.019548928567125e-05,2.41827572682606,5.0
2025-03-05 15:12:34.242,8.452143542726378e-05,2.046432723737166,5.0
2025-03-05 15:12:34.250,8.94597865265321e-05,1.702698421082934,5.0
2025-03-05 15:12:34.258,9.512635421159764e-05,1.3863893014953077,5.0
2025-03-05 15:12:34.266,0.0001016077045695,1.0964046630984177,5.0
2025-03-05 15:12:34.273,0.0001089562458213,0.831217377442999,5.0
2025-03-05 15:12:34.281,0.0001171874899514,0.5888664573021002,5.0
2025-03-05 15:12:34.289,0.0001262792561516,0.366954587704165,5.0
2025-03-05 15:12:34.297,0.0001361724678389,0.162654129088227,5.0
2025-03-05 15:12:34.305,0.000146773161123,-0.0272747781414828,5.0
2025-03-05 15:12:34.313,0.0001579553349507,-0.2064505410505351,5.0
2025-03-05 15:12:34.320,0.0001695643071746,-0.378817881860455,5.0
2025-03-05 15:12:34.328,0.0001814203070997,-0.548574845269028,5.0
2025-03-05 15:12:34.336,0.000193322140009,-0.7200779291911213,5.0
2025-03-05 15:12:34.344,0.0002050508737268,-0.897725550989134,5.0
2025-03-05 15:12:34.352,0.0002163735743871,-1.085821559947253,5.0
2025-03-05 15:12:34.359,0.0002270471323604,-1.2884220824055783,5.0
2025-03-05 15:12:34.367,0.0002368221904899,-1.5091705306201053,5.0
2025-03-05 15:12:34.375,0.0002454471623567,-1.751127005155408,5.0
2025-03-05 15:12:34.383,0.000252672332473,-2.0165994632189186,5.0
2025-03-05 15:12:34.391,0.0002582540506301,-2.3069848184913995,5.0
2025-03-05 15:12:34.398,0.0002619590480865,-2.622628511355291,5.0
2025-03-05 15:12:34.406,0.0002635689046102,-2.962710993685605,5.0
2025-03-05 15:12:34.414,0.0002628846822448,-3.325168982711103,5.0
2025-03-05 15:12:34.422,0.0002597317160628,-3.7066582540843327,5.0
2025-03-05 15:12:34.430,0.0002539645168335,-4.102563201708697,5.0
2025-03-05 15:12:34.438,0.0002454716987468,-4.5070564685727215,5.0
2025-03-05 15:12:34.445,0.0002341808008477,-4.913209761337422,5.0
2025-03-05 15:12:34.453,0.0002200628276878,-5.313154633356113,5.0
2025-03-05 15:12:34.461,0.000203136297076,-5.69828968931982,5.0
2025-03-05 15:12:34.469,0.0001834705548717,-6.059528453031098,5.0
2025-03-05 15:12:34.477,0.0001611881024569,-6.387580156249007,5.0
2025-03-05 15:12:34.484,0.0001364656854187,-6.673254041268092,5.0
2025-03-05 15:12:34.492,0.0001095339150814,-6.907776492294552,5.0
2025-03-05 15:12:34.500,8.067524012897598e-05,-7.083109470071379,5.0
2025-03-05 15:12:34.508,5.022015506758576e-05,-7.192258352453767,5.0
2025-03-05 15:12:34.516,1.8541626102740987e-05,-7.229557395451199,5.0
2025-03-05 15:12:34.524,-1.3952169198192918e-05,-7.19092161869109,5.0
2025-03-05 15:12:34.531,-4.68265658754815e-05,-7.074054956797722,5.0
2025-03-05 15:12:34.539,-7.963026532745404e-05,-6.878605954032995,5.0
2025-03-05 15:12:34.547,-0.0001119059138549,-6.606264052467045,5.0
2025-03-05 15:12:34.555,-0.0001432009714047,-6.260791567825717,5.0
2025-03-05 15:12:34.563,-0.0001730784270534,-5.847988691244992,5.0
2025-03-05 15:12:34.570,-0.000201126916824,-5.375591222833821,5.0
2025-03-05 15:12:34.578,-0.0002269698199111,-4.853103154436526,5.0
2025-03-05 15:12:34.586,-0.0002502729727576,-4.291568595633481,5.0
2025-03-05 15:12:34.594,-0.0002707507459123,-3.703289801799343,5.0
2025-03-05 15:12:34.602,-0.0002881703515691,-3.101500137453765,5.0
2025-03-05 15:12:34.609,-0.0003023543652944,-2.500002609781802,5.0
2025-03-05 15:12:34.617,-0.000313181542493,-1.912786050106168,5.0
2025-03-05 15:12:34.625,-0.000320586086609,-1.3536320192153837,5.0
2025-03-05 15:12:34.633,-0.0003245555824383,-0.835725988052182,5.0
2025-03-05 15:12:34.641,-0.0003251278456819,-0.3712862422329269,5.0
2025-03-05 15:12:34.649,-0.0003223869611299,0.0287767434490782,5.0
2025-03-05 15:12:34.656,-0.0003164587893595,0.3551589914911078,5.0
2025-03-05 15:12:34.664,-0.0003075062186603,0.6004100793813273,5.0
2025-03-05 15:12:34.672,-0.0002957244284284,0.7591210455299688,5.0
2025-03-05 15:12:34.680,-0.00028133641425,0.8280480327099881,5.0
2025-03-05 15:12:34.688,-0.0002645889969435,0.806169066675755,5.0
2025-03-05 15:12:34.695,-0.000245749478711,0.6946738324560551,5.0
2025-03-05 15:12:34.703,-0.0002251030010199,0.4968886149957844,5.0
2025-03-05 15:12:34.711,-0.0002029505086907,0.2181406293779476,5.0
2025-03-05 15:12:34.719,-0.0001796070730333,-0.1344322698980277,5.0
2025-03-05 15:12:34.727,-0.0001554002251363,-0.5521190583384048,5.0
2025-03-05 15:12:34.734,-0.0001306679267308,-1.0249116031172394,5.0
2025-03-05 15:12:34.742,-0.0001057558431466,-1.5418098835065646,5.0
2025-03-05 15:12:34.750,-8.101364474245728e-05,-2.091146375513814,5.0
2025-03-05 15:12:34.758,-5.679014850240491e-05,-2.660919325625546,5.0
2025-03-05 15:12:34.766,-3.342725198122314e-05,-3.2391246415777317,5.0
2025-03-05 15:12:34.774,-1.1252812419725869e-05,-3.814076422035153,5.0
2025-03-05 15:12:34.781,9.42716834672726e-06,-4.374706734443131,5.0
2025-03-05 15:12:34.789,2.8336552396437045e-05,-4.91083612174046,5.0
2025-03-05 15:12:34.797,4.523673278383593e-05,-5.413407452945723,5.0
2025-03-05 15:12:34.805,5.993347747420135e-05,-5.874677099830588,5.0
2025-03-05 15:12:34.813,7.228256276313001e-05,-6.288358982928633,5.0
2025-03-05 15:12:34.820,8.219390994690402e-05,-6.649718734891777,5.0
2025-03-05 15:12:34.828,8.963403406507977e-05,-6.955617017336549,5.0
2025-03-05 15:12:34.836,9.462669987825344e-05,-7.204502831390373,5.0
2025-03-05 15:12:34.844,9.725175747584882e-05,-7.396359409242137,5.0
2025-03-05 15:12:34.852,9.764219814393449e-05,-7.5326068866058815,5.0
2025-03-05 15:12:34.859,9.59795308830758e-05,-7.615967357188734,5.0
2025-03-05 15:12:34.867,9.248763207011491e-05,-7.650299033119674,5.0
2025-03-05 15:12:34.875,8.742526620583133e-05,-7.640407030356255,5.0
2025-03-05 15:12:34.883,8.107751554815779e-05,-7.591838734839444,5.0
2025-03-05 15:12:34.891,7.37463917180797e-05,-7.510671771016942,5.0
2025-03-05 15:12:34.899,6.574093395679424e-05,-7.403302295182446,5.0
2025-03-05 15:12:34.906,5.736712725078338e-05,-7.276240698879914,5.0
2025-03-05 15:12:34.914,4.891799936951086e-05,-7.135920882485112,5.0
2025-03-05 15:12:34.922,4.066427897589866e-05,-6.988528116872866,5.0
2025-03-05 15:12:34.930,3.2846017000288123e-05,-6.839849235096136,5.0
2025-03-05 15:12:34.938,2.5665588047472003e-05,-6.695147570137348,5.0
2025-03-05 15:12:34.945,1.9282485337522463e-05,-6.559063753776362,5.0
2025-03-05 15:12:34.953,1.3810269895549108e-05,-6.4355422766226384,5.0
2025-03-05 15:12:34.961,9.315899014321591e-06,-6.327782628483619,5.0
2025-03-05 15:12:34.969,5.821452217876155e-06,-6.238212929632608,5.0
2025-03-05 15:12:34.977,3.308059812817992e-06,-6.168483258341064,5.0
2025-03-05 15:12:34.984,1.7216731486534503e-06,-6.119475402987495,5.0
2025-03-05 15:12:34.992,9.801982167073636e-07,-6.091325534083244,5.0
2025-03-05 15:12:35.000,9.8143661217978e-07,-6.0834563055310005,5.0
2025-03-05 15:12:35.008,1.611256274390893e-06,-6.094615142128988,5.0
2025-03-05 15:12:35.016,2.7514597888173754e-06,-6.122915923576596,5.0
2025-03-05 15:12:35.024,4.28691308043156e-06,-6.165881894524725,5.0
2025-03-05 15:12:35.031,6.111616651865374e-06,-6.220488366210329,5.0
2025-03-05 15:12:35.039,8.133528847950327e-06,-6.283204568493303,5.0
2025-03-05 15:12:35.047,1.0278069645526692e-05,-6.350034796387488,5.0
2025-03-05 15:12:35.055,1.249031864447032e-05,-6.416559711831805,5.0
2025-03-05 15:12:35.063,1.4735956351948545e-05,-6.477979262489004,5.0
2025-03-05 15:12:35.070,1.700100539919401e-05,-6.529159130488859,5.0
2025-03-05 15:12:35.078,1.9290453795731003e-05,-6.5646828947590254,5.0
2025-03-05 15:12:35.086,2.162590640084336e-05,-6.578912147979061,5.0
2025-03-05 15:12:35.094,2.404248870502956e-05,-6.566056623115822,5.0
2025-03-05 15:12:35.102,2.658527385227377e-05,-6.520255942585168,5.0
2025-03-05 15:12:35.109,2.93054952926536e-05,-6.43567392453279,5.0
2025-03-05 15:12:35.117,3.225676352734049e-05,-6.306605519379815,5.0
2025-03-05 15:12:35.125,3.549146357393952e-05,-6.127595485542724,5.0
2025-03-05 15:12:35.133,3.9057473138659744e-05,-5.893566936911253,5.0
2025-03-05 15:12:35.141,4.299528515005476e-05,-5.5999569917233565,5.0
2025-03-05 15:12:35.149,4.733554569868016e-05,-5.242855989457473,5.0
2025-03-05 15:12:35.156,5.20969676446106e-05,-4.8191461582452,5.0
2025-03-05 15:12:35.164,5.728457376463798e-05,-4.32663522025881,5.0
2025-03-05 15:12:35.172,6.288824796253998e-05,-3.764180205913383,5.0
2025-03-05 15:12:35.180,6.888160604384227e-05,-3.1317966925882588,5.0
2025-03-05 15:12:35.188,7.522122719136573e-05,-2.430748779520812,5.0
2025-03-05 15:12:35.195,8.184631015567893e-05,-1.6636153585342033,5.0
2025-03-05 15:12:35.203,8.86788327669029e-05,-0.8343286498204173,5.0
2025-03-05 15:12:35.211,9.562429847164846e-05,0.0518184458601618,5.0
2025-03-05 15:12:35.219,0.0001025731483624,0.9881988683789672,5.0
2025-03-05 15:12:35.227,0.0001094029011716,1.9669135569488896,5.0
2025-03-05 15:12:35.234,0.0001159810569709,2.9788899432284097,5.0
2025-03-05 15:12:35.242,0.0001221687633378,4.014016303060981,5.0
2025-03-05 15:12:35.250,0.0001278251964957,5.061310252234048,5.0
2025-03-05 15:12:35.258,0.0001328125558306,6.109118404315984,5.0
2025-03-05 15:12:35.266,0.000137001510135,7.145342950905254,5.0
2025-03-05 15:12:35.274,0.0001402768702103,8.157689721576974,5.0
2025-03-05 15:12:35.281,0.0001425431993683,9.133931190029823,5.0
2025-03-05 15:12:35.289,0.0001437300235306,10.062176983123194,5.0
2025-03-05 15:12:35.297,0.000143796289791,10.931143792100816,5.0
2025-03-05 15:12:35.305,0.0001427337609125,11.730416242941226,5.0
2025-03-05 15:12:35.313,0.0001405691018114,12.450690297991732,5.0
2025-03-05 15:12:35.320,0.0001373644755805,13.083991148826914,5.0
2025-03-05 15:12:35.328,0.0001332165201929,13.623858306946984,5.0
2025-03-05 15:12:35.336,0.0001282536580592,14.065491666731662,5.0
2025-03-05 15:12:35.344,0.0001226318171406,14.405853648804664,5.0
2025-03-05 15:12:35.352,0.0001165287882938,14.643724064112844,5.0
2025-03-05 15:12:35.359,0.0001101375608439,14.779705993416524,5.0
2025-03-05 15:12:35.367,0.0001036590312284,14.816182673952175,5.0
2025-03-05 15:12:35.375,9.729446525315262e-05,14.75722704852622,5.0
2025-03-05 15:12:35.383,9.12380370426707e-05,14.608467193897782,5.0
2025-03-05 15:12:35.391,8.566969414212949e-05,14.376912245373465,5.0
2025-03-05 15:12:35.399,8.074853080527962e-05,14.07074462210203,5.0
2025-03-05 15:12:35.406,7.660681536719576e-05,13.69908529280982,5.0
2025-03-05 15:12:35.414,7.33448265279471e-05,13.271739480767591,5.0
2025-03-05 15:12:35.422,7.102668335710043e-05,12.798930585177697,5.0
2025-03-05 15:12:35.430,6.967735703261246e-05,12.29103020713034,5.0
2025-03-05 15:12:35.438,6.928100453002761e-05,11.758292035889433,5.0
2025-03-05 15:12:35.445,6.97806806955693e-05,11.21059700455855,5.0
2025-03-05 15:12:35.453,7.107939795287907e-05,10.657216596164522,5.0
2025-03-05 15:12:35.461,7.304244497623024e-05,10.106600508864068,5.0
2025-03-05 15:12:35.469,7.550086228552896e-05,9.566194107974116,5.0
2025-03-05 15:12:35.477,7.825598171029608e-05,9.042290228722052,5.0
2025-03-05 15:12:35.484,8.10849304788086e-05,8.539918958889727,5.0
2025-03-05 15:12:35.492,8.374697666919957e-05,8.062778025085345,5.0
2025-03-05 15:12:35.500,8.599057680982132e-05,7.61320532493038,5.0
2025-03-05 15:12:35.508,8.75609767215031e-05,7.192193986518413,5.0
2025-03-05 15:12:35.516,8.820817895328013e-05,6.799449100831161,5.0
2025-03-05 15:12:35.524,8.769501424309964e-05,6.433483980081236,5.0
2025-03-05 15:12:35.531,8.580497918896368e-05,6.091752478522946,5.0
2025-03-05 15:12:35.539,8.234947506602223e-05,5.770812620819307,5.0
2025-03-05 15:12:35.547,7.717411514671306e-05,5.466515577817436,5.0
2025-03-05 15:12:35.555,7.016383878879583e-05,5.174212980381671,5.0
2025-03-05 15:12:35.563,6.124665597175103e-05,4.888974742080819,5.0
2025-03-05 15:12:35.570,5.039593463929007e-05,4.605809040875595,5.0
2025-03-05 15:12:35.578,3.763123212655599e-05,4.319875945872406,5.0
2025-03-05 15:12:35.586,2.301775985695005e-05,4.026686403552975,5.0
2025-03-05 15:12:35.594,6.664654594697355e-06,3.722278927679897,5.0
2025-03-05 15:12:35.602,-1.1277700970008518e-05,3.4033673510570144,5.0
2025-03-05 15:12:35.609,-3.062103399715657e-05,3.06745435634771,5.0
2025-03-05 15:12:35.617,-5.114296779656762e-05,2.712907149037477,5.0
2025-03-05 15:12:35.625,-7.259107679207918e-05,2.3389934895591966,5.0
2025-03-05 15:12:35.633,-9.468715046666506e-05,1.945878263174875,5.0
2025-03-05 15:12:35.641,-0.0001171316778193,1.5345827203101852,5.0
2025-03-05 15:12:35.649,-0.0001396085775647,1.1069103500575457,5.0
2025-03-05 15:12:35.656,-0.0001617901753407,0.6653449473424479,5.0
2025-03-05 15:12:35.664,-0.0001833424135267,0.2129277024431511,5.0
2025-03-05 15:12:35.672,-0.0002039302950428,-0.2468790045069712,5.0
2025-03-05 15:12:35.680,-0.0002232235960881,-0.710333045040087,5.0
2025-03-05 15:12:35.688,-0.0002409029120016,-1.1735512913293529,5.0
2025-03-05 15:12:35.695,-0.0002566661132858,-1.6326383674620706,5.0
2025-03-05 15:12:35.703,-0.0002702352742178,-2.083799156565308,5.0
2025-03-05 15:12:35.711,-0.0002813640748552,-2.52343021714776,5.0
2025-03-05 15:12:35.719,-0.0002898455593422,-2.948186886446025,5.0
2025-03-05 15:12:35.727,-0.0002955199882106,-3.355024576696442,5.0
2025-03-05 15:12:35.734,-0.0002982824029826,-3.7412144926610114,5.0
2025-03-05 15:12:35.742,-0.0002980894575092,-4.104335625592917,5.0
2025-03-05 15:12:35.750,-0.000294965054236,-4.442246337613693,5.0
2025-03-05 15:12:35.758,-0.0002890043374459,-4.75304007749935,5.0
2025-03-05 15:12:35.766,-0.0002803756324859,-5.034990704312835,5.0
2025-03-05 15:12:35.774,-0.000269319980557,-5.286493487121343,5.0
2025-03-05 15:12:35.781,-0.000256148004239,-5.506008060725244,5.0
2025-03-05 15:12:35.789,-0.0002412339500893,-5.692009431705527,5.0
2025-03-05 15:12:35.797,-0.0002250068909211,-5.84295254785305,5.0
2025-03-05 15:12:35.805,-0.0002079392301589,-5.957254990327576,5.0
2025-03-05 15:12:35.813,-0.0001905328295864,-6.033301073295221,5.0
2025-03-05 15:12:35.820,-0.0001733032661342,-6.0694691231757565,5.0
2025-03-05 15:12:35.828,-0.0001567628856442,-6.064182065400145,5.0
2025-03-05 15:12:35.836,-0.000141403432866,-6.015979785868503,5.0
2025-03-05 15:12:35.844,-0.0001276790842166,-5.923610166695211,5.0
2025-03-05 15:12:35.852,-0.000115990691424,-5.786134316819729,5.0
2025-03-05 15:12:35.859,-0.0001066719601213,-5.603040407260604,5.0
2025-03-05 15:12:35.867,-9.997814930809492e-05,-5.374359742543778,5.0
2025-03-05 15:12:35.875,-9.607771287016342e-05,-5.100778299495044,5.0
2025-03-05 15:12:35.883,-9.504713930766158e-05,-4.783736959587964,5.0
2025-03-05 15:12:35.891,-9.686909322553912e-05,-4.425514034131589,5.0
2025-03-05 15:12:35.899,-0.000101433825728,-4.029284383237522,5.0
2025-03-05 15:12:35.906,-0.0001085437019084,-3.599150389701269,5.0
2025-03-05 15:12:35.914,-0.0001179205926616,-3.140141194151047,5.0
2025-03-05 15:12:35.922,-0.0001292157949807,-2.6581778668664424,5.0
2025-03-05 15:12:35.930,-0.0001420220791627,-2.160003542298576,5.0
2025-03-05 15:12:35.938,-0.0001558874120556,-1.653078945693967,5.0
2025-03-05 15:12:35.945,-0.0001703298715269,-1.145445170515648,5.0
2025-03-05 15:12:35.953,-0.000184853247607,-0.6455569867065136,5.0
2025-03-05 15:12:35.961,-0.0001989628191408,-0.162091328260664,5.0
2025-03-05 15:12:35.969,-0.0002121808003571,0.2962631329812117,5.0
2025-03-05 15:12:35.977,-0.0002240609687935,0.7210283404876993,5.0
2025-03-05 15:12:35.984,-0.0002342020140303,1.104163321774063,5.0
2025-03-05 15:12:35.992,-0.0002422591854756,1.4382864678398202,5.0
2025-03-05 15:12:36.000,-0.0002479538670345,1.7168852150909808,5.0
2025-03-05 15:12:36.008,-0.0002510807670935,1.9345050360341085,5.0
2025-03-05 15:12:36.016,-0.0002515124842019,2.086910366449609,5.0
2025-03-05 15:12:36.024,-0.0002492012924718,2.1712111786217525,5.0
2025-03-05 15:12:36.031,-0.0002441780863125,2.1859502803903585,5.0
2025-03-05 15:12:36.039,-0.0002365485317096,2.1311479925385357,5.0
2025-03-05 15:12:36.047,-0.0002264865905657,2.008302543743893,5.0
2025-03-05 15:12:36.055,-0.0002142257148854,1.82034623857528,5.0
2025-03-05 15:12:36.063,-0.0002000481458916,1.5715591218817817,5.0
2025-03-05 15:12:36.070,-0.0001842728862061,1.2674434109162798,5.0
2025-03-05 15:12:36.078,-0.000167243006435,0.9145633313538544,5.0
2025-03-05 15:12:36.086,-0.0001493129559364,0.520356124480495,5.0
2025-03-05 15:12:36.094,-0.0001308364599686,0.0929208561646645,5.0
2025-03-05 15:12:36.102,-0.0001121554506219,-0.3592077643963884,5.0
2025-03-05 15:12:36.109,-9.359036161860628e-05,-0.8272930613165399,5.0
2025-03-05 15:12:36.117,-7.543203190137642e-05,-1.3026300647334434,5.0
2025-03-05 15:12:36.125,-5.793537890168548e-05,-1.776771937672435,5.0
2025-03-05 15:12:36.133,-4.131490102174879e-05,-2.241742402741204,5.0
2025-03-05 15:12:36.141,-2.5741966142099147e-05,-2.690228091808452,5.0
2025-03-05 15:12:36.149,-1.1343762768666176e-05,-3.11574556505346,5.0
2025-03-05 15:12:36.156,1.7962558334624877e-06,-3.5127786729722037,5.0
2025-03-05 15:12:36.164,1.3636616321836162e-05,-3.87688292974924,5.0
2025-03-05 15:12:36.172,2.417492959358008e-05,-4.2047545969113935,5.0
2025-03-05 15:12:36.180,3.34440163632442e-05,-4.494263213870735,5.0
2025-03-05 15:12:36.188,4.150723304602797e-05,-4.744447335009196,5.0
2025-03-05 15:12:36.195,4.8453221969350166e-05,-4.9554742313891005,5.0
2025-03-05 15:12:36.203,5.439035946386987e-05,-5.128565291622026,5.0
2025-03-05 15:12:36.211,5.944120449089179e-05,-5.265889818656811,5.0
2025-03-05 15:12:36.219,6.37372412883945e-05,-5.370430868211814,5.0
2025-03-05 15:12:36.227,6.741415037375686e-05,-5.445827696678873,5.0
2025-03-05 15:12:36.234,7.060774431778561e-05,-5.496200253801553,5.0
2025-03-05 15:12:36.242,7.345060814364847e-05,-5.525961929301601,5.0
2025-03-05 15:12:36.250,7.606941753292633e-05,-5.539627392739729,5.0
2025-03-05 15:12:36.258,7.858286105762205e-05,-5.541622791764096,5.0
2025-03-05 15:12:36.266,8.110005433833564e-05,-5.53610573231152,5.0
2025-03-05 15:12:36.274,8.371932051275246e-05,-5.526802301303429,5.0
2025-03-05 15:12:36.281,8.652723456488656e-05,-5.516867872636852,5.0
2025-03-05 15:12:36.289,8.959787329971658e-05,-5.50877754926266,5.0
2025-03-05 15:12:36.297,9.299225506227744e-05,-5.504250853113598,5.0
2025-03-05 15:12:36.305,9.675798211578102e-05,-5.504213724382476,5.0
2025-03-05 15:12:36.313,0.000100929110938,-5.508799102717129,5.0
2025-03-05 15:12:36.320,0.0001055262708156,-5.517385427138602,5.0
2025-03-05 15:12:36.328,0.0001105570288827,-5.52867041670703,5.0
2025-03-05 15:12:36.336,0.0001160164606846,-5.540775600250592,5.0
2025-03-05 15:12:36.344,0.00012188783224,-5.551375376675569,5.0
2025-03-05 15:12:36.352,0.0001281432455506,-5.557843026267383,5.0
2025-03-05 15:12:36.359,0.0001347440772838,-5.557405154599092,5.0
2025-03-05 15:12:36.367,0.0001416410863361,-5.547295598767079,5.0
2025-03-05 15:12:36.375,0.0001487741798429,-5.524899891647936,5.0
2025-03-05 15:12:36.383,0.0001560719669559,-5.487881964266138,5.0
2025-03-05 15:12:36.391,0.0001634513556426,-5.434285842252408,5.0
2025-03-05 15:12:36.399,0.0001708175352971,-5.362606606684564,5.0
2025-03-05 15:12:36.406,0.0001780646993148,-5.271826763794355,5.0
2025-03-05 15:12:36.414,0.0001850777605093,-5.161416299414022,5.0
2025-03-05 15:12:36.422,0.0001917351149903,-5.031296960159762,5.0
2025-03-05 15:12:36.430,0.0001979122925976,-4.881773570832636,5.0
2025-03-05 15:12:36.438,0.0002034861788859,-4.713437332432003,5.0
2025-03-05 15:12:36.445,0.0002083394450479,-4.527047920243832,5.0
2025-03-05 15:12:36.453,0.0002123648589325,-4.3234027002068345,5.0
2025-03-05 15:12:36.461,0.0002154692258775,-4.103202403409185,5.0
2025-03-05 15:12:36.469,0.0002175767875902,-3.866923066287768,5.0
2025-03-05 15:12:36.477,0.0002186319771644,-3.614703916009215,5.0
2025-03-05 15:12:36.484,0.0002186014852385,-3.3462601586806864,5.0
2025-03-05 15:12:36.492,0.0002174756352964,-3.0608283572625457,5.0
2025-03-05 15:12:36.500,0.0002152690948507,-2.757150340445932,5.0
2025-03-05 15:12:36.508,0.0002120209640084,-2.4334994511902885,5.0
2025-03-05 15:12:36.516,0.0002077942845617,-2.0877505192813315,5.0
2025-03-05 15:12:36.524,0.0002026750026238,-1.717492331845985,5.0
2025-03-05 15:12:36.531,0.000196770397745,-1.3201787016165718,5.0
2025-03-05 15:12:36.539,0.0001902069635316,-0.8933116381935711,5.0
2025-03-05 15:12:36.547,0.0001831276930861,-0.4346477756492538,5.0
2025-03-05 15:12:36.555,0.0001756886993184,0.0575827274610376,5.0
2025-03-05 15:12:36.563,0.0001680551102153,0.5844569615333076,5.0
2025-03-05 15:12:36.570,0.0001603962459394,1.1461525180851906,5.0
2025-03-05 15:12:36.578,0.0001528802048692,1.741765905610562,5.0
2025-03-05 15:12:36.586,0.0001456681229617,2.369167895556256,5.0
2025-03-05 15:12:36.594,0.0001389084747421,3.0249058927788504,5.0
2025-03-05 15:12:36.602,0.0001327318185275,3.704161104535456,5.0
2025-03-05 15:12:36.609,0.0001272463501545,4.400765469910988,5.0
2025-03-05 15:12:36.617,0.0001225345424506,5.107280200279745,5.0
2025-03-05 15:12:36.625,0.0001186510374901,5.815134581766976,5.0
2025-03-05 15:12:36.633,0.0001156218401332,6.514820610610047,5.0
2025-03-05 15:12:36.641,0.0001134447494021,7.196136256699533,5.0
2025-03-05 15:12:36.649,0.0001120908832602,7.848467826720967,5.0
2025-03-05 15:12:36.656,0.0001115071172735,8.461100127868617,5.0
2025-03-05 15:12:36.664,0.0001116192475195,9.02354196947934,5.0
2025-03-05 15:12:36.672,0.0001123356665039,9.525853991702,5.0
2025-03-05 15:12:36.680,0.0001135513076465,9.958965851052692,5.0
2025-03-05 15:12:36.688,0.0001151516054124,10.314970374394916,5.0
2025-03-05 15:12:36.695,0.0001170162552724,10.587383356963455,5.0
2025-03-05 15:12:36.703,0.0001190226255513,10.771359161942293,5.0
2025-03-05 15:12:36.711,0.0001210487478719,10.8638541072938,5.0
2025-03-05 15:12:36.719,0.0001229758816393,10.863731720159969,5.0
2025-03-05 15:12:36.727,0.0001246907050178,10.77180621411772,5.0
2025-03-05 15:12:36.734,0.0001260872183978,10.590822912877371,5.0
2025-03-05 15:12:36.742,0.0001270684343319,10.325376722918822,5.0
2025-03-05 15:12:36.750,0.0001275478598731,9.981772069368873,5.0
2025-03-05 15:12:36.758,0.0001274506888859,9.567829876692596,5.0
2025-03-05 15:12:36.766,0.0001267145839841,9.092649115485417,5.0
2025-03-05 15:12:36.774,0.000125289976614,8.566332060489781,5.0
2025-03-05 15:12:36.781,0.0001231399044621,7.999683628771816,5.0
2025-03-05 15:12:36.789,0.0001202394571172,7.403895926415583,5.0
2025-03-05 15:12:36.797,0.00011657488994,6.790229396707017,5.0
2025-03-05 15:12:36.805,0.0001121424490832,6.169701740671821,5.0
2025-03-05 15:12:36.813,0.0001069469861503,5.5527951110772005,5.0
2025-03-05 15:12:36.820,0.0001010005156454,4.949191020506107,5.0
2025-03-05 15:12:36.828,9.432092324632648e-05,4.36754101829,5.0
2025-03-05 15:12:36.836,8.693103580873284e-05,3.815279551585925,5.0
2025-03-05 15:12:36.844,7.885822689860873e-05,3.2984836110760973,5.0
2025-03-05 15:12:36.852,7.013467775641844e-05,2.8217818552988247,5.0
2025-03-05 15:12:36.859,6.079835370341341e-05,2.3883139936342515,5.0
2025-03-05 15:12:36.867,5.089468475165614e-05,1.999739365189426,5.0
2025-03-05 15:12:36.875,4.047883862777867e-05,1.6562919488188774,5.0
2025-03-05 15:12:36.883,2.961833751470918e-05,1.356877536881064,5.0
2025-03-05 15:12:36.891,1.839563488246595e-05,1.0992075467653726,5.0
2025-03-05 15:12:36.899,6.910208303675006e-06,0.8799629578807493,5.0
2025-03-05 15:12:36.906,-4.72022469678435e-06,0.6949811612443747,5.0
2025-03-05 15:12:36.914,-1.6359643038997464e-05,0.5394580974858159,5.0
2025-03-05 15:12:36.922,-2.7854983573474784e-05,0.4081579317409254,5.0
2025-03-05 15:12:36.930,-3.903883907824813e-05,0.2956226559838384,5.0
2025-03-05 15:12:36.938,-4.973362992074479e-05,0.1963743989177793,5.0
2025-03-05 15:12:36.945,-5.975714610426496e-05,0.1051038361556988,5.0
2025-03-05 15:12:36.953,-6.892917728770432e-05,0.0168389054224009,5.0
2025-03-05 15:12:36.961,-7.707881502108351e-05,-0.0729109817157014,5.0
2025-03-05 15:12:36.969,-8.405197271507282e-05,-0.1680389096658766,5.0
2025-03-05 15:12:36.977,-8.971869381610648e-05,-0.2717550548315315,5.0
2025-03-05 15:12:36.985,-9.397984983604246e-05,-0.3865330626121431,5.0
2025-03-05 15:12:36.992,-9.677285549218533e-05,-0.514088060072081,5.0
2025-03-05 15:12:37.000,-9.80760728062648e-05,-0.6553848933929968,5.0
2025-03-05 15:12:37.008,-9.791163934425032e-05,-0.8106739929649879,5.0
2025-03-05 15:12:37.016,-9.63465111365026e-05,-0.9795512053735952,5.0
2025-03-05 15:12:37.024,-9.349155964612208e-05,-1.1610370291982637,5.0
2025-03-05 15:12:37.031,-8.94986404356078e-05,-1.3536699855097578,5.0
2025-03-05 15:12:37.039,-8.455567917031164e-05,-1.5556083791335202,5.0
2025-03-05 15:12:37.047,-7.88799807848456e-05,-1.7647344960190414,5.0
2025-03-05 15:12:37.055,-7.271012484947393e-05,-1.9787553595076597,5.0
2025-03-05 15:12:37.063,-6.629692747248735e-05,-2.195294544415922,5.0
2025-03-05 15:12:37.070,-5.989399987961798e-05,-2.411970219419419,5.0
2025-03-05 15:12:37.078,-5.374841515882361e-05,-2.6264555392164617,5.0
2025-03-05 15:12:37.086,-4.809193156774674e-05,-2.8365187085043315,5.0
2025-03-05 15:12:37.094,-4.313313855793604e-05,-3.040041443347923,5.0
2025-03-05 15:12:37.102,-3.905080284540621e-05,-3.235016095870387,5.0
2025-03-05 15:12:37.110,-3.598860073335578e-05,-3.4195232987685387,5.0
2025-03-05 15:12:37.117,-3.405133186040249e-05,-3.591693522978828,5.0
2025-03-05 15:12:37.125,-3.330262233682963e-05,-3.749657310009447,5.0
2025-03-05 15:12:37.133,-3.3764053343775825e-05,-3.8914900234489607,5.0
2025-03-05 15:12:37.141,-3.541561684783351e-05,-4.015157656140481,5.0
2025-03-05 15:12:37.149,-3.819741396487069e-05,-4.118470451063598,5.0
2025-03-05 15:12:37.156,-4.201254034410524e-05,-4.199050807196035,5.0
2025-03-05 15:12:37.164,-4.673108682213935e-05,-4.254321157870002,5.0
2025-03-05 15:12:37.172,-5.2195108343345855e-05,-4.281516286022798,5.0
2025-03-05 15:12:37.180,-5.8224339563391386e-05,-4.2777229714450895,5.0
2025-03-05 15:12:37.188,-6.462242809419196e-05,-4.239948064434442,5.0
2025-03-05 15:12:37.195,-7.11835133661577e-05,-4.165214170328622,5.0
2025-03-05 15:12:37.203,-7.769903222324094e-05,-4.050680227495354,5.0
2025-03-05 15:12:37.211,-8.396461368181394e-05,-3.893782471880584,5.0
2025-03-05 15:12:37.219,-8.97868333354196e-05,-3.692389693252494,5.0
2025-03-05 15:12:37.227,-9.498950269339068e-05,-3.4449653782177454,5.0
2025-03-05 15:12:37.235,-9.941914239215315e-05,-3.150728371352069,5.0
2025-03-05 15:12:37.242,-0.000102949341898,-2.8098031305291715,5.0
2025-03-05 15:12:37.250,-0.0001054838064912,-2.42335055664544,5.0
2025-03-05 15:12:37.258,-0.0001069580012342,-1.9936707714892823,5.0
2025-03-05 15:12:37.266,-0.0001073394068584,-1.524270102327706,5.0
2025-03-05 15:12:37.274,-0.0001066264996904,-1.0198858814738283,5.0
2025-03-05 15:12:37.281,-0.000104846652917,-0.4864644334917152,5.0
2025-03-05 15:12:37.289,-0.0001020532180412,0.0689102712223571,5.0
2025-03-05 15:12:37.297,-9.832206117068053e-05,0.6381374686163446,5.0
2025-03-05 15:12:37.305,-9.374778648147892e-05,1.212267660905512,5.0
2025-03-05 15:12:37.313,-8.843980440199273e-05,1.7817131313185317,5.0
2025-03-05 15:12:37.320,-8.25183442073183e-05,2.3364938634873456,5.0
2025-03-05 15:12:37.328,-7.611049568638154e-05,2.866509819480625,5.0
2025-03-05 15:12:37.336,-6.934638058577434e-05,3.361828971984731,5.0
2025-03-05 15:12:37.344,-6.235557876728664e-05,3.812979476979046,5.0
2025-03-05 15:12:37.352,-5.52639463151535e-05,4.211233987572203,5.0
2025-03-05 15:12:37.360,-4.819094012576783e-05,4.54887437797687,5.0
2025-03-05 15:12:37.367,-4.124749371139498e-05,4.81942605418504,5.0
2025-03-05 15:12:37.375,-3.453439743009964e-05,5.017852512901893,5.0
2025-03-05 15:12:37.383,-2.814107199422216e-05,5.140702764990354,5.0
2025-03-05 15:12:37.391,-2.214461187501757e-05,5.186206519474199,5.0
2025-03-05 15:12:37.399,-1.660900220521825e-05,5.154314462394649,5.0
2025-03-05 15:12:37.406,-1.1584456367578274e-05,5.046683390177963,5.0
2025-03-05 15:12:37.414,-7.106869723234637e-06,4.866608213330653,5.0
2025-03-05 15:12:37.422,-3.197433862933268e-06,4.6189048115541,5.0
2025-03-05 15:12:37.430,1.3749873720209222e-07,4.309749320641401,5.0
2025-03-05 15:12:37.438,2.906179858863118e-06,3.946480635422396,5.0
2025-03-05 15:12:37.445,5.130749346084962e-06,3.537373728512648,5.0
2025-03-05 15:12:37.453,6.84598707164964e-06,3.091391844172272,5.0
2025-03-05 15:12:37.461,8.097570820812495e-06,2.617925778127132,5.0
2025-03-05 15:12:37.469,8.939945520974797e-06,2.1265283517593336,5.0
2025-03-05 15:12:37.477,9.43393168001264e-06,1.6266518867122053,5.0
2025-03-05 15:12:37.485,9.644190915912897e-06,1.1273960355115644,5.0
2025-03-05 15:12:37.492,9.63664620712404e-06,0.6372727717841411,5.0
2025-03-05 15:12:37.500,9.475935028662468e-06,0.163994725573865,5.0
2025-03-05 15:12:37.508,9.222957657821693e-06,-0.2857076154245178,5.0
2025-03-05 15:12:37.516,8.932571558838187e-06,-0.7062350284915263,5.0
2025-03-05 15:12:37.524,8.65147653824796e-06,-1.0932309676515484,5.0
2025-03-05 15:12:37.531,8.41633466108893e-06,-1.4436521053600126,5.0
2025-03-05 15:12:37.539,8.252173793137216e-06,-1.7557958587834603,5.0
2025-03-05 15:12:37.547,8.171133850420534e-06,-2.029283930632682,5.0
2025-03-05 15:12:37.555,8.171629874712331e-06,-2.265002225572859,5.0
2025-03-05 15:12:37.563,8.238025130177156e-06,-2.4649989558004366,5.0
2025-03-05 15:12:37.570,8.340927891242169e-06,-2.63234426912686,5.0
2025-03-05 15:12:37.578,8.438236569315369e-06,-2.7709562532391745,5.0
2025-03-05 15:12:37.586,8.47703571646464e-06,-2.8853996139322837,5.0
2025-03-05 15:12:37.594,8.39636791963664e-06,-2.9806646058673243,5.0
2025-03-05 15:12:37.602,8.130777894360297e-06,-3.061934819043982,5.0
2025-03-05 15:12:37.610,7.614382389169592e-06,-3.1343531064997108,5.0
2025-03-05 15:12:37.617,6.785113675846517e-06,-3.202795212469393,5.0
2025-03-05 15:12:37.625,5.588751993857738e-06,-3.271660486499869,5.0
2025-03-05 15:12:37.633,3.982406341925128e-06,-3.3446884387333724,5.0
2025-03-05 15:12:37.641,1.9371976768452867e-06,-3.424808826021969,5.0
2025-03-05 15:12:37.649,-5.59991804813876e-07,-3.514031507733494,5.0
2025-03-05 15:12:37.656,-3.5057495382083693e-06,-3.6133805465721327,5.0
2025-03-05 15:12:37.664,-6.880336609233486e-06,-3.722875038929992,5.0
2025-03-05 15:12:37.672,-1.0648821553759066e-05,-3.841557032833393,5.0
2025-03-05 15:12:37.680,-1.4763045814108975e-05,-3.967564726398768,5.0
2025-03-05 15:12:37.688,-1.9164250833194288e-05,-4.098247038229392,5.0
2025-03-05 15:12:37.695,-2.378614550642158e-05,-4.230313706197099,5.0
2025-03-05 15:12:37.703,-2.8558184546533864e-05,-4.360013398403875,5.0
2025-03-05 15:12:37.711,-3.340885002336335e-05,-4.483330994754569,5.0
2025-03-05 15:12:37.719,-3.826875755957851e-05,-4.596194292164986,5.0
2025-03-05 15:12:37.727,-4.307343429397668e-05,-4.69467995682906,5.0
2025-03-05 15:12:37.735,-4.776563510644237e-05,-4.775208624611456,5.0
2025-03-05 15:12:37.742,-5.229707773273903e-05,-4.83471963719998,5.0
2025-03-05 15:12:37.750,-5.662949413678178e-05,-4.870816967831726,5.0
2025-03-05 15:12:37.758,-6.073492760717842e-05,-4.88187937726815,5.0
2025-03-05 15:12:37.766,-6.459525337812508e-05,-4.8671296643868525,5.0
2025-03-05 15:12:37.774,-6.820095082549962e-05,-4.826659936030569,5.0
2025-03-05 15:12:37.781,-7.154920448919605e-05,-4.761412009889584,5.0
2025-03-05 15:12:37.789,-7.464147103322651e-05,-4.67311427381491,5.0
2025-03-05 15:12:37.797,-7.748070990467886e-05,-4.564178451570064,5.0
2025-03-05 15:12:37.805,-8.006850741686965e-05,-4.437561673317915,5.0
2025-03-05 15:12:37.813,-8.24023280784592e-05,-4.29660093131778,5.0
2025-03-05 15:12:37.820,-8.447313752051672e-05,-4.1448283369782,5.0
2025-03-05 15:12:37.828,-8.626366785891152e-05,-3.9857765178128575,5.0
2025-03-05 15:12:37.836,-8.774759387005201e-05,-3.822783958019412,5.0
2025-03-05 15:12:37.844,-8.888980168088541e-05,-3.658810076658936,5.0
2025-03-05 15:12:37.852,-8.964776399578946e-05,-3.496269358216532,5.0
2025-03-05 15:12:37.860,-8.997386021650926e-05,-3.336892927086298,5.0
2025-03-05 15:12:37.867,-8.981837113276329e-05,-3.1816246353356714,5.0
2025-03-05 15:12:37.875,-8.913285007715408e-05,-3.030557076077812,5.0
2025-03-05 15:12:37.883,-8.787359252382829e-05,-2.882911022835857,5.0
2025-03-05 15:12:37.891,-8.600496258909143e-05,-2.737059719966403,5.0
2025-03-05 15:12:37.899,-8.350237534364984e-05,-2.59059730987379,5.0
2025-03-05 15:12:37.906,-8.035477563230193e-05,-2.4404485824831905,5.0
2025-03-05 15:12:37.914,-7.656649631184615e-05,-2.283015273406599,5.0
2025-03-05 15:12:37.922,-7.215842066470424e-05,-2.114352415840365,5.0
2025-03-05 15:12:37.930,-6.71684145314313e-05,-1.9303668524698545,5.0
2025-03-05 15:12:37.938,-6.16510328311005e-05,-1.72702900343795,5.0
2025-03-05 15:12:37.945,-5.567654208535511e-05,-1.5005884040510764,5.0
2025-03-05 15:12:37.953,-4.932933487293593e-05,-1.2477833814642665,5.0
2025-03-05 15:12:37.961,-4.270584340360245e-05,-0.966035519050284,5.0
2025-03-05 15:12:37.969,-3.591208722547932e-05,-0.6536202326060772,5.0
2025-03-05 15:12:37.977,-2.906101246288423e-05,-0.3098058217163502,5.0
2025-03-05 15:12:37.985,-2.2269786852484197e-05,0.0650452721715045,5.0
2025-03-05 15:12:37.992,-1.5657185202300994e-05,0.4694176163256807,5.0
2025-03-05 15:12:38.000,-9.341122143933449e-06,0.9006290869038852,5.0
2025-03-05 15:12:38.008,-3.436289099653736e-06,1.354863049640987,5.0
2025-03-05 15:12:38.016,1.948220326115952e-06,1.8272451083772068,5.0
2025-03-05 15:12:38.024,6.711430656763869e-06,2.311961141024209,5.0
2025-03-05 15:12:38.031,1.076325133672105e-05,2.802411560333484,5.0
2025-03-05 15:12:38.039,1.4027507303260216e-05,3.291395243013671,5.0
2025-03-05 15:12:38.047,1.6445118959022567e-05,3.771315452299469,5.0
2025-03-05 15:12:38.055,1.7977177026220733e-05,4.234399396462333,5.0
2025-03-05 15:12:38.063,1.8607583483078395e-05,4.672922843953312,5.0
2025-03-05 15:12:38.070,1.8344968881347377e-05,5.079431439339914,5.0
2025-03-05 15:12:38.078,1.7223723767902227e-05,5.446950978774403,5.0
2025-03-05 15:12:38.086,1.530411890461923e-05,5.769179827228361,5.0
2025-03-05 15:12:38.094,1.267156294905224e-05,6.040657797233898,5.0
2025-03-05 15:12:38.102,9.435044098353933e-06,6.256907065910623,5.0
2025-03-05 15:12:38.110,5.72476904553875e-06,6.414541998343338,5.0
2025-03-05 15:12:38.117,1.6889963795730417e-06,6.511346000518826,5.0
2025-03-05 15:12:38.125,-2.509926306391016e-06,6.546314691212778,5.0
2025-03-05 15:12:38.133,-6.70028279390203e-06,6.519665723253078,5.0
2025-03-05 15:12:38.141,-1.0706388859018787e-05,6.432816478633218,5.0
2025-03-05 15:12:38.149,-1.4354551052488942e-05,6.28833160084352,5.0
2025-03-05 15:12:38.156,-1.747941165047114e-05,6.089842917343292,5.0
2025-03-05 15:12:38.164,-1.993045453686726e-05,5.841944763792403,5.0
2025-03-05 15:12:38.172,-2.1578392306432608e-05,5.550068077549465,5.0
2025-03-05 15:12:38.180,-2.2321101629515776e-05,5.220336915117957,5.0
2025-03-05 15:12:38.188,-2.2088726225688597e-05,4.859411300903897,5.0
2025-03-05 15:12:38.195,-2.0847537219372525e-05,4.47432055555944,5.0
2025-03-05 15:12:38.203,-1.8602154376966792e-05,4.0722914792158615,5.0
2025-03-05 15:12:38.211,-1.5395812531653994e-05,3.660575948025741,5.0
2025-03-05 15:12:38.219,-1.130850402421407e-05,3.246282576441019,5.0
2025-03-05 15:12:38.227,-6.453013691856944e-06,2.83621706089159,5.0
2025-03-05 15:12:38.235,-9.690581909572835e-07,2.436735626041512,5.0
2025-03-05 15:12:38.242,4.984078938811928e-06,2.05361563233435,5.0
2025-03-05 15:12:38.250,1.123589069374564e-05,1.6919468783217604,5.0
2025-03-05 15:12:38.258,1.7613380126565745e-05,1.3560464606780511,5.0
2025-03-05 15:12:38.266,2.3949606044575426e-05,1.0493992615834196,5.0
2025-03-05 15:12:38.274,3.009152259289804e-05,0.7746252392666686,5.0
2025-03-05 15:12:38.281,3.5906677857891744e-05,0.5334737241544325,5.0
2025-03-05 15:12:38.289,4.128843098144855e-05,0.3268438967725933,5.0
2025-03-05 15:12:38.297,4.615944778457848e-05,0.1548295825476479,5.0
2025-03-05 15:12:38.305,5.047333849753565e-05,0.0167854943808797,5.0
2025-03-05 15:12:38.313,5.421440495666385e-05,-0.0885888540689272,5.0
2025-03-05 15:12:38.320,5.739556579483219e-05,-0.1631520929876644,5.0
2025-03-05 15:12:38.328,6.005462415313343e-05,-0.2092158678389247,5.0
2025-03-05 15:12:38.336,6.224913091402495e-05,-0.2294369887267556,5.0
2025-03-05 15:12:38.344,6.405017525680435e-05,-0.2267121963267779,5.0
2025-03-05 15:12:38.352,6.553550154949699e-05,-0.2040805564925649,5.0
2025-03-05 15:12:38.360,6.67824055371124e-05,-0.1646378586282944,5.0
2025-03-05 15:12:38.367,6.786090203022776e-05,-0.1114664731794357,5.0
2025-03-05 15:12:38.375,6.882767803740514e-05,-0.0475829710313947,5.0
2025-03-05 15:12:38.383,6.972133730569744e-05,0.0240955078423068,5.0
2025-03-05 15:12:38.391,7.055937363748906e-05,0.1007665407343305,5.0
2025-03-05 15:12:38.399,7.133714906474785e-05,0.1797411375454714,5.0
2025-03-05 15:12:38.406,7.202891420567469e-05,0.2584289050762235,5.0
2025-03-05 15:12:38.414,7.259066854937991e-05,0.3343137059988613,5.0
2025-03-05 15:12:38.422,7.296449465526112e-05,0.4049245830682308,5.0
2025-03-05 15:12:38.430,7.308392753283697e-05,0.4678070860278111,5.0
2025-03-05 15:12:38.438,7.287990670730809e-05,0.5205001184706919,5.0
2025-03-05 15:12:38.445,7.228687278272517e-05,0.5605230142685568,5.0
2025-03-05 15:12:38.453,7.124860049485613e-05,0.5853767852913891,5.0
2025-03-05 15:12:38.461,6.972340354403907e-05,0.5925624054357266,5.0
2025-03-05 15:12:38.469,6.768840156365478e-05,0.5796176820915165,5.0
2025-03-05 15:12:38.477,6.51426048638122e-05,0.5441728049044628,5.0
2025-03-05 15:12:38.485,6.210864636538474e-05,0.484023160353386,5.0
2025-03-05 15:12:38.492,5.863307051771061e-05,0.3972165784853479,5.0
2025-03-05 15:12:38.500,5.478517393801807e-05,0.2821509507162649,5.0
2025-03-05 15:12:38.508,5.065447985322139e-05,0.1376772166846913,5.0
2025-03-05 15:12:38.516,4.634701587929174e-05,-0.0367978809245347,5.0
2025-03-05 15:12:38.524,4.198064823039357e-05,-0.2412151126666655,5.0
2025-03-05 15:12:38.531,3.767979296514226e-05,-0.4747778764876719,5.0
2025-03-05 15:12:38.539,3.356985324393548e-05,-0.7358844102246185,5.0
2025-03-05 15:12:38.547,2.9771707097985927e-05,-1.0220817187667075,5.0
2025-03-05 15:12:38.555,2.6396515147543946e-05,-1.330044953171272,5.0
2025-03-05 15:12:38.563,2.3541069858705846e-05,-1.6555849616042548,5.0
2025-03-05 15:12:38.570,2.1283870414615847e-05,-1.9936856210921532,5.0
2025-03-05 15:12:38.578,1.9682054941189933e-05,-2.338571393629485,5.0
2025-03-05 15:12:38.586,1.876925753453646e-05,-2.683804371450108,5.0
2025-03-05 15:12:38.594,1.855441860244187e-05,-3.022408931774905,5.0
2025-03-05 15:12:38.602,1.902158339532165e-05,-3.347021062656819,5.0
2025-03-05 15:12:38.610,2.013075106206523e-05,-3.650058498420938,5.0
2025-03-05 15:12:38.617,2.1819838896486232e-05,-3.9239070556678346,5.0
2025-03-05 15:12:38.625,2.4007769754916592e-05,-4.161118009733148,5.0
2025-03-05 15:12:38.633,2.6598575890630165e-05,-4.3546109917178,5.0
2025-03-05 15:12:38.641,2.94862754994767e-05,-4.497876688761877,5.0
2025-03-05 15:12:38.649,3.256016894841717e-05,-4.585173555461439,5.0
2025-03-05 15:12:38.656,3.571015591245764e-05,-4.611712759232658,5.0
2025-03-05 15:12:38.664,3.88316952830556e-05,-4.573825672221016,5.0
2025-03-05 15:12:38.672,4.183009282411608e-05,-4.469108391518884,5.0
2025-03-05 15:12:38.680,4.46238818478744e-05,-4.296538037689847,5.0
2025-03-05 15:12:38.688,4.714714696670371e-05,-4.056555981922887,5.0
2025-03-05 15:12:38.695,4.9350725731387326e-05,-3.75111372961606,5.0
2025-03-05 15:12:38.703,5.120230497393246e-05,-3.3836779916866955,5.0
2025-03-05 15:12:38.711,5.26855054349357e-05,-2.959192540680581,5.0
2025-03-05 15:12:38.719,5.379811752857311e-05,-2.4839957840380764,5.0
2025-03-05 15:12:38.727,5.454971092296354e-05,-1.9656945614619477,5.0
2025-03-05 15:12:38.735,5.495888771071022e-05,-1.4129964196482996,5.0
2025-03-05 15:12:38.742,5.5050472296589706e-05,-0.8355044362162803,5.0
2025-03-05 15:12:38.750,5.485290913531957e-05,-0.2434804334117755,5.0
2025-03-05 15:12:38.758,5.4396060275212914e-05,0.3524159910658334,5.0
2025-03-05 15:12:38.766,5.370948434105578e-05,0.9414039103971952,5.0
2025-03-05 15:12:38.774,5.282118702919008e-05,1.5128634195248094,5.0
2025-03-05 15:12:38.781,5.175678672035413e-05,2.056613928139356,5.0
2025-03-05 15:12:38.789,5.0539026190069446e-05,2.56317854475728,5.0
2025-03-05 15:12:38.797,4.9187561887760815e-05,3.0240253019382326,5.0
2025-03-05 15:12:38.805,4.771896601213543e-05,3.431777022812791,5.0
2025-03-05 15:12:38.813,4.614688180022713e-05,3.780383060757052,5.0
2025-03-05 15:12:38.820,4.448227883286603e-05,4.065247862569157,5.0
2025-03-05 15:12:38.828,4.2733762477752295e-05,4.283313194257129,5.0
2025-03-05 15:12:38.836,4.090789956387308e-05,4.433092802557459,5.0
2025-03-05 15:12:38.844,3.900953072038166e-05,4.514660147583823,5.0
2025-03-05 15:12:38.852,3.7042048231637626e-05,4.529591535900849,5.0
2025-03-05 15:12:38.860,3.500762647782792e-05,4.480868438933414,5.0
2025-03-05 15:12:38.867,3.2907399782366705e-05,4.372743957412331,5.0
2025-03-05 15:12:38.875,3.074158952981809e-05,4.21057927325393,5.0
2025-03-05 15:12:38.883,2.8509588536009597e-05,4.000656522414321,5.0
2025-03-05 15:12:38.891,2.6210015663111468e-05,3.74997484777396,5.0
2025-03-05 15:12:38.899,2.3840757432177243e-05,3.466036478776276,5.0
2025-03-05 15:12:38.906,2.139901579053343e-05,3.156629561524803,5.0
2025-03-05 15:12:38.914,1.8881382181714547e-05,2.829614151020382,5.0
2025-03-05 15:12:38.922,1.6283957626852395e-05,2.492717295741731,5.0
2025-03-05 15:12:38.930,1.360253668983264e-05,2.153342518426021,5.0
2025-03-05 15:12:38.938,1.0832870040719158e-05,1.8183982594043304,5.0
2025-03-05 15:12:38.945,7.971015973261564e-06,1.4941490401220594,5.0
2025-03-05 15:12:38.953,5.013785834195533e-06,1.1860922625258614,5.0
2025-03-05 15:12:38.961,1.959282083335941e-06,0.8988627126170579,5.0
2025-03-05 15:12:38.969,-1.1924791445251411e-06,0.636165998283156,5.0
2025-03-05 15:12:38.977,-4.438876304285712e-06,0.4007413286317282,5.0
2025-03-05 15:12:38.985,-7.773944133487594e-06,0.1943532408417861,5.0
2025-03-05 15:12:38.992,-1.1187618433647147e-05,0.0178111136703499,5.0
2025-03-05 15:12:39.000,-1.4665000151879571e-05,-0.1289854073664335,5.0
2025-03-05 15:12:39.008,-1.8185680735513565e-05,-0.2469775896707131,5.0
2025-03-05 15:12:39.016,-2.1723175434911825e-05,-0.3378584665817583,5.0
2025-03-05 15:12:39.024,-2.524451463458264e-05,-0.4039668828645133,5.0
2025-03-05 15:12:39.031,-2.8710045198886305e-05,-0.4481685953047386,5.0
2025-03-05 15:12:39.039,-3.207349407379943e-05,-0.4737285247834948,5.0
2025-03-05 15:12:39.047,-3.528234489596169e-05,-0.4841783757565157,5.0
2025-03-05 15:12:39.055,-3.82785750966015e-05,-0.4831838356174384,5.0
2025-03-05 15:12:39.063,-4.099979599589847e-05,-0.4744154300181567,5.0
2025-03-05 15:12:39.070,-4.338083178530321e-05,-0.4614268368581593,5.0
2025-03-05 15:12:39.078,-4.535576529296161e-05,-0.4475440592337535,5.0
2025-03-05 15:12:39.086,-4.686046930029151e-05,-0.4357683466290022,5.0
2025-03-05 15:12:39.094,-4.783563065374102e-05,-0.4286951618638543,5.0
2025-03-05 15:12:39.102,-4.823025122830756e-05,-0.4284508470281642,5.0
2025-03-05 15:12:39.110,-4.800555481840221e-05,-0.4366479698287269,5.0
2025-03-05 15:12:39.117,-4.7139131588530935e-05,-0.4543596549176466,5.0
2025-03-05 15:12:39.125,-4.5629038690292174e-05,-0.4821125453776316,5.0
2025-03-05 15:12:39.133,-4.349749744094341e-05,-0.519897422308136,5.0
2025-03-05 15:12:39.141,-4.0793810506795286e-05,-0.5671959631187508,5.0
2025-03-05 15:12:39.149,-3.759615530350831e-05,-0.6230216714088214,5.0
2025-03-05 15:12:39.156,-3.401197087966448e-05,-0.6859726900763367,5.0
2025-03-05 15:12:39.164,-3.017673388387219e-05,-0.7542940307997383,5.0
2025-03-05 15:12:39.172,-2.625101138764373e-05,-0.8259467169115959,5.0
2025-03-05 15:12:39.180,-2.241578203611612e-05,-0.8986814255027467,5.0
2025-03-05 15:12:39.188,-1.886612943440767e-05,-0.9701143984072916,5.0
2025-03-05 15:12:39.195,-1.5803529600607137e-05,-1.0378036349833202,5.0
2025-03-05 15:12:39.203,-1.3427074062651084e-05,-1.09932364789107,5.0
2025-03-05 15:12:39.211,-1.1924086097374769e-05,-1.152337327682806,5.0
2025-03-05 15:12:39.219,-1.1460685714586213e-05,-1.1946637017367414,5.0
2025-03-05 15:12:39.227,-1.217291255421216e-05,-1.224340572981876,5.0
2025-03-05 15:12:39.235,-1.4158999454354204e-05,-1.2396811726499586,5.0
2025-03-05 15:12:39.242,-1.747330266564058e-05,-1.2393240504911134,5.0
2025-03-05 15:12:39.250,-2.212226059402504e-05,-1.2222754540155245,5.0
2025-03-05 15:12:39.258,-2.80625895947695e-05,-1.187943427214711,5.0
2025-03-05 15:12:39.266,-3.520173538178852e-05,-1.136162816165831,5.0
2025-03-05 15:12:39.274,-4.340039863189024e-05,-1.0672103414981098,5.0
2025-03-05 15:12:39.281,-5.247679444891784e-05,-0.9818089241314562,5.0
2025-03-05 15:12:39.289,-6.22122371087154e-05,-0.8811205608705716,5.0
2025-03-05 15:12:39.297,-7.235766467561243e-05,-0.7667272569009057,5.0
2025-03-05 15:12:39.305,-8.264079435094964e-05,-0.6405998356102554,5.0
2025-03-05 15:12:39.313,-9.277369197670397e-05,-0.5050548525379593,5.0
2025-03-05 15:12:39.320,-0.0001024606222608,-0.3627003178840384,5.0
2025-03-05 15:12:39.328,-0.0001114060934002,-0.2163714479100701,5.0
2025-03-05 15:12:39.336,-0.000119323005745,-0.069058179013251,5.0
2025-03-05 15:12:39.344,-0.0001259407803403,0.0761733518660368,5.0
2025-03-05 15:12:39.352,-0.0001310133170824,0.216262764609829,5.0
2025-03-05 15:12:39.360,-0.0001343266171958,0.3482379454348233,5.0
2025-03-05 15:12:39.367,-0.0001357058763793,0.4692950547761929,5.0
2025-03-05 15:12:39.375,-0.0001350218157607,0.5768729503982261,5.0
2025-03-05 15:12:39.383,-0.000132195996942,0.6687190685374322,5.0
2025-03-05 15:12:39.391,-0.0001272048677241,0.7429441022474736,5.0
2025-03-05 15:12:39.399,-0.0001200822827986,0.798063292419963,5.0
2025-03-05 15:12:39.406,-0.0001109202430287,0.8330227980054985,5.0
2025-03-05 15:12:39.414,-9.98676364233338e-05,0.8472104074423115,5.0
2025-03-05 15:12:39.422,-8.712686599302626e-05,0.8404507341450825,5.0
2025-03-05 15:12:39.430,-7.294839865625958e-05,0.8129859250286833,5.0
2025-03-05 15:12:39.438,-5.762343136921656e-05,0.7654437171465489,5.0
2025-03-05 15:12:39.445,-4.147500954079359e-05,0.6987953290824503,5.0
2025-03-05 15:12:39.453,-2.4848021170070823e-05,0.6143061170537819,5.0
2025-03-05 15:12:39.461,-8.098526619637847e-06,0.5134821308376185,5.0
2025-03-05 15:12:39.469,8.417110168884551e-06,0.3980156644784599,5.0
2025-03-05 15:12:39.477,2.4352834031389345e-05,0.2697326263380428,5.0
2025-03-05 15:12:39.485,3.9382837469401325e-05,0.130544089792289,5.0
2025-03-05 15:12:39.492,5.32104839967036e-05,-0.017596213961453,5.0
2025-03-05 15:12:39.500,6.557596232140355e-05,-0.1727273706112951,5.0
2025-03-05 15:12:39.508,7.626248146519034e-05,-0.3329093147167756,5.0
2025-03-05 15:12:39.516,8.51008548898349e-05,-0.4962436461496834,5.0
2025-03-05 15:12:39.524,9.197237003570158e-05,-0.6608880108217963,5.0
2025-03-05 15:12:39.531,9.680991976903872e-05,-0.8250652576247637,5.0
2025-03-05 15:12:39.539,9.959747031402248e-05,-0.9870688663218544,5.0
2025-03-05 15:12:39.547,0.000100368033847,-1.145266257769135,5.0
2025-03-05 15:12:39.555,9.920039057367172e-05,-1.2981015453284783,5.0
2025-03-05 15:12:39.563,9.62148529462188e-05,-1.444099075158909,5.0
2025-03-05 15:12:39.571,9.156836314468266e-05,-1.581868759385313,5.0
2025-03-05 15:12:39.578,8.544915336624616e-05,-1.7101137747155388,5.0
2025-03-05 15:12:39.586,7.80711041235359e-05,-1.8276407392942229,5.0
2025-03-05 15:12:39.594,6.966785973208562e-05,-1.9333720531556549,5.0
2025-03-05 15:12:39.602,6.048672987961878e-05,-2.0263597391028587,5.0
2025-03-05 15:12:39.610,5.078241123441637e-05,-2.105799875830708,5.0
2025-03-05 15:12:39.617,4.081058335173289e-05,-2.171046579653037,5.0
2025-03-05 15:12:39.625,3.0821459114718535e-05,-2.221624460929478,5.0
2025-03-05 15:12:39.633,2.105339970415633e-05,-2.2572385469271543,5.0
2025-03-05 15:12:39.641,1.1726736952296604e-05,-2.27778081056951,5.0
2025-03-05 15:12:39.649,3.03798082178173e-06,-2.283332654398916,5.0
2025-03-05 15:12:39.656,-4.845374793492411e-06,-2.274162946885545,5.0
2025-03-05 15:12:39.664,-1.1789202134636096e-05,-2.250721472324654,5.0
2025-03-05 15:12:39.672,-1.769598166938812e-05,-2.213627922537886,5.0
2025-03-05 15:12:39.680,-2.250669177006301e-05,-2.163656819767413,5.0
2025-03-05 15:12:39.688,-2.620117352599665e-05,-2.1017190022396868,5.0
2025-03-05 15:12:39.696,-2.879690848714156e-05,-2.0288405044656077,5.0
2025-03-05 15:12:39.703,-3.0346268600577168e-05,-1.946139796974962,5.0
2025-03-05 15:12:39.711,-3.093241750700483e-05,-1.8548043939718744,5.0
2025-03-05 15:12:39.719,-3.066414798290709e-05,-1.756067785025783,5.0
2025-03-05 15:12:39.727,-2.967000474984492e-05,-1.6511875083830347,5.0
2025-03-05 15:12:39.735,-2.8092051048992952e-05,-1.5414249839569163,5.0
2025-03-05 15:12:39.742,-2.607960679144589e-05,-1.4280274952398282,5.0
2025-03-05 15:12:39.750,-2.3783239032294394e-05,-1.3122124789911456,5.0
2025-03-05 15:12:39.758,-2.134923425076412e-05,-1.1951540678790675,5.0
2025-03-05 15:12:39.766,-1.8914730477703e-05,-1.0779716453843988,5.0
2025-03-05 15:12:39.774,-1.6603637843438843e-05,-0.9617200235344372,5.0
2025-03-05 15:12:39.781,-1.452343046146666e-05,-0.8473807527033104,5.0
2025-03-05 15:12:39.789,-1.2762852204343928e-05,-0.7358540290395452,5.0
2025-03-05 15:12:39.797,-1.1390544980253362e-05,-0.627950687478084,5.0
2025-03-05 15:12:39.805,-1.0454581309288612e-05,-0.52438386182952,5.0
2025-03-05 15:12:39.813,-9.982863673205331e-06,-0.4257600572647388,5.0
2025-03-05 15:12:39.821,-9.984341251021611e-06,-0.3325696042890512,5.0
2025-03-05 15:12:39.828,-1.0450988271688909e-05,-0.2451767256036251,5.0
2025-03-05 15:12:39.836,-1.1360476969073514e-05,-0.1638097186904393,5.0
2025-03-05 15:12:39.844,-1.26794404943781e-05,-0.0885520065324661,5.0
2025-03-05 15:12:39.852,-1.4367144824175111e-05,-0.0193350084392167,5.0
2025-03-05 15:12:39.860,-1.637929877179644e-05,0.0440660935883722,5.0
2025-03-05 15:12:39.867,-1.867167616443593e-05,0.1020325962766782,5.0
2025-03-05 15:12:39.875,-2.120322862186434e-05,0.1550975311412388,5.0
2025-03-05 15:12:39.883,-2.393841778691646e-05,0.2039351796756996,5.0
2025-03-05 15:12:39.891,-2.6848569189543094e-05,0.2493444514422721,5.0
2025-03-05 15:12:39.899,-2.991213371009414e-05,0.2922261746025102,5.0
2025-03-05 15:12:39.906,-3.3113832242473355e-05,0.333554829990679,5.0
2025-03-05 15:12:39.914,-3.644275153596982e-05,0.37434572362063,5.0
2025-03-05 15:12:39.922,-3.9889551140056265e-05,0.4156189943742807,5.0
2025-03-05 15:12:39.930,-4.344302970986392e-05,0.45836216492671,5.0
2025-03-05 15:12:39.938,-4.708638053366395e-05,0.5034931491771103,5.0
2025-03-05 15:12:39.946,-5.079353640237409e-05,0.5518257185665706,5.0
2025-03-05 15:12:39.953,-5.452605037480812e-05,0.6040393924824384,5.0
2025-03-05 15:12:39.961,-5.823095684093901e-05,0.6606555449900404,5.0
2025-03-05 15:12:39.969,-6.183998348223748e-05,0.7220212094299597,5.0
2025-03-05 15:12:39.977,-6.527034158930519e-05,0.7883016270073696,5.0
2025-03-05 15:12:39.985,-6.842713738471347e-05,0.8594820558974319,5.0
2025-03-05 15:12:39.992,-7.120725138313083e-05,0.9353787773625104,5.0
2025-03-05 15:12:40.000,-7.350435286384888e-05,1.0156586531070628,5.0
2025-03-05 15:12:40.008,-7.521458310626704e-05,1.0998660466572625,5.0
2025-03-05 15:12:40.016,-7.624238181033276e-05,1.187455453229142,5.0
2025-03-05 15:12:40.024,-7.65059483952505e-05,1.277827809112719,5.0
2025-03-05 15:12:40.031,-7.594190053213138e-05,1.370368187575007,5.0
2025-03-05 15:12:40.039,-7.450879146682799e-05,1.464482442204141,5.0
2025-03-05 15:12:40.047,-7.2189262781343e-05,1.5596303310976949,5.0
2025-03-05 15:12:40.055,-6.89907353450428e-05,1.655352738574053,5.0
2025-03-05 15:12:40.063,-6.494467318734535e-05,1.7512907945116558,5.0
2025-03-05 15:12:40.071,-6.0104579478931134e-05,1.847194970244585,5.0
2025-03-05 15:12:40.078,-5.454297462861159e-05,1.9429226097571688,5.0
2025-03-05 15:12:40.086,-4.834763882499579e-05,2.0384228484876616,5.0
2025-03-05 15:12:40.094,-4.161737686299573e-05,2.1337084919019897,5.0
2025-03-05 15:12:40.102,-3.445751642656788e-05,2.228815175459196,5.0
2025-03-05 15:12:40.110,-2.697532883039348e-05,2.323748989905131,5.0
2025-03-05 15:12:40.117,-1.9275587915484156e-05,2.4184246861425587,5.0
2025-03-05 15:12:40.125,-1.1456536661500282e-05,2.512597502685465,5.0
2025-03-05 15:12:40.133,-3.60656311741663e-06,2.605792505422672,5.0
2025-03-05 15:12:40.141,4.198136295486003e-06,2.6972360158949344,5.0
2025-03-05 15:12:40.149,1.1894714605988871e-05,2.785794161888369,5.0
2025-03-05 15:12:40.156,1.94336001778803e-05,2.869923758492774,5.0
2025-03-05 15:12:40.164,2.6777292159310807e-05,2.947640582481836,5.0
2025-03-05 15:12:40.172,3.3898253249789344e-05,3.0165096194408885,5.0
2025-03-05 15:12:40.180,4.07762114211919e-05,3.0736610376128937,5.0
2025-03-05 15:12:40.188,4.73952340476613e-05,3.115834485192673,5.0
2025-03-05 15:12:40.196,5.374095283593407e-05,3.13945284986494,5.0
2025-03-05 15:12:40.203,5.9798274592506406e-05,3.140724923414905,5.0
2025-03-05 15:12:40.211,6.554980331394749e-05,3.1157745793966,5.0
2025-03-05 15:12:40.219,7.097505041455468e-05,3.0607922259160865,5.0
2025-03-05 15:12:40.227,7.60503815120606e-05,2.9722025771451537,5.0
2025-03-05 15:12:40.235,8.074959050336983e-05,2.8468413268039767,5.0
2025-03-05 15:12:40.242,8.50449970532363e-05,2.6821322152243217,5.0
2025-03-05 15:12:40.250,8.890897488493818e-05,2.476255345809616,5.0
2025-03-05 15:12:40.258,9.231579105215768e-05,2.2282974892978653,5.0
2025-03-05 15:12:40.266,9.524358322160572e-05,1.93837554941227,5.0
2025-03-05 15:12:40.274,9.76762690911721e-05,1.607725351016704,5.0
2025-03-05 15:12:40.281,9.960519378493185e-05,1.2387494136633674,5.0
2025-03-05 15:12:40.289,0.0001010303643813,0.8350193152384563,5.0
2025-03-05 15:12:40.297,0.000101961173362,0.4012305274571561,5.0
2025-03-05 15:12:40.305,0.0001024165635372,-0.0568899121584065,5.0
2025-03-05 15:12:40.313,0.0001024246330086,-0.5327199876548915,5.0
2025-03-05 15:12:40.321,0.0001020217188971,-1.018918215632712,5.0
2025-03-05 15:12:40.328,0.0001012510320697,-1.5076305920709212,5.0
2025-03-05 15:12:40.336,0.000100160941325,-1.990719776372752,5.0
2025-03-05 15:12:40.344,9.88030240594236e-05,-2.460006171949899,5.0
2025-03-05 15:12:40.352,9.723001116131387e-05,-2.9075100624476224,5.0
2025-03-05 15:12:40.360,9.549375680303184e-05,-3.325684117195538,5.0
2025-03-05 15:12:40.367,9.3643359140014e-05,-3.70762635091246,5.0
2025-03-05 15:12:40.375,9.172354609414796e-05,-4.047264937143733,5.0
2025-03-05 15:12:40.383,8.977342195674246e-05,-4.3395080318145975,5.0
2025-03-05 15:12:40.391,8.78256462179474e-05,-4.580353839515514,5.0
2025-03-05 15:12:40.399,8.590608666585123e-05,-4.766958408317975,5.0
2025-03-05 15:12:40.406,8.403395537224872e-05,-4.897660914101791,5.0
2025-03-05 15:12:40.414,8.222239976776577e-05,-4.971968336166629,5.0
2025-03-05 15:12:40.422,8.047948276663434e-05,-4.990503290064379,5.0
2025-03-05 15:12:40.430,7.880944705817521e-05,-4.954920260345019,5.0
2025-03-05 15:12:40.438,7.721412051300522e-05,-4.867796497593043,5.0
2025-03-05 15:12:40.446,7.569428508385829e-05,-4.732504386878031,5.0
2025-03-05 15:12:40.453,7.425081160313911e-05,-4.55307217177547,5.0
2025-03-05 15:12:40.461,7.288537937605853e-05,-4.334039573384114,5.0
2025-03-05 15:12:40.469,7.160066484997494e-05,-4.08031414910332,5.0
2025-03-05 15:12:40.477,7.039997433436884e-05,-3.797033288695324,5.0
2025-03-05 15:12:40.485,6.928637260516517e-05,-3.4894356604626595,5.0
2025-03-05 15:12:40.492,6.826141780287664e-05,-3.16274481462947,5.0
2025-03-05 15:12:40.500,6.732367720381744e-05,-2.8220666222806465,5.0
2025-03-05 15:12:40.508,6.646726415931107e-05,-2.4723013443657877,5.0
2025-03-05 15:12:40.516,6.568066540738793e-05,-2.118070423990755,5.0
2025-03-05 15:12:40.524,6.4946097665594e-05,-1.7636575890924897,5.0
2025-03-05 15:12:40.531,6.423955685365183e-05,-1.412963532532755,5.0
2025-03-05 15:12:40.539,6.353162621374175e-05,-1.0694732740346955,5.0
2025-03-05 15:12:40.547,6.278900575822284e-05,-0.7362352602940664,5.0
2025-03-05 15:12:40.555,6.197662988642907e-05,-0.4158512781024031,5.0
2025-03-05 15:12:40.563,6.106017713894823e-05,-0.1104762967241623,5.0
2025-03-05 15:12:40.571,6.0008761026270775e-05,0.1781726148380772,5.0
2025-03-05 15:12:40.578,5.879760290025831e-05,0.4487991580989227,5.0
2025-03-05 15:12:40.586,5.741049059735272e-05,0.7005033851050649,5.0
2025-03-05 15:12:40.594,5.584182001488009e-05,0.932751021184988,5.0
2025-03-05 15:12:40.602,5.409803710359267e-05,1.145337706072105,5.0
2025-03-05 15:12:40.610,5.219836399918436e-05,1.3383494701388323,5.0
2025-03-05 15:12:40.617,5.0174780223686485e-05,1.5121208653303904,5.0
2025-03-05 15:12:40.625,4.807129284369397e-05,1.66719220918982,5.0
2025-03-05 15:12:40.633,4.594254344493298e-05,1.804267367638721,5.0
2025-03-05 15:12:40.641,4.3851784228541485e-05,1.92417340437566,5.0
2025-03-05 15:12:40.649,4.186824892018571e-05,2.027823271685993,5.0
2025-03-05 15:12:40.656,4.006395693465184e-05,2.1161825153770963,5.0
2025-03-05 15:12:40.664,3.851000819277364e-05,2.1902407186208457,5.0
2025-03-05 15:12:40.672,3.7272452285602753e-05,2.250988121188664,5.0
2025-03-05 15:12:40.680,3.640786145705056e-05,2.2993975365053174,5.0
2025-03-05 15:12:40.688,3.595879875128486e-05,2.3364113766852928,5.0
2025-03-05 15:12:40.696,3.5949435109599654e-05,2.362933322157988,5.0
2025-03-05 15:12:40.703,3.638162135333353e-05,2.3798239727658124,5.0
2025-03-05 15:12:40.711,3.723175709496571e-05,2.3878997128192685,5.0
2025-03-05 15:12:40.719,3.844880684340535e-05,2.3879340169243624,5.0
2025-03-05 15:12:40.727,3.9953771593869366e-05,2.380660505328075,5.0
2025-03-05 15:12:40.735,4.1640819629571375e-05,2.366777205502505,5.0
2025-03-05 15:12:40.742,4.338013882417687e-05,2.346951659863997,5.0
2025-03-05 15:12:40.750,4.50224442828221e-05,2.321826700950772,5.0
2025-03-05 15:12:40.758,4.640498630579032e-05,2.2920268599162625,5.0
2025-03-05 15:12:40.766,4.7358843788451406e-05,2.2581654556087294,5.0
2025-03-05 15:12:40.774,4.771723594703751e-05,2.220852414118885,5.0
2025-03-05 15:12:40.781,4.7324524161235015e-05,2.1807027864450066,5.0
2025-03-05 15:12:40.789,4.604549313081734e-05,2.1383457699102166,5.0
2025-03-05 15:12:40.797,4.377439966161503e-05,2.0944338165705223,5.0
2025-03-05 15:12:40.805,4.044318693168092e-05,2.0496511631630407,5.0
2025-03-05 15:12:40.813,3.602821889335795e-05,2.0047208859800394,5.0
2025-03-05 15:12:40.821,3.0554919219218964e-05,1.960409416508733,5.0
2025-03-05 15:12:40.828,2.409981212295106e-05,1.917527392187833,5.0
2025-03-05 15:12:40.836,1.6789647914005912e-05,1.8769257945583415,5.0
2025-03-05 15:12:40.844,8.797524866981819e-06,1.839486560251005,5.0
2025-03-05 15:12:40.852,3.361599293833569e-07,1.8061072279753057,5.0
2025-03-05 15:12:40.860,-8.351312643734481e-06,1.7776796677516782,5.0
2025-03-05 15:12:40.867,-1.7002454544909735e-05,1.755063467224871,5.0
2025-03-05 15:12:40.875,-2.5347880762718665e-05,1.7390550570615304,5.0
2025-03-05 15:12:40.883,-3.3124160291865274e-05,1.7303540825681285,5.0
2025-03-05 15:12:40.891,-4.008657076536932e-05,1.7295288278309209,5.0
2025-03-05 15:12:40.899,-4.602103663035512e-05,1.7369826491512534,5.0
2025-03-05 15:12:40.906,-5.07545971971542e-05,1.7529233720597728,5.0
2025-03-05 15:12:40.914,-5.41637883529212e-05,1.777337459308763,5.0
2025-03-05 15:12:40.922,-5.618041257153701e-05,1.8099704846178977,5.0
2025-03-05 15:12:40.930,-5.679433572654337e-05,1.8503150757149376,5.0
2025-03-05 15:12:40.938,-5.605318217398105e-05,1.8976070520583883,5.0
2025-03-05 15:12:40.946,-5.405906432940832e-05,1.9508300107775745,5.0
2025-03-05 15:12:40.953,-5.096272320425322e-05,2.0087281442190883,5.0
2025-03-05 15:12:40.961,-4.695563293384496e-05,2.0698266425891068,5.0
2025-03-05 15:12:40.969,-4.226072110362349e-05,2.132458685283073,5.0
2025-03-05 15:12:40.977,-3.712237436866529e-05,2.194797789830736,5.0
2025-03-05 15:12:40.985,-3.179634628051086e-05,2.254894188761294,5.0
2025-03-05 15:12:40.992,-2.654008907864792e-05,2.3107139393687555,5.0
2025-03-05 15:12:41.000,-2.160392068676137e-05,2.3601796135556223,5.0
2025-03-05 15:12:41.008,-1.7223326582805494e-05,2.401211626692069,5.0
2025-03-05 15:12:41.016,-1.3612589345664075e-05,2.4317695075366204,5.0
2025-03-05 15:12:41.024,-1.0959840067910456e-05,2.449892652106887,5.0
2025-03-05 15:12:41.031,-9.423538357494212e-06,2.4537403112541574,5.0
2025-03-05 15:12:41.039,-9.130313527087516e-06,2.4416307012283043,5.0
2025-03-05 15:12:41.047,-1.0174040269751771e-05,2.412079167409164,5.0
2025-03-05 15:12:41.055,-1.2615978417432614e-05,2.3638352554335182,5.0
2025-03-05 15:12:41.063,-1.648577836997565e-05,2.295918355477976,5.0
2025-03-05 15:12:41.071,-2.178314093228268e-05,2.2076513112126985,5.0
2025-03-05 15:12:41.078,-2.8479921506297185e-05,2.098691065912361,5.0
2025-03-05 15:12:41.086,-3.652248226658897e-05,1.9690551005614865,5.0
2025-03-05 15:12:41.094,-4.583412011956721e-05,1.8191421490703568,5.0
2025-03-05 15:12:41.102,-5.631743062131454e-05,1.6497454998171477,5.0
2025-03-05 15:12:41.110,-6.785650612087914e-05,1.4620571536088207,5.0
2025-03-05 15:12:41.117,-8.031890761807346e-05,1.257661238174208,5.0
2025-03-05 15:12:41.125,-9.355739159156846e-05,1.0385153902580333,5.0
2025-03-05 15:12:41.133,-0.0001074114128757,0.8069192953373759,5.0
2025-03-05 15:12:41.141,-0.000121708460243,0.5654701888523417,5.0
2025-03-05 15:12:41.149,-0.0001362653106511,0.317005826225103,5.0
2025-03-05 15:12:41.156,-0.0001508893094568,0.0645361691321185,5.0
2025-03-05 15:12:41.164,-0.0001653797959975,-0.1888342450067952,5.0
2025-03-05 15:12:41.172,-0.000179529795967,-0.4399906426102105,5.0
2025-03-05 15:12:41.180,-0.0001931280936331,-0.6858959449479964,5.0
2025-03-05 15:12:41.188,-0.0002059617783216,-0.9236788350680666,5.0
2025-03-05 15:12:41.196,-0.000217819331414,-1.150718367579366,5.0
2025-03-05 15:12:41.203,-0.0002284942835634,-1.3647216038729244,5.0
2025-03-05 15:12:41.211,-0.0002377894285783,-1.56379103845281,5.0
2025-03-05 15:12:41.219,-0.0002455215325637,-1.7464790484936037,5.0
2025-03-05 15:12:41.227,-0.0002515264268897,-1.9118272104973704,5.0
2025-03-05 15:12:41.235,-0.0002556643241645,-2.059389037642707,5.0
2025-03-05 15:12:41.242,-0.0002578251505636,-2.1892354456303504,5.0
2025-03-05 15:12:41.250,-0.0002579336487112,-2.3019429982842543,5.0
2025-03-05 15:12:41.258,-0.0002559539758738,-2.398565666229836,5.0
2025-03-05 15:12:41.266,-0.0002518935054624,-2.480591413385905,5.0
2025-03-05 15:12:41.274,-0.0002458055384401,-2.5498853852075394,5.0
2025-03-05 15:12:41.281,-0.0002377906475083,-2.6086218096319924,5.0
2025-03-05 15:12:41.289,-0.0002279964127107,-2.6592069550185795,5.0
2025-03-05 15:12:41.297,-0.0002166153635408,-2.70419564490818,5.0
2025-03-05 15:12:41.305,-0.000203881020228,-2.746203928338191,5.0
2025-03-05 15:12:41.313,-0.0001900620252506,-2.7878205580274344,5.0
2025-03-05 15:12:41.321,-0.0001754544740286,-2.8315199395473023,5.0
2025-03-05 15:12:41.328,-0.000160372687372,-2.879579178727787,5.0
2025-03-05 15:12:41.336,-0.0001451388047564,-2.934001763351607,5.0
2025-03-05 15:12:41.344,-0.0001300716905415,-2.9964502572964578,5.0
2025-03-05 15:12:41.352,-0.0001154757089765,-3.068190149388162,5.0
2025-03-05 15:12:41.360,-0.0001016299365473,-3.150046677582218,5.0
2025-03-05 15:12:41.367,-8.877836279411437e-05,-3.242376040981234,5.0
2025-03-05 15:12:41.375,-7.712159648857946e-05,-3.345051925344748,5.0
2025-03-05 15:12:41.383,-6.681053044402833e-05,-3.457467716973964,5.0
2025-03-05 15:12:41.391,-5.794230513049544e-05,-3.578554185467965,5.0
2025-03-05 15:12:41.399,-5.055875125103327e-05,-3.706811804820286,5.0
2025-03-05 15:12:41.406,-4.464731129737887e-05,-3.840356291018298,5.0
2025-03-05 15:12:41.414,-4.014426722849947e-05,-3.9769754068482577,5.0
2025-03-05 15:12:41.422,-3.693995142841035e-05,-4.1141946633813,5.0
2025-03-05 15:12:41.430,-3.4885505774900926e-05,-4.249349261514576,5.0
2025-03-05 15:12:41.438,-3.380070220303162e-05,-4.379659476577249,5.0
2025-03-05 15:12:41.446,-3.348236053166543e-05,-4.502306690860587,5.0
2025-03-05 15:12:41.453,-3.371297015472791e-05,-4.614507412679516,5.0
2025-03-05 15:12:41.461,-3.426919180082258e-05,-4.713582873518633,5.0
2025-03-05 15:12:41.469,-3.4929957441856365e-05,-4.797022151969951,5.0
2025-03-05 15:12:41.477,-3.548391132031319e-05,-4.862537216099448,5.0
2025-03-05 15:12:41.485,-3.573596285960377e-05,-4.908108783039889,5.0
2025-03-05 15:12:41.492,-3.5512761659734084e-05,-4.932022442195407,5.0
2025-03-05 15:12:41.500,-3.466695632091179e-05,-4.932895049399346,5.0
2025-03-05 15:12:41.508,-3.308016111283493e-05,-4.909691940021223,5.0
2025-03-05 15:12:41.516,-3.0664625958264446e-05,-4.861735985902765,5.0
2025-03-05 15:12:41.524,-2.7363684082939647e-05,-4.788709882888927,5.0
2025-03-05 15:12:41.531,-2.3151134452233017e-05,-4.6906532541419415,5.0
2025-03-05 15:12:41.539,-1.8029790985626725e-05,-4.567956158596783,5.0
2025-03-05 15:12:41.547,-1.2029473019048916e-05,-4.421350400895249,5.0
2025-03-05 15:12:41.555,-5.204698282721088e-06,-4.251899674228436,5.0
2025-03-05 15:12:41.563,2.367727668168892e-06,-4.060989077842815,5.0
2025-03-05 15:12:41.571,1.0591126771761568e-05,-3.850313997694333,5.0
2025-03-05 15:12:41.578,1.935136538181596e-05,-3.621867790138191,5.0
2025-03-05 15:12:41.586,2.8519351606113795e-05,-3.3779272323953644,5.0
2025-03-05 15:12:41.594,3.795375303729937e-05,-3.121034358190387,5.0
2025-03-05 15:12:41.602,4.750410248945919e-05,-2.853973123923521,5.0
2025-03-05 15:12:41.610,5.701443070526808e-05,-2.579739371792507,5.0
2025-03-05 15:12:41.617,6.632746769607857e-05,-2.301502774577122,5.0
2025-03-05 15:12:41.625,7.528931459570282e-05,-2.022559850267516,5.0
2025-03-05 15:12:41.633,8.375435800576555e-05,-1.7462776993012838,5.0
2025-03-05 15:12:41.641,9.159011631002432e-05,-1.4760288065293456,5.0
2025-03-05 15:12:41.649,9.86816854723608e-05,-1.2151180122273828,5.0
2025-03-05 15:12:41.656,0.0001049354933012,-0.9667035248571548,5.0
2025-03-05 15:12:41.664,0.0001102821653542,-0.7337145505893463,5.0
2025-03-05 15:12:41.672,0.0001146784237801,-0.5187686847795093,5.0
2025-03-05 15:12:41.680,0.0001181080464187,-0.3240925958761205,5.0
2025-03-05 15:12:41.688,0.0001205819736077,-0.1514496944063004,5.0
2025-03-05 15:12:41.696,0.0001221376487283,-0.0020783958919309,5.0
2025-03-05 15:12:41.703,0.0001228376397482,0.1233557460541007,5.0
2025-03-05 15:12:41.711,0.0001227675612937,0.2247913206006574,5.0
2025-03-05 15:12:41.719,0.0001220333252739,0.302783784932969,5.0
2025-03-05 15:12:41.727,0.0001207577807087,0.3584985402666141,5.0
2025-03-05 15:12:41.735,0.0001190768389268,0.393684206664298,5.0
2025-03-05 15:12:41.742,0.000117135208613,0.4106268856494214,5.0
2025-03-05 15:12:41.750,0.0001150818844709,0.4120870771646997,5.0
2025-03-05 15:12:41.758,0.0001130655435216,0.4012216742409771,5.0
2025-03-05 15:12:41.766,0.0001112300044417,0.3814940454175681,5.0
2025-03-05 15:12:41.774,0.0001097098981653,0.3565755975419817,5.0
2025-03-05 15:12:41.781,0.0001086266826536,0.3302423795114269,5.0
2025-03-05 15:12:41.789,0.0001080851118472,0.3062702543201071,5.0
2025-03-05 15:12:41.797,0.0001081702389923,0.2883319634905799,5.0
2025-03-05 15:12:41.805,0.0001089449985576,0.279899075362245,5.0
2025-03-05 15:12:41.813,0.0001104483713092,0.2841513923548047,5.0
2025-03-05 15:12:41.821,0.0001126941044488,0.3038959390373726,5.0
2025-03-05 15:12:41.828,0.0001156699547305,0.3414972048545472,5.0
2025-03-05 15:12:41.836,0.0001193374595111,0.3988199030409592,5.0
2025-03-05 15:12:41.844,0.0001236322937336,0.4771851454083715,5.0
2025-03-05 15:12:41.852,0.0001284652914262,0.5773406228883328,5.0
2025-03-05 15:12:41.860,0.0001337241756463,0.6994451169479622,5.0
2025-03-05 15:12:41.867,0.0001392759741996,0.8430674346735607,5.0
2025-03-05 15:12:41.875,0.0001449700456775,1.0071996440737931,5.0
2025-03-05 15:12:41.883,0.0001506416352592,1.190284268283729,5.0
2025-03-05 15:12:41.891,0.0001561159219619,1.390254861067982,5.0
2025-03-05 15:12:41.899,0.0001612125739242,1.6045891171330828,5.0
2025-03-05 15:12:41.906,0.0001657508479043,1.8303733604138648,5.0
2025-03-05 15:12:41.914,0.0001695552199855,2.0643769024332856,5.0
2025-03-05 15:12:41.922,0.0001724614184535,2.303134385421308,5.0
2025-03-05 15:12:41.930,0.0001743225858654,2.5430338510204136,5.0
2025-03-05 15:12:41.938,0.0001750151852114,2.780407948961212,5.0
2025-03-05 15:12:41.946,0.0001744442354778,3.011625472622343,5.0
2025-03-05 15:12:41.953,0.0001725475186745,3.233180327296997,5.0
2025-03-05 15:12:41.961,0.0001692984971239,3.441775131437736,5.0
2025-03-05 15:12:41.969,0.0001647077688487,3.634396924157926,5.0
2025-03-05 15:12:41.977,0.0001588229588911,3.808382883069038,5.0
2025-03-05 15:12:41.985,0.0001517270076557,3.9614745078288975,5.0
2025-03-05 15:12:41.992,0.0001435348914665,4.091859348028703,5.0
2025-03-05 15:12:42.000,0.0001343889174677,4.198199992516323,5.0
2025-03-05 15:12:42.008,0.0001244528840312,4.279650629934105,5.0
2025-03-05 15:12:42.016,0.0001139055524886,4.335861977717969,5.0
2025-03-05 15:12:42.024,0.0001029339635296,4.366975709063901,5.0
2025-03-05 15:12:42.032,9.172710433763956e-05,4.373609653982302,5.0
2025-03-05 15:12:42.039,8.047030543197131e-05,4.356835009467725,5.0
2025-03-05 15:12:42.047,6.934057029712319e-05,4.318146593048867,5.0
2025-03-05 15:12:42.055,5.8502865566702416e-05,4.259426866718685,5.0
2025-03-05 15:12:42.063,4.810726571929346e-05,4.182904116317912,5.0
2025-03-05 15:12:42.071,3.828678327668259e-05,4.091104877121613,5.0
2025-03-05 15:12:42.078,2.91557237748286e-05,3.9868005270455393,5.0
2025-03-05 15:12:42.086,2.080845093441147e-05,3.872947976994662,5.0
2025-03-05 15:12:42.094,1.3318485199142273e-05,3.752624587453644,5.0
2025-03-05 15:12:42.102,6.737863275941288e-06,3.6289578072615143,5.0
2025-03-05 15:12:42.110,1.0966778159393997e-06,3.5050505129018874,5.0
2025-03-05 15:12:42.117,-3.5972599001202474e-06,3.3839035596164724,5.0
2025-03-05 15:12:42.125,-7.358615969636423e-06,3.2683375726893003,5.0
2025-03-05 15:12:42.133,-1.0224469591473334e-05,3.160916446796634,5.0
2025-03-05 15:12:42.141,-1.2253792278902069e-05,3.063875330752412,5.0
2025-03-05 15:12:42.149,-1.3526256945220572e-05,2.97905601486892,5.0
2025-03-05 15:12:42.157,-1.414020897076281e-05,2.9078525855869883,5.0
2025-03-05 15:12:42.164,-1.4209716652137594e-05,2.8511699613132624,5.0
2025-03-05 15:12:42.172,-1.3860718212339749e-05,2.809397485374831,5.0
2025-03-05 15:12:42.180,-1.322638414305244e-05,2.782399153277035,5.0
2025-03-05 15:12:42.188,-1.2441912353564264e-05,2.7695213319985954,5.0
2025-03-05 15:12:42.196,-1.1639064661416766e-05,2.7696180363034157,5.0
2025-03-05 15:12:42.203,-1.0940823769021357e-05,2.7810930083964074,5.0
2025-03-05 15:12:42.211,-1.045657473906064e-05,2.801957046346112,5.0
2025-03-05 15:12:42.219,-1.0278170313857917e-05,2.8298982858751742,5.0
2025-03-05 15:12:42.227,-1.0477128239688428e-05,2.8623625040873124,5.0
2025-03-05 15:12:42.235,-1.11030673047965e-05,2.896640027791808,5.0
2025-03-05 15:12:42.242,-1.2183365675951267e-05,2.9299555319185293,5.0
2025-03-05 15:12:42.250,-1.3723946909625424e-05,2.9595569291091746,5.0
2025-03-05 15:12:42.258,-1.5711048195384054e-05,2.982799685448661,5.0
2025-03-05 15:12:42.266,-1.8113767099928972e-05,2.9972232374498846,5.0
2025-03-05 15:12:42.274,-2.088711858148978e-05,3.000616705708179,5.0
2025-03-05 15:12:42.282,-2.397530072259516e-05,2.9910717639329345,5.0
2025-03-05 15:12:42.289,-2.731488717004776e-05,2.9670212820229285,5.0
2025-03-05 15:12:42.297,-3.08377223174566e-05,2.927263164822185,5.0
2025-03-05 15:12:42.305,-3.447336799711432e-05,2.8709695959832997,5.0
2025-03-05 15:12:42.313,-3.81510250126072e-05,2.7976826109871933,5.0
2025-03-05 15:12:42.321,-4.180092458721568e-05,2.707297515043793,5.0
2025-03-05 15:12:42.328,-4.535525091316581e-05,2.600036098602972,5.0
2025-03-05 15:12:42.336,-4.8748713935815565e-05,2.476411877410147,5.0
2025-03-05 15:12:42.344,-5.191893748772374e-05,2.3371897074743293,5.0
2025-03-05 15:12:42.352,-5.480685042909929e-05,2.183342120880998,5.0
2025-03-05 15:12:42.360,-5.735724560112925e-05,2.0160046213193645,5.0
2025-03-05 15:12:42.367,-5.9519591094739775e-05,1.8364319906168896,5.0
2025-03-05 15:12:42.375,-6.124906653229967e-05,1.645957405447878,5.0
2025-03-05 15:12:42.383,-6.25077037242661e-05,1.4459558572922755,5.0
2025-03-05 15:12:42.391,-6.326546273832872e-05,1.2378130191670345,5.0
2025-03-05 15:12:42.399,-6.350106182882158e-05,1.022900326144156,5.0
2025-03-05 15:12:42.407,-6.320239225153492e-05,0.8025566578487813,5.0
2025-03-05 15:12:42.414,-6.236639805449065e-05,0.5780766592790659,5.0
2025-03-05 15:12:42.422,-6.099839647626443e-05,0.3507054372227168,5.0
2025-03-05 15:12:42.430,-5.911093068647558e-05,0.1216391364152195,5.0
2025-03-05 15:12:42.438,-5.672233380439385e-05,-0.1079692714533799,5.0
2025-03-05 15:12:42.446,-5.385521583060441e-05,-0.3369997785239313,5.0
2025-03-05 15:12:42.453,-5.053507555517211e-05,-0.5643516050044707,5.0
2025-03-05 15:12:42.461,-4.678920958125027e-05,-0.7889269230097271,5.0
2025-03-05 15:12:42.469,-4.264605154402039e-05,-1.0096131180241144,5.0
2025-03-05 15:12:42.477,-3.813502974224747e-05,-1.225264755941477,5.0
2025-03-05 15:12:42.485,-3.3286982564692e-05,-1.434686501642024,5.0
2025-03-05 15:12:42.492,-2.813512019504114e-05,-1.6366182855593254,5.0
2025-03-05 15:12:42.500,-2.2716470056095143e-05,-1.829724022489632,5.0
2025-03-05 15:12:42.508,-1.707369422865872e-05,-2.0125851412694717,5.0
2025-03-05 15:12:42.516,-1.125712151073954e-05,-2.18370007746019,5.0
2025-03-05 15:12:42.524,-5.326796615726794e-06,-2.34149070855963,5.0
2025-03-05 15:12:42.532,6.456841634189724e-07,-2.484316472225638,5.0
2025-03-05 15:12:42.539,6.575804654022167e-06,-2.6104966087513573,5.0
2025-03-05 15:12:42.547,1.2365484000571591e-05,-2.7183406186330705,5.0
2025-03-05 15:12:42.555,1.7903371460854583e-05,-2.8061866335998893,5.0
2025-03-05 15:12:42.563,2.306620279450571e-05,-2.872446977727791,5.0
2025-03-05 15:12:42.571,2.772121817434396e-05,-2.915659765742176,5.0
2025-03-05 15:12:42.578,3.172954154394329e-05,-2.934544976116272,5.0
2025-03-05 15:12:42.586,3.4950369857360046e-05,-2.928063072555592,5.0
2025-03-05 15:12:42.594,3.724580658995942e-05,-2.895473946147565,5.0
2025-03-05 15:12:42.602,3.848617516711057e-05,-2.836393721725126,5.0
2025-03-05 15:12:42.610,3.855564523299452e-05,-2.750846822678558,5.0
2025-03-05 15:12:42.617,3.735797581390403e-05,-2.6393106261272536,5.0
2025-03-05 15:12:42.625,3.482211327661262e-05,-2.502750075315882,5.0
2025-03-05 15:12:42.633,3.090730487833283e-05,-2.342639762007217,5.0
2025-03-05 15:12:42.641,2.560735043147358e-05,-2.1609712653894326,5.0
2025-03-05 15:12:42.649,1.8953640913931495e-05,-1.960243952955689,5.0
2025-03-05 15:12:42.657,1.1016711427752285e-05,-1.7434380237422755,5.0
2025-03-05 15:12:42.664,1.9061444437745303e-06,-1.513969300247811,5.0
2025-03-05 15:12:42.672,-8.231215823130336e-06,-1.275626125361432,5.0
2025-03-05 15:12:42.680,-1.9214649964641044e-05,-1.032489645945032,5.0
2025-03-05 15:12:42.688,-3.0834359305139044e-05,-0.788839700127954,5.0
2025-03-05 15:12:42.696,-4.2857424427892334e-05,-0.5490493967787048,5.0
2025-03-05 15:12:42.703,-5.503467311667618e-05,-0.3174722086694944,5.0
2025-03-05 15:12:42.711,-6.710822295961766e-05,-0.0983259312949567,5.0
2025-03-05 15:12:42.719,-7.88194824907614e-05,0.104421856668406,5.0
2025-03-05 15:12:42.727,-8.991740225988451e-05,0.2871621755569598,5.0
2025-03-05 15:12:42.735,-0.0001001667595992,0.4467424521775943,5.0
2025-03-05 15:12:42.742,-0.0001093562301495,0.5805498068815248,5.0
2025-03-05 15:12:42.750,-0.0001173059354974,0.6865765420168389,5.0
2025-03-05 15:12:42.758,-0.0001238740724564,0.7634653683649446,5.0
2025-03-05 15:12:42.766,-0.0001289621754429,0.8105328124748042,5.0
2025-03-05 15:12:42.774,-0.0001325185881256,0.8277701888671077,5.0
2025-03-05 15:12:42.782,-0.0001345398248905,0.8158224496265032,5.0
2025-03-05 15:12:42.789,-0.0001350696489105,0.7759461081916816,5.0
2025-03-05 15:12:42.797,-0.0001341958474778,0.7099482553528498,5.0
2025-03-05 15:12:42.805,-0.0001320448318226,0.6201094293291725,5.0
2025-03-05 15:12:42.813,-0.0001287743230666,0.5090937501519298,5.0
2025-03-05 15:12:42.821,-0.0001245645054006,0.3798502545237951,5.0
2025-03-05 15:12:42.828,-0.0001196081295886,0.2355097358861331,5.0
2025-03-05 15:12:42.836,-0.0001141001323873,0.0792815674190136,5.0
2025-03-05 15:12:42.844,-0.0001082273970897,-0.0856450715545051,5.0
2025-03-05 15:12:42.852,-0.0001021593061091,-0.256191455944334,5.0
2025-03-05 15:12:42.860,-9.603970509098596e-05,-0.4294675189217875,5.0
2025-03-05 15:12:42.867,-8.998078799352353e-05,-0.6028352540223283,5.0
2025-03-05 15:12:42.875,-8.405922945190206e-05,-0.7739555436497121,5.0
2025-03-05 15:12:42.883,-7.831467342220085e-05,-0.9408177149355076,5.0
2025-03-05 15:12:42.891,-7.27504885634618e-05,-1.101752206044473,5.0
2025-03-05 15:12:42.899,-6.733656009661555e-05,-1.2554277286389028,5.0
2025-03-05 15:12:42.907,-6.201381081754615e-05,-1.4008351558685683,5.0
2025-03-05 15:12:42.914,-5.670010954162413e-05,-1.537260987914686,5.0
2025-03-05 15:12:42.922,-5.1297210992887455e-05,-1.664253610909313,5.0
2025-03-05 15:12:42.930,-4.5698366920074905e-05,-1.7815856600842273,5.0
2025-03-05 15:12:42.938,-3.979625190686437e-05,-1.8892156410995529,5.0
2025-03-05 15:12:42.946,-3.349085841680489e-05,-1.9872515909471344,5.0
2025-03-05 15:12:42.953,-2.669703353950424e-05,-2.075919016934224,5.0
2025-03-05 15:12:42.961,-1.935135416116828e-05,-2.155534686315253,5.0
2025-03-05 15:12:42.969,-1.141806736881442e-05,-2.226487100016848,5.0
2025-03-05 15:12:42.977,-2.8938583329833616e-06,-2.2892237280760117,5.0
2025-03-05 15:12:42.985,6.188751772770206e-06,-2.34424437373527,5.0
2025-03-05 15:12:42.992,1.5759530548108948e-05,-2.3920994263185973,5.0
2025-03-05 15:12:43.000,2.571028598536146e-05,-2.433391306780401,5.0
2025-03-05 15:12:43.008,3.589629720823247e-05,-2.468777135654017,5.0
2025-03-05 15:12:43.016,4.61394221402835e-05,-2.4989705778181217,5.0
2025-03-05 15:12:43.024,5.623282368227487e-05,-2.524740944267787,5.0
2025-03-05 15:12:43.032,6.594719897321595e-05,-2.546907944478253,5.0
2025-03-05 15:12:43.039,7.503833971304129e-05,-2.5663309546691973,5.0
2025-03-05 15:12:43.047,8.325579671509329e-05,-2.5838922539441107,5.0
2025-03-05 15:12:43.055,9.035237041426524e-05,-2.600474327446216,5.0
2025-03-05 15:12:43.063,9.609410274882336e-05,-2.616931981526544,5.0
2025-03-05 15:12:43.071,0.0001002704065855,-2.634060597381009,5.0
2025-03-05 15:12:43.078,0.0001027039387063,-2.652562311314445,5.0
2025-03-05 15:12:43.086,0.0001032598034089,-2.673012212110353,5.0
2025-03-05 15:12:43.094,0.0001018536680568,-2.695826768045988,5.0
2025-03-05 15:12:43.102,9.845838139031377e-05,-2.7212366348489976,5.0
2025-03-05 15:12:43.110,9.310871181308942e-05,-2.7492657650815,5.0
2025-03-05 15:12:43.117,8.590386759028212e-05,-2.7797183685016544,5.0
2025-03-05 15:12:43.125,7.700752490526806e-05,-2.812174803313728,5.0
2025-03-05 15:12:43.133,6.664517342353342e-05,-2.8459969567679786,5.0
2025-03-05 15:12:43.141,5.509869216041343e-05,-2.880343145404773,5.0
2025-03-05 15:12:43.149,4.2698190046378615e-05,-2.914192066893278,5.0
2025-03-05 15:12:43.157,2.9811283808462652e-05,-2.946374890462518,5.0
2025-03-05 15:12:43.164,1.683013794317867e-05,-2.97561419267588,5.0
2025-03-05 15:12:43.172,4.15675242575101e-06,-3.0005681343828403,5.0
2025-03-05 15:12:43.180,-7.812860782968152e-06,-3.019878036716136,5.0
2025-03-05 15:12:43.188,-1.870484895383001e-05,-3.032217353464323,5.0
2025-03-05 15:12:43.196,-2.8183211570359865e-05,-3.0363399584275483,5.0
2025-03-05 15:12:43.203,-3.59641891348993e-05,-3.03112567290191,5.0
2025-03-05 15:12:43.211,-4.18285641519508e-05,-3.015621051824239,5.0
2025-03-05 15:12:43.219,-4.56311622065638e-05,-2.989073624999678,5.0
2025-03-05 15:12:43.227,-4.73069544904298e-05,-2.95095804495762,5.0
2025-03-05 15:12:43.235,-4.687333814327323e-05,-2.900992915874915,5.0
2025-03-05 15:12:43.242,-4.442840403231424e-05,-2.8391474607261835,5.0
2025-03-05 15:12:43.250,-4.014526503744661e-05,-2.7656376200931407,5.0
2025-03-05 15:12:43.258,-3.426278082833442e-05,-2.6809116586455963,5.0
2025-03-05 15:12:43.266,-2.7073251637491392e-05,-2.585625873157255,5.0
2025-03-05 15:12:43.274,-1.8907835306066138e-05,-2.4806115302325824,5.0
2025-03-05 15:12:43.282,-1.0120550400727488e-05,-2.366834681503104,5.0
2025-03-05 15:12:43.289,-1.071774882043927e-06,-2.245350965386009,5.0
2025-03-05 15:12:43.297,7.887842472145036e-06,-2.1172578594651243,5.0
2025-03-05 15:12:43.305,1.643217268002718e-05,-1.9836470543472369,5.0
2025-03-05 15:12:43.313,2.42723068535596e-05,-1.845559651075756,5.0
2025-03-05 15:12:43.321,3.1166543828151205e-05,-1.7039467309080047,5.0
2025-03-05 15:12:43.328,3.6927284363527375e-05,-1.5596375187707003,5.0
2025-03-05 15:12:43.336,4.142472567459727e-05,-1.4133168863261252,5.0
2025-03-05 15:12:43.344,4.45875000995261e-05,-1.2655133528137474,5.0
2025-03-05 15:12:43.352,4.640058738557835e-05,-1.116598079768771,5.0
2025-03-05 15:12:43.360,4.690093849776107e-05,-0.9667946581534064,5.0
2025-03-05 15:12:43.367,4.617128641913379e-05,-0.8161987950953156,5.0
2025-03-05 15:12:43.375,4.433261789333616e-05,-0.6648063682040649,5.0
2025-03-05 15:12:43.383,4.1535779028395233e-05,-0.5125477760213021,5.0
2025-03-05 15:12:43.391,3.7952688985721217e-05,-0.3593261185490959,5.0
2025-03-05 15:12:43.399,3.376760526636585e-05,-0.2050565288932352,5.0
2025-03-05 15:12:43.407,2.916880417961657e-05,-0.0497039689351408,5.0
2025-03-05 15:12:43.414,2.4340937584040886e-05,0.1066829974646036,5.0
2025-03-05 15:12:43.422,1.9458248629511543e-05,0.2639445506038249,5.0
2025-03-05 15:12:43.430,1.467880092483378e-05,0.4217896426545618,5.0
2025-03-05 15:12:43.438,1.0139877079901183e-05,0.5797846511475518,5.0
2025-03-05 15:12:43.446,5.954687875788868e-06,0.737350967626109,5.0
2025-03-05 15:12:43.453,2.210479522495179e-06,0.8937712393177489,5.0
2025-03-05 15:12:43.461,-1.031952193618861e-06,1.0482034795595758,5.0
2025-03-05 15:12:43.469,-3.73741239699198e-06,1.1997018796380552,5.0
2025-03-05 15:12:43.477,-5.894263977363918e-06,1.347242903801236,5.0
2025-03-05 15:12:43.485,-7.5113894130621885e-06,1.4897551294012248,5.0
2025-03-05 15:12:43.492,-8.614398602018809e-06,1.6261512929344883,5.0
2025-03-05 15:12:43.500,-9.241351147775664e-06,1.7553610977622407,5.0
2025-03-05 15:12:43.508,-9.438273801234975e-06,1.876363499551727,5.0
2025-03-05 15:12:43.516,-9.254751175796492e-06,1.988217376567524,5.0
2025-03-05 15:12:43.524,-8.739851161758968e-06,2.090089684655015,5.0
2025-03-05 15:12:43.532,-7.938616765051213e-06,2.1812803732015227,5.0
2025-03-05 15:12:43.539,-6.889314815807211e-06,2.261243492609804,5.0
2025-03-05 15:12:43.547,-5.621580852228036e-06,2.329604059991965,5.0
2025-03-05 15:12:43.555,-4.155540446652111e-06,2.3861703777261187,5.0
2025-03-05 15:12:43.563,-2.501922464736571e-06,2.4309416265330346,5.0
2025-03-05 15:12:43.571,-6.631115491653068e-07,2.4641106783684465,5.0
2025-03-05 15:12:43.578,1.36498208327606e-06,2.486062183432809,5.0
2025-03-05 15:12:43.586,3.5904235443030987e-06,2.497366068458457,5.0
2025-03-05 15:12:43.594,6.022363718918983e-06,2.498766636331673,5.0
2025-03-05 15:12:43.602,8.66801060658444e-06,2.491167485702482,5.0
2025-03-05 15:12:43.610,1.1529673582557836e-05,2.475612486444783,5.0
2025-03-05 15:12:43.617,1.460202558868496e-05,2.45326307106752,5.0
2025-03-05 15:12:43.625,1.7869681455155943e-05,2.4253721558715204,5.0
2025-03-05 15:12:43.633,2.130518818967358e-05,2.393255110702678,5.0
2025-03-05 15:12:43.641,2.486755178477251e-05,2.3582583656037066,5.0
2025-03-05 15:12:43.649,2.8501460471338228e-05,2.321726472423073,5.0
2025-03-05 15:12:43.657,3.213738489148248e-05,2.284968705422878,5.0
2025-03-05 15:12:43.664,3.5692717156062654e-05,2.249226547005,5.0
2025-03-05 15:12:43.672,3.907403859327283e-05,2.215643613572883,5.0
2025-03-05 15:12:43.680,4.218049531989267e-05,2.1852396800872183,5.0
2025-03-05 15:12:43.688,4.490813963920023e-05,2.158890412168049,5.0
2025-03-05 15:12:43.696,4.715497762863519e-05,2.137314179069896,5.0
2025-03-05 15:12:43.703,4.8826363089457565e-05,2.121066894662188,5.0
2025-03-05 15:12:43.711,4.984032341955924e-05,2.110545246918571,5.0
2025-03-05 15:12:43.719,5.013240916659317e-05,2.1059979917443368,5.0
2025-03-05 15:12:43.727,4.965971151541782e-05,2.1075442852472204,5.0
2025-03-05 15:12:43.735,4.840376822188911e-05,2.115197391002612,5.0
2025-03-05 15:12:43.742,4.637216669209245e-05,2.1288915918647238,5.0
2025-03-05 15:12:43.750,4.3598749061988325e-05,2.148509804385724,5.0
2025-03-05 15:12:43.758,4.014242575452707e-05,2.173909263185008,5.0
2025-03-05 15:12:43.766,3.6084706803871896e-05,2.2049427234144265,5.0
2025-03-05 15:12:43.774,3.152615177735014e-05,2.2414729209593585,5.0
2025-03-05 15:12:43.782,2.6581995913616093e-05,2.2833785192035574,5.0
2025-03-05 15:12:43.789,2.1377217999601757e-05,2.3305504314359524,5.0
2025-03-05 15:12:43.797,1.6041297890973483e-05,2.382878197824323,5.0
2025-03-05 15:12:43.805,1.070291370729116e-05,2.440226958385116,5.0
2025-03-05 15:12:43.813,5.484863947159775e-06,2.502406429082458,5.0
2025-03-05 15:12:43.821,4.995310677829871e-07,2.5691340832760448,5.0
2025-03-05 15:12:43.828,-4.154814798784428e-06,2.639995395912237,5.0
2025-03-05 15:12:43.836,-8.396649816529982e-06,2.714404463749706,5.0
2025-03-05 15:12:43.844,-1.216265754950158e-05,2.79156852622012,5.0
2025-03-05 15:12:43.852,-1.5408027085911475e-05,2.870459852875096,5.0
2025-03-05 15:12:43.860,-1.8105713817357914e-05,2.9497981349445923,5.0
2025-03-05 15:12:43.867,-2.0244892801509156e-05,3.028045946849464,5.0
2025-03-05 15:12:43.875,-2.182891464658847e-05,3.103419075264563,5.0
2025-03-05 15:12:43.883,-2.2873104623032425e-05,3.173912605198124,5.0
2025-03-05 15:12:43.891,-2.3402704083128355e-05,3.2373426637290192,5.0
2025-03-05 15:12:43.899,-2.345114319294005e-05,3.2914027136839583,5.0
2025-03-05 15:12:43.907,-2.3058692837667604e-05,3.33373232772416,5.0
2025-03-05 15:12:43.914,-2.2271422860441847e-05,3.361995528179341,5.0
2025-03-05 15:12:43.922,-2.1140332796380376e-05,3.373965116110526,5.0
2025-03-05 15:12:43.930,-1.9720532467661547e-05,3.3676089869868018,5.0
2025-03-05 15:12:43.938,-1.807042172675701e-05,3.3411742700738283,5.0
2025-03-05 15:12:43.946,-1.62509162555482e-05,3.293265237701033,5.0
2025-03-05 15:12:43.953,-1.4324830832923234e-05,3.222911285841544,5.0
2025-03-05 15:12:43.961,-1.2356513442620163e-05,3.1296218430520177,5.0
2025-03-05 15:12:43.969,-1.0411725536409312e-05,3.0134257608533144,5.0
2025-03-05 15:12:43.977,-8.557635216947462e-06,2.8748935116978025,5.0
2025-03-05 15:12:43.985,-6.86268988608618e-06,2.715141312132776,5.0
2025-03-05 15:12:43.992,-5.396101231340129e-06,2.5358170490239527,5.0
2025-03-05 15:12:44.000,-4.22671141825057e-06,2.33906857776756,5.0
2025-03-05 15:12:44.008,-3.4210926981219966e-06,2.12749555999182,5.0
2025-03-05 15:12:44.016,-3.040845692030077e-06,1.9040865074845312,5.0
2025-03-05 15:12:44.024,-3.139201828704244e-06,1.672143105629093,5.0
2025-03-05 15:12:44.032,-3.757186124562382e-06,1.4351942163410925,5.0
2025-03-05 15:12:44.039,-4.919707985309685e-06,1.1969022195901755,5.0
2025-03-05 15:12:44.047,-6.631979762980751e-06,0.960964551641666,5.0
2025-03-05 15:12:44.055,-8.87663500705255e-06,0.73101343720297,5.0
2025-03-05 15:12:44.063,-1.1611880042206446e-05,0.5105168830884866,5.0
2025-03-05 15:12:44.071,-1.4770972568079227e-05,0.3026839891242045,5.0
2025-03-05 15:12:44.078,-1.826324588460341e-05,0.1103775254595803,5.0
2025-03-05 15:12:44.086,-2.19767694456637e-05,-0.0639634828547366,5.0
2025-03-05 15:12:44.094,-2.5782582353179895e-05,-0.2183887347509614,5.0
2025-03-05 15:12:44.102,-2.954030329348512e-05,-0.351487176572343,5.0
2025-03-05 15:12:44.110,-3.310483522114545e-05,-0.4624215469755472,5.0
2025-03-05 15:12:44.117,-3.633382714735698e-05,-0.5509459770279337,5.0
2025-03-05 15:12:44.125,-3.909548474945845e-05,-0.6174062635538917,5.0
2025-03-05 15:12:44.133,-4.12762175364453e-05,-0.6627230117981224,5.0
2025-03-05 15:12:44.141,-4.278750155527996e-05,-0.6883583889877972,5.0
2025-03-05 15:12:44.149,-4.357128156064218e-05,-0.696267725720022,5.0
2025-03-05 15:12:44.157,-4.360329361441502e-05,-0.6888376334723475,5.0
2025-03-05 15:12:44.164,-4.289388177365711e-05,-0.6688126618952352,5.0
2025-03-05 15:12:44.172,-4.148618065405551e-05,-0.6392127915367337,5.0
2025-03-05 15:12:44.180,-3.945187257258656e-05,-0.6032442461032614,5.0
2025-03-05 15:12:44.188,-3.6885027443503074e-05,-0.5642062182569813,5.0
2025-03-05 15:12:44.196,-3.389472888656578e-05,-0.5253961409662,5.0
2025-03-05 15:12:44.203,-3.0597250711823594e-05,-0.4900161106916049,5.0
2025-03-05 15:12:44.211,-2.7108495725681304e-05,-0.4610829894690232,5.0
2025-03-05 15:12:44.219,-2.3537292055006933e-05,-0.4413445891517523,5.0
2025-03-05 15:12:44.227,-1.997999836645067e-05,-0.4332041746475581,5.0
2025-03-05 15:12:44.235,-1.6516715416846816e-05,-0.438655307852538,5.0
2025-03-05 15:12:44.242,-1.32092445346933e-05,-0.4592287814285061,5.0
2025-03-05 15:12:44.250,-1.0100779345142774e-05,-0.4959530576643793,5.0
2025-03-05 15:12:44.258,-7.217170486459598e-06,-0.5493292383246314,5.0
2025-03-05 15:12:44.266,-4.56947065884486e-06,-0.6193211643770318,5.0
2025-03-05 15:12:44.274,-2.157363138742654e-06,-0.7053608075362959,5.0
2025-03-05 15:12:44.282,2.697468610014599e-08,-0.8063686975501707,5.0
2025-03-05 15:12:44.289,1.995004116122257e-06,-0.9207887470218674,5.0
2025-03-05 15:12:44.297,3.7583139576441353e-06,-1.046636487727113,5.0
2025-03-05 15:12:44.305,5.325726181182623e-06,-1.181559405225078,5.0
2025-03-05 15:12:44.313,6.701166828279649e-06,-1.3229077400971516,5.0
2025-03-05 15:12:44.321,7.882338623164097e-06,-1.4678138143301411,5.0
2025-03-05 15:12:44.328,8.860148784783784e-06,-1.613277653436432,5.0
2025-03-05 15:12:44.336,9.618807527158584e-06,-1.7562564296861325,5.0
2025-03-05 15:12:44.344,1.013650624083829e-05,-1.8937550702826744,5.0
2025-03-05 15:12:44.352,1.0386588216909646e-05,-2.0229152724960904,5.0
2025-03-05 15:12:44.360,1.0339128887558733e-05,-2.141100155427317,5.0
2025-03-05 15:12:44.367,9.962844981685567e-06,-2.24597186032841,5.0
2025-03-05 15:12:44.375,9.227252564137254e-06,-2.3355595911784053,5.0
2025-03-05 15:12:44.383,8.104992623598704e-06,-2.4083158660291897,5.0
2025-03-05 15:12:44.391,6.574239825982159e-06,-2.4631591263045207,5.0
2025-03-05 15:12:44.399,4.621105529373454e-06,-2.4995013200036977,5.0
2025-03-05 15:12:44.407,2.2419405675339e-06,-2.517259624041389,5.0
2025-03-05 15:12:44.414,-5.545628286679658e-07,-2.5168520822987968,5.0
2025-03-05 15:12:44.422,-3.7455766759609288e-06,-2.499177582392749,5.0
2025-03-05 15:12:44.430,-7.292762484365286e-06,-2.465581239199542,5.0
2025-03-05 15:12:44.438,-1.1141432014137656e-05,-2.4178068535144868,5.0
2025-03-05 15:12:44.446,-1.5220361161844416e-05,-2.3579386262578117,5.0
2025-03-05 15:12:44.453,-1.9442373457622125e-05,-2.288334694890894,5.0
2025-03-05 15:12:44.461,-2.370580344957578e-05,-2.211555292005725,5.0
2025-03-05 15:12:44.469,-2.789692879892597e-05,-2.130288391498821,5.0
2025-03-05 15:12:44.477,-3.1893402262720815e-05,-2.047275602358153,5.0
2025-03-05 15:12:44.485,-3.5568609550369695e-05,-1.9652408002783697,5.0
2025-03-05 15:12:44.492,-3.879675268614729e-05,-1.886823568228612,5.0
2025-03-05 15:12:44.500,-4.145836111321682e-05,-1.8145189779321875,5.0
2025-03-05 15:12:44.508,-4.344589076167501e-05,-1.7506246358557451,5.0
2025-03-05 15:12:44.516,-4.466907340316175e-05,-1.6971953117557554,5.0
2025-03-05 15:12:44.524,-4.5059703966385656e-05,-1.6560049429124062,5.0
2025-03-05 15:12:44.532,-4.457559197479121e-05,-1.628515423864607,5.0
2025-03-05 15:12:44.539,-4.3203452649734114e-05,-1.6158513801298908,5.0
2025-03-05 15:12:44.547,-4.096057268831319e-05,-1.618780087343487,5.0
2025-03-05 15:12:44.555,-3.789515424878874e-05,-1.6376958196584093,5.0
2025-03-05 15:12:44.563,-3.408531700074951e-05,-1.6726081700989963,5.0
2025-03-05 15:12:44.571,-2.9636820715919866e-05,-1.7231342519862185,5.0
2025-03-05 15:12:44.578,-2.4679656396609723e-05,-1.7884951257402988,5.0
2025-03-05 15:12:44.586,-1.936373064330108e-05,-1.8675172451434483,5.0
2025-03-05 15:12:44.594,-1.3853911324752825e-05,-1.9586401132444928,5.0
2025-03-05 15:12:44.602,-8.32468922021845e-06,-2.059931607689744,5.0
2025-03-05 15:12:44.610,-2.9546431282279423e-06,-2.169112513048605,5.0
2025-03-05 15:12:44.618,2.0791892839638567e-06,-2.283591637423001,5.0
2025-03-05 15:12:44.625,6.606988293452319e-06,-2.400512477197877,5.0
2025-03-05 15:12:44.633,1.0471831066698408e-05,-2.516811752115716,5.0
2025-03-05 15:12:44.641,1.3535293215721263e-05,-2.629289326853646,5.0
2025-03-05 15:12:44.649,1.5682861782328627e-05,-2.734688156265991,5.0
2025-03-05 15:12:44.657,1.6829022477634555e-05,-2.829782040126257,5.0
2025-03-05 15:12:44.664,1.692183936782551e-05,-2.9114682399989227,5.0
2025-03-05 15:12:44.672,1.5946784539131786e-05,-2.976861461093708,5.0
2025-03-05 15:12:44.680,1.3929529694536007e-05,-3.023385371602049,5.0
2025-03-05 15:12:44.688,1.0937393968060629e-05,-3.0488577333273588,5.0
2025-03-05 15:12:44.696,7.079151423254551e-06,-3.0515653462638697,5.0
2025-03-05 15:12:44.703,2.502961787256756e-06,-3.030325349420014,5.0
2025-03-05 15:12:44.711,-2.607675618121981e-06,-2.984529943715728,5.0
2025-03-05 15:12:44.719,-8.039859987093974e-06,-2.914172277349097,5.0
2025-03-05 15:12:44.727,-1.355886526672142e-05,-2.819852024210287,5.0
2025-03-05 15:12:44.735,-1.891698304453671e-05,-2.702760052760573,5.0
2025-03-05 15:12:44.743,-2.386318657063302e-05,-2.564642480398719,5.0
2025-03-05 15:12:44.750,-2.815312069894254e-05,-2.4077452838639903,5.0
2025-03-05 15:12:44.758,-3.155889048772142e-05,-2.2347414367238887,5.0
2025-03-05 15:12:44.766,-3.387811617241062e-05,-2.0486432277091438,5.0
2025-03-05 15:12:44.774,-3.4941766024476655e-05,-1.852702952083483,5.0
2025-03-05 15:12:44.782,-3.462038348446295e-05,-1.6503055512834184,5.0
2025-03-05 15:12:44.789,-3.282846705475441e-05,-1.4448570050151008,5.0
2025-03-05 15:12:44.797,-2.952689955733682e-05,-1.2396723663303937,5.0
2025-03-05 15:12:44.805,-2.4723444375101217e-05,-1.0378672920405216,5.0
2025-03-05 15:12:44.813,-1.847144067858416e-05,-0.8422567764259575,5.0
2025-03-05 15:12:44.821,-1.0866931939932428e-05,-0.6552645572115421,5.0
2025-03-05 15:12:44.828,-2.044527728232435e-06,-0.4788463314782956,5.0
2025-03-05 15:12:44.836,7.827692092033822e-06,-0.3144294923579417,5.0
2025-03-05 15:12:44.844,1.8553967486451305e-05,-0.1628715753552451,5.0
2025-03-05 15:12:44.852,2.9917145846530767e-05,-0.0244389982288539,5.0
2025-03-05 15:12:44.860,4.168530598397922e-05,0.1011929846918965,5.0
2025-03-05 15:12:44.868,5.3618538884847526e-05,0.214918884976711,5.0
2025-03-05 15:12:44.875,6.547565529012473e-05,0.3181606080853939,5.0
2025-03-05 15:12:44.883,7.702055346235442e-05,0.4128052643602475,5.0
2025-03-05 15:12:44.891,8.802799110702104e-05,0.5011249934669287,5.0
2025-03-05 15:12:44.899,9.828856465268024e-05,0.5856812842262697,5.0
2025-03-05 15:12:44.907,0.0001076127822894,0.6692168907346471,5.0
2025-03-05 15:12:44.914,0.0001158341990105,0.7545390116681638,5.0
2025-03-05 15:12:44.922,0.0001228116503996,0.8443978828589752,5.0
2025-03-05 15:12:44.930,0.0001284306739215,0.94136529590273,5.0
2025-03-05 15:12:44.938,0.0001326042412973,1.0477177553894976,5.0
2025-03-05 15:12:44.946,0.0001352729432372,1.1653289852172366,5.0
2025-03-05 15:12:44.953,0.0001364047691769,1.295576265230764,5.0
2025-03-05 15:12:44.961,0.0001359946111671,1.4392646191081258,5.0
2025-03-05 15:12:44.969,0.0001340635947617,1.5965721993418214,5.0
2025-03-05 15:12:44.977,0.0001306583031651,1.7670193574236124,5.0
2025-03-05 15:12:44.985,0.0001258499169574,1.9494628920913213,5.0
2025-03-05 15:12:44.993,0.000119733243578,2.142115892774448,5.0
2025-03-05 15:12:45.000,0.0001124255617511,2.342592503689765,5.0
2025-03-05 15:12:45.008,0.0001040651611166,2.547975890041773,5.0
2025-03-05 15:12:45.016,9.480942941189454e-05,2.754906746298184,5.0
2025-03-05 15:12:45.024,8.483235222557381e-05,2.959688888568821,5.0
2025-03-05 15:12:45.032,7.432135744983233e-05,3.158407844027401,5.0
2025-03-05 15:12:45.039,6.347353395181441e-05,3.3470579023020357,5.0
2025-03-05 15:12:45.047,5.249133347316309e-05,3.5216728339016994,5.0
2025-03-05 15:12:45.055,4.1577901455171176e-05,3.6784554182087783,5.0
2025-03-05 15:12:45.063,3.093218874340393e-05,3.8139010676082536,5.0
2025-03-05 15:12:45.071,2.0743993408315204e-05,3.924911183427561,5.0
2025-03-05 15:12:45.078,1.118908041001009e-05,4.008892411842588,5.0
2025-03-05 15:12:45.086,2.4245282802492275e-06,4.063838642929774,5.0
2025-03-05 15:12:45.094,-5.41554386571264e-06,4.088393363921686,5.0
2025-03-05 15:12:45.102,-1.2223709460092648e-05,4.081890790726918,5.0
2025-03-05 15:12:45.110,-1.792226088481996e-05,4.044375018389432,5.0
2025-03-05 15:12:45.118,-2.2465356648326177e-05,3.976597214651708,5.0
2025-03-05 15:12:45.125,-2.584012405628745e-05,3.8799915979730377,5.0
2025-03-05 15:12:45.133,-2.8066594332434672e-05,3.756631564784744,5.0
2025-03-05 15:12:45.141,-2.919643721482316e-05,3.609167842383593,5.0
2025-03-05 15:12:45.149,-2.9310575204377454e-05,3.44075093778858,5.0
2025-03-05 15:12:45.157,-2.851584547784299e-05,3.254940437260617,5.0
2025-03-05 15:12:45.164,-2.69409153045313e-05,3.0556039081420203,5.0
2025-03-05 15:12:45.172,-2.4731657554481785e-05,2.84680829485565,5.0
2025-03-05 15:12:45.180,-2.204617891006434e-05,2.6327068126937974,5.0
2025-03-05 15:12:45.188,-1.904967605087421e-05,2.4174244428837413,5.0
2025-03-05 15:12:45.196,-1.5909277515199436e-05,2.204945221398817,5.0
2025-03-05 15:12:45.203,-1.2789012448269263e-05,1.999004578494583,5.0
2025-03-05 15:12:45.211,-9.84503305596955e-06,1.8029899986097184,5.0
2025-03-05 15:12:45.219,-7.2212060143819555e-06,1.6198531922266468,5.0
2025-03-05 15:12:45.227,-5.045179733826265e-06,1.4520367606279174,5.0
2025-03-05 15:12:45.235,-3.425029299699526e-06,1.30141795999813,5.0
2025-03-05 15:12:45.243,-2.446578843475088e-06,1.169271624314476,5.0
2025-03-05 15:12:45.250,-2.1715014640781524e-06,1.056253603922546,5.0
2025-03-05 15:12:45.258,-2.6362971578941943e-06,0.9624052547561252,5.0
2025-03-05 15:12:45.266,-3.852238780997496e-06,0.8871786167961033,5.0
2025-03-05 15:12:45.274,-5.8063330372643015e-06,0.8294809973188105,5.0
2025-03-05 15:12:45.282,-8.463255366380953e-06,0.7877367760050089,5.0
2025-03-05 15:12:45.289,-1.176810940689023e-05,0.7599634322393274,5.0
2025-03-05 15:12:45.297,-1.5649782014117896e-05,0.7438581207501245,5.0
2025-03-05 15:12:45.305,-2.002463840440202e-05,0.7368906463277398,5.0
2025-03-05 15:12:45.313,-2.480031592849704e-05,0.7363984539025901,5.0
2025-03-05 15:12:45.321,-2.987940675187641e-05,0.7396792795592522,5.0
2025-03-05 15:12:45.328,-3.516285770512361e-05,0.7440774027569246,5.0
2025-03-05 15:12:45.336,-4.0552956204654194e-05,0.7470599804705413,5.0
2025-03-05 15:12:45.344,-4.5955812574134576e-05,0.746280692598496,5.0
2025-03-05 15:12:45.352,-5.128328959058247e-05,0.7396288357807815,5.0
2025-03-05 15:12:45.360,-5.6454368080891774e-05,0.725263011514757,5.0
2025-03-05 15:12:45.368,-6.139597155999545e-05,0.7016295931064777,5.0
2025-03-05 15:12:45.375,-6.60433021254986e-05,0.6674671407497951,5.0
2025-03-05 15:12:45.383,-7.033976325790598e-05,0.6217987774809909,5.0
2025-03-05 15:12:45.391,-7.423656224195118e-05,0.5639151628760256,5.0
2025-03-05 15:12:45.399,-7.769209531615838e-05,0.4933510503136911,5.0
2025-03-05 15:12:45.407,-8.067122233498406e-05,0.4098584669333026,5.0
2025-03-05 15:12:45.414,-8.314453490701293e-05,0.3133793365043077,5.0
2025-03-05 15:12:45.422,-8.508771310877451e-05,0.2040199371601115,5.0
2025-03-05 15:12:45.430,-8.648105163809461e-05,0.0820290329268921,5.0
2025-03-05 15:12:45.438,-8.730921752398115e-05,-0.0522190746766757,5.0
2025-03-05 15:12:45.446,-8.756127927061738e-05,-0.198235891425261,5.0
2025-03-05 15:12:45.453,-8.723102272401606e-05,-0.3554242755034711,5.0
2025-03-05 15:12:45.461,-8.631754324168134e-05,-0.5230783798276132,5.0
2025-03-05 15:12:45.469,-8.482607819751603e-05,-0.7003784898961862,5.0
2025-03-05 15:12:45.477,-8.276901975441315e-05,-0.886381484118279,5.0
2025-03-05 15:12:45.485,-8.01670264419849e-05,-1.080007824417719,5.0
2025-03-05 15:12:45.493,-7.705013457081383e-05,-1.2800261385740417,5.0
2025-03-05 15:12:45.500,-7.34587579691523e-05,-1.4850365904789065,5.0
2025-03-05 15:12:45.508,-6.944445786383099e-05,-1.6934543471101051,5.0
2025-03-05 15:12:45.516,-6.507036467763581e-05,-1.903494535673015,5.0
2025-03-05 15:12:45.524,-6.041114059349577e-05,-2.113160140398647,5.0
2025-03-05 15:12:45.532,-5.555238620499571e-05,-2.3202343211184626,5.0
2025-03-05 15:12:45.539,-5.058941642329731e-05,-2.522278649206384,5.0
2025-03-05 15:12:45.547,-4.56253597421045e-05,-2.7166387458540773,5.0
2025-03-05 15:12:45.555,-4.076857037347344e-05,-2.900458756063068,5.0
2025-03-05 15:12:45.563,-3.612938375377027e-05,-3.070705974209724,5.0
2025-03-05 15:12:45.571,-3.181629128098829e-05,-3.2242067267030428,5.0
2025-03-05 15:12:45.578,-2.79316584035076e-05,-3.3576942917764923,5.0
2025-03-05 15:12:45.586,-2.4567159606826047e-05,-3.4678691845090794,5.0
2025-03-05 15:12:45.594,-2.1799152496679976e-05,-3.5514715607822,5.0
2025-03-05 15:12:45.602,-1.9684258948133183e-05,-3.605364816464197,5.0
2025-03-05 15:12:45.610,-1.825546034420838e-05,-3.626628710249732,5.0
2025-03-05 15:12:45.618,-1.751903433169099e-05,-3.6126595643525543,5.0
2025-03-05 15:12:45.625,-1.7452639465605056e-05,-3.561274349698796,5.0
2025-03-05 15:12:45.633,-1.800477833306029e-05,-3.470814796907983,5.0
2025-03-05 15:12:45.641,-1.9095762089960368e-05,-3.340247140916487,5.0
2025-03-05 15:12:45.649,-2.0620198418262275e-05,-3.1692527454763875,5.0
2025-03-05 15:12:45.657,-2.2450934867646085e-05,-2.9583046961481267,5.0
2025-03-05 15:12:45.664,-2.444428649703988e-05,-2.7087255263841303,5.0
2025-03-05 15:12:45.672,-2.644626504857345e-05,-2.422721580787362,5.0
2025-03-05 15:12:45.680,-2.8299445605793395e-05,-2.1033901490886096,5.0
2025-03-05 15:12:45.688,-2.985007927519612e-05,-1.754696436401728,5.0
2025-03-05 15:12:45.696,-3.0955074397415465e-05,-1.3814186578460277,5.0
2025-03-05 15:12:45.703,-3.148850222883197e-05,-0.989061015928636,5.0
2025-03-05 15:12:45.711,-3.134732497583155e-05,-0.5837359617220507,5.0
2025-03-05 15:12:45.719,-3.0456091672831264e-05,-0.1720188493787008,5.0
2025-03-05 15:12:45.727,-2.8770399531268028e-05,0.2392202613321173,5.0
2025-03-05 15:12:45.735,-2.6278973985828064e-05,0.6430014530505619,5.0
2025-03-05 15:12:45.743,-2.3004278729904505e-05,1.0324291199918834,5.0
2025-03-05 15:12:45.750,-1.9001626619598813e-05,1.4008874106146172,5.0
2025-03-05 15:12:45.758,-1.4356822518429376e-05,1.7422286443139,5.0
2025-03-05 15:12:45.766,-9.182429040044096e-06,2.050946637388997,5.0
2025-03-05 15:12:45.774,-3.612804786338165e-06,2.3223275766532754,5.0
2025-03-05 15:12:45.782,2.201878913081057e-06,2.552572195420945,5.0
2025-03-05 15:12:45.789,8.102383633602477e-06,2.738884452146489,5.0
2025-03-05 15:12:45.797,1.39276040416516e-05,2.8795235864116666,5.0
2025-03-05 15:12:45.805,1.9521871779843144e-05,2.973818226213675,5.0
2025-03-05 15:12:45.813,2.474197775536937e-05,3.0221430447472644,5.0
2025-03-05 15:12:45.821,2.946351274910653e-05,3.0258602196548536,5.0
2025-03-05 15:12:45.828,3.358615314449998e-05,2.9872295413180554,5.0
2025-03-05 15:12:45.836,3.703759970727338e-05,2.9092923603353653,5.0
2025-03-05 15:12:45.844,3.9775989346638256e-05,2.7957355784017035,5.0
2025-03-05 15:12:45.852,4.179070368620127e-05,2.6507425110564573,5.0
2025-03-05 15:12:45.860,4.310158974393693e-05,2.4788376535044945,5.0
2025-03-05 15:12:45.868,4.3756710972754126e-05,2.284732166456686,5.0
2025-03-05 15:12:45.875,4.3828857188045934e-05,2.073176310778662,5.0
2025-03-05 15:12:45.883,4.341112085963342e-05,1.848824172556588,5.0
2025-03-05 15:12:45.891,4.2611871953331e-05,1.616114926706686,5.0
2025-03-05 15:12:45.899,4.154944713286232e-05,1.3791736842479565,5.0
2025-03-05 15:12:45.907,4.034683435144629e-05,1.141733746685768,5.0
2025-03-05 15:12:45.914,3.9126592443469504e-05,0.9070809277187472,5.0
2025-03-05 15:12:45.922,3.800620091903524e-05,0.6780195553727953,5.0
2025-03-05 15:12:45.930,3.7093989667746495e-05,0.4568588741577882,5.0
2025-03-05 15:12:45.938,3.648575341725598e-05,0.245417847893515,5.0
2025-03-05 15:12:45.946,3.626211307552982e-05,0.04504582862514,5.0
2025-03-05 15:12:45.953,3.648664677760719e-05,-0.1433437939558865,5.0
2025-03-05 15:12:45.961,3.720477856043406e-05,-0.3192300222039053,5.0
2025-03-05 15:12:45.969,3.844338283776812e-05,-0.482433831186447,5.0
2025-03-05 15:12:45.977,4.021103871180688e-05,-0.6330638448175521,5.0
2025-03-05 15:12:45.985,4.249884985841007e-05,-0.7714608110549942,5.0
2025-03-05 15:12:45.993,4.528173324693447e-05,-0.8981432510648912,5.0
2025-03-05 15:12:46.000,4.8520073087591e-05,-1.0137562628418613,5.0
2025-03-05 15:12:46.008,5.2161634749092166e-05,-1.1190250181964063,5.0
2025-03-05 15:12:46.016,5.6143636427758415e-05,-1.214714021317401,5.0
2025-03-05 15:12:46.024,6.039488344255708e-05,-1.301592717480037,5.0
2025-03-05 15:12:46.032,6.483788047644592e-05,-1.3804075750853293,5.0
2025-03-05 15:12:46.039,6.939085014626924e-05,-1.4518603393248553,5.0
2025-03-05 15:12:46.047,7.396960122248874e-05,-1.516591800425992,5.0
2025-03-05 15:12:46.055,7.848920592412332e-05,-1.575170163077006,5.0
2025-03-05 15:12:46.063,8.286546232305817e-05,-1.628082969780567,5.0
2025-03-05 15:12:46.071,8.701613441730511e-05,-1.6757315299514055,5.0
2025-03-05 15:12:46.078,9.086197837489963e-05,-1.7184269323420087,5.0
2025-03-05 15:12:46.086,9.432757840790044e-05,-1.756386949102527,5.0
2025-03-05 15:12:46.094,9.73420294132549e-05,-1.7897334423817284,5.0
2025-03-05 15:12:46.102,9.983951572387408e-05,-1.8184902199598345,5.0
2025-03-05 15:12:46.110,0.0001017598459613,-1.842581614753478,5.0
2025-03-05 15:12:46.118,0.000103049013078,-1.8618323456918875,5.0
2025-03-05 15:12:46.125,0.0001036598563125,-1.8759694216976512,5.0
2025-03-05 15:12:46.133,0.0001035529064875,-1.8846269541093517,5.0
2025-03-05 15:12:46.141,0.0001026974883906,-1.8873547359850809,5.0
2025-03-05 15:12:46.149,0.0001010731135202,-1.883631329379136,5.0
2025-03-05 15:12:46.157,9.8671112352159e-05,-1.8728821809408824,5.0
2025-03-05 15:12:46.164,9.549635406784465e-05,-1.8545029746671204,5.0
2025-03-05 15:12:46.172,9.15688334951736e-05,-1.8278880455364084,5.0
2025-03-05 15:12:46.180,8.692489596013904e-05,-1.7924632417456798,5.0
2025-03-05 15:12:46.188,8.161790897412005e-05,-1.7477221693102392,5.0
2025-03-05 15:12:46.196,7.571825179680951e-05,-1.6932643275233783,5.0
2025-03-05 15:12:46.203,6.931255892539378e-05,-1.6288333014092222,5.0
2025-03-05 15:12:46.211,6.250219715343533e-05,-1.5543529654917274,5.0
2025-03-05 15:12:46.219,5.540096431648804e-05,-1.469959601242785,5.0
2025-03-05 15:12:46.227,4.813199461590698e-05,-1.3760279449752375,5.0
2025-03-05 15:12:46.235,4.082388544110396e-05,-1.273189447998567,5.0
2025-03-05 15:12:46.243,3.3606136557092894e-05,-1.1623414133185874,5.0
2025-03-05 15:12:46.250,2.6604077972786632e-05,-1.044646130781765,5.0
2025-03-05 15:12:46.258,1.993352080099553e-05,-0.92151962251918,5.0
2025-03-05 15:12:46.266,1.36954054019259e-05,-0.7946100951832069,5.0
2025-03-05 15:12:46.274,7.970775731108899e-06,-0.6657666461739409,5.0
2025-03-05 15:12:46.282,2.8164757606353914e-06,-0.5369991701622472,5.0
2025-03-05 15:12:46.289,-1.737997397855448e-06,-0.4104307507909182,5.0
2025-03-05 15:12:46.297,-5.69207167677474e-06,-0.2882440940680381,5.0
2025-03-05 15:12:46.305,-9.073791537963593e-06,-0.1726237559845028,5.0
2025-03-05 15:12:46.313,-1.1937469356784512e-05,-0.0656960283961576,5.0
2025-03-05 15:12:46.321,-1.4359363792990262e-05,0.0305316270007513,5.0
2025-03-05 15:12:46.328,-1.6431695491993382e-05,0.1142297533966212,5.0
2025-03-05 15:12:46.336,-1.82555342524474e-05,0.183802931355467,5.0
2025-03-05 15:12:46.344,-1.993324632116085e-05,0.2379410257204427,5.0
2025-03-05 15:12:46.352,-2.1561225077957105e-05,0.2756641056789274,5.0
2025-03-05 15:12:46.360,-2.3223529224876004e-05,0.2963595898391549,5.0
2025-03-05 15:12:46.368,-2.498686922835137e-05,0.2998102652291911,5.0
2025-03-05 15:12:46.375,-2.689719038385616e-05,0.2862119513180229,5.0
2025-03-05 15:12:46.383,-2.897793894337468e-05,0.2561797473986538,5.0
2025-03-05 15:12:46.391,-3.122996203045666e-05,0.2107420275851293,5.0
2025-03-05 15:12:46.399,-3.3632875543326444e-05,0.1513216404569041,5.0
2025-03-05 15:12:46.407,-3.614765186755032e-05,0.079704134498843,5.0
2025-03-05 15:12:46.414,-3.8720144654348994e-05,-0.0020067353767363,5.0
2025-03-05 15:12:46.422,-4.128526056901754e-05,-0.0914454709165202,5.0
2025-03-05 15:12:46.430,-4.377147165231149e-05,-0.1860519788551083,5.0
2025-03-05 15:12:46.438,-4.610533696926804e-05,-0.2831475691300217,5.0
2025-03-05 15:12:46.446,-4.821570508787201e-05,-0.3800174295663269,5.0
2025-03-05 15:12:46.453,-5.0037320691057215e-05,-0.4739967097025304,5.0
2025-03-05 15:12:46.461,-5.151364450266144e-05,-0.562556931086001,5.0
2025-03-05 15:12:46.469,-5.25987916543454e-05,-0.6433891438907758,5.0
2025-03-05 15:12:46.477,-5.325858673353674e-05,-0.7144801121092249,5.0
2025-03-05 15:12:46.485,-5.347081947842305e-05,-0.774177869196485,5.0
2025-03-05 15:12:46.493,-5.322485921185497e-05,-0.8212432669536579,5.0
2025-03-05 15:12:46.500,-5.252083674085648e-05,-0.8548846477439415,5.0
2025-03-05 15:12:46.508,-5.1368607197367215e-05,-0.874773489184792,5.0
2025-03-05 15:12:46.516,-4.978665362308059e-05,-0.8810397687281725,5.0
2025-03-05 15:12:46.524,-4.780100444995553e-05,-0.8742468244448033,5.0
2025-03-05 15:12:46.532,-4.544416782020261e-05,-0.8553465855997069,5.0
2025-03-05 15:12:46.539,-4.275405788022642e-05,-0.8256171403664788,5.0
2025-03-05 15:12:46.547,-3.9772891251260345e-05,-0.7865856214187802,5.0
2025-03-05 15:12:46.555,-3.654604493090274e-05,-0.7399402475973398,5.0
2025-03-05 15:12:46.563,-3.312087998336583e-05,-0.6874359966915287,5.0
2025-03-05 15:12:46.571,-2.9545546702311747e-05,-0.6307987564721556,5.0
2025-03-05 15:12:46.578,-2.586779631170293e-05,-0.5716328900232377,5.0
2025-03-05 15:12:46.586,-2.213383157380248e-05,-0.5113369640074973,5.0
2025-03-05 15:12:46.594,-1.8387233796516288e-05,-0.45103195262311,5.0
2025-03-05 15:12:46.602,-1.4668006600492833e-05,-0.3915055870177326,5.0
2025-03-05 15:12:46.610,-1.1011777373643522e-05,-0.3331757146911691,5.0
2025-03-05 15:12:46.618,-7.449195589609464e-06,-0.2760746060792209,5.0
2025-03-05 15:12:46.625,-4.0055631104185686e-06,-0.2198551299245953,5.0
2025-03-05 15:12:46.633,-7.007252789681464e-07,-0.1638186473933972,5.0
2025-03-05 15:12:46.641,2.4507568818889468e-06,-0.106963383971897,5.0
2025-03-05 15:12:46.649,5.4391435845478e-06,-0.0480509741733876,5.0
2025-03-05 15:12:46.657,8.258764942629575e-06,0.0143121059284027,5.0
2025-03-05 15:12:46.664,1.0906998097708408e-05,0.081582335151626,5.0
2025-03-05 15:12:46.672,1.3383004976216344e-05,0.1551809108812692,5.0
2025-03-05 15:12:46.680,1.5686279366106307e-05,0.2363945812736928,5.0
2025-03-05 15:12:46.688,1.7815069205425832e-05,0.3262807297102014,5.0
2025-03-05 15:12:46.696,1.9764757431135064e-05,0.4255817041923899,5.0
2025-03-05 15:12:46.703,2.152630197179558e-05,0.5346529485066325,5.0
2025-03-05 15:12:46.711,2.3084851969400144e-05,0.6534088465307372,5.0
2025-03-05 15:12:46.719,2.4418672542567324e-05,0.7812893687671919,5.0
2025-03-05 15:12:46.727,2.549852379869857e-05,0.9172496429076266,5.0
2025-03-05 15:12:46.735,2.628764918341229e-05,1.0597734944863637,5.0
2025-03-05 15:12:46.743,2.674252339483562e-05,1.2069108619181372,5.0
2025-03-05 15:12:46.750,2.6814469878512463e-05,1.356337827729801,5.0
2025-03-05 15:12:46.758,2.6452170723108665e-05,1.5054368713441246,5.0
2025-03-05 15:12:46.766,2.560498194168054e-05,1.6513938893996372,5.0
2025-03-05 15:12:46.774,2.4226874545785855e-05,1.7913076054477628,5.0
2025-03-05 15:12:46.782,2.2280751665361878e-05,1.9223062649412648,5.0
2025-03-05 15:12:46.789,1.9742821021575655e-05,2.0416660436263565,5.0
2025-03-05 15:12:46.797,1.660663496002411e-05,2.146925434431346,5.0
2025-03-05 15:12:46.805,1.2886385841854757e-05,2.2359900440216243,5.0
2025-03-05 15:12:46.813,8.6190856402355e-06,2.3072227212509504,5.0
2025-03-05 15:12:46.821,3.8653513804019465e-06,2.3595147217836527,5.0
2025-03-05 15:12:46.828,-1.291361100110858e-06,2.3923346263177505,5.0
2025-03-05 15:12:46.836,-6.747098620486061e-06,2.4057528966306694,5.0
2025-03-05 15:12:46.844,-1.2381219168315846e-05,2.400441189533141,5.0
2025-03-05 15:12:46.852,-1.8061454837514412e-05,2.3776467727715,5.0
2025-03-05 15:12:46.860,-2.3649955429780905e-05,2.3391435298665515,5.0
2025-03-05 15:12:46.868,-2.901000141872372e-05,2.2871620504417964,5.0
2025-03-05 15:12:46.875,-3.401302606252309e-05,2.2243021450544185,5.0
2025-03-05 15:12:46.883,-3.854552769155549e-05,2.153431781718759,5.0
2025-03-05 15:12:46.891,-4.251542260553681e-05,2.0775769073667534,5.0
2025-03-05 15:12:46.899,-4.585740921616769e-05,1.9998068853666051,5.0
2025-03-05 15:12:46.907,-4.853697190315991e-05,1.923120344473524,5.0
2025-03-05 15:12:46.914,-5.055272606937991e-05,1.8503360952062295,5.0
2025-03-05 15:12:46.922,-5.193688433694533e-05,1.7839934362920378,5.0
2025-03-05 15:12:46.930,-5.275371424669551e-05,1.726265665523512,5.0
2025-03-05 15:12:46.938,-5.309598104653023e-05,1.6788899512646962,5.0
2025-03-05 15:12:46.946,-5.307954315432156e-05,1.6431159411788527,5.0
2025-03-05 15:12:46.953,-5.28364760636532e-05,1.6196746140391107,5.0
2025-03-05 15:12:46.961,-5.250728081949193e-05,1.608767953584863,5.0
2025-03-05 15:12:46.969,-5.2232813156336845e-05,1.6100790827900346,5.0
2025-03-05 15:12:46.977,-5.2146523876251e-05,1.6228015935206266,5.0
2025-03-05 15:12:46.985,-5.23674761428327e-05,1.64568599623772,5.0
2025-03-05 15:12:46.993,-5.299447426769284e-05,1.6771005516556683,5.0
2025-03-05 15:12:47.000,-5.410153855090358e-05,1.7151032756529438,5.0
2025-03-05 15:12:47.008,-5.5734883643334535e-05,1.7575216542234893,5.0
2025-03-05 15:12:47.016,-5.79114846488228e-05,1.8020365626162933,5.0
2025-03-05 15:12:47.024,-6.0619237745288514e-05,1.8462670219038493,5.0
2025-03-05 15:12:47.032,-6.381864062949135e-05,1.8878527026052003,5.0
2025-03-05 15:12:47.039,-6.744583448319298e-05,1.9245314526969728,5.0
2025-03-05 15:12:47.047,-7.141676544398048e-05,1.9542095464690687,5.0
2025-03-05 15:12:47.055,-7.563214350762862e-05,1.9750227900669188,5.0
2025-03-05 15:12:47.063,-7.998281231990917e-05,1.9853870576561696,5.0
2025-03-05 15:12:47.071,-8.435511899056552e-05,1.9840372560151052,5.0
2025-03-05 15:12:47.079,-8.863591212977054e-05,1.9700541159308893,5.0
2025-03-05 15:12:47.086,-9.271689704805404e-05,1.942878575664119,5.0
2025-03-05 15:12:47.094,-9.64982112123235e-05,1.9023138449549848,5.0
2025-03-05 15:12:47.102,-9.989121313768156e-05,1.8485155163642464,5.0
2025-03-05 15:12:47.110,-0.0001028205667794,1.7819703379006615,5.0
2025-03-05 15:12:47.118,-0.0001052257239088,1.7034645021541777,5.0
2025-03-05 15:12:47.125,-0.0001070618604348,1.6140425672974368,5.0
2025-03-05 15:12:47.133,-0.0001083002442767,1.5149584159905072,5.0
2025-03-05 15:12:47.141,-0.0001089279516132,1.407619973557405,5.0
2025-03-05 15:12:47.149,-0.0001089468409081,1.2935297276723892,5.0
2025-03-05 15:12:47.157,-0.0001083717428678,1.1742233914321332,5.0
2025-03-05 15:12:47.164,-0.0001072279057159,1.0512092979977998,5.0
2025-03-05 15:12:47.172,-0.0001055478238834,0.92591127169493,5.0
2025-03-05 15:12:47.180,-0.0001033676621112,0.799617750176163,5.0
2025-03-05 15:12:47.188,-0.0001007235603501,0.6734398012058407,5.0
2025-03-05 15:12:47.196,-9.764815580579356e-05,0.5482803606387845,5.0
2025-03-05 15:12:47.204,-9.41676644172516e-05,0.4248165044701851,5.0
2025-03-05 15:12:47.211,-9.0299810462531e-05,0.3034958683108263,5.0
2025-03-05 15:12:47.219,-8.605279512586063e-05,0.1845474801944259,5.0
2025-03-05 15:12:47.227,-8.14253809484501e-05,0.0680063404089601,5.0
2025-03-05 15:12:47.235,-7.640805322608661e-05,-0.0462498560390571,5.0
2025-03-05 15:12:47.243,-7.098511572233727e-05,-0.1584543199116581,5.0
2025-03-05 15:12:47.250,-6.51375148025708e-05,-0.2688982635426626,5.0
2025-03-05 15:12:47.258,-5.8846176983629824e-05,-0.3778751505320574,5.0
2025-03-05 15:12:47.266,-5.209566585826846e-05,-0.4856259750349474,5.0
2025-03-05 15:12:47.274,-4.487797236876899e-05,-0.5922893715521231,5.0
2025-03-05 15:12:47.282,-3.719622460130381e-05,-0.6978599983851987,5.0
2025-03-05 15:12:47.289,-2.9068062228514635e-05,-0.8021580362567405,5.0
2025-03-05 15:12:47.297,-2.052841406742929e-05,-0.9048118576873032,5.0
2025-03-05 15:12:47.305,-1.1631466963051256e-05,-1.0052550227795172,5.0
2025-03-05 15:12:47.313,-2.451696375295586e-06,-1.1027378164868238,5.0
2025-03-05 15:12:47.321,6.916101040483774e-06,-1.1963526314406585,5.0
2025-03-05 15:12:47.329,1.6357799551488815e-05,-1.2850716806031572,5.0
2025-03-05 15:12:47.336,2.574197102459249e-05,-1.3677948452688045,5.0
2025-03-05 15:12:47.344,3.4922911317970294e-05,-1.443404961066416,5.0
2025-03-05 15:12:47.352,4.374454698292973e-05,-1.510827532071534,5.0
2025-03-05 15:12:47.360,5.204501695730365e-05,-1.5690917316584665,5.0
2025-03-05 15:12:47.368,5.966168353100141e-05,-1.6173895696386658,5.0
2025-03-05 15:12:47.375,6.643634313602906e-05,-1.6551302418650478,5.0
2025-03-05 15:12:47.383,7.222045873862854e-05,-1.6819868981630317,5.0
2025-03-05 15:12:47.391,7.688029568702075e-05,-1.6979333471737266,5.0
2025-03-05 15:12:47.399,8.030189045155036e-05,-1.7032685586831169,5.0
2025-03-05 15:12:47.407,8.239579126964678e-05,-1.698627233835906,5.0
2025-03-05 15:12:47.414,8.310146070398263e-05,-1.6849752033266885,5.0
2025-03-05 15:12:47.422,8.239113697136122e-05,-1.6635889918163071,5.0
2025-03-05 15:12:47.430,8.027287222223796e-05,-1.6360195549506569,5.0
2025-03-05 15:12:47.438,7.679246322714644e-05,-1.6040409435696272,5.0
2025-03-05 15:12:47.446,7.203406654404811e-05,-1.569585452203575,5.0
2025-03-05 15:12:47.454,6.611938808345172e-05,-1.5346676235679275,5.0
2025-03-05 15:12:47.461,5.920540857991191e-05,-1.5013002527300017,5.0
2025-03-05 15:12:47.469,5.148066393210408e-05,-1.4714062019041183,5.0
2025-03-05 15:12:47.477,4.3160174825663874e-05,-1.446730335340536,5.0
2025-03-05 15:12:47.485,3.4479210674330086e-05,-1.428756153564176,5.0
2025-03-05 15:12:47.493,2.568614419851883e-05,-1.4186316999492203,5.0
2025-03-05 15:12:47.500,1.703468228136091e-05,-1.4171090054566973,5.0
2025-03-05 15:12:47.508,8.775765454812878e-06,-1.4245007342029032,5.0
2025-03-05 15:12:47.516,1.14944861545151e-06,-1.440656827531884,5.0
2025-03-05 15:12:47.524,-5.622891191192222e-06,-1.4649628732786504,5.0
2025-03-05 15:12:47.532,-1.1345665069612262e-05,-1.496360719677699,5.0
2025-03-05 15:12:47.539,-1.585518307281035e-05,-1.5333905904118523,5.0
2025-03-05 15:12:47.547,-1.9024517926386447e-05,-1.5742527278056406,5.0
2025-03-05 15:12:47.555,-2.076695426695805e-05,-1.6168854867782,5.0
2025-03-05 15:12:47.563,-2.103793498799708e-05,-1.659055907302846,5.0
2025-03-05 15:12:47.571,-1.983549123321054e-05,-1.6984581744096785,5.0
2025-03-05 15:12:47.579,-1.7199212516930387e-05,-1.732815070760831,5.0
2025-03-05 15:12:47.586,-1.320787771379654e-05,-1.7599775419260508,5.0
2025-03-05 15:12:47.594,-7.975925807160682e-06,-1.778017801365661,5.0
2025-03-05 15:12:47.602,-1.6489970496442835e-06,-1.7853119503100825,5.0
2025-03-05 15:12:47.610,5.601181211031737e-06,-1.78060881211773,5.0
2025-03-05 15:12:47.618,1.3582264140690436e-05,-1.763082508292122,5.0
2025-03-05 15:12:47.625,2.208682757394709e-05,-1.73236716119202,5.0
2025-03-05 15:12:47.633,3.089775083172595e-05,-1.6885729333311883,5.0
2025-03-05 15:12:47.641,3.979330882348157e-05,-1.6322833584706666,5.0
2025-03-05 15:12:47.649,4.855191222418319e-05,-1.564534557985942,5.0
2025-03-05 15:12:47.657,5.695648946095146e-05,-1.486777459525575,5.0
2025-03-05 15:12:47.664,6.47985636981989e-05,-1.4008245553415073,5.0
2025-03-05 15:12:47.672,7.188213808083252e-05,-1.3087830811409795,5.0
2025-03-05 15:12:47.680,7.802752528402834e-05,-1.2129767946868897,5.0
2025-03-05 15:12:47.688,8.307522125768871e-05,-1.1158588140183472,5.0
2025-03-05 15:12:47.696,8.688984286057094e-05,-1.0199182529161712,5.0
2025-03-05 15:12:47.704,8.936404976574654e-05,-0.9275836625140648,5.0
2025-03-05 15:12:47.711,9.042226865216162e-05,-0.841126529693841,5.0
2025-03-05 15:12:47.719,9.002394864695505e-05,-0.76256825974316,5.0
2025-03-05 15:12:47.727,8.816602868501932e-05,-0.6935941469061198,5.0
