Timestamp,GSR_Filtered,PPG_Filtered
2025-05-14 14:44:17.213,-2.3242742238264444e-05,23.395651594327276
2025-05-14 14:44:17.221,-4.188815711121176e-05,23.469292886707905
2025-05-14 14:44:17.229,-6.013638283183477e-05,23.362112938641378
2025-05-14 14:44:17.236,-7.755502889237135e-05,23.08465376792016
2025-05-14 14:44:17.244,-9.37293572899423e-05,22.65045811645939
2025-05-14 14:44:17.252,-0.0001082766250493,22.075580493864365
2025-05-14 14:44:17.260,-0.0001208591765987,21.37804704899061
2025-05-14 14:44:17.268,-0.0001311957531112,20.57728569608548
2025-05-14 14:44:17.275,-0.0001390705928069,19.693547643381944
2025-05-14 14:44:17.283,-0.0001443400261411,18.74734029903889
2025-05-14 14:44:17.291,-0.0001469363977492,17.758889599255728
2025-05-14 14:44:17.299,-0.0001468692614268,16.74764729011114
2025-05-14 14:44:17.307,-0.0001442238927194,15.73185578932023
2025-05-14 14:44:17.314,-0.0001391572473183,14.7281801399213
2025-05-14 14:44:17.322,-0.0001318915710084,13.751413407815964
2025-05-14 14:44:17.330,-0.0001227059503538,12.814258811792758
2025-05-14 14:44:17.338,-0.0001119261747086,11.927189028983236
2025-05-14 14:44:17.346,-9.991332532027112e-05,11.098380581713355
2025-05-14 14:44:17.354,-8.705150263380692e-05,10.333719038221505
2025-05-14 14:44:17.361,-7.373508507499961e-05,9.636868968990598
2025-05-14 14:44:17.369,-6.035591175331858e-05,9.009401184335152
2025-05-14 14:44:17.377,-4.729077302323771e-05,8.450968713642874
2025-05-14 14:44:17.385,-3.48895517602889e-05,7.959522244503153
2025-05-14 14:44:17.393,-2.3464314026770453e-05,7.531555298405708
2025-05-14 14:44:17.400,-1.3279637723167618e-05,7.162369266820932
2025-05-14 14:44:17.408,-4.544484935339594e-06,6.846348563198988
2025-05-14 14:44:17.416,2.594056724283471e-06,6.577236555991063
2025-05-14 14:44:17.424,8.054835183729314e-06,6.348403615184081
2025-05-14 14:44:17.432,1.1824208429322567e-05,6.153099495264231
2025-05-14 14:44:17.439,1.3954943271317962e-05,5.984683348491213
2025-05-14 14:44:17.447,1.4562393204685744e-05,5.836825870414286
2025-05-14 14:44:17.455,1.3818081146414192e-05,5.703679381222516
2025-05-14 14:44:17.463,1.1941010073381322e-05,5.580012996541696
2025-05-14 14:44:17.471,9.187222009355332e-06,5.461311393395809
2025-05-14 14:44:17.479,5.838257990094378e-06,5.34383698746994
2025-05-14 14:44:17.486,2.189191565647147e-06,5.224656567659135
2025-05-14 14:44:17.494,-1.4631701080083475e-06,5.10163454890979
2025-05-14 14:44:17.502,-4.831452446723042e-06,4.9733959749590415
2025-05-14 14:44:17.510,-7.647921338919672e-06,4.839263206225341
2025-05-14 14:44:17.518,-9.67353087599882e-06,4.699170851710327
2025-05-14 14:44:17.525,-1.0705689560106055e-05,4.553563943098879
2025-05-14 14:44:17.533,-1.0584645735781075e-05,4.403284606831457
2025-05-14 14:44:17.541,-9.198379710429156e-06,4.2494525742255504
2025-05-14 14:44:17.549,-6.48588885338838e-06,4.093344794259377
2025-05-14 14:44:17.557,-2.438787370849829e-06,3.936279193632868
2025-05-14 14:44:17.564,2.898798109891015e-06,3.779507276794429
2025-05-14 14:44:17.572,9.43199405969345e-06,3.6241197834803383
2025-05-14 14:44:17.580,1.701850928929166e-05,3.470969030373726
2025-05-14 14:44:17.588,2.5473385661006373e-05,3.320610866647635
2025-05-14 14:44:17.596,3.457499242204737e-05,3.1732683857010886
2025-05-14 14:44:17.604,4.407205963380829e-05,3.0288186787916542
2025-05-14 14:44:17.611,5.369152792131624e-05,2.930981349808947
2025-05-14 14:44:17.619,6.314698138755202e-05,2.8343362815877016
2025-05-14 14:44:17.627,7.214742747114813e-05,2.7388891350624216
2025-05-14 14:44:17.635,8.040619126641639e-05,2.6443790807380414
2025-05-14 14:44:17.643,8.764970195541987e-05,2.550354828149262
2025-05-14 14:44:17.650,9.362596522123645e-05,2.456266253810103
2025-05-14 14:44:17.658,9.811253764122243e-05,2.361566314895872
2025-05-14 14:44:17.666,0.0001009238454111,2.265817232993288
2025-05-14 14:44:17.674,0.000101917710671,2.1687945002103475
2025-05-14 14:44:17.682,0.0001010009436756,2.070582128820572
2025-05-14 14:44:17.689,9.813381699234876e-05,1.9716527543687168
2025-05-14 14:44:17.697,9.333318520414324e-05,1.872926714732856
2025-05-14 14:44:17.705,8.667400004837578e-05,1.775805051115335
2025-05-14 14:44:17.713,7.828902058014316e-05,1.6821724840334875
2025-05-14 14:44:17.721,6.836660864185176e-05,1.5943677708874302
2025-05-14 14:44:17.729,5.714658841064244e-05,1.5151204061515509
2025-05-14 14:44:17.736,4.491421145287383e-05,1.447454325810024
2025-05-14 14:44:17.744,3.199232510101642e-05,1.394561060610698
2025-05-14 14:44:17.752,1.87319263432756e-05,1.359646577529932
2025-05-14 14:44:17.760,5.501386402913988e-06,1.3457577767800653
2025-05-14 14:44:17.768,-7.325296692153111e-06,1.3555961822782503
2025-05-14 14:44:17.775,-1.9380833533760383e-05,1.3913276766516365
2025-05-14 14:44:17.783,-3.0317154526429217e-05,1.454398087618887
2025-05-14 14:44:17.791,-3.98176216160964e-05,1.5453649422319362
2025-05-14 14:44:17.799,-4.760840605552172e-05,1.663755699076968
2025-05-14 14:44:17.807,-5.346850229090085e-05,1.807962200601096
2025-05-14 14:44:17.814,-5.723792588835505e-05,1.9751799431052124
2025-05-14 14:44:17.822,-5.882375928705849e-05,2.1613990600959863
2025-05-14 14:44:17.830,-5.820383007128763e-05,2.3614517082016278
2025-05-14 14:44:17.838,-5.5427919085904486e-05,2.5691179138078053
2025-05-14 14:44:17.846,-5.061649711482764e-05,2.7772889884503207
2025-05-14 14:44:17.854,-4.395707825141646e-05,2.9781844866951857
2025-05-14 14:44:17.861,-3.569835526400009e-05,3.163615528966056
2025-05-14 14:44:17.869,-2.614234734451262e-05,3.325284338250354
2025-05-14 14:44:17.877,-1.5634844052818557e-05,3.4551072531074363
2025-05-14 14:44:17.885,-4.554471635761327e-06,3.5455464851258216
2025-05-14 14:44:17.893,6.699260123648343e-06,3.5899346674074493
2025-05-14 14:44:17.900,1.771855014656378e-05,3.582775928595222
2025-05-14 14:44:17.908,2.81001440056043e-05,3.5200078999853144
2025-05-14 14:44:17.916,3.745802005935279e-05,3.399210719663984
2025-05-14 14:44:17.924,4.543553083435179e-05,3.2197516508932997
2025-05-14 14:44:17.932,5.1716620089737225e-05,2.982857217895029
2025-05-14 14:44:17.939,5.6035758462247145e-05,2.691608555999488
2025-05-14 14:44:17.947,5.818627261444395e-05,2.3508597108059286
2025-05-14 14:44:17.955,5.802678499661877e-05,1.9670826235814816
2025-05-14 14:44:17.963,5.5485534331884486e-05,1.5481462406602635
2025-05-14 14:44:17.971,5.056241134939038e-05,1.1030403539548923
2025-05-14 14:44:17.979,4.3328620578926005e-05,0.6415572457219858
2025-05-14 14:44:17.986,3.392396737833648e-05,0.1739458659450206
2025-05-14 14:44:17.994,2.255186961841201e-05,-0.2894459302355786
2025-05-14 14:44:18.002,9.47230332008067e-06,-0.7385256027069024
2025-05-14 14:44:18.010,-5.006999885217776e-06,-1.1637919457043484
2025-05-14 14:44:18.018,-2.054070242297325e-05,-1.5566397400711445
2025-05-14 14:44:18.025,-3.675692218573308e-05,-1.9096218930000588
2025-05-14 14:44:18.033,-5.326878236848014e-05,-2.216660315911853
2025-05-14 14:44:18.041,-6.96860518472247e-05,-2.473199408214985
2025-05-14 14:44:18.049,-8.562648074502412e-05,-2.6762987041843047
2025-05-14 14:44:18.057,-0.0001007264147749,-2.8246638654683283
2025-05-14 14:44:18.064,-0.0001146502720354,-2.9186176469064598
2025-05-14 14:44:18.072,-0.0001270985332383,-2.960014643702081
2025-05-14 14:44:18.080,-0.000137814029313,-2.9521054949922974
2025-05-14 14:44:18.088,-0.000146586469519,-2.899357753502311
2025-05-14 14:44:18.096,-0.0001532553017731,-2.8072418297478543
2025-05-14 14:44:18.104,-0.0001577111101167,-2.681991283220144
2025-05-14 14:44:18.111,-0.0001598958073139,-2.5303472649098864
2025-05-14 14:44:18.119,-0.0001598018609128,-2.359297120809912
2025-05-14 14:44:18.127,-0.0001574707248033,-2.1758170534138457
2025-05-14 14:44:18.135,-0.0001529905860129,-1.9866283184285536
2025-05-14 14:44:18.143,-0.0001464935058853,-1.7979757161020933
2025-05-14 14:44:18.150,-0.0001381520264632,-1.6154361267032649
2025-05-14 14:44:18.158,-0.0001281753083478,-1.4437635467282337
2025-05-14 14:44:18.166,-0.0001168048581054,-1.286775531329588
2025-05-14 14:44:18.174,-0.0001043098921622,-1.1472841908821494
2025-05-14 14:44:18.182,-9.098237235361472e-05,-1.0270730032391304
2025-05-14 14:44:18.189,-7.713173795936876e-05,-0.9269187810061936
2025-05-14 14:44:18.197,-6.307935200482076e-05,-0.8466562700060568
2025-05-14 14:44:18.205,-4.915267726502773e-05,-0.7852811383497926
2025-05-14 14:44:18.213,-3.567920079221337e-05,-0.7410856191729479
2025-05-14 14:44:18.221,-2.2980135387303704e-05,-0.7118198519895822
2025-05-14 14:44:18.229,-1.1363942228938075e-05,-0.6948710692148401
2025-05-14 14:44:18.236,-1.1197402841595849e-06,-0.6874522217061007
2025-05-14 14:44:18.244,7.489305945327022e-06,-0.6867914406048031
2025-05-14 14:44:18.252,1.4232499929955706e-05,-0.6903138860437699
2025-05-14 14:44:18.260,1.8917877698586992e-05,-0.695808014015241
2025-05-14 14:44:18.268,2.1398045038769573e-05,-0.701569066016375
2025-05-14 14:44:18.275,2.157538465133482e-05,-0.706513609557493
2025-05-14 14:44:18.283,1.9406413267846255e-05,-0.7102601847387734
2025-05-14 14:44:18.291,1.4905061042433007e-05,-0.713172493814195
2025-05-14 14:44:18.299,8.14465010988993e-06,-0.7163630559743968
2025-05-14 14:44:18.307,-7.416315709913011e-07,-0.7216567874060711
2025-05-14 14:44:18.314,-1.1561929143051887e-05,-0.7315155100031346
2025-05-14 14:44:18.322,-2.4068706774513888e-05,-0.7489259019163389
2025-05-14 14:44:18.330,-3.796356389584386e-05,-0.7772548471019499
2025-05-14 14:44:18.338,-5.2903846824096914e-05,-0.8200774857868741
2025-05-14 14:44:18.346,-6.85109568460556e-05,-0.8809844715211477
2025-05-14 14:44:18.354,-8.438021915469964e-05,-0.963375953738806
2025-05-14 14:44:18.361,-0.0001000921442238,-1.070250577999122
2025-05-14 14:44:18.369,-0.0001152248398865,-1.2039982874897837
2025-05-14 14:44:18.377,-0.000129367208723,-1.366205889575834
2025-05-14 14:44:18.385,-0.000142132439299,-1.557484206194753
2025-05-14 14:44:18.393,-0.0001531712329137,-1.7773251573788929
2025-05-14 14:44:18.400,-0.0001621842125624,-2.023996343131721
2025-05-14 14:44:18.408,-0.0001689329946697,-2.2944796045260163
2025-05-14 14:44:18.416,-0.0001732494231959,-2.584458678772195
2025-05-14 14:44:18.424,-0.0001750424714311,-2.88835944264951
2025-05-14 14:44:18.432,-0.0001743023458606,-3.19944440514903
2025-05-14 14:44:18.439,-0.0001711014119116,-3.509961118315601
2025-05-14 14:44:18.447,-0.0001655917051042,-3.811342089353236
2025-05-14 14:44:18.455,-0.0001579989686174,-4.094451664862668
2025-05-14 14:44:18.463,-0.0001486133438749,-4.349873287859337
2025-05-14 14:44:18.471,-0.0001377770214073,-4.568228569670449
2025-05-14 14:44:18.479,-0.0001258693300687,-4.7405178459585615
2025-05-14 14:44:18.486,-0.0001132899004376,-4.858470378320886
2025-05-14 14:44:18.494,-0.0001004406796655,-4.914891201208482
2025-05-14 14:44:18.502,-8.770769691591444e-05,-4.903990874324176
2025-05-14 14:44:18.510,-7.544357597086897e-05,-4.821684148777754
2025-05-14 14:44:18.518,-6.395185006593108e-05,-4.665843843840355
2025-05-14 14:44:18.525,-5.347411849876094e-05,-4.436497099345791
2025-05-14 14:44:18.533,-4.418094902892238e-05,-4.135952641472165
2025-05-14 14:44:18.541,-3.616715516029935e-05,-3.768849783762156
2025-05-14 14:44:18.549,-2.9451695623603333e-05,-3.3421225609392957
2025-05-14 14:44:18.557,-2.3982023513487546e-05,-2.8648756009178924
2025-05-14 14:44:18.564,-1.964233270346308e-05,-2.3481719726695225
2025-05-14 14:44:18.572,-1.626487776749631e-05,-1.804737150544384
2025-05-14 14:44:18.580,-1.3643412536109268e-05,-1.2485872211825686
2025-05-14 14:44:18.588,-1.1547781232524088e-05,-0.6945933186148734
2025-05-14 14:44:18.596,-9.73875759536798e-06,-0.1579977879561882
2025-05-14 14:44:18.604,-7.982325026488512e-06,0.3460994713833715
2025-05-14 14:44:18.611,-6.062708522760322e-06,0.8032638559442887
2025-05-14 14:44:18.619,-3.793600494585041e-06,1.200236258999153
2025-05-14 14:44:18.627,-1.0271627605333408e-06,1.5254086633684458
2025-05-14 14:44:18.635,2.339468579569221e-06,1.769244223003218
2025-05-14 14:44:18.643,6.360304421711091e-06,1.924623141189541
2025-05-14 14:44:18.650,1.1039239048456549e-05,1.9870989182307284
2025-05-14 14:44:18.658,1.6331260067917017e-05,1.955053679823623
2025-05-14 14:44:18.666,2.214588235290069e-05,1.82974606383076
2025-05-14 14:44:18.674,2.8352494527899536e-05,1.6152502457505336
2025-05-14 14:44:18.682,3.4787304432959775e-05,1.3182898053958838
2025-05-14 14:44:18.689,4.1261603439401065e-05,0.9479749643358564
2025-05-14 14:44:18.697,4.7571090363816645e-05,0.5154559708582809
2025-05-14 14:44:18.705,5.350597941638672e-05,0.0335088482296757
2025-05-14 14:44:18.713,5.886157605418855e-05,-0.4839278009439168
2025-05-14 14:44:18.721,6.34489621317413e-05,-1.022244800019969
2025-05-14 14:44:18.729,6.710539874044418e-05,-1.566662673399103
2025-05-14 14:44:18.736,6.970403486629865e-05,-2.102720222043543
2025-05-14 14:44:18.744,7.116250398660682e-05,-2.6167328721033147
2025-05-14 14:44:18.752,7.145000030623301e-05,-3.0962044472906665
2025-05-14 14:44:18.760,7.059245258760847e-05,-3.5301787769799056
2025-05-14 14:44:18.768,6.867545721429656e-05,-3.909520735389732
2025-05-14 14:44:18.775,6.584469359654486e-05,-4.22711974477199
2025-05-14 14:44:18.783,6.230362414186233e-05,-4.478012295368683
2025-05-14 14:44:18.791,5.830837707361847e-05,-4.659423468647927
2025-05-14 14:44:18.799,5.415982205537357e-05,-4.770730644721303
2025-05-14 14:44:18.807,5.0192973855890606e-05,-4.813355404292697
2025-05-14 14:44:18.815,4.6763995443459866e-05,-4.790592011378077
2025-05-14 14:44:18.822,4.423521548015951e-05,-4.707382734237777
2025-05-14 14:44:18.830,4.29587220467162e-05,-4.570051607195118
2025-05-14 14:44:18.838,4.325923976545881e-05,-4.386009055554237
2025-05-14 14:44:18.846,4.54171343098007e-05,-4.163440116968936
2025-05-14 14:44:18.854,4.965249946959309e-05,-3.910988825925746
2025-05-14 14:44:18.861,5.611132946393596e-05,-3.637450720987528
2025-05-14 14:44:18.869,6.485471537884485e-05,-3.3514844256081218
2025-05-14 14:44:18.877,7.585181629865808e-05,-3.0613518835366382
2025-05-14 14:44:18.885,8.897709087813562e-05,-2.774695150614099
2025-05-14 14:44:18.893,0.0001040120005033,-2.498355724106958
2025-05-14 14:44:18.900,0.0001206511369728,-2.238240310200319
2025-05-14 14:44:18.908,0.0001385124803215,-1.9992347778139417
2025-05-14 14:44:18.916,0.0001571512632294,-1.785165911727119
2025-05-14 14:44:18.924,0.0001760767256501,-1.598808548660445
2025-05-14 14:44:18.932,0.0001947708912096,-1.4419338423128911
2025-05-14 14:44:18.940,0.0002127083858071,-1.3153928364398784
2025-05-14 14:44:18.947,0.0002293762660503,-1.2192282950047717
2025-05-14 14:44:18.955,0.0002442928532293,-1.1528068917326586
2025-05-14 14:44:18.963,0.0002570246766834,-1.114963421024464
2025-05-14 14:44:18.971,0.0002672007929507,-1.104148657703247
2025-05-14 14:44:18.979,0.0002745239371027,-1.1185728410835276
2025-05-14 14:44:18.986,0.0002787781659846,-1.1563374435277065
2025-05-14 14:44:18.994,0.0002798328638242,-1.2155488423459118
2025-05-14 14:44:19.002,0.00027764319318,-1.2944086787029945
2025-05-14 14:44:19.010,0.0002722472749134,-1.3912769942535814
2025-05-14 14:44:19.018,0.0002637605454887,-1.5047056281361748
2025-05-14 14:44:19.025,0.0002523678519811,-1.6334407842533851
2025-05-14 14:44:19.033,0.0002383139161419,-1.776395104927914
2025-05-14 14:44:19.041,0.0002218928430756,-1.9325909901991585
2025-05-14 14:44:19.049,0.000203437346678,-2.1010782663678715
2025-05-14 14:44:19.057,0.0001833082804959,-2.2808306097559705
2025-05-14 14:44:19.065,0.0001618849065768,-2.4706263352430806
2025-05-14 14:44:19.072,0.00013955615013,-2.6689202169458026
2025-05-14 14:44:19.080,0.0001167129140804,-2.873713869082652
2025-05-14 14:44:19.088,9.374138415471948e-05,-3.0824328258555465
2025-05-14 14:44:19.096,7.101714993745048e-05,-3.291818767405597
2025-05-14 14:44:19.104,4.889990489225922e-05,-3.4978452955623918
2025-05-14 14:44:19.111,2.772847123519823e-05,-3.695665228743482
2025-05-14 14:44:19.119,7.815924360555683e-06,-3.8795965364216816
2025-05-14 14:44:19.127,-1.0555335159953408e-05,-4.043152767751232
2025-05-14 14:44:19.135,-2.7138601146472712e-05,-4.179122168772244
2025-05-14 14:44:19.143,-4.172787463173743e-05,-4.27969767694284
2025-05-14 14:44:19.150,-5.416263866399384e-05,-4.336657704273818
2025-05-14 14:44:19.158,-6.43320662517224e-05,-4.341595164321869
2025-05-14 14:44:19.166,-7.217828560164437e-05,-4.2861896686839485
2025-05-14 14:44:19.174,-7.769833413759837e-05,-4.162515325756406
2025-05-14 14:44:19.182,-8.094449643909876e-05,-3.963374231128464
2025-05-14 14:44:19.190,-8.202283149006316e-05,-3.68264365738068
2025-05-14 14:44:19.197,-8.108982551240202e-05,-3.3156232376369634
2025-05-14 14:44:19.205,-7.83472331361928e-05,-2.859367186181443
2025-05-14 14:44:19.213,-7.403527987214772e-05,-2.3129858906639624
2025-05-14 14:44:19.221,-6.842448960871777e-05,-1.6779011136619215
2025-05-14 14:44:19.229,-6.180647113907229e-05,-0.9580396213939828
2025-05-14 14:44:19.236,-5.448404701428274e-05,-0.1599513710024624
2025-05-14 14:44:19.244,-4.676113624286008e-05,0.7071595280003998
2025-05-14 14:44:19.252,-3.893280982718158e-05,1.631500005671222
2025-05-14 14:44:19.260,-3.1275925499331965e-05,2.598854721939244
2025-05-14 14:44:19.268,-2.4040716247991564e-05,3.592855399805136
2025-05-14 14:44:19.275,-1.7443657538209542e-05,4.595349300795049
2025-05-14 14:44:19.283,-1.166187198690086e-05,5.586858483022395
2025-05-14 14:44:19.291,-6.829249370361954e-06,6.547116680233756
2025-05-14 14:44:19.299,-3.034366133859756e-06,7.455666184817165
2025-05-14 14:44:19.307,-3.20185826831983e-07,8.292493296872419
2025-05-14 14:44:19.315,1.314577830304724e-06,9.038677982331713
2025-05-14 14:44:19.322,1.9126253841206864e-06,9.6770315919275
2025-05-14 14:44:19.330,1.5539739757161482e-06,10.192695991609328
2025-05-14 14:44:19.338,3.507792573709724e-07,10.573678320463856
2025-05-14 14:44:19.346,-1.5587836358056832e-06,10.811297805049524
2025-05-14 14:44:19.354,-4.017449206759315e-06,10.900524510021173
2025-05-14 14:44:19.361,-6.8564204049171e-06,10.84019441076872
2025-05-14 14:44:19.369,-9.903290836205444e-06,10.633090493362126
2025-05-14 14:44:19.377,-1.2989989771065912e-05,10.285885434976374
2025-05-14 14:44:19.385,-1.5960371551668152e-05,9.808947480754265
2025-05-14 14:44:19.393,-1.867705942944639e-05,9.21601708864242
2025-05-14 14:44:19.400,-2.102715753580204e-05,8.523767449363815
2025-05-14 14:44:19.408,-2.292647675819901e-05,7.751266817672673
2025-05-14 14:44:19.416,-2.432200126591737e-05,6.919364472023425
2025-05-14 14:44:19.424,-2.519245004760484e-05,6.050024877465867
2025-05-14 14:44:19.432,-2.5546935464419573e-05,5.1656361655777685
2025-05-14 14:44:19.440,-2.5421861222343883e-05,4.288319351257928
2025-05-14 14:44:19.447,-2.4876321398707145e-05,3.439263837124764
2025-05-14 14:44:19.455,-2.39863552070172e-05,2.638112829428885
2025-05-14 14:44:19.463,-2.283847655179315e-05,1.902419466390115
2025-05-14 14:44:19.471,-2.1522931522239975e-05,1.2471909283507805
2025-05-14 14:44:19.479,-2.0127140126743612e-05,0.6845337549465333
2025-05-14 14:44:19.486,-1.8729751013325628e-05,0.2234092297470347
2025-05-14 14:44:19.494,-1.739568077627129e-05,-0.1304968086588956
2025-05-14 14:44:19.502,-1.6172424695110653e-05,-0.3747898331400655
2025-05-14 14:44:19.510,-1.508781618371717e-05,-0.5102725345233664
2025-05-14 14:44:19.518,-1.414928302809457e-05,-0.5407490313680422
2025-05-14 14:44:19.525,-1.3344513605269217e-05,-0.472739055135306
2025-05-14 14:44:19.533,-1.264333281444028e-05,-0.3151165894055964
2025-05-14 14:44:19.541,-1.200052332634717e-05,-0.078689562155216
2025-05-14 14:44:19.549,-1.135932276361824e-05,0.2242614293599827
2025-05-14 14:44:19.557,-1.065537127810397e-05,0.5804667582003167
2025-05-14 14:44:19.565,-9.820951628565478e-06,0.9761552792548018
2025-05-14 14:44:19.572,-8.789418062512404e-06,1.3975280039685651
2025-05-14 14:44:19.580,-7.4997161557597e-06,1.8312016041119423
2025-05-14 14:44:19.588,-5.900841535367153e-06,2.264607286461213
2025-05-14 14:44:19.596,-3.955996037473062e-06,2.6863328705341143
2025-05-14 14:44:19.604,-1.6461326983912185e-06,3.0863985190192498
2025-05-14 14:44:19.611,1.0274137890769242e-06,3.456459424863512
2025-05-14 14:44:19.619,4.041436551422727e-06,3.7899317568081687
2025-05-14 14:44:19.627,7.350618749163376e-06,4.082041213138681
2025-05-14 14:44:19.635,1.0888548611910752e-05,4.329796539647427
2025-05-14 14:44:19.643,1.4569889436936714e-05,4.53189324088414
2025-05-14 14:44:19.650,1.8293528140220616e-05,4.688555359651541
2025-05-14 14:44:19.658,2.1946469070096445e-05,4.8013255188995085
2025-05-14 14:44:19.666,2.540820617545941e-05,4.872815309783443
2025-05-14 14:44:19.674,2.8555297129738928e-05,4.906429473561624
2025-05-14 14:44:19.682,3.126587779486346e-05,4.90607809043096
2025-05-14 14:44:19.690,3.3423892275996675e-05,4.875891120897
2025-05-14 14:44:19.697,3.492286182534351e-05,4.8199491523198175
2025-05-14 14:44:19.705,3.5669052477348984e-05,4.742043124456199
2025-05-14 14:44:19.713,3.5583912809352195e-05,4.645474201372345
2025-05-14 14:44:19.721,3.460566283925627e-05,4.532902894192365
2025-05-14 14:44:19.729,3.2689969007470365e-05,4.40625410433216
2025-05-14 14:44:19.736,2.9809758643706628e-05,4.266682043856691
2025-05-14 14:44:19.744,2.595438248809013e-05,4.114596092131606
2025-05-14 14:44:19.752,2.1128467198170337e-05,3.949745657896626
2025-05-14 14:44:19.760,1.5350851958967255e-05,3.771359131556386
2025-05-14 14:44:19.768,8.653948900562582e-06,3.578329146102689
2025-05-14 14:44:19.775,1.083731771525627e-06,3.369433742828317
2025-05-14 14:44:19.783,-7.29960724585714e-06,3.143580795341618
2025-05-14 14:44:19.791,-1.6420446996243793e-05,2.900061319379845
2025-05-14 14:44:19.799,-2.6186213585949735e-05,2.63879621271706
2025-05-14 14:44:19.807,-3.648587464418547e-05,2.360560630770744
2025-05-14 14:44:19.815,-4.718883414119863e-05,2.0671706776340666
2025-05-14 14:44:19.822,-5.814461939327912e-05,1.761618408766887
2025-05-14 14:44:19.830,-6.918371764127147e-05,1.4481432853082532
2025-05-14 14:44:19.838,-8.011984243119019e-05,1.1322311259429594
2025-05-14 14:44:19.846,-9.075379199352238e-05,0.8205351559121195
2025-05-14 14:44:19.854,-0.0001008789065479,0.5207177955490875
2025-05-14 14:44:19.861,-0.0001102879457536,0.2412161682135138
2025-05-14 14:44:19.869,-0.00011878100931,-0.0090612805001102
2025-05-14 14:44:19.877,-0.0001261739528316,-0.2210954083015981
2025-05-14 14:44:19.885,-0.0001323066597127,-0.3861587489725608
2025-05-14 14:44:19.893,-0.0001370505444881,-0.4962409144968741
2025-05-14 14:44:19.900,-0.0001403147616666,-0.5444759412819874
2025-05-14 14:44:19.908,-0.0001420507281024,-0.5255491697302438
2025-05-14 14:44:19.916,-0.0001422547006168,-0.4360611032422335
2025-05-14 14:44:19.924,-0.0001409682692417,-0.2748268084582627
2025-05-14 14:44:19.932,-0.0001382767261769,-0.0430917958399567
2025-05-14 14:44:19.940,-0.0001343053515183,0.2553511190399769
2025-05-14 14:44:19.947,-0.000129213729755,0.61415488798144
2025-05-14 14:44:19.955,-0.0001231883064513,1.0245267784967502
2025-05-14 14:44:19.963,-0.000116433545117,1.4754520757609533
2025-05-14 14:44:19.971,-0.0001091622363999,1.954026587664948
2025-05-14 14:44:19.979,-0.0001015856712544,2.4458857477846583
2025-05-14 14:44:19.986,-9.390444328177212e-05,2.935712762048169
2025-05-14 14:44:19.994,-8.630058183932735e-05,3.407803714837978
2025-05-14 14:44:20.002,-7.89315735099277e-05,3.846664115542548
2025-05-14 14:44:20.010,-7.19266412511212e-05,4.237609245561304
2025-05-14 14:44:20.018,-6.5385435892279e-05,4.567340001823147
2025-05-14 14:44:20.025,-5.93790640607797e-05,4.824466784656883
2025-05-14 14:44:20.033,-5.395314745190365e-05,4.999956316294584
2025-05-14 14:44:20.041,-4.913241084767374e-05,5.087479984973885
2025-05-14 14:44:20.049,-4.492616113217941e-05,5.083647187204615
2025-05-14 14:44:20.057,-4.133396055720944e-05,4.988112909485593
2025-05-14 14:44:20.065,-3.835081603705863e-05,4.803555114149738
2025-05-14 14:44:20.072,-3.5971300942314e-05,4.535524000632987
2025-05-14 14:44:20.080,-3.419218296439098e-05,4.192171521798902
2025-05-14 14:44:20.088,-3.301332060664951e-05,3.7838752801430617
2025-05-14 14:44:20.096,-3.243678180706898e-05,3.322775790552983
2025-05-14 14:44:20.104,-3.246431426968536e-05,2.82224982345989
2025-05-14 14:44:20.111,-3.3093450192670045e-05,2.2963449681624506
2025-05-14 14:44:20.119,-3.431265261573054e-05,1.7592016064794855
2025-05-14 14:44:20.127,-3.60960019282084e-05,1.2244881789523157
2025-05-14 14:44:20.135,-3.8397975625624585e-05,0.7048740596762159
2025-05-14 14:44:20.143,-4.114888979462869e-05,0.2115616976054864
2025-05-14 14:44:20.150,-4.4251545906732166e-05,-0.2461038581124545
2025-05-14 14:44:20.158,-4.757956146474169e-05,-0.6609341213198121
2025-05-14 14:44:20.166,-5.097775934518674e-05,-1.028095695442972
2025-05-14 14:44:20.174,-5.426485110661197e-05,-1.345203621411689
2025-05-14 14:44:20.182,-5.723847817189231e-05,-1.61230974981606
2025-05-14 14:44:20.190,-5.968247696688774e-05,-1.83179084527266
2025-05-14 14:44:20.197,-6.137601791329521e-05,-2.0081452143326075
2025-05-14 14:44:20.205,-6.210405246179968e-05,-2.1477101540181014
2025-05-14 14:44:20.213,-6.166832743877447e-05,-2.258315324085663
2025-05-14 14:44:20.221,-5.989814408189074e-05,-2.348889171820301
2025-05-14 14:44:20.229,-5.666007661950871e-05,-2.4290367486558404
2025-05-14 14:44:20.236,-5.186599884656847e-05,-2.50860765978107
2025-05-14 14:44:20.244,-4.547894763486327e-05,-2.597272516144483
2025-05-14 14:44:20.252,-3.751654211287855e-05,-2.7041251631900423
2025-05-14 14:44:20.260,-2.805185993500689e-05,-2.8373262056998105
2025-05-14 14:44:20.268,-1.721184148576933e-05,-3.0038010179915045
2025-05-14 14:44:20.275,-5.173443502673918e-06,-3.209002634887047
2025-05-14 14:44:20.283,7.842117515064225e-06,-3.4567467938346903
2025-05-14 14:44:20.291,2.157662788632706e-05,-3.749123083296805
2025-05-14 14:44:20.299,3.574324551079252e-05,-4.086482786727425
2025-05-14 14:44:20.307,5.0035622861864114e-05,-4.4675007298074805
2025-05-14 14:44:20.315,6.413747463261527e-05,-4.889305368278516
2025-05-14 14:44:20.322,7.773229185107488e-05,-5.347668610124833
2025-05-14 14:44:20.330,9.051289661831604e-05,-5.837244547753539
2025-05-14 14:44:20.338,0.0001021905261599,-6.351844462243369
2025-05-14 14:44:20.346,0.0001125031418598,-6.884734210558026
2025-05-14 14:44:20.354,0.0001212226804325,-7.428939453495244
2025-05-14 14:44:20.361,0.0001281610006824,-7.977544139979175
2025-05-14 14:44:20.369,0.0001331743305121,-8.523968223662063
2025-05-14 14:44:20.377,0.0001361660848612,-9.062211723768607
2025-05-14 14:44:20.385,0.0001370880056739,-9.587053910273026
2025-05-14 14:44:20.393,0.0001359396690723,-10.094198533440313
2025-05-14 14:44:20.400,0.000132766509866,-10.580358550586698
2025-05-14 14:44:20.408,0.0001276566164665,-11.04327663205551
2025-05-14 14:44:20.416,0.0001207366177909,-11.48168074438433
2025-05-14 14:44:20.424,0.0001121669834498,-11.89517719426946
2025-05-14 14:44:20.432,0.0001021369997853,-12.28408654876582
2025-05-14 14:44:20.440,9.085962837805806e-05,-12.649230695645052
2025-05-14 14:44:20.447,7.856644017376527e-05,-12.991681842754794
2025-05-14 14:44:20.455,6.550281361516204e-05,-13.312486357455803
2025-05-14 14:44:20.463,5.192353357008556e-05,-13.612377920876956
2025-05-14 14:44:20.471,3.80888242253566e-05,-13.891495449962932
2025-05-14 14:44:20.479,2.4260732349763533e-05,-14.149121582645876
2025-05-14 14:44:20.486,1.0699683350359883e-05,-14.383457207185003
2025-05-14 14:44:20.494,-2.3390232889057024e-06,-14.59144654063375
2025-05-14 14:44:20.502,-1.4609026323093951e-05,-14.768665634905089
2025-05-14 14:44:20.510,-2.587724099491929e-05,-14.909284941321207
2025-05-14 14:44:20.518,-3.592887095251576e-05,-15.006113740281428
2025-05-14 14:44:20.525,-4.457313259034403e-05,-15.05073089866793
2025-05-14 14:44:20.533,-5.1649587646591306e-05,-15.033702629045756
2025-05-14 14:44:20.541,-5.7034810791558834e-05,-14.94488379823777
2025-05-14 14:44:20.549,-6.0648942471564095e-05,-14.773795017764272
2025-05-14 14:44:20.557,-6.24615339912297e-05,-14.510063440008716
2025-05-14 14:44:20.565,-6.24960343622275e-05,-14.143911115551258
2025-05-14 14:44:20.572,-6.083232372384805e-05,-13.666671192930137
2025-05-14 14:44:20.580,-5.760684348818181e-05,-13.071309410083552
2025-05-14 14:44:20.588,-5.301006014074087e-05,-12.352926453401825
2025-05-14 14:44:20.596,-4.728119079610489e-05,-11.509216014376843
2025-05-14 14:44:20.604,-4.070029818273469e-05,-10.540853868125016
2025-05-14 14:44:20.611,-3.3578024884155205e-05,-9.451795083798782
2025-05-14 14:44:20.619,-2.6243377677804608e-05,-8.249459537970841
2025-05-14 14:44:20.627,-1.903008946348021e-05,-6.944790152585309
2025-05-14 14:44:20.635,-1.226217583767188e-05,-5.552173565674995
2025-05-14 14:44:20.643,-6.23936363962046e-06,-4.089219048949004
2025-05-14 14:44:20.650,-1.2230980942243295e-06,-2.576398133933661
2025-05-14 14:44:20.658,2.576167609857528e-06,-1.0365542623479644
2025-05-14 14:44:20.666,5.009731862834803e-06,0.5057015450162374
2025-05-14 14:44:20.674,5.998852739796527e-06,2.0246869070282365
2025-05-14 14:44:20.682,5.539903692645632e-06,3.494408964126269
2025-05-14 14:44:20.690,3.70610558979628e-06,4.889358878983623
2025-05-14 14:44:20.697,6.456214469895553e-07,6.185306667364285
2025-05-14 14:44:20.705,-3.424017527044712e-06,7.360062570970731
2025-05-14 14:44:20.713,-8.224984592868836e-06,8.394172487219883
2025-05-14 14:44:20.721,-1.3431353002871284e-05,9.27151801738816
2025-05-14 14:44:20.729,-1.868385448337529e-05,9.979796308165444
2025-05-14 14:44:20.736,-2.3606497899422728e-05,10.5108607589385
2025-05-14 14:44:20.744,-2.7824235892612288e-05,10.860910477467131
2025-05-14 14:44:20.752,-3.098078128272338e-05,11.030523662260723
2025-05-14 14:44:20.760,-3.275563804376888e-05,11.024537422268727
2025-05-14 14:44:20.768,-3.287946117251243e-05,10.851783479644588
2025-05-14 14:44:20.775,-3.114699324660451e-05,10.524695351360371
2025-05-14 14:44:20.783,-2.74270037251551e-05,10.05880765498158
2025-05-14 14:44:20.791,-2.1668844670282096e-05,9.472171912835403
2025-05-14 14:44:20.799,-1.3905417846398547e-05,8.784715526474928
2025-05-14 14:44:20.807,-4.252517770628172e-06,8.017571458248158
2025-05-14 14:44:20.815,7.095329751939263e-06,7.1924056798066935
2025-05-14 14:44:20.822,1.9872276120562337e-05,6.330767784744314
2025-05-14 14:44:20.830,3.375142879741309e-05,5.453487509570273
2025-05-14 14:44:20.838,4.835752475437544e-05,4.580136480718336
2025-05-14 14:44:20.846,6.328144453473267e-05,3.728570532759333
2025-05-14 14:44:20.854,7.80959562166783e-05,2.9145636519762324
2025-05-14 14:44:20.861,9.237204356021788e-05,2.1515402041143497
2025-05-14 14:44:20.869,0.0001056951594329,1.4504077937401554
2025-05-14 14:44:20.877,0.0001176807541797,0.8194890337342124
2025-05-14 14:44:20.885,0.0001279884587366,0.26454681048316
2025-05-14 14:44:20.893,0.0001363343536871,-0.2111055744389969
2025-05-14 14:44:20.900,0.000142500827664,-0.6064206351618486
2025-05-14 14:44:20.908,0.0001463436209047,-0.9223725554448688
2025-05-14 14:44:20.916,0.0001477957615105,-1.1616672703452584
2025-05-14 14:44:20.924,0.0001468682319029,-1.3284220952960517
2025-05-14 14:44:20.932,0.0001436473495939,-1.427830319934891
2025-05-14 14:44:20.940,0.0001382890077197,-1.465825693269222
2025-05-14 14:44:20.947,0.0001310100943462,-1.4487606850673125
2025-05-14 14:44:20.955,0.0001220775906224,-1.3831108678066295
2025-05-14 14:44:20.963,0.00011179602142,-1.2752157947421543
2025-05-14 14:44:20.971,0.0001004940618637,-1.1310644418331324
2025-05-14 14:44:20.979,8.851114100721597e-05,-0.9561307381898946
2025-05-14 14:44:20.986,7.618480747374419e-05,-0.755262043162411
2025-05-14 14:44:20.994,6.383945810537816e-05,-0.5326207517690339
2025-05-14 14:44:21.002,5.177683203946237e-05,-0.2916766365888102
2025-05-14 14:44:21.010,4.026847938876188e-05,-0.035245175161918
2025-05-14 14:44:21.018,2.95502442119214e-05,0.2344349240286391
2025-05-14 14:44:21.025,1.981866299219524e-05,0.5155933981064849
2025-05-14 14:44:21.033,1.1229076520572788e-05,0.8067988252343301
2025-05-14 14:44:21.041,3.895187458446227e-06,1.106817827280897
2025-05-14 14:44:21.049,-2.1102310933970058e-06,1.4144731901853282
2025-05-14 14:44:21.057,-6.75375954657734e-06,1.728510512861053
2025-05-14 14:44:21.065,-1.0039126266031085e-05,2.047482031075836
2025-05-14 14:44:21.072,-1.2004543609295032e-05,2.3696549131932443
2025-05-14 14:44:21.080,-1.2719693775800318e-05,2.69294968504618
2025-05-14 14:44:21.088,-1.2282432269859215e-05,3.01491261241194
2025-05-14 14:44:21.096,-1.081524879618706e-05,3.3327239481882707
2025-05-14 14:44:21.104,-8.46148946348888e-06,3.643242023333944
2025-05-14 14:44:21.111,-5.381304513438009e-06,3.943081300023404
2025-05-14 14:44:21.119,-1.7472678666608738e-06,4.228720776970482
2025-05-14 14:44:21.127,2.2603601625846803e-06,4.496637598691367
2025-05-14 14:44:21.135,6.458687641413797e-06,4.743459425137546
2025-05-14 14:44:21.143,1.0667444165471694e-05,4.96612811062649
2025-05-14 14:44:21.150,1.4714261603378911e-05,5.162066555695682
2025-05-14 14:44:21.158,1.84397913634781e-05,5.329340253847741
2025-05-14 14:44:21.166,2.170245276897549e-05,5.46680506526446
2025-05-14 14:44:21.174,2.438259938120612e-05,5.57423310792376
2025-05-14 14:44:21.182,2.6385915593959664e-05,5.6524093505411335
2025-05-14 14:44:21.190,2.7645912472539056e-05,5.703192500908534
2025-05-14 14:44:21.197,2.8125442421423918e-05,5.729535076898214
2025-05-14 14:44:21.205,2.781717467827289e-05,5.735459079146839
2025-05-14 14:44:21.213,2.67429810885181e-05,5.725985389129676
2025-05-14 14:44:21.221,2.495219617787796e-05,5.707016818661731
2025-05-14 14:44:21.229,2.251874768043337e-05,5.685176567353551
2025-05-14 14:44:21.236,1.953720506984629e-05,5.667605648529542
2025-05-14 14:44:21.244,1.6117863544286606e-05,5.661724577690148
2025-05-14 14:44:21.252,1.2381066161506324e-05,5.674966240098447
2025-05-14 14:44:21.260,8.451053744075704e-06,5.714488324442536
2025-05-14 14:44:21.268,4.449687346649785e-06,5.7868749850801375
2025-05-14 14:44:21.275,4.903758352801556e-07,5.897838431404928
2025-05-14 14:44:21.283,-3.3275279002703203e-06,6.051931893277938
2025-05-14 14:44:21.291,-6.923654906857998e-06,6.252285828550113
2025-05-14 14:44:21.299,-1.0240649763435477e-05,6.500379271331038
2025-05-14 14:44:21.307,-1.32470160306631e-05,6.795857812732658
2025-05-14 14:44:21.315,-1.593846342716125e-05,7.136408804996798
2025-05-14 14:44:21.322,-1.8337504791230328e-05,7.517702942297586
2025-05-14 14:44:21.330,-2.0491190836275213e-05,7.933409378893863
2025-05-14 14:44:21.338,-2.2467040202894037e-05,8.375289014257822
2025-05-14 14:44:21.346,-2.4347383397449275e-05,8.833367559215567
2025-05-14 14:44:21.354,-2.6222475351544467e-05,9.296186586059632
2025-05-14 14:44:21.361,-2.818283659424463e-05,9.7511270841491
2025-05-14 14:44:21.369,-3.031135405515337e-05,10.184796258137451
2025-05-14 14:44:21.377,-3.267570699918392e-05,10.583464632446464
2025-05-14 14:44:21.385,-3.5321680293385545e-05,10.93353721447081
2025-05-14 14:44:21.393,-3.826788598278715e-05,11.222039785634635
2025-05-14 14:44:21.400,-4.150233597894951e-05,11.437099581516293
2025-05-14 14:44:21.408,-4.4981195625439095e-05,11.56839889062644
2025-05-14 14:44:21.416,-4.862990317467878e-05,11.607580577476506
2025-05-14 14:44:21.424,-5.234666802279916e-05,11.5485862640518
2025-05-14 14:44:21.432,-5.600816776121156e-05,11.38791082942696
2025-05-14 14:44:21.440,-5.947706655670537e-05,11.124760849564048
2025-05-14 14:44:21.447,-6.261080427207075e-05,10.76110934285514
2025-05-14 14:44:21.455,-6.527098725090564e-05,10.301644387151748
2025-05-14 14:44:21.463,-6.733266159551628e-05,9.75361447097386
2025-05-14 14:44:21.471,-6.869276987038137e-05,9.12657847522794
2025-05-14 14:44:21.479,-6.92771820052574e-05,8.432072626683553
2025-05-14 14:44:21.486,-6.904583827820808e-05,7.683210360517219
2025-05-14 14:44:21.494,-6.799571770270104e-05,6.894233599450554
2025-05-14 14:44:21.502,-6.616152084943981e-05,6.080035410233555
2025-05-14 14:44:21.510,-6.361411725253366e-05,5.255674324123264
2025-05-14 14:44:21.518,-6.045694804067328e-05,4.435899872090213
2025-05-14 14:44:21.526,-5.682069067876708e-05,3.6347072225541472
2025-05-14 14:44:21.533,-5.285658190965244e-05,2.864936408427708
2025-05-14 14:44:21.541,-4.87288551898114e-05,2.1379287096589707
2025-05-14 14:44:21.549,-4.460677899107152e-05,1.463249540576702
2025-05-14 14:44:21.557,-4.0656781985175525e-05,0.8484838885419924
2025-05-14 14:44:21.565,-3.703512083048198e-05,0.2991071466810384
2025-05-14 14:44:21.572,-3.388148729898259e-05,-0.1815687742735837
2025-05-14 14:44:21.580,-3.131386580993884e-05,-0.592376783621579
2025-05-14 14:44:21.588,-2.942484275995585e-05,-0.9342083474049702
2025-05-14 14:44:21.596,-2.827944031786231e-05,-1.2098663925902895
2025-05-14 14:44:21.604,-2.791441482770297e-05,-1.4238655778382372
2025-05-14 14:44:21.611,-2.833885839121388e-05,-1.5821891981348133
2025-05-14 14:44:21.619,-2.9535908305012985e-05,-1.692012725490368
2025-05-14 14:44:21.627,-3.146539297434259e-05,-1.7614044177938268
2025-05-14 14:44:21.635,-3.4067255766317967e-05,-1.7990135755941603
2025-05-14 14:44:21.643,-3.726554135247457e-05,-1.813756906139713
2025-05-14 14:44:21.651,-4.09726263284297e-05,-1.8145130703591872
2025-05-14 14:44:21.658,-4.509331008772704e-05,-1.8098348421633468
2025-05-14 14:44:21.666,-4.9528408626738347e-05,-1.8076874045666864
2025-05-14 14:44:21.674,-5.417760029897342e-05,-1.815220158155395
2025-05-14 14:44:21.682,-5.894141023572108e-05,-1.838578052661096
2025-05-14 14:44:21.690,-6.37223512686026e-05,-1.882756913366376
2025-05-14 14:44:21.697,-6.84253473362924e-05,-1.951505572148063
2025-05-14 14:44:21.705,-7.295764488901452e-05,-2.0472758864505805
2025-05-14 14:44:21.713,-7.722846585840406e-05,-2.171220002955877
2025-05-14 14:44:21.721,-8.114867069399824e-05,-2.323232566815875
2025-05-14 14:44:21.729,-8.463068139105099e-05,-2.502034065229992
2025-05-14 14:44:21.736,-8.758886484041172e-05,-2.705290193176296
2025-05-14 14:44:21.744,-8.994050800545814e-05,-2.929761090136081
2025-05-14 14:44:21.752,-9.160745225606594e-05,-3.1714735484300305
2025-05-14 14:44:21.760,-9.25184102227763e-05,-3.425908846951242
2025-05-14 14:44:21.768,-9.261194379400584e-05,-3.688198720997947
2025-05-14 14:44:21.776,-9.18399943419821e-05,-3.9533221373949656
2025-05-14 14:44:21.783,-9.017171821012522e-05,-4.21629598938123
2025-05-14 14:44:21.791,-8.75972432481691e-05,-4.472353520007425
2025-05-14 14:44:21.799,-8.413089836331269e-05,-4.717105165707187
2025-05-14 14:44:21.807,-7.98135118573065e-05,-4.9466775130478
2025-05-14 14:44:21.815,-7.471349414737002e-05,-5.157827114483848
2025-05-14 14:44:21.822,-6.892654617613535e-05,-5.348026954436038
2025-05-14 14:44:21.830,-6.257391731251308e-05,-5.515524344544846
2025-05-14 14:44:21.838,-5.579918542890194e-05,-5.659369917460701
2025-05-14 14:44:21.846,-4.876359055813109e-05,-5.779418161749244
2025-05-14 14:44:21.854,-4.16400439522476e-05,-5.8763005986308325
2025-05-14 14:44:21.861,-3.460604120480492e-05,-5.951373266282026
2025-05-14 14:44:21.869,-2.7835807099739747e-05,-6.0066406836666895
2025-05-14 14:44:21.877,-2.1492078173642832e-05,-6.044658948777855
2025-05-14 14:44:21.885,-1.571798240080677e-05,-6.068421108453444
2025-05-14 14:44:21.893,-1.0629501941708003e-05,-6.081228419131446
2025-05-14 14:44:21.901,-6.30900320218637e-06,-6.086551579834093
2025-05-14 14:44:21.908,-2.800287901363894e-06,-6.087886430195382
2025-05-14 14:44:21.916,-1.055595535437473e-07,-6.088608938863408
2025-05-14 14:44:21.924,1.8153873761701505e-06,-6.091834536678043
2025-05-14 14:44:21.932,3.043561684538693e-06,-6.100286947763712
2025-05-14 14:44:21.940,3.69669599317771e-06,-6.116181605181704
2025-05-14 14:44:21.947,3.922793880878703e-06,-6.141128468949921
2025-05-14 14:44:21.955,3.891577188695387e-06,-6.17605856877769
2025-05-14 14:44:21.963,3.7842900861206655e-06,-6.221177871225897
2025-05-14 14:44:21.971,3.782492127220937e-06,-6.275951142988148
2025-05-14 14:44:21.979,4.0566026475501735e-06,-6.339117384849249
2025-05-14 14:44:21.986,4.754995214299879e-06,-6.408737189404377
2025-05-14 14:44:21.994,5.99436923933902e-06,-6.482271079876674
2025-05-14 14:44:22.002,7.851992680383943e-06,-6.556686569611313
2025-05-14 14:44:22.010,1.0360277890832504e-05,-6.6285903938120985
2025-05-14 14:44:22.018,1.350403574134061e-05,-6.694381156515721
2025-05-14 14:44:22.026,1.722061987357508e-05,-6.750416554468074
2025-05-14 14:44:22.033,2.1403005487143585e-05,-6.793188433405784
2025-05-14 14:44:22.041,2.590566287905077e-05,-6.8194982503707084
2025-05-14 14:44:22.049,3.055291130893345e-05,-6.8266251067964
2025-05-14 14:44:22.057,3.514928828603322e-05,-6.812478427472021
2025-05-14 14:44:22.065,3.9491348877056495e-05,-6.775727630890816
2025-05-14 14:44:22.072,4.338022249747663e-05,-6.715901794463811
2025-05-14 14:44:22.080,4.663420340777114e-05,-6.633453367847884
2025-05-14 14:44:22.088,4.910063744902209e-05,-6.529781405714086
2025-05-14 14:44:22.096,5.066639217209079e-05,-6.40721153118265
2025-05-14 14:44:22.104,5.126626026303715e-05,-6.26893184119239
2025-05-14 14:44:22.111,5.08887459138977e-05,-6.118886149932825
2025-05-14 14:44:22.119,4.9578818433055606e-05,-5.961628239624857
2025-05-14 14:44:22.127,4.743738385693961e-05,-5.802143021905525
2025-05-14 14:44:22.135,4.461741956382958e-05,-5.645642549521653
2025-05-14 14:44:22.143,4.131693389250223e-05,-5.497346484775725
2025-05-14 14:44:22.151,3.776914497701226e-05,-5.362257770605209
2025-05-14 14:44:22.158,3.423050231841855e-05,-5.244944746868876
2025-05-14 14:44:22.166,3.096736153722533e-05,-5.149340753060283
2025-05-14 14:44:22.174,2.82422159555149e-05,-5.078571369995462
2025-05-14 14:44:22.182,2.630036264639568e-05,-5.034817947591245
2025-05-14 14:44:22.190,2.535775939686978e-05,-5.019224058848932
2025-05-14 14:44:22.197,2.5590662520447263e-05,-5.031849155095257
2025-05-14 14:44:22.205,2.712746163479014e-05,-5.071671135389941
2025-05-14 14:44:22.213,3.004296300183494e-05,-5.136636953752199
2025-05-14 14:44:22.221,3.435522387524871e-05,-5.223757937170754
2025-05-14 14:44:22.229,4.002491004016377e-05,-5.329244319315006
2025-05-14 14:44:22.236,4.6957039971629926e-05,-5.448671718585038
2025-05-14 14:44:22.244,5.500489349049417e-05,-5.577170975458219
2025-05-14 14:44:22.252,6.397580131219056e-05,-5.709631950769205
2025-05-14 14:44:22.260,7.363849452669997e-05,-5.840911585188711
2025-05-14 14:44:22.268,8.373167753946693e-05,-5.966036718426442
2025-05-14 14:44:22.276,9.397348338203876e-05,-6.080392825790019
2025-05-14 14:44:22.283,0.0001040714541598,-6.179890883944962
2025-05-14 14:44:22.291,0.0001137326483263,-6.26110594191755
2025-05-14 14:44:22.299,0.000122673434232,-6.321382554545222
2025-05-14 14:44:22.307,0.0001306285330435,-6.358903939298122
2025-05-14 14:44:22.315,0.0001373589466234,-6.372723449498958
2025-05-14 14:44:22.322,0.0001426585306184,-6.362758628656895
2025-05-14 14:44:22.330,0.0001463591152518,-6.329749649089629
2025-05-14 14:44:22.338,0.0001483342012151,-6.275185293862136
2025-05-14 14:44:22.346,0.0001485013462638,-6.201200786165355
2025-05-14 14:44:22.354,0.0001468234195338,-6.110452689441263
2025-05-14 14:44:22.361,0.0001433089478664,-6.005976786064672
2025-05-14 14:44:22.369,0.0001380117890242,-5.891035287741586
2025-05-14 14:44:22.377,0.000131030306448,-5.768959936228556
2025-05-14 14:44:22.385,0.0001225060951088,-5.642997520083627
2025-05-14 14:44:22.393,0.0001126221622547,-5.516164066146164
2025-05-14 14:44:22.401,0.0001016003486479,-5.391113472906036
2025-05-14 14:44:22.408,8.969772418004413e-05,-5.2700256520062325
2025-05-14 14:44:22.416,7.720172497114515e-05,-5.154518351457585
2025-05-14 14:44:22.424,6.4423894815756e-05,-5.045585770790591
2025-05-14 14:44:22.432,5.169220448391779e-05,-4.943565877435202
2025-05-14 14:44:22.440,3.93420222744834e-05,-4.848137049069082
2025-05-14 14:44:22.447,2.770590868755071e-05,-4.75834337139922
2025-05-14 14:44:22.455,1.7102525318322574e-05,-4.672646691813361
2025-05-14 14:44:22.463,7.825087167715188e-06,-4.589002429391058
2025-05-14 14:44:22.471,1.2993339700442153e-07,-4.504955210811433
2025-05-14 14:44:22.479,-5.774094558780274e-06,-4.417749661904751
2025-05-14 14:44:22.486,-9.7347476798866e-06,-4.324451152578621
2025-05-14 14:44:22.494,-1.1663294651139488e-05,-4.222070988351903
2025-05-14 14:44:22.502,-1.153879813035392e-05,-4.107690487356284
2025-05-14 14:44:22.510,-9.409460685208484e-06,-3.978578594384471
2025-05-14 14:44:22.518,-5.390955901901848e-06,-3.832298162908773
2025-05-14 14:44:22.526,3.38160301113616e-07,-3.666796756138336
2025-05-14 14:44:22.533,7.543706142224093e-06,-3.480478728576593
2025-05-14 14:44:22.541,1.5945414618606362e-05,-3.272256382514405
2025-05-14 14:44:22.549,2.522827055153516e-05,-3.0415790746359246
2025-05-14 14:44:22.557,3.505508088014392e-05,-2.788440203718492
2025-05-14 14:44:22.565,4.507966910805445e-05,-2.51336297777491
2025-05-14 14:44:22.572,5.496006837395776e-05,-2.217366688821653
2025-05-14 14:44:22.580,6.437110020024301e-05,-1.901915885883204
2025-05-14 14:44:22.588,7.3015766576728e-05,-1.568855324356094
2025-05-14 14:44:22.596,8.063495019772161e-05,-1.220333894463031
2025-05-14 14:44:22.604,8.701500949393964e-05,-0.8587209150946069
2025-05-14 14:44:22.611,9.199296927755936e-05,-0.4865182429856491
2025-05-14 14:44:22.619,9.545914164160188e-05,-0.1062716068526657
2025-05-14 14:44:22.627,9.735716212570375e-05,0.2795155543286574
2025-05-14 14:44:22.635,9.768158959477558e-05,0.6684626752776114
2025-05-14 14:44:22.643,9.647338928417026e-05,1.0583842661801337
2025-05-14 14:44:22.651,9.381378149714616e-05,1.4473512614662334
2025-05-14 14:44:22.658,8.981705699382032e-05,1.83373945482337
2025-05-14 14:44:22.666,8.462298780428215e-05,2.216263457171077
2025-05-14 14:44:22.674,7.838938678260609e-05,2.593995197488769
2025-05-14 14:44:22.682,7.128523901923105e-05,2.966366638179693
2025-05-14 14:44:22.690,6.348470796840916e-05,3.3331570692965715
2025-05-14 14:44:22.697,5.516222401746602e-05,3.694466046654732
2025-05-14 14:44:22.705,4.648876321158047e-05,4.05067371279596
2025-05-14 14:44:22.713,3.762930186912556e-05,4.402390849754018
2025-05-14 14:44:22.721,2.8741306600767413e-05,4.750401517898265
2025-05-14 14:44:22.729,1.9974014669443607e-05,5.095601493360155
2025-05-14 14:44:22.736,1.1468190290462969e-05,5.4389358900204
2025-05-14 14:44:22.744,3.3560124388948405e-06,5.781339316237235
2025-05-14 14:44:22.752,-4.239240066537328e-06,6.123681666258096
2025-05-14 14:44:22.760,-1.1203990595597376e-05,6.4667221988847166
2025-05-14 14:44:22.768,-1.7435850872828936e-05,6.81107395000334
2025-05-14 14:44:22.776,-2.2845866928286725e-05,7.157179812346787
2025-05-14 14:44:22.783,-2.7361451638718477e-05,7.505300846677541
2025-05-14 14:44:22.791,-3.092977176816806e-05,7.855516606765224
2025-05-14 14:44:22.799,-3.352122593080628e-05,8.207736501522717
2025-05-14 14:44:22.807,-3.5132587280732374e-05,8.561720513208224
2025-05-14 14:44:22.815,-3.578939583214814e-05,8.917106971991998
2025-05-14 14:44:22.822,-3.554723494744097e-05,9.273444587170331
2025-05-14 14:44:22.830,-3.4491591258210725e-05,9.630225589667806
2025-05-14 14:44:22.838,-3.2736089045071046e-05,9.986916687420434
2025-05-14 14:44:22.846,-3.0419018296436257e-05,10.342984608823494
2025-05-14 14:44:22.854,-2.7698222317231337e-05,10.697913328017194
2025-05-14 14:44:22.861,-2.4744550629753435e-05,11.051210623299191
2025-05-14 14:44:22.869,-2.173420228373476e-05,11.402402385466049
2025-05-14 14:44:22.877,-1.884037856748967e-05,11.751014016219887
2025-05-14 14:44:22.885,-1.6224729806880685e-05,12.096539275500437
2025-05-14 14:44:22.893,-1.4029116509846862e-05,12.438397982822607
2025-05-14 14:44:22.901,-1.2368209385647498e-05,12.77588498327388
2025-05-14 14:44:22.908,-1.132342535882706e-05,13.108113685756445
2025-05-14 14:44:22.916,-1.093863804312824e-05,13.433958198578388
2025-05-14 14:44:22.924,-1.12180125055302e-05,13.751998554833314
2025-05-14 14:44:22.932,-1.212619763759164e-05,14.06047367991618
2025-05-14 14:44:22.940,-1.3590967996115668e-05,14.357246579128606
2025-05-14 14:44:22.947,-1.5508244331157718e-05,14.639785726082078
2025-05-14 14:44:22.955,-1.77492427265413e-05,14.905165856093616
2025-05-14 14:44:22.963,-2.0169313239338266e-05,15.150090373092963
2025-05-14 14:44:22.971,-2.261784739642636e-05,15.37093642635537
2025-05-14 14:44:22.979,-2.4948498322325586e-05,15.563822466349604
2025-05-14 14:44:22.986,-2.7028917704127035e-05,15.724696813602794
2025-05-14 14:44:22.994,-2.8749294282575795e-05,15.849444545166604
2025-05-14 14:44:23.002,-3.0029153403793232e-05,15.934008894548288
2025-05-14 14:44:23.010,-3.082209306496496e-05,15.97452243465435
2025-05-14 14:44:23.018,-3.111833918973566e-05,15.967442614482197
2025-05-14 14:44:23.026,-3.094516230730988e-05,15.909685784412188
2025-05-14 14:44:23.033,-3.036529005227774e-05,15.798753703335748
2025-05-14 14:44:23.041,-2.947349570731801e-05,15.632846695819207
2025-05-14 14:44:23.049,-2.839158767434489e-05,15.410958122445097
2025-05-14 14:44:23.057,-2.7262090731503688e-05,15.132945619642692
2025-05-14 14:44:23.065,-2.6240982857249973e-05,14.799575609379524
2025-05-14 14:44:23.072,-2.548990825460714e-05,14.412538806269035
2025-05-14 14:44:23.080,-2.516831666038493e-05,13.974435780763937
2025-05-14 14:44:23.088,-2.542597859893437e-05,13.48873298955978
2025-05-14 14:44:23.096,-2.63962958833604e-05,12.959690977473786
2025-05-14 14:44:23.104,-2.819076711925232e-05,12.392267615859176
2025-05-14 14:44:23.111,-3.089488075278387e-05,11.792000213072976
2025-05-14 14:44:23.119,-3.4565595621809e-05,11.164871076345491
2025-05-14 14:44:23.127,-3.923043568118436e-05,10.517161609281397
2025-05-14 14:44:23.135,-4.48880850194262e-05,9.855300301783066
2025-05-14 14:44:23.143,-5.1510248110399325e-05,9.18571002407522
2025-05-14 14:44:23.151,-5.90444643453591e-05,8.514659887196252
2025-05-14 14:44:23.158,-6.741753671447397e-05,7.848126590565391
2025-05-14 14:44:23.166,-7.653923069147117e-05,7.19166965984406
2025-05-14 14:44:23.174,-8.630590690308612e-05,6.550324313107823
2025-05-14 14:44:23.182,-9.660378182659408e-05,5.928514916263221
2025-05-14 14:44:23.190,-0.0001073115838122,5.329991132564793
2025-05-14 14:44:23.197,-0.0001183024838664,4.757787958982334
2025-05-14 14:44:23.205,-0.0001294453044576,4.214209894816795
2025-05-14 14:44:23.213,-0.000140605117421,3.700838538307496
2025-05-14 14:44:23.221,-0.0001516434198915,3.218562003626525
2025-05-14 14:44:23.229,-0.0001624181204981,2.767623746363048
2025-05-14 14:44:23.236,-0.0001727835752471,2.3476877227039434
2025-05-14 14:44:23.244,-0.0001825908850698,1.9579163107517927
2025-05-14 14:44:23.252,-0.00019168861589,1.5970570993050843
2025-05-14 14:44:23.260,-0.0001999240505595,1.2635344960623582
2025-05-14 14:44:23.268,-0.0002071450453042,0.9555421176394748
2025-05-14 14:44:23.276,-0.0002132025219712,0.6711320981988365
2025-05-14 14:44:23.283,-0.0002179535491525,0.4082977993792911
2025-05-14 14:44:23.291,-0.000221264863482,0.1650469269643683
2025-05-14 14:44:23.299,-0.0002230166201976,-0.0605372540591885
2025-05-14 14:44:23.307,-0.0002231061849349,-0.2702481083806855
2025-05-14 14:44:23.315,-0.0002214518640245,-0.4657218685285397
2025-05-14 14:44:23.322,-0.0002179965494508,-0.6484177349934691
2025-05-14 14:44:23.330,-0.0002127112700663,-0.8196109063187188
2025-05-14 14:44:23.338,-0.0002055985837395,-0.9803969961712844
2025-05-14 14:44:23.346,-0.0001966956505867,-1.131705848335428
2025-05-14 14:44:23.354,-0.0001860767462076,-1.2743224998945644
2025-05-14 14:44:23.361,-0.0001738549434627,-1.4089129747075435
2025-05-14 14:44:23.369,-0.0001601827164919,-1.5360527028127455
2025-05-14 14:44:23.377,-0.000145251279643,-1.6562556282661356
2025-05-14 14:44:23.385,-0.0001292885437068,-1.770002447659626
2025-05-14 14:44:23.393,-0.0001125556418836,-1.8777668684385205
2025-05-14 14:44:23.401,-9.53420458394595e-05,-1.9800392451017648
2025-05-14 14:44:23.408,-7.79593572059489e-05,-2.0773474000010226
2025-05-14 14:44:23.416,-6.073392102364042e-05,-2.1702748225853044
2025-05-14 14:44:23.424,-4.399846387552346e-05,-2.259476728322471
2025-05-14 14:44:23.432,-2.808300962719537e-05,-2.3456946172449515
2025-05-14 14:44:23.440,-1.33053684537664e-05,-2.429769988342625
2025-05-14 14:44:23.447,3.847126648523544e-08,-2.512657742932156
2025-05-14 14:44:23.455,1.1683695139904269e-05,-2.595439565537642
2025-05-14 14:44:23.463,2.14053945546062e-05,-2.67933723316101
2025-05-14 14:44:23.471,2.9026315867742382e-05,-2.76572540843676
2025-05-14 14:44:23.479,3.442328223267498e-05,-2.856143060438333
2025-05-14 14:44:23.486,3.753197737610594e-05,-2.9523022767047387
2025-05-14 14:44:23.494,3.834983239455812e-05,-3.05609293302812
2025-05-14 14:44:23.502,3.693682683380276e-05,-3.169581520676313
2025-05-14 14:44:23.510,3.341410420110683e-05,-3.2950024255697112
2025-05-14 14:44:23.518,2.7960407689607663e-05,-3.434740120771179
2025-05-14 14:44:23.526,2.080645358395111e-05,-3.591301063338313
2025-05-14 14:44:23.533,1.222745521391303e-05,-3.7672745547172415
2025-05-14 14:44:23.541,2.534075687702975e-06,-3.9652823927440624
2025-05-14 14:44:23.549,-7.937855712032842e-06,-4.187917764876201
2025-05-14 14:44:23.557,-1.8838446340429174e-05,-4.4376744557068495
2025-05-14 14:44:23.565,-2.9815148275489965e-05,-4.716868023305645
2025-05-14 14:44:23.572,-4.052390726289877e-05,-5.027551106746008
2025-05-14 14:44:23.580,-5.0639528950760296e-05,-5.371425440204077
2025-05-14 14:44:23.588,-5.986485608320866e-05,-5.749753453203341
2025-05-14 14:44:23.596,-6.793849568996305e-05,-6.163272524355375
2025-05-14 14:44:23.604,-7.464097131680981e-05,-6.612115027904825
2025-05-14 14:44:23.611,-7.97992864313216e-05,-7.095737276667751
2025-05-14 14:44:23.619,-8.328996682477486e-05,-7.612860332788248
2025-05-14 14:44:23.627,-8.504070066067223e-05,-8.161425438814195
2025-05-14 14:44:23.635,-8.503071471501322e-05,-8.738566522520152
2025-05-14 14:44:23.643,-8.32900155467109e-05,-9.340601853881482
2025-05-14 14:44:23.651,-7.989758889606029e-05,-9.96304648289697
2025-05-14 14:44:23.658,-7.497860273939812e-05,-10.600646558524316
2025-05-14 14:44:23.666,-6.870062579444621e-05,-11.247436013725126
2025-05-14 14:44:23.674,-6.126887991355842e-05,-11.89681539695475
2025-05-14 14:44:23.682,-5.292059169252522e-05,-12.54165185113094
2025-05-14 14:44:23.690,-4.391856312297772e-05,-13.17439842185746
2025-05-14 14:44:23.697,-3.454409873377424e-05,-13.787230064316132
2025-05-14 14:44:23.705,-2.5089386909575288e-05,-14.37219296293578
2025-05-14 14:44:23.713,-1.5849369493925203e-05,-14.9213631294567
2025-05-14 14:44:23.721,-7.113117998290524e-06,-15.42700975067327
2025-05-14 14:44:23.729,8.45188180923103e-07,-15.881758455678202
2025-05-14 14:44:23.736,7.775441732425036e-06,-16.278749584693397
2025-05-14 14:44:23.744,1.3460564862249024e-05,-16.611786666147882
2025-05-14 14:44:23.752,1.7724779197931474e-05,-16.875470626761707
2025-05-14 14:44:23.760,2.044069978517852e-05,-17.065315744074464
2025-05-14 14:44:23.768,2.153479154552856e-05,-17.177843974413776
2025-05-14 14:44:23.776,2.099081554776108e-05,-17.210655026561696
2025-05-14 14:44:23.783,1.8851045564977836e-05,-17.162470377988058
2025-05-14 14:44:23.791,1.5215201919823903e-05,-17.033150318067744
2025-05-14 14:44:23.799,1.0237167122559866e-05,-16.823684016341677
2025-05-14 14:44:23.807,4.119606242940983e-06,-16.536153514670563
2025-05-14 14:44:23.815,-2.8933511493876974e-06,-16.173673390058482
2025-05-14 14:44:23.822,-1.052516918091256e-05,-15.740308590375191
2025-05-14 14:44:23.830,-1.847744459990901e-05,-15.240973571343757
2025-05-14 14:44:23.838,-2.6441585003391276e-05,-14.681316329948018
2025-05-14 14:44:23.846,-3.411118519500415e-05,-14.06759121687809
2025-05-14 14:44:23.854,-4.1194555502362485e-05,-13.406524511483918
2025-05-14 14:44:23.861,-4.742677180883185e-05,-12.705176665103425
2025-05-14 14:44:23.869,-5.258058146567375e-05,-11.970804886301623
2025-05-14 14:44:23.877,-5.6475523764435696e-05,-11.21072938900994
2025-05-14 14:44:23.885,-5.898470836591785e-05,-10.4322061898947
2025-05-14 14:44:23.893,-6.003883829229154e-05,-9.642308861743995
2025-05-14 14:44:23.901,-5.962725251296774e-05,-8.847821161772728
2025-05-14 14:44:23.908,-5.77959674752384e-05,-8.055141993363414
2025-05-14 14:44:23.916,-5.464288906432849e-05,-7.270203756160368
2025-05-14 14:44:23.924,-5.03105319086043e-05,-6.4984048059854
2025-05-14 14:44:23.932,-4.49767162687961e-05,-5.744556477430162
2025-05-14 14:44:23.940,-3.884381123834404e-05,-5.012844902161511
2025-05-14 14:44:23.947,-3.2127154946691714e-05,-4.306807668532235
2025-05-14 14:44:23.955,-2.504330721874866e-05,-3.629325199724767
2025-05-14 14:44:23.963,-1.779877799144596e-05,-2.982626565752708
2025-05-14 14:44:23.971,-1.0579826934681947e-05,-2.368309274550437
2025-05-14 14:44:23.979,-3.54384825253932e-06,-1.7873723926555944
2025-05-14 14:44:23.986,3.1872559239276364e-06,-1.2402621128003193
2025-05-14 14:44:23.994,9.531436457094223e-06,-0.7269286099628234
2025-05-14 14:44:24.002,1.5448432454220425e-05,-0.2468927193977138
2025-05-14 14:44:24.010,2.0939212617653207e-05,0.2006793478912335
2025-05-14 14:44:24.018,2.604294165919499e-05,0.6168953393437502
2025-05-14 14:44:24.026,3.083161724493097e-05,1.0030526982640608
2025-05-14 14:44:24.033,3.540270665836918e-05,1.360553272906994
2025-05-14 14:44:24.041,3.987032333127599e-05,1.6908197108448788
2025-05-14 14:44:24.049,4.435566102724399e-05,1.9952163003278525
2025-05-14 14:44:24.057,4.8977486531314526e-05,2.274976938865464
2025-05-14 14:44:24.065,5.384345312099178e-05,2.5311426739766567
2025-05-14 14:44:24.072,5.904286122941944e-05,2.764510868916475
2025-05-14 14:44:24.080,6.464131001860285e-05,2.975597520700695
2025-05-14 14:44:24.088,7.067749291753734e-05,3.1646136461552623
2025-05-14 14:44:24.096,7.716220923654018e-05,3.3314560158301942
2025-05-14 14:44:24.104,8.407950006292457e-05,3.4757119193077397
2025-05-14 14:44:24.112,9.138967468424344e-05,3.596677142018749
2025-05-14 14:44:24.119,9.903387782725828e-05,3.693385956309336
2025-05-14 14:44:24.127,0.0001069397611884,3.7646516881725463
2025-05-14 14:44:24.135,0.0001150277672683,3.809116307709479
2025-05-14 14:44:24.143,0.0001232175106504,3.825307488128261
2025-05-14 14:44:24.151,0.0001314337518733,3.811701661696424
2025-05-14 14:44:24.158,0.0001396115012674,3.76679174192624
2025-05-14 14:44:24.166,0.0001476998629841,3.689158341607651
2025-05-14 14:44:24.174,0.0001556643304737,3.577543454805528
2025-05-14 14:44:24.182,0.0001634873705636,3.430925654522317
2025-05-14 14:44:24.190,0.0001711672799887,3.248595870182918
2025-05-14 14:44:24.197,0.0001787154609529,3.030232749011971
2025-05-14 14:44:24.205,0.0001861524340565,2.7759764783697918
2025-05-14 14:44:24.213,0.0001935030704967,2.4864997594539178
2025-05-14 14:44:24.221,0.0002007916426334,2.163074383624661
2025-05-14 14:44:24.229,0.0002080373131567,1.8076315774727996
2025-05-14 14:44:24.237,0.0002152505847597,1.4228139580573844
2025-05-14 14:44:24.244,0.000222431040887,1.0120165871407538
2025-05-14 14:44:24.252,0.0002295664780341,0.5794142593950373
2025-05-14 14:44:24.260,0.0002366333119378,0.1299718527442906
2025-05-14 14:44:24.268,0.000243597974213,-0.3305656246641273
2025-05-14 14:44:24.276,0.0002504189247001,-0.7957066649763427
2025-05-14 14:44:24.283,0.0002570488796632,-1.258273700726579
2025-05-14 14:44:24.291,0.0002634368830739,-1.7104929438214784
2025-05-14 14:44:24.299,0.0002695299377316,-2.1441153433063294
2025-05-14 14:44:24.307,0.0002752740647713,-2.5505691930988625
2025-05-14 14:44:24.315,0.0002806148213683,-2.921143458693372
2025-05-14 14:44:24.322,0.0002854974127168,-3.2471992373056566
2025-05-14 14:44:24.330,0.0002898665738085,-3.5204050227122883
2025-05-14 14:44:24.338,0.0002936664022257,-3.732989722594031
2025-05-14 14:44:24.346,0.000296840324583,-3.8780057727302433
2025-05-14 14:44:24.354,0.0002993313783392,-3.949593298291483
2025-05-14 14:44:24.362,0.0003010829683107,-3.943235169984838
2025-05-14 14:44:24.369,0.0003020401998403,-3.855992068680051
2025-05-14 14:44:24.377,0.0003021518120736,-3.6867063737830144
2025-05-14 14:44:24.385,0.0003013726530943,-3.4361638799016907
2025-05-14 14:44:24.393,0.0002996665458552,-3.107203056642289
2025-05-14 14:44:24.401,0.0002970092906467,-2.704762813966225
2025-05-14 14:44:24.408,0.0002933914863022,-2.2358615210077475
2025-05-14 14:44:24.416,0.0002888208803281,-1.709502331544223
2025-05-14 14:44:24.424,0.0002833240626948,-1.1365026508920315
2025-05-14 14:44:24.432,0.0002769474373922,-0.5292487604187004
2025-05-14 14:44:24.440,0.0002697574957017,0.0986199176486422
2025-05-14 14:44:24.447,0.0002618404615701,0.7325888365265818
2025-05-14 14:44:24.455,0.0002533013800741,1.357697013635614
2025-05-14 14:44:24.463,0.0002442626854242,1.959001546439628
2025-05-14 14:44:24.471,0.0002348622419111,2.5220604111803486
2025-05-14 14:44:24.479,0.0002252508248799,3.0334140783175614
2025-05-14 14:44:24.487,0.0002155890107046,3.481045537460578
2025-05-14 14:44:24.494,0.0002060434769465,3.854798502945635
2025-05-14 14:44:24.502,0.0001967827739623,4.146734917022435
2025-05-14 14:44:24.510,0.0001879727053445,4.3514153290012
2025-05-14 14:44:24.518,0.0001797715210715,4.466089160872689
2025-05-14 14:44:24.526,0.0001723251569851,4.490786052402265
2025-05-14 14:44:24.533,0.0001657627375439,4.428304136928754
2025-05-14 14:44:24.541,0.0001601925054996,4.28409592923076
2025-05-14 14:44:24.549,0.0001556982762218,4.066057205511648
2025-05-14 14:44:24.557,0.0001523364698771,3.784228550139362
2025-05-14 14:44:24.565,0.0001501337748015,3.4504229124293606
2025-05-14 14:44:24.572,0.000149085529009,3.077795394433005
2025-05-14 14:44:24.580,0.0001491549352167,2.680373468877328
2025-05-14 14:44:24.588,0.0001502732143841,2.272566854598693
2025-05-14 14:44:24.596,0.0001523407506271,1.868676363085069
2025-05-14 14:44:24.604,0.0001552292095249,1.4824202340203811
2025-05-14 14:44:24.612,0.0001587845461161,1.1264948993816375
2025-05-14 14:44:24.619,0.0001628307689288,0.8121848835286342
2025-05-14 14:44:24.627,0.0001671742942562,0.5490338162640761
2025-05-14 14:44:24.635,0.0001716087104582,0.3445854877123782
2025-05-14 14:44:24.643,0.000175919774733,0.2042007035172618
2025-05-14 14:44:24.651,0.0001798904835366,0.1309525936647281
2025-05-14 14:44:24.658,0.000183306091214,0.1256001427984186
2025-05-14 14:44:24.666,0.0001859589960868,0.1866371518578478
2025-05-14 14:44:24.674,0.0001876534559032,0.3104116696523591
2025-05-14 14:44:24.682,0.00018821010269,0.4913091667955422
2025-05-14 14:44:24.690,0.0001874701664822,0.721991350937987
2025-05-14 14:44:24.697,0.0001852992008199,0.9936815097326568
2025-05-14 14:44:24.705,0.0001815900039371,1.296486575053147
2025-05-14 14:44:24.713,0.0001762644214466,1.619745684804695
2025-05-14 14:44:24.721,0.0001692738104317,1.9523948351464837
2025-05-14 14:44:24.729,0.0001605981048843,2.283337227954243
2025-05-14 14:44:24.737,0.0001502436112829,2.60180909431368
2025-05-14 14:44:24.744,0.0001382398523621,2.897731093206271
2025-05-14 14:44:24.752,0.0001246359269526,3.1620358341383583
2025-05-14 14:44:24.760,0.0001094969143466,3.3869626477868158
2025-05-14 14:44:24.768,9.290079920161952e-05,3.566311426399271
2025-05-14 14:44:24.776,7.493625345132228e-05,3.695648178121275
2025-05-14 14:44:24.783,5.57014368921088e-05,3.772455903198596
2025-05-14 14:44:24.791,3.530380802540835e-05,3.7962255380507712
2025-05-14 14:44:24.799,1.38607898637166e-05,3.768483063322843
2025-05-14 14:44:24.807,-8.49898053281928e-06,3.692750457691196
2025-05-14 14:44:24.815,-3.163417016243007e-05,3.5744399972551384
2025-05-14 14:44:24.822,-5.5389428050310815e-05,3.4206834211761663
2025-05-14 14:44:24.830,-7.959461482433242e-05,3.2400996569226934
2025-05-14 14:44:24.838,-0.0001040649333488,3.0425070529838303
2025-05-14 14:44:24.846,-0.0001286022268226,2.838588314550352
2025-05-14 14:44:24.854,-0.0001529975912041,2.6395184743212288
2025-05-14 14:44:24.862,-0.0001770353066126,2.456568142777168
2025-05-14 14:44:24.869,-0.0002004979536628,2.300695854433391
2025-05-14 14:44:24.877,-0.0002231724652325,2.182144449564197
2025-05-14 14:44:24.885,-0.0002448567649886,2.1100570099646663
2025-05-14 14:44:24.893,-0.0002653665522185,2.09212782800596
2025-05-14 14:44:24.901,-0.0002845417351002,2.1343031800181897
2025-05-14 14:44:24.908,-0.0003022520305501,2.2405452741589813
2025-05-14 14:44:24.916,-0.0003184013374224,2.412670654488298
2025-05-14 14:44:24.924,-0.0003329306136987,2.650271603312617
2025-05-14 14:44:24.932,-0.0003458191138744,2.9507257655168733
2025-05-14 14:44:24.940,-0.0003570839561766,3.309295436304828
2025-05-14 14:44:24.947,-0.0003667780871305,3.719313867434784
2025-05-14 14:44:24.955,-0.0003749867922361,4.172451759747395
2025-05-14 14:44:24.963,-0.0003818229656849,4.659053060666412
2025-05-14 14:44:24.971,-0.0003874213992887,5.168525535737246
2025-05-14 14:44:24.979,-0.0003919323817567,5.689768593166259
2025-05-14 14:44:24.987,-0.0003955149152356,6.211618737420252
2025-05-14 14:44:24.994,-0.000398329858045,6.723291979432409
2025-05-14 14:44:25.002,-0.0004005332924791,7.214802627749107
2025-05-14 14:44:25.010,-0.0004022703962723,7.677339136704514
2025-05-14 14:44:25.018,-0.0004036700677995,8.1035800208772
2025-05-14 14:44:25.026,-0.0004048405202891,8.487936103915219
2025-05-14 14:44:25.033,-0.0004058660212458,8.82670932889964
2025-05-14 14:44:25.041,-0.0004068049117822,9.118162747748526
2025-05-14 14:44:25.049,-0.0004076889984153,9.36250084608182
2025-05-14 14:44:25.057,-0.0004085243670982,9.56176377545647
2025-05-14 14:44:25.065,-0.0004092936175673,9.719643111935314
2025-05-14 14:44:25.072,-0.000409959436178,9.84123023139807
2025-05-14 14:44:25.080,-0.0004104693071422,9.932711127983032
2025-05-14 14:44:25.088,-0.0004107610327143,10.001023399126238
2025-05-14 14:44:25.096,-0.0004107686429412,10.053492136491958
2025-05-14 14:44:25.104,-0.0004104282515482,10.097461613265878
2025-05-14 14:44:25.112,-0.0004096834447017,10.139939013450867
2025-05-14 14:44:25.119,-0.0004084898521217,10.187265118513324
2025-05-14 14:44:25.127,-0.0004068186340174,10.24482498936236
2025-05-14 14:44:25.135,-0.0004046587172011,10.316809406219084
2025-05-14 14:44:25.143,-0.0004020177171947,10.406035298684255
2025-05-14 14:44:25.151,-0.0003989215664532,10.513830737867517
2025-05-14 14:44:25.158,-0.0003954129173064,10.639987367706048
2025-05-14 14:44:25.166,-0.0003915484226493,10.782780484693385
2025-05-14 14:44:25.174,-0.0003873950537655,10.939054365724044
2025-05-14 14:44:25.182,-0.0003830256937762,11.104367915059202
2025-05-14 14:44:25.190,-0.0003785143176252,11.273193293096622
2025-05-14 14:44:25.197,-0.0003739311237239,11.439157975234624
2025-05-14 14:44:25.205,-0.0003693380203567,11.59531877718307
2025-05-14 14:44:25.213,-0.0003647848663985,11.734454906162942
2025-05-14 14:44:25.221,-0.0003603067855114,11.84936619387532
2025-05-14 14:44:25.229,-0.0003559227222462,11.933162457389916
2025-05-14 14:44:25.237,-0.0003516352386969,11.979530495819183
2025-05-14 14:44:25.244,-0.0003474314199625,11.982966578905875
2025-05-14 14:44:25.252,-0.0003432846948759,11.938964362324684
2025-05-14 14:44:25.260,-0.0003391573662259,11.84415084967872
2025-05-14 14:44:25.268,-0.0003350036367797,11.696366133220112
2025-05-14 14:44:25.276,-0.0003307728912487,11.494685964325646
2025-05-14 14:44:25.283,-0.0003264129640205,11.239389487769436
2025-05-14 14:44:25.291,-0.0003218731105725,10.931877476088296
2025-05-14 14:44:25.299,-0.0003171064176314,10.57454890141207
2025-05-14 14:44:25.307,-0.0003120714349281,10.170645512936106
2025-05-14 14:44:25.315,-0.0003067328887239,9.724075150702069
2025-05-14 14:44:25.322,-0.0003010614404391,9.239224800151582
2025-05-14 14:44:25.330,-0.0002950325699272,8.720773928279408
2025-05-14 14:44:25.338,-0.0002886247659645,8.173517549811518
2025-05-14 14:44:25.346,-0.0002818172706481,7.60220689920152
2025-05-14 14:44:25.354,-0.000274587648099,7.011413701624597
2025-05-14 14:44:25.362,-0.0002669094522714,6.405422017346937
2025-05-14 14:44:25.369,-0.0002587502673853,5.788149639371085
2025-05-14 14:44:25.377,-0.000250070375207,5.163099188702321
2025-05-14 14:44:25.385,-0.0002408222462235,4.533337476561827
2025-05-14 14:44:25.393,-0.0002309509593342,3.901500454715423
2025-05-14 14:44:25.401,-0.0002203955537241,3.2698201854026405
2025-05-14 14:44:25.408,-0.0002090912340978,2.640169728387924
2025-05-14 14:44:25.416,-0.0001969722997596,2.0141216259883223
2025-05-14 14:44:25.424,-0.0001839756514705,1.393015695454556
2025-05-14 14:44:25.432,-0.000170044737337,0.7780320191198126
2025-05-14 14:44:25.440,-0.0001551337995931,0.170265266851614
2025-05-14 14:44:25.447,-0.00013921224458,-0.4292032699307044
2025-05-14 14:44:25.455,-0.0001222688890676,-1.0192393315962014
2025-05-14 14:44:25.463,-0.0001043157979322,-1.598598219891399
2025-05-14 14:44:25.471,-8.539145955824118e-05,-2.165879164777972
2025-05-14 14:44:25.479,-6.556311048815286e-05,-2.71949421227368
2025-05-14 14:44:25.487,-4.492806179858961e-05,-3.257653964450698
2025-05-14 14:44:25.494,-2.361388823632058e-05,-3.778372052142239
2025-05-14 14:44:25.502,-1.7773527250813165e-06,-4.279489649738909
2025-05-14 14:44:25.510,2.0398014495826696e-05,-4.758720630430242
2025-05-14 14:44:25.518,4.270567161028711e-05,-5.21371710209291
2025-05-14 14:44:25.526,6.492102140813271e-05,-5.642154070280903
2025-05-14 14:44:25.533,8.680731290936905e-05,-6.041830876466011
2025-05-14 14:44:25.541,0.0001081221654311,-6.41078590608316
2025-05-14 14:44:25.549,0.0001286244013474,-6.747419919450205
2025-05-14 14:44:25.557,0.0001480809367398,-7.050622311293372
2025-05-14 14:44:25.565,0.0001662735477267,-7.319893739602332
2025-05-14 14:44:25.572,0.0001830053695626,-7.555457968701139
2025-05-14 14:44:25.580,0.0001981069833336,-7.758355525901131
2025-05-14 14:44:25.588,0.000211441902267,-7.930511944483597
2025-05-14 14:44:25.596,0.0002229112006756,-8.074774001813369
2025-05-14 14:44:25.604,0.0002324569701556,-8.194908467143705
2025-05-14 14:44:25.612,0.0002400642895408,-8.29555941526383
2025-05-14 14:44:25.619,0.0002457614821105,-8.382162069232185
2025-05-14 14:44:25.627,0.0002496185818194,-8.460813309119992
2025-05-14 14:44:25.635,0.0002517440910357,-8.538101303425425
2025-05-14 14:44:25.643,0.0002522802491552,-8.620899050744143
2025-05-14 14:44:25.651,0.0002513971302529,-8.716128823113863
2025-05-14 14:44:25.658,0.0002492859455022,-8.830506449706059
2025-05-14 14:44:25.666,0.000246151943895,-8.97027595622687
2025-05-14 14:44:25.674,0.0002422072937201,-9.140946182355538
2025-05-14 14:44:25.682,0.0002376643103046,-9.347041550884024
2025-05-14 14:44:25.690,0.0002327293874439,-9.591879089889122
2025-05-14 14:44:25.697,0.0002275979689736,-9.877383073627042
2025-05-14 14:44:25.705,0.0002224508186731,-10.20394724687096
2025-05-14 14:44:25.713,0.0002174516930569,-10.570352569385868
2025-05-14 14:44:25.721,0.0002127463227178,-10.97374584017982
2025-05-14 14:44:25.729,0.0002084624247255,-11.409681556156327
2025-05-14 14:44:25.737,0.0002047103630271,-11.872226096905289
2025-05-14 14:44:25.744,0.0002015840737712,-12.3541200239036
2025-05-14 14:44:25.752,0.0001991619546491,-12.846991186050792
2025-05-14 14:44:25.760,0.000197507532455,-13.341608683336563
2025-05-14 14:44:25.768,0.0001966698336221,-13.82816577326626
2025-05-14 14:44:25.776,0.0001966834723658,-14.296578664515126
2025-05-14 14:44:25.783,0.0001975685346774,-14.73678790107923
2025-05-14 14:44:25.791,0.0001993303708266,-15.139049681567313
2025-05-14 14:44:25.799,0.0002019594123774,-15.494205882277283
2025-05-14 14:44:25.807,0.0002054311012909,-15.793923590774344
2025-05-14 14:44:25.815,0.0002097059605947,-16.030897396963663
2025-05-14 14:44:25.822,0.0002147297613324,-16.19901030514932
2025-05-14 14:44:25.830,0.0002204336822462,-16.293451707464637
2025-05-14 14:44:25.838,0.0002267343543265,-16.310793207571606
2025-05-14 14:44:25.846,0.0002335337332316,-16.249025052158697
2025-05-14 14:44:25.854,0.0002407188104206,-16.10755740486206
2025-05-14 14:44:25.862,0.0002481612328481,-15.887191609487523
2025-05-14 14:44:25.869,0.0002557169616389,-15.590066905317263
2025-05-14 14:44:25.877,0.0002632261710392,-15.21958779806234
2025-05-14 14:44:25.885,0.000270513652503,-14.780336538239832
2025-05-14 14:44:25.893,0.0002773900211622,-14.277974053424211
2025-05-14 14:44:25.901,0.0002836540118988,-13.719131398752587
2025-05-14 14:44:25.908,0.0002890960983188,-13.111292521824142
2025-05-14 14:44:25.916,0.0002935035720151,-12.462668065489456
2025-05-14 14:44:25.924,0.0002966670852179,-11.78205920929666
2025-05-14 14:44:25.932,0.0002983884941046,-11.078710289326397
2025-05-14 14:44:25.940,0.0002984896607473,-10.362149192586903
2025-05-14 14:44:25.947,0.0002968217172785,-9.642015285198273
2025-05-14 14:44:25.955,0.0002932742089862,-8.927875823348932
2025-05-14 14:44:25.963,0.0002877835199684,-8.22903327209949
2025-05-14 14:44:25.971,0.0002803400121044,-7.55432753575699
2025-05-14 14:44:25.979,0.0002709933537197,-6.91193858055799
2025-05-14 14:44:25.987,0.0002598555921931,-6.309196110049272
2025-05-14 14:44:25.994,0.000247101646064,-5.752403678892552
2025-05-14 14:44:26.002,0.0002329670406927,-5.246684805321399
2025-05-14 14:44:26.010,0.0002177428634877,-4.795858235652406
2025-05-14 14:44:26.018,0.0002017680577122,-4.40234855444694
2025-05-14 14:44:26.026,0.0001854193038043,-4.067136898630943
2025-05-14 14:44:26.033,0.0001690988517998,-3.7897547419386655
2025-05-14 14:44:26.041,0.000153220765846,-3.5683217154006446
2025-05-14 14:44:26.049,0.0001381961201466,-3.399626376664721
2025-05-14 14:44:26.057,0.0001244177433771,-3.2792468792252527
2025-05-14 14:44:26.065,0.000112245144214,-3.2017067407540054
2025-05-14 14:44:26.072,0.0001019902628819,-3.160659459481352
2025-05-14 14:44:26.080,9.390468150467306e-05,-3.149094644830065
2025-05-14 14:44:26.088,8.816888879041433e-05,-3.15955765168644
2025-05-14 14:44:26.096,8.488413175294767e-05,-3.1843744464181083
2025-05-14 14:44:26.104,8.406729875032123e-05,-3.215873571175948
2025-05-14 14:44:26.112,8.564916459630831e-05,-3.2465975762868515
2025-05-14 14:44:26.119,8.947619093368228e-05,-3.26949710834374
2025-05-14 14:44:26.127,9.531591521214426e-05,-3.278101908630408
2025-05-14 14:44:26.135,0.0001028657820056,-3.2666642157036008
2025-05-14 14:44:26.143,0.0001117650743867,-3.230271397341548
2025-05-14 14:44:26.151,0.0001216093965073,-3.164925988572236
2025-05-14 14:44:26.158,0.0001319669578485,-3.0675926254311787
2025-05-14 14:44:26.166,0.0001423957527197,-2.93621259099442
2025-05-14 14:44:26.174,0.0001524606654192,-2.7696877921160143
2025-05-14 14:44:26.182,0.000161749586305,-2.5678369355779687
2025-05-14 14:44:26.190,0.0001698877718529,-2.331327461174231
2025-05-14 14:44:26.197,0.0001765498720202,-2.061587417333106
2025-05-14 14:44:26.205,0.0001814692424464,-1.7607019293574795
2025-05-14 14:44:26.213,0.0001844443404063,-1.431299196923915
2025-05-14 14:44:26.221,0.0001853421660314,-1.0764310468120013
2025-05-14 14:44:26.229,0.0001840988509166,-0.6994529476186067
2025-05-14 14:44:26.237,0.0001807176127701,-0.3039080698540208
2025-05-14 14:44:26.244,0.0001752643862406,0.1065805329996007
2025-05-14 14:44:26.252,0.0001678615064522,0.528406207887778
2025-05-14 14:44:26.260,0.0001586798639524,0.9580608102098074
2025-05-14 14:44:26.268,0.0001479299693316,1.3922008408949265
2025-05-14 14:44:26.276,0.0001358523649092,1.8276966849804344
2025-05-14 14:44:26.283,0.0001227078022669,2.261664871702476
2025-05-14 14:44:26.291,0.0001087675710121,2.691484063312765
2025-05-14 14:44:26.299,9.430431912262146e-05,3.114796173047321
2025-05-14 14:44:26.307,7.958365174414783e-05,3.5294945846006187
2025-05-14 14:44:26.315,6.485673648632904e-05,3.93370187492037
2025-05-14 14:44:26.322,5.035408202528149e-05,4.325739715805147
2025-05-14 14:44:26.330,3.628059583272904e-05,4.704093745077532
2025-05-14 14:44:26.338,2.2811968449265605e-05,5.067376163632625
2025-05-14 14:44:26.346,1.0092377864153073e-05,5.414288647526084
2025-05-14 14:44:26.354,-1.7665401868369366e-06,5.7435878881909765
2025-05-14 14:44:26.362,-1.2685550696024814e-05,6.054055720022069
2025-05-14 14:44:26.369,-2.26166338377573e-05,6.3444754008915405
2025-05-14 14:44:26.377,-3.15409067907271e-05,6.61361521704525
2025-05-14 14:44:26.385,-3.946582017374074e-05,6.860220223434323
2025-05-14 14:44:26.393,-4.642180419396176e-05,7.083012628517881
2025-05-14 14:44:26.401,-5.245854005110959e-05,7.28070110017249
2025-05-14 14:44:26.408,-5.764102598495232e-05,7.45199910005805
2025-05-14 14:44:26.416,-6.20455955678202e-05,7.595652223406274
2025-05-14 14:44:26.424,-6.575602950796854e-05,7.710474394803532
2025-05-14 14:44:26.432,-6.885988247845365e-05,7.795392612365943
2025-05-14 14:44:26.440,-7.14451244619642e-05,7.849499713034699
2025-05-14 14:44:26.447,-7.359717291041421e-05,7.872114329555627
2025-05-14 14:44:26.455,-7.539636869031052e-05,7.862846814852892
2025-05-14 14:44:26.463,-7.691592624661916e-05,7.821669426538006
2025-05-14 14:44:26.471,-7.822036746497833e-05,7.748988515874045
2025-05-14 14:44:26.479,-7.93644299937801e-05,7.645715891766364
2025-05-14 14:44:26.487,-8.039242479624423e-05,7.513335983992579
2025-05-14 14:44:26.494,-8.133800477042551e-05,7.353964968477983
2025-05-14 14:44:26.502,-8.222429657713644e-05,7.170397695149273
2025-05-14 14:44:26.510,-8.306434137799174e-05,6.966138121344353
2025-05-14 14:44:26.518,-8.386178689800222e-05,6.745409036739493
2025-05-14 14:44:26.526,-8.461177285969755e-05,6.513137194751783
2025-05-14 14:44:26.533,-8.530195405906271e-05,6.274910553144382
2025-05-14 14:44:26.541,-8.591360975968242e-05,6.036905170666887
2025-05-14 14:44:26.549,-8.642279420673652e-05,5.805780387364328
2025-05-14 14:44:26.557,-8.680149041041788e-05,5.588542195046345
2025-05-14 14:44:26.565,-8.701873741213766e-05,5.392376125468016
2025-05-14 14:44:26.572,-8.704170953062395e-05,5.224452481506872
2025-05-14 14:44:26.580,-8.683673412316975e-05,5.091708244591358
2025-05-14 14:44:26.588,-8.637024177189741e-05,5.000611447135588
2025-05-14 14:44:26.596,-8.560964916014582e-05,4.956915143375613
2025-05-14 14:44:26.604,-8.452417995777857e-05,4.965409291067139
2025-05-14 14:44:26.612,-8.30856325861862e-05,5.029679818342549
2025-05-14 14:44:26.619,-8.126910567086747e-05,5.151884844672675
2025-05-14 14:44:26.627,-7.905369228728382e-05,5.332558400554989
2025-05-14 14:44:26.635,-7.642315282680659e-05,5.570451989915511
2025-05-14 14:44:26.643,-7.3366573598879e-05,5.86242390132791
2025-05-14 14:44:26.651,-6.987901436226894e-05,6.20338524506339
2025-05-14 14:44:26.658,-6.596214312561564e-05,6.586310239222261
2025-05-14 14:44:26.666,-6.162485110933541e-05,7.002316284661622
2025-05-14 14:44:26.674,-5.68838350870883e-05,7.4408168795771
2025-05-14 14:44:26.682,-5.176412881422328e-05,7.88974748607665
2025-05-14 14:44:26.690,-4.629956029290431e-05,8.335861166273125
2025-05-14 14:44:26.697,-4.0533107591591e-05,8.76508729178985
2025-05-14 14:44:26.705,-3.451712316679143e-05,9.162943079539042
2025-05-14 14:44:26.713,-2.8313395409858832e-05,9.514984337361582
2025-05-14 14:44:26.721,-2.199301667201573e-05,9.807278862622583
2025-05-14 14:44:26.729,-1.5636029430840768e-05,10.02688368271111
2025-05-14 14:44:26.737,-9.330826575173044e-06,10.162305996525014
2025-05-14 14:44:26.744,-3.173287916450336e-06,10.203927450214382
2025-05-14 14:44:26.752,2.734357220629224e-06,10.144372348684476
2025-05-14 14:44:26.760,8.284942440149091e-06,9.97880255295823
2025-05-14 14:44:26.768,1.336804297857735e-05,9.70512502702366
2025-05-14 14:44:26.776,1.7871901721827722e-05,9.324102070321343
2025-05-14 14:44:26.783,2.1685573772002814e-05,8.839358927643389
2025-05-14 14:44:26.791,2.470125208495857e-05,8.257288391382351
2025-05-14 14:44:26.799,2.6816729887144575e-05,7.58685688046273
2025-05-14 14:44:26.807,2.7937951507550743e-05,6.839320997082641
2025-05-14 14:44:26.815,2.798160277026661e-05,6.027867469865702
2025-05-14 14:44:26.823,2.6877695996632845e-05,5.167192487944401
2025-05-14 14:44:26.830,2.4572113705336506e-05,4.273038574330366
2025-05-14 14:44:26.838,2.1029088280805044e-05,3.3617082645073078
2025-05-14 14:44:26.846,1.6233603000062262e-05,2.449573943459516
2025-05-14 14:44:26.854,1.0193682550500974e-05,1.5526023173429735
2025-05-14 14:44:26.862,2.9424874109829217e-06,0.6859102825451157
2025-05-14 14:44:26.869,-5.459939283874642e-06,-0.1366334211614066
2025-05-14 14:44:26.877,-1.4925461849283896e-05,-0.902749223483258
2025-05-14 14:44:26.885,-2.533737446520467e-05,-1.6020219385645966
2025-05-14 14:44:26.893,-3.655084927564934e-05,-2.226104851409697
2025-05-14 14:44:26.901,-4.839449232076751e-05,-2.7688503538368563
2025-05-14 14:44:26.908,-6.067314188260776e-05,-3.226367563805503
2025-05-14 14:44:26.916,-7.317196029330377e-05,-3.597009781874032
2025-05-14 14:44:26.924,-8.566177862588582e-05,-3.881296677717218
2025-05-14 14:44:26.932,-9.790555627355035e-05,-4.0817777427353565
2025-05-14 14:44:26.940,-0.0001096656925856,-4.202844800478668
2025-05-14 14:44:26.948,-0.0001207117909591,-4.250502262732143
2025-05-14 14:44:26.955,-0.0001308283905432,-4.232104395082887
2025-05-14 14:44:26.963,-0.0001398221942166,-4.156069152637435
2025-05-14 14:44:26.971,-0.0001475284206015,-4.031578199003487
2025-05-14 14:44:26.979,-0.0001538160439902,-3.868272555554355
2025-05-14 14:44:26.987,-0.0001585918127559,-3.67595296195948
2025-05-14 14:44:26.994,-0.0001618030181129,-3.464293477696541
2025-05-14 14:44:27.002,-0.0001634390049184,-3.24257613195369
2025-05-14 14:44:27.010,-0.0001635313984872,-3.0194535517403915
2025-05-14 14:44:27.018,-0.0001621530143753,-2.802745482441531
2025-05-14 14:44:27.026,-0.0001594154469372,-2.599273978948056
2025-05-14 14:44:27.033,-0.0001554653851429,-2.414740805328836
2025-05-14 14:44:27.041,-0.0001504797595392,-2.253649252126508
2025-05-14 14:44:27.049,-0.0001446598724117,-2.1192711787314726
2025-05-14 14:44:27.057,-0.0001382247024759,-2.013658633927569
2025-05-14 14:44:27.065,-0.0001314036059045,-1.9376979294642984
2025-05-14 14:44:27.073,-0.0001244286573893,-1.8912025823255023
2025-05-14 14:44:27.080,-0.0001175268884862,-1.8730401603634603
2025-05-14 14:44:27.088,-0.0001109126859818,-1.881286832911638
2025-05-14 14:44:27.096,-0.0001047806106891,-1.9134024102753415
2025-05-14 14:44:27.104,-9.929888716437328e-05,-1.966417905977328
2025-05-14 14:44:27.112,-9.460379751032324e-05,-2.037127207611765
2025-05-14 14:44:27.119,-9.079518787044185e-05,-2.1222743185608994
2025-05-14 14:44:27.127,-8.793326456223524e-05,-2.218727848214732
2025-05-14 14:44:27.135,-8.603681824094519e-05,-2.3236349851280917
2025-05-14 14:44:27.143,-8.508296925338314e-05,-2.4345480712257266
2025-05-14 14:44:27.151,-8.500847578632575e-05,-2.5495180771102834
2025-05-14 14:44:27.158,-8.571258902416303e-05,-2.667150722451948
2025-05-14 14:44:27.166,-8.706137699395248e-05,-2.7866226485947787
2025-05-14 14:44:27.174,-8.88933720152491e-05,-2.9076568786346257
2025-05-14 14:44:27.182,-9.102632687968432e-05,-3.030458722225133
2025-05-14 14:44:27.190,-9.326479354809288e-05,-3.155615211223527
2025-05-14 14:44:27.198,-9.540816868840628e-05,-3.283962992652304
2025-05-14 14:44:27.205,-9.725879456356544e-05,-3.4164312625269964
2025-05-14 14:44:27.213,-9.862968459003898e-05,-3.5538677110413324
2025-05-14 14:44:27.221,-9.9351475740039e-05,-3.696856495741841
2025-05-14 14:44:27.229,-9.927828098141902e-05,-3.8455379173343753
2025-05-14 14:44:27.237,-9.829219776452475e-05,-3.999439719411687
2025-05-14 14:44:27.244,-9.630631293618584e-05,-4.157329763556519
2025-05-14 14:44:27.252,-9.326613013149289e-05,-4.317099250162115
2025-05-14 14:44:27.260,-8.914943745365507e-05,-4.475684674542222
2025-05-14 14:44:27.268,-8.396475041510302e-05,-4.629035347924641
2025-05-14 14:44:27.276,-7.774860977873384e-05,-4.772131608157448
2025-05-14 14:44:27.283,-7.056213505622534e-05,-4.899056845668236
2025-05-14 14:44:27.291,-6.24872703565435e-05,-5.003124240009307
2025-05-14 14:44:27.299,-5.362310194955273e-05,-5.077056716163623
2025-05-14 14:44:27.307,-4.4082513941826416e-05,-5.113216175256884
2025-05-14 14:44:27.315,-3.3989316184951854e-05,-5.103875630774745
2025-05-14 14:44:27.323,-2.347584595150988e-05,-5.041525591229279
2025-05-14 14:44:27.330,-1.2680929245831982e-05,-4.919203966769542
2025-05-14 14:44:27.338,-1.7480166947412974e-06,-4.730837020007133
2025-05-14 14:44:27.346,9.176691212482957e-06,-4.471577501822561
2025-05-14 14:44:27.354,1.9946245412428984e-05,-4.13812518259429
2025-05-14 14:44:27.362,3.0415087970355656e-05,-3.729014581883352
2025-05-14 14:44:27.369,4.044125278681294e-05,-3.2448548875308107
2025-05-14 14:44:27.377,4.98885111485096e-05,-2.6885079023642526
2025-05-14 14:44:27.385,5.862836087481301e-05,-2.065191408675052
2025-05-14 14:44:27.393,6.654180315199673e-05,-1.3824976124353534
2025-05-14 14:44:27.401,7.3520902646596e-05,-0.6503192960123453
2025-05-14 14:44:27.408,7.947017278021311e-05,0.1193200992858021
2025-05-14 14:44:27.416,8.430786621169581e-05,0.912532133339968
2025-05-14 14:44:27.424,8.796727809048938e-05,1.7139199750131844
2025-05-14 14:44:27.432,9.039817634058432e-05,2.5070165264102453
2025-05-14 14:44:27.440,9.15684384045642e-05,3.274790063608046
2025-05-14 14:44:27.448,9.14658866110523e-05,4.000199169288484
2025-05-14 14:44:27.455,9.010020158277976e-05,4.666775154989143
2025-05-14 14:44:27.463,8.750470565397765e-05,5.259207539670821
2025-05-14 14:44:27.471,8.373777322102565e-05,5.763906728102314
2025-05-14 14:44:27.479,7.888363168979013e-05,6.169518006861051
2025-05-14 14:44:27.487,7.305234492012202e-05,6.467362441971063
2025-05-14 14:44:27.494,6.637881114440895e-05,6.651783202413832
2025-05-14 14:44:27.502,5.9020657325192535e-05,6.720380107684967
2025-05-14 14:44:27.510,5.115497115074244e-05,6.674120547913401
2025-05-14 14:44:27.518,4.297387929208233e-05,6.517321002155132
2025-05-14 14:44:27.526,3.467905470121237e-05,6.257499777800668
2025-05-14 14:44:27.533,2.6475314753131517e-05,5.905107884230072
2025-05-14 14:44:27.541,1.8563553665556427e-05,5.473150726218299
2025-05-14 14:44:27.549,1.113333424751498e-05,4.976718204516914
2025-05-14 14:44:27.557,4.355541065461107e-06,4.432444583168336
2025-05-14 14:44:27.565,-1.6244449315988878e-06,3.857921974436118
2025-05-14 14:44:27.573,-6.69258507242649e-06,3.27109245403172
2025-05-14 14:44:27.580,-1.077065240067001e-05,2.6896436892235083
2025-05-14 14:44:27.588,-1.3819108319005754e-05,2.1304316488531208
2025-05-14 14:44:27.596,-1.5838326642584095e-05,1.6089516322165014
2025-05-14 14:44:27.604,-1.6868210673638492e-05,1.1388757081984675
2025-05-14 14:44:27.612,-1.6986305090070916e-05,0.7316709242802619
2025-05-14 14:44:27.619,-1.6304558263733633e-05,0.396308561846761
2025-05-14 14:44:27.627,-1.4964949986118756e-05,0.1390705095687407
2025-05-14 14:44:27.635,-1.3134229769163926e-05,-0.0365452873592508
2025-05-14 14:44:27.643,-1.0997992796564664e-05,-0.129822186053624
2025-05-14 14:44:27.651,-8.754279068053001e-06,-0.1427303236862002
2025-05-14 14:44:27.658,-6.606861335242224e-06,-0.0797484376186102
2025-05-14 14:44:27.666,-4.758413479810091e-06,0.0523874065879842
2025-05-14 14:44:27.674,-3.403801454802441e-06,0.244995859631632
2025-05-14 14:44:27.682,-2.72376657881742e-06,0.48780960552396
2025-05-14 14:44:27.690,-2.8792519750997217e-06,0.7693678108732027
2025-05-14 14:44:27.698,-4.006570716760451e-06,1.077427419333513
2025-05-14 14:44:27.705,-6.213551358972097e-06,1.3993792967538032
2025-05-14 14:44:27.713,-9.57673437485324e-06,1.7226559028530053
2025-05-14 14:44:27.721,-1.413963455874247e-05,2.035118151100362
2025-05-14 14:44:27.729,-1.991203078151964e-05,2.325410367333473
2025-05-14 14:44:27.737,-2.6870196351340787e-05,2.5832737313530862
2025-05-14 14:44:27.744,-3.495794116327102e-05,2.7998102550766446
2025-05-14 14:44:27.752,-4.408830272878598e-05,2.9676911847453784
2025-05-14 14:44:27.760,-5.414570685654792e-05,3.0813056734418187
2025-05-14 14:44:27.768,-6.49884407878598e-05,3.136847606348624
2025-05-14 14:44:27.776,-7.645135304103451e-05,3.132340523272122
2025-05-14 14:44:27.783,-8.834878858330495e-05,3.067602615449774
2025-05-14 14:44:27.791,-0.0001004778351959,2.944155714178148
2025-05-14 14:44:27.799,-0.0001126219709508,2.7650839680341024
2025-05-14 14:44:27.807,-0.000124555175481,2.5348494525911773
2025-05-14 14:44:27.815,-0.0001360465209914,2.259073207307557
2025-05-14 14:44:27.823,-0.0001468652040447,1.9442910973632876
2025-05-14 14:44:27.830,-0.0001567859197699,1.5976944186521524
2025-05-14 14:44:27.838,-0.0001655944203505,1.2268652861569531
2025-05-14 14:44:27.846,-0.0001730930519466,0.8395165767514697
2025-05-14 14:44:27.854,-0.0001791060522294,0.443245568361147
2025-05-14 14:44:27.862,-0.0001834844288637,0.0453094787815142
2025-05-14 14:44:27.869,-0.0001861103045021,-0.3475700810908856
2025-05-14 14:44:27.877,-0.0001869006595163,-0.7293681039024341
2025-05-14 14:44:27.885,-0.0001858104069117,-1.094878511430266
2025-05-14 14:44:27.893,-0.0001828347093866,-1.4397952876382094
2025-05-14 14:44:27.901,-0.0001780104204343,-1.7607515310881212
2025-05-14 14:44:27.908,-0.0001714165127366,-2.055317154009465
2025-05-14 14:44:27.916,-0.0001631733524796,-2.3219575022718986
2025-05-14 14:44:27.924,-0.0001534406901325,-2.5599566031016647
2025-05-14 14:44:27.932,-0.0001424142685515,-2.7693100244733757
2025-05-14 14:44:27.940,-0.0001303209991786,-2.950593411830226
2025-05-14 14:44:27.948,-0.000117412726921,-3.104813613374104
2025-05-14 14:44:27.955,-0.0001039586918401,-3.233249876391996
2025-05-14 14:44:27.963,-9.023688983409087e-05,-3.337292866334779
2025-05-14 14:44:27.971,-7.65246119837166e-05,-3.4182892182499813
2025-05-14 14:44:27.979,-6.308848850136627e-05,-3.47739898794604
2025-05-14 14:44:27.987,-5.017439864927647e-05,-3.5154727554850087
2025-05-14 14:44:27.994,-3.799766593560028e-05,-3.532954280753107
2025-05-14 14:44:28.002,-2.6734028110904472e-05,-3.529813552284395
2025-05-14 14:44:28.010,-1.6511902127706638e-05,-3.5055138343889727
2025-05-14 14:44:28.018,-7.406430529978227e-06,-3.4590149338310114
2025-05-14 14:44:28.026,5.642762120641971e-07,-3.388813413368382
2025-05-14 14:44:28.033,7.440374820581373e-06,-3.293018920440588
2025-05-14 14:44:28.041,1.3318790617400477e-05,-3.169464223926013
2025-05-14 14:44:28.049,1.834892611485625e-05,-3.0158450112624617
2025-05-14 14:44:28.057,2.2725688148679506e-05,-2.8298840468706565
2025-05-14 14:44:28.065,2.6680108333214865e-05,-2.6095129876229977
2025-05-14 14:44:28.073,3.0467974076286748e-05,-2.35306404700558
2025-05-14 14:44:28.080,3.4357003650776604e-05,-2.059462846034619
2025-05-14 14:44:28.088,3.8613185925540566e-05,-1.7284132289045877
2025-05-14 14:44:28.096,4.348696102078989e-05,-1.360564592566903
2025-05-14 14:44:28.104,4.919994076942639e-05,-0.9576524168526116
2025-05-14 14:44:28.112,5.593285653898251e-05,-0.5226032180914201
2025-05-14 14:44:28.119,6.381537653071858e-05,-0.0595961112863813
2025-05-14 14:44:28.127,7.291835570980884e-05,0.4259254329652971
2025-05-14 14:44:28.135,8.324897040192283e-05,0.9272962194126472
2025-05-14 14:44:28.143,9.474904849314517e-05,1.436728706827634
2025-05-14 14:44:28.151,0.0001072967380977,1.9454689520303063
2025-05-14 14:44:28.158,0.0001207114663607,2.4440061780268683
2025-05-14 14:44:28.166,0.0001347619320555,2.9223301762700853
2025-05-14 14:44:28.174,0.0001491766660287,3.3702279596840845
2025-05-14 14:44:28.182,0.0001636565108603,3.77760850907635
2025-05-14 14:44:28.190,0.0001778882448757,4.134842283145024
2025-05-14 14:44:28.198,0.0001915585190686,4.433100582700815
2025-05-14 14:44:28.205,0.0002043672899425,4.664679051328414
2025-05-14 14:44:28.213,0.0002160400160286,4.823289693778819
2025-05-14 14:44:28.221,0.0002263380283263,4.904306867188295
2025-05-14 14:44:28.229,0.000235066656378,4.90495472864471
2025-05-14 14:44:28.237,0.0002420808644007,4.824426490607845
2025-05-14 14:44:28.244,0.0002472883115901,4.663929342165088
2025-05-14 14:44:28.252,0.0002506498921007,4.426652779665584
2025-05-14 14:44:28.260,0.0002521779305939,4.117662071658933
2025-05-14 14:44:28.268,0.0002519323068509,3.743722380943969
2025-05-14 14:44:28.276,0.0002500148568972,3.313062427765565
2025-05-14 14:44:28.283,0.0002465624482969,2.835089297471008
2025-05-14 14:44:28.291,0.0002417391544235,2.320067932425816
2025-05-14 14:44:28.299,0.0002357279579024,1.7787799314532435
2025-05-14 14:44:28.307,0.0002287223988881,1.2221765082762304
2025-05-14 14:44:28.315,0.0002209185516654,0.6610398911050152
2025-05-14 14:44:28.323,0.0002125076658399,0.1056661830052179
2025-05-14 14:44:28.330,0.0002036697489496,-0.4344191175311518
2025-05-14 14:44:28.338,0.0001945682986294,-0.9507039608693616
2025-05-14 14:44:28.346,0.0001853463175212,-1.4358844485049362
2025-05-14 14:44:28.354,0.0001761236659092,-1.8840074406672895
2025-05-14 14:44:28.362,0.0001669957284723,-2.2905596104782022
2025-05-14 14:44:28.369,0.0001580332953184,-2.652503788178294
2025-05-14 14:44:28.377,0.0001492834877749,-2.9682654396108807
2025-05-14 14:44:28.385,0.0001407715082542,-3.237673744590936
2025-05-14 14:44:28.393,0.0001325029835508,-3.4618629474412783
2025-05-14 14:44:28.401,0.0001244667151133,-3.6431404496212343
2025-05-14 14:44:28.408,0.0001166377232742,-3.784828538312311
2025-05-14 14:44:28.416,0.0001089805264088,-3.891086746235672
2025-05-14 14:44:28.424,0.0001014526053872,-3.96672167730164
2025-05-14 14:44:28.432,9.400798094506542e-05,-4.016990777775337
2025-05-14 14:44:28.440,8.660079865127806e-05,-4.047406052313117
2025-05-14 14:44:28.448,7.918878400951779e-05,-4.063543176573487
2025-05-14 14:44:28.455,7.173640185834462e-05,-4.0708608821091685
2025-05-14 14:44:28.463,6.421753254708321e-05,-4.074534904424063
2025-05-14 14:44:28.471,5.661747327847271e-05,-4.07931019589476
2025-05-14 14:44:28.479,4.893410825099927e-05,-4.089374505636965
2025-05-14 14:44:28.487,4.1178177968137526e-05,-4.108255805399299
2025-05-14 14:44:28.494,3.3372690763142275e-05,-4.138745380179074
2025-05-14 14:44:28.502,2.55516089293992e-05,-4.182847699158796
2025-05-14 14:44:28.510,1.7757982226377472e-05,-4.241757448144656
2025-05-14 14:44:28.518,1.0041704961812834e-05,-4.31586336446209
2025-05-14 14:44:28.526,2.4570608320139845e-06,-4.404777796718484
2025-05-14 14:44:28.533,-4.939797155972881e-06,-4.507390235214641
2025-05-14 14:44:28.541,-1.2093303511831955e-05,-4.621942439495519
2025-05-14 14:44:28.549,-1.8950766244412863e-05,-4.746122246182695
2025-05-14 14:44:28.557,-2.5464395583167733e-05,-4.877172695807523
2025-05-14 14:44:28.565,-3.1593010077715125e-05,-5.012012791248835
2025-05-14 14:44:28.573,-3.730337501816641e-05,-5.147366000328153
2025-05-14 14:44:28.580,-4.257114715299663e-05,-5.279892535393858
2025-05-14 14:44:28.588,-4.738141704273796e-05,-5.406321465492794
2025-05-14 14:44:28.596,-5.1728855787119504e-05,-5.523578814490451
2025-05-14 14:44:28.604,-5.561748611954497e-05,-5.6289079409739085
2025-05-14 14:44:28.612,-5.906010889457269e-05,-5.719978661821353
2025-05-14 14:44:28.619,-6.207742480730563e-05,-5.794981768960429
2025-05-14 14:44:28.627,-6.469689785727081e-05,-5.852705815644307
2025-05-14 14:44:28.635,-6.695141173964768e-05,-5.8925933433101525
2025-05-14 14:44:28.643,-6.887777319067159e-05,-5.914774112379658
2025-05-14 14:44:28.651,-7.051511753360412e-05,-5.920073413145511
2025-05-14 14:44:28.658,-7.19032714785178e-05,-5.909994177868966
2025-05-14 14:44:28.666,-7.308112683132836e-05,-5.8866723896786
2025-05-14 14:44:28.674,-7.408507635817624e-05,-5.8528061681097165
2025-05-14 14:44:28.682,-7.494755979999888e-05,-5.811559869160118
2025-05-14 14:44:28.690,-7.569576407914787e-05,-5.766445523621585
2025-05-14 14:44:28.698,-7.635051719314561e-05,-5.721184904162191
2025-05-14 14:44:28.705,-7.692541022593357e-05,-5.679556416204655
2025-05-14 14:44:28.713,-7.742617637074623e-05,-5.645231811289035
2025-05-14 14:44:28.721,-7.785034987365267e-05,-5.62160839037134
2025-05-14 14:44:28.729,-7.818722137903057e-05,-5.611642872934369
2025-05-14 14:44:28.737,-7.841809928664975e-05,-5.617693439594544
2025-05-14 14:44:28.744,-7.85168794163366e-05,-5.641376596424744
2025-05-14 14:44:28.752,-7.845091753541227e-05,-5.683445435227425
2025-05-14 14:44:28.760,-7.818219117492584e-05,-5.74369554226738
2025-05-14 14:44:28.768,-7.766872871480584e-05,-5.820904206089818
2025-05-14 14:44:28.776,-7.686627506786416e-05,-5.912807674712772
2025-05-14 14:44:28.783,-7.573015459693761e-05,-6.016120015311459
2025-05-14 14:44:28.791,-7.421728336649497e-05,-6.126595655492967
2025-05-14 14:44:28.799,-7.228827471706389e-05,-6.239135969784336
2025-05-14 14:44:28.807,-6.990957476068272e-05,-6.34793836818631
2025-05-14 14:44:28.815,-6.705555806947526e-05,-6.446684312819087
2025-05-14 14:44:28.823,-6.371050893622274e-05,-6.528760621317672
2025-05-14 14:44:28.830,-5.987041050774984e-05,-6.587506419356486
2025-05-14 14:44:28.838,-5.554446320750619e-05,-6.616476301288696
2025-05-14 14:44:28.846,-5.075625552767397e-05,-6.609708773143999
2025-05-14 14:44:28.854,-4.554451479275884e-05,-6.561988004282243
2025-05-14 14:44:28.862,-3.996337311686399e-05,-6.469086402941377
2025-05-14 14:44:28.869,-3.4082094645267064e-05,-6.327975631936031
2025-05-14 14:44:28.877,-2.7984224323599716e-05,-6.1369944404600565
2025-05-14 14:44:28.885,-2.176613577741614e-05,-5.895963121271648
2025-05-14 14:44:28.893,-1.5534976163425057e-05,-5.606236489511584
2025-05-14 14:44:28.901,-9.406028660546722e-06,-5.27068996257321
2025-05-14 14:44:28.908,-3.499538023907377e-06,-4.893636504041029
2025-05-14 14:44:28.916,2.062929422628353e-06,-4.4806757445726575
2025-05-14 14:44:28.924,7.162493743597363e-06,-4.038480333459009
2025-05-14 14:44:28.932,1.1687214229383844e-05,-3.574528285330034
2025-05-14 14:44:28.940,1.5536440553269085e-05,-3.0967935030581297
2025-05-14 14:44:28.948,1.862509544368128e-05,-2.613409495205788
2025-05-14 14:44:28.955,2.0887706406654277e-05,-2.132323296998693
2025-05-14 14:44:28.963,2.2281994298451884e-05,-1.660957540423639
2025-05-14 14:44:28.971,2.2791824034538e-05,-1.205898386969553
2025-05-14 14:44:28.979,2.2429328618962508e-05,-0.7726256312061287
2025-05-14 14:44:28.987,2.123603301086285e-05,-0.3652988111080796
2025-05-14 14:44:28.994,1.9282829904763576e-05,0.01339017670677
2025-05-14 14:44:29.002,1.6668695788913068e-05,0.3622913929817142
2025-05-14 14:44:29.010,1.35180828107692e-05,0.6817957670027701
2025-05-14 14:44:29.018,9.976979768701748e-06,0.9737604819073508
2025-05-14 14:44:29.026,6.20770326772963e-06,1.24136663105701
2025-05-14 14:44:29.033,2.382556554358617e-06,1.488918320348895
2025-05-14 14:44:29.041,-1.3234228782511909e-06,1.721595044026546
2025-05-14 14:44:29.049,-4.740317295742195e-06,1.9451709751017672
2025-05-14 14:44:29.057,-7.711383854842397e-06,2.1657157474932625
2025-05-14 14:44:29.065,-1.0100821844054314e-05,2.3892913933666677
2025-05-14 14:44:29.073,-1.1800691527678322e-05,2.621659413602431
2025-05-14 14:44:29.080,-1.2736405252979731e-05,2.868010614227956
2025-05-14 14:44:29.088,-1.2870290635090254e-05,3.1327284741560883
2025-05-14 14:44:29.096,-1.2202912143259556e-05,3.419194573613156
2025-05-14 14:44:29.104,-1.077207171606925e-05,3.7296421690841
2025-05-14 14:44:29.112,-8.649603908832026e-06,4.0650615049494965
2025-05-14 14:44:29.119,-5.93620622837666e-06,4.425158043244484
2025-05-14 14:44:29.127,-2.754643064647839e-06,4.808362585885006
2025-05-14 14:44:29.135,7.5823451060601e-07,5.211890341787668
2025-05-14 14:44:29.143,4.460129598738274e-06,5.631844400328145
2025-05-14 14:44:29.151,8.212055270330932e-06,6.063357821390285
2025-05-14 14:44:29.158,1.1886681950476982e-05,6.500767623795018
2025-05-14 14:44:29.166,1.537578638526311e-05,6.937813318977622
2025-05-14 14:44:29.174,1.859635539444145e-05,7.367852263730896
2025-05-14 14:44:29.182,2.1494973973483954e-05,7.784083966054263
2025-05-14 14:44:29.190,2.405024287907212e-05,8.179775549225798
2025-05-14 14:44:29.198,2.627310116641635e-05,8.548480845661583
2025-05-14 14:44:29.205,2.820504779883454e-05,8.884246043266389
2025-05-14 14:44:29.213,2.9914360315589887e-05,9.181795432070087
2025-05-14 14:44:29.221,3.149050813751067e-05,9.436691582583215
2025-05-14 14:44:29.229,3.3037059155494565e-05,9.645465209220957
2025-05-14 14:44:29.237,3.466347981572239e-05,9.805711010537388
2025-05-14 14:44:29.244,3.6476326510297126e-05,9.91614691079615
2025-05-14 14:44:29.252,3.857040694334688e-05,9.976635329344829
2025-05-14 14:44:29.260,4.102052879527193e-05,9.988166344879458
2025-05-14 14:44:29.268,4.387442523358706e-05,9.95280386781164
2025-05-14 14:44:29.276,4.714735336137877e-05,9.873597153943988
2025-05-14 14:44:29.283,5.081872825578773e-05,9.754461157009764
2025-05-14 14:44:29.291,5.4831008776841325e-05,9.60003029493877
2025-05-14 14:44:29.299,5.909090603257144e-05,9.415491156607626
2025-05-14 14:44:29.307,6.34728471635706e-05,9.206400455583069
2025-05-14 14:44:29.315,6.782449991742804e-05,8.978495095302561
2025-05-14 14:44:29.323,7.197405092484646e-05,8.73750150473523
2025-05-14 14:44:29.330,7.57388358761107e-05,8.488951412263297
2025-05-14 14:44:29.338,7.893484571335174e-05,8.238010949514061
2025-05-14 14:44:29.346,8.138658182515619e-05,7.989329438953728
2025-05-14 14:44:29.354,8.293670688707854e-05,7.746913456802275
2025-05-14 14:44:29.362,8.345493773923117e-05,7.514030819202835
2025-05-14 14:44:29.369,8.284565327277943e-05,7.29314805396306
2025-05-14 14:44:29.377,8.10537438544861e-05,7.085903724604918
2025-05-14 14:44:29.385,7.806830886083847e-05,6.893118695607443
2025-05-14 14:44:29.393,7.392391425946904e-05,6.714843096542244
2025-05-14 14:44:29.401,6.869925100464277e-05,6.550438391085586
2025-05-14 14:44:29.409,6.251318472273005e-05,6.398691620182241
2025-05-14 14:44:29.416,5.551835443696758e-05,6.25795760465036
2025-05-14 14:44:29.424,4.789265887316136e-05,6.126323703534578
2025-05-14 14:44:29.432,3.982915682167583e-05,6.0017906783696295
2025-05-14 14:44:29.440,3.152508638093992e-05,5.882462359354819
2025-05-14 14:44:29.448,2.3170838753772637e-05,5.766736191648566
2025-05-14 14:44:29.455,1.4939756016129232e-05,5.653486394999045
2025-05-14 14:44:29.463,6.979535315726523e-06,5.5422314251221545
2025-05-14 14:44:29.471,-5.941596687600997e-07,5.43327769647432
2025-05-14 14:44:29.479,-7.70150350552208e-06,5.327832114004184
2025-05-14 14:44:29.487,-1.4299580390213184e-05,5.22807685116776
2025-05-14 14:44:29.494,-2.038078312619156e-05,5.137200976483388
2025-05-14 14:44:29.502,-2.5968786916527863e-05,5.059384937514361
2025-05-14 14:44:29.510,-3.111250144128177e-05,4.999735520542757
2025-05-14 14:44:29.518,-3.5878526555411474e-05,4.964170673730993
2025-05-14 14:44:29.526,-4.034272110480905e-05,4.959255466581056
2025-05-14 14:44:29.534,-4.458153869766538e-05,4.991992411868383
2025-05-14 14:44:29.541,-4.866378785359796e-05,5.069571344778231
2025-05-14 14:44:29.549,-5.264343703814022e-05,5.199085974394666
2025-05-14 14:44:29.557,-5.655400909616538e-05,5.387226020779888
2025-05-14 14:44:29.565,-6.040499707685366e-05,5.639955445551026
2025-05-14 14:44:29.573,-6.418058802868693e-05,5.962188593302618
2025-05-14 14:44:29.580,-6.784080768613408e-05,6.357477006560339
2025-05-14 14:44:29.588,-7.132500265687979e-05,6.827720182936932
2025-05-14 14:44:29.596,-7.455736580056764e-05,7.372913541181332
2025-05-14 14:44:29.604,-7.745400342649969e-05,7.990946299357927
2025-05-14 14:44:29.612,-7.993087937893846e-05,8.67746081366766
2025-05-14 14:44:29.619,-8.191190228740008e-05,9.425783175595503
2025-05-14 14:44:29.627,-8.333647178126437e-05,10.226932534259229
2025-05-14 14:44:29.635,-8.41659329798995e-05,11.069713738384326
2025-05-14 14:44:29.643,-8.438853473178369e-05,11.940894549675324
2025-05-14 14:44:29.651,-8.402259557025073e-05,12.825464982991976
2025-05-14 14:44:29.659,-8.311766055687222e-05,13.706972443099888
2025-05-14 14:44:29.666,-8.175352436949119e-05,14.567922459352468
2025-05-14 14:44:29.674,-8.003712192732636e-05,15.39023120877309
2025-05-14 14:44:29.682,-7.809743124599797e-05,16.15571292692041
2025-05-14 14:44:29.690,-7.607866892453938e-05,16.846582996505095
2025-05-14 14:44:29.698,-7.413217305899934e-05,17.445956204263492
2025-05-14 14:44:29.705,-7.240745655286692e-05,17.938319525577022
2025-05-14 14:44:29.713,-7.104297318739057e-05,18.30995989241772
2025-05-14 14:44:29.721,-7.015716760492777e-05,18.549329667055076
2025-05-14 14:44:29.729,-6.984037750249176e-05,18.647335815314413
2025-05-14 14:44:29.737,-7.014812158981647e-05,18.59754279568298
2025-05-14 14:44:29.744,-7.109624081838349e-05,18.39628364637458
2025-05-14 14:44:29.752,-7.265826445342949e-05,18.04267833475265
2025-05-14 14:44:29.760,-7.476524900121347e-05,17.538562820236958
2025-05-14 14:44:29.768,-7.730818991893344e-05,16.888336203308754
2025-05-14 14:44:29.776,-8.0142937347488e-05,16.098736580557357
2025-05-14 14:44:29.784,-8.309736415679396e-05,15.178558661066502
2025-05-14 14:44:29.791,-8.598035414408239e-05,14.13832776150164
2025-05-14 14:44:29.799,-8.859203668773298e-05,12.989945500776455
2025-05-14 14:44:29.807,-9.073463163520336e-05,11.746322438780918
2025-05-14 14:44:29.815,-9.22232863552978e-05,10.421012164156572
2025-05-14 14:44:29.823,-9.289633917024756e-05,9.02786005995593
2025-05-14 14:44:29.830,-9.262448405364954e-05,7.580678282014056
2025-05-14 14:44:29.838,-9.131833964301096e-05,6.092956480772083
2025-05-14 14:44:29.846,-8.89339754819174e-05,4.577615582841796
2025-05-14 14:44:29.854,-8.54760505003258e-05,3.046809618437949
2025-05-14 14:44:29.862,-8.099837260876295e-05,1.5117782264161503
2025-05-14 14:44:29.869,-7.560186729013489e-05,-0.0172498215555286
2025-05-14 14:44:29.877,-6.943011972544953e-05,-1.5311038792861396
2025-05-14 14:44:29.885,-6.2662813261368e-05,-3.021673190040548
2025-05-14 14:44:29.893,-5.5507511484026326e-05,-4.481868515476136
2025-05-14 14:44:29.901,-4.819029769844623e-05,-5.905550287260445
2025-05-14 14:44:29.909,-4.094578018355423e-05,-7.287430863473717
2025-05-14 14:44:29.916,-3.400691834333142e-05,-8.622959004605288
2025-05-14 14:44:29.924,-2.7595072144079497e-05,-9.908194826897564
2025-05-14 14:44:29.932,-2.1910650120525047e-05,-11.139683263429042
2025-05-14 14:44:29.940,-1.7124717633748186e-05,-12.314333498577216
2025-05-14 14:44:29.948,-1.3371905769122818e-05,-13.429310979941418
2025-05-14 14:44:29.955,-1.074492235700857e-05,-14.48194749928793
2025-05-14 14:44:29.963,-9.29090863408566e-06,-15.469673527239143
2025-05-14 14:44:29.971,-9.009808662141887e-06,-16.389975559283144
2025-05-14 14:44:29.979,-9.85482489287899e-06,-17.240379770486765
2025-05-14 14:44:29.987,-1.1734925467577576e-05,-18.018461867268638
2025-05-14 14:44:29.994,-1.4519258834561614e-05,-18.721881731166462
2025-05-14 14:44:30.002,-1.8043242405850363e-05,-19.348440311052908
2025-05-14 14:44:30.010,-2.211604038098737e-05,-19.89615525714799
2025-05-14 14:44:30.018,-2.6529118752528352e-05,-20.36335101317793
2025-05-14 14:44:30.026,-3.106553800297472e-05,-20.748758499151787
2025-05-14 14:44:30.034,-3.5509607824967e-05,-21.051619132350694
2025-05-14 14:44:30.041,-3.965648552474353e-05,-21.271787753981183
2025-05-14 14:44:30.049,-4.332125994333375e-05,-21.409829058010736
2025-05-14 14:44:30.057,-4.634705815784035e-05,-21.46710235607608
2025-05-14 14:44:30.065,-4.861177109728572e-05,-21.44582994720244
2025-05-14 14:44:30.073,-5.00330922312509e-05,-21.3491449713728
2025-05-14 14:44:30.080,-5.0571649192594106e-05,-21.181115379960776
2025-05-14 14:44:30.088,-5.023207154511352e-05,-20.946741513432222
2025-05-14 14:44:30.096,-4.906191225941745e-05,-20.651925691118954
2025-05-14 14:44:30.104,-4.714844589435064e-05,-20.303413143497
2025-05-14 14:44:30.112,-4.461348778294861e-05,-19.908704518662184
2025-05-14 14:44:30.119,-4.160649169726265e-05,-19.47594105236828
2025-05-14 14:44:30.127,-3.8296276101078585e-05,-19.01376430162057
2025-05-14 14:44:30.135,-3.486179750764444e-05,-18.53115311148836
2025-05-14 14:44:30.143,-3.148243224717298e-05,-18.037241221448824
2025-05-14 14:44:30.151,-2.832824438090224e-05,-17.541119625213707
2025-05-14 14:44:30.159,-2.5550707486240176e-05,-17.051628472091803
2025-05-14 14:44:30.166,-2.3274312124787985e-05,-16.57714392040795
2025-05-14 14:44:30.174,-2.1589431777823456e-05,-16.125365891118243
2025-05-14 14:44:30.182,-2.054674933819882e-05,-15.703113081037856
2025-05-14 14:44:30.190,-2.015348682911936e-05,-15.316131841355531
2025-05-14 14:44:30.198,-2.037164696255344e-05,-14.968925578356911
2025-05-14 14:44:30.205,-2.111844354437919e-05,-14.66461116764932
2025-05-14 14:44:30.213,-2.226902427943194e-05,-14.404808477340348
2025-05-14 14:44:30.221,-2.3661462375377768e-05,-14.189568469016413
2025-05-14 14:44:30.229,-2.510384989434706e-05,-14.017344502531346
2025-05-14 14:44:30.237,-2.638320582070844e-05,-13.885010437211593
2025-05-14 14:44:30.244,-2.7275816945348903e-05,-13.787927927164487
2025-05-14 14:44:30.252,-2.7558549469335303e-05,-13.720063976915574
2025-05-14 14:44:30.260,-2.7020617429026972e-05,-13.674158372078864
2025-05-14 14:44:30.268,-2.5475277172452663e-05,-13.641939037212492
2025-05-14 14:44:30.276,-2.2770900163094536e-05,-13.614381706508958
2025-05-14 14:44:30.284,-1.8800834598184518e-05,-13.58200853368765
2025-05-14 14:44:30.291,-1.3511439831266368e-05,-13.535218437630038
2025-05-14 14:44:30.299,-6.90772590506236e-06,-13.464640124015226
2025-05-14 14:44:30.307,9.43838114754068e-07,-13.361496917251127
2025-05-14 14:44:30.315,9.915605772699696e-06,-13.217970892515195
2025-05-14 14:44:30.323,1.98221951042087e-05,-13.027552449726638
2025-05-14 14:44:30.330,3.042697760981585e-05,-12.78536056275018
2025-05-14 14:44:30.338,4.145132884204232e-05,-12.4884186057502
2025-05-14 14:44:30.346,5.258619806439505e-05,-12.135871026401578
2025-05-14 14:44:30.354,6.350541652198488e-05,-11.72912729781799
2025-05-14 14:44:30.362,7.388004865442153e-05,-11.27192159356864
2025-05-14 14:44:30.369,8.339300295438499e-05,-10.770279499125303
2025-05-14 14:44:30.377,9.17530733249834e-05,-10.232386746116166
2025-05-14 14:44:30.385,9.870761048135536e-05,-9.668359313309791
2025-05-14 14:44:30.393,0.0001040531599701,-9.089919086522478
2025-05-14 14:44:30.401,0.0001076436350463,-8.50998434152499
2025-05-14 14:44:30.409,0.0001093958435822,-7.942189283565852
2025-05-14 14:44:30.416,0.0001092923827014,-7.400351387276008
2025-05-14 14:44:30.424,0.0001073820366817,-6.897908978195858
2025-05-14 14:44:30.432,0.0001037778853567,-6.447354067476467
2025-05-14 14:44:30.440,9.865336004210149e-05,-6.059686650830779
2025-05-14 14:44:30.448,9.223646223886004e-05,-5.743916367175749
2025-05-14 14:44:30.455,8.480229385468384e-05,-5.506635557299918
2025-05-14 14:44:30.463,7.666397410913333e-05,-5.351684469607067
2025-05-14 14:44:30.471,6.816198836104473e-05,-5.27992484270382
2025-05-14 14:44:30.479,5.965206355986168e-05,-5.2891326570328125
2025-05-14 14:44:30.487,5.149179529663877e-05,-5.374014856961193
2025-05-14 14:44:30.494,4.402643437831145e-05,-5.52634870007448
2025-05-14 14:44:30.502,3.757443605506491e-05,-5.735236485676032
2025-05-14 14:44:30.510,3.241353292764682e-05,-5.987463101258848
2025-05-14 14:44:30.518,2.8768159552239865e-05,-6.267939388479602
2025-05-14 14:44:30.526,2.6799006538607264e-05,-6.560210974376331
2025-05-14 14:44:30.534,2.6595337649916624e-05,-6.847010060760095
2025-05-14 14:44:30.541,2.8170514039474906e-05,-7.110826750326566
2025-05-14 14:44:30.549,3.146097251878475e-05,-7.334476764539249
2025-05-14 14:44:30.557,3.63287156431961e-05,-7.501643758238933
2025-05-14 14:44:30.565,4.2567196119712505e-05,-7.597376692771784
2025-05-14 14:44:30.573,4.991032004891645e-05,-7.608525698824991
2025-05-14 14:44:30.580,5.804415569814314e-05,-7.524103336610711
2025-05-14 14:44:30.588,6.662081922200159e-05,-7.335561940788028
2025-05-14 14:44:30.596,7.527391786759803e-05,-7.036981626904999
2025-05-14 14:44:30.604,8.363486614946632e-05,-6.625167355209826
2025-05-14 14:44:30.612,9.134935226951562e-05,-6.099657032192408
2025-05-14 14:44:30.619,9.80932213246756e-05,-5.462645836169943
2025-05-14 14:44:30.627,0.0001035870588545,-4.718834664715459
2025-05-14 14:44:30.635,0.0001076088029276,-3.875212739870834
2025-05-14 14:44:30.643,0.0001100037847509,-2.9407859356638504
2025-05-14 14:44:30.651,0.0001106916958062,-1.9262633163359468
2025-05-14 14:44:30.659,0.0001096701023795,-0.8437147312570551
2025-05-14 14:44:30.666,0.0001070142741879,0.2937878325048754
2025-05-14 14:44:30.674,0.0001028732601546,1.4725330045374847
2025-05-14 14:44:30.682,9.746232818037693e-05,2.678525652920462
2025-05-14 14:44:30.690,9.105208329260176e-05,3.897825276827044
2025-05-14 14:44:30.698,8.395478378338744e-05,5.116858396618277
2025-05-14 14:44:30.705,7.650857149064565e-05,6.32269762370405
2025-05-14 14:44:30.713,6.906048418209126e-05,7.503301638955878
2025-05-14 14:44:30.721,6.194918530763348e-05,8.647711903942604
2025-05-14 14:44:30.729,5.548832616606309e-05,9.746203531030408
2025-05-14 14:44:30.737,4.995138481948023e-05,10.790389308009829
2025-05-14 14:44:30.744,4.555873010628096e-05,11.77327737950784
2025-05-14 14:44:30.752,4.246752754788526e-05,12.689284507316607
2025-05-14 14:44:30.760,4.076492885852982e-05,13.53420814496915
2025-05-14 14:44:30.768,4.046478735110302e-05,14.305161746400364
2025-05-14 14:44:30.776,4.150794401979032e-05,15.000478755118042
2025-05-14 14:44:30.784,4.376594798328381e-05,15.619591552009412
2025-05-14 14:44:30.791,4.704791592139453e-05,16.162892236190647
2025-05-14 14:44:30.799,5.11101013278305e-05,16.6315824365218
2025-05-14 14:44:30.807,5.566763824427466e-05,17.027519373901498
2025-05-14 14:44:30.815,6.040784730469423e-05,17.353065104295673
2025-05-14 14:44:30.823,6.50044453779132e-05,17.610945276357967
2025-05-14 14:44:30.830,6.913198417930938e-05,17.804122862101853
2025-05-14 14:44:30.838,7.247985765959091e-05,17.935691211582522
2025-05-14 14:44:30.846,7.476526194476547e-05,18.008789509039886
2025-05-14 14:44:30.854,7.574456375020228e-05,18.02654234720006
2025-05-14 14:44:30.862,7.522263168111026e-05,17.992023770029753
2025-05-14 14:44:30.869,7.305980734113395e-05,17.90824483793101
2025-05-14 14:44:30.877,6.917633528494987e-05,17.77816260889839
2025-05-14 14:44:30.885,6.355421962979677e-05,17.604707458528193
2025-05-14 14:44:30.893,5.6236606264349855e-05,17.390824920083336
2025-05-14 14:44:30.901,4.732488607909726e-05,17.139527734487338
2025-05-14 14:44:30.909,3.697378852642565e-05,16.853953564468583
2025-05-14 14:44:30.916,2.5384808684344508e-05,16.53742384007673
2025-05-14 14:44:30.924,1.279838284408296e-05,16.193499444660368
2025-05-14 14:44:30.932,-5.147258795589195e-07,15.826029383469711
2025-05-14 14:44:30.940,-1.426237039632416e-05,15.439189142354946
2025-05-14 14:44:30.948,-2.8139884166121454e-05,15.03750606615302
2025-05-14 14:44:30.955,-4.183855881941127e-05,14.625869688374792
2025-05-14 14:44:30.963,-5.505353912477077e-05,14.209525467089108
2025-05-14 14:44:30.971,-6.749103967113898e-05,13.79405080035833
2025-05-14 14:44:30.979,-7.88748615535531e-05,13.385312515997931
2025-05-14 14:44:30.987,-8.895223109634036e-05,12.98940528861659
2025-05-14 14:44:30.994,-9.749899533614694e-05,12.61257068353286
2025-05-14 14:44:31.002,-0.0001043241928392,12.261096824309716
2025-05-14 14:44:31.010,-0.0001092739851539,11.941199088931446
2025-05-14 14:44:31.018,-0.0001122349077674,11.658882804524396
2025-05-14 14:44:31.026,-0.0001131363956125,11.419789654276435
2025-05-14 14:44:31.034,-0.0001119525378484,11.22903043109092
2025-05-14 14:44:31.041,-0.0001087029877591,11.09100784534618
2025-05-14 14:44:31.049,-0.0001034529092257,11.009234268868372
2025-05-14 14:44:31.057,-9.631184228667504e-05,10.986150498126412
2025-05-14 14:44:31.065,-8.74314516089914e-05,11.02295274913989
2025-05-14 14:44:31.073,-7.700223690412199e-05,11.119436043568848
2025-05-14 14:44:31.080,-6.524934342066912e-05,11.27386279495582
2025-05-14 14:44:31.088,-5.242756963458868e-05,11.482865646117055
2025-05-14 14:44:31.096,-3.881557570220974e-05,11.741393346946388
2025-05-14 14:44:31.104,-2.4709245127684352e-05,12.04270762356717
2025-05-14 14:44:31.112,-1.0414202378892411e-05,12.378437535869168
2025-05-14 14:44:31.119,3.762372697419761e-06,12.73869575511582
2025-05-14 14:44:31.127,1.7520324821186524e-05,13.112258570239907
2025-05-14 14:44:31.135,3.057505200784891e-05,13.486808357849132
2025-05-14 14:44:31.143,4.2665472829489706e-05,13.849233888033655
2025-05-14 14:44:31.151,5.356094179006555e-05,14.18598039552651
2025-05-14 14:44:31.159,6.306671684439925e-05,14.483438067834314
2025-05-14 14:44:31.166,7.102772842894518e-05,14.728354745399102
2025-05-14 14:44:31.174,7.733056704648287e-05,14.908256437240084
2025-05-14 14:44:31.182,8.190377873068105e-05,15.011857934556923
2025-05-14 14:44:31.190,8.471672016438152e-05,15.029445500447393
2025-05-14 14:44:31.198,8.57773411116472e-05,14.953214393519406
2025-05-14 14:44:31.205,8.51292913601399e-05,14.777545823258777
2025-05-14 14:44:31.213,8.284869507874165e-05,14.49921072200274
2025-05-14 14:44:31.221,7.904083717740267e-05,14.117491261727071
2025-05-14 14:44:31.229,7.383690039129168e-05,13.634215094500307
2025-05-14 14:44:31.237,6.739079549279082e-05,13.053701567144778
2025-05-14 14:44:31.244,5.987604707208709e-05,12.3826233573828
2025-05-14 14:44:31.252,5.148263813441215e-05,11.629790827305278
2025-05-14 14:44:31.260,4.2413681836217744e-05,10.805869669008176
2025-05-14 14:44:31.268,3.2881780481368674e-05,9.9230449728574
2025-05-14 14:44:31.276,2.3104951746973625e-05,8.994646593802486
2025-05-14 14:44:31.284,1.3302050137105595e-05,8.034751594828869
2025-05-14 14:44:31.291,3.6876867771572954e-06,7.057779626012489
2025-05-14 14:44:31.299,-5.533251077616805e-06,6.078096411352686
2025-05-14 14:44:31.307,-1.41712728435025e-05,5.109639158000993
2025-05-14 14:44:31.315,-2.205786168684745e-05,4.165575796468136
2025-05-14 14:44:31.323,-2.9050653335966428e-05,3.25800764771656
2025-05-14 14:44:31.330,-3.503796770131947e-05,2.3977225437267093
2025-05-14 14:44:31.338,-3.994252731013559e-05,1.5940027500369924
2025-05-14 14:44:31.346,-4.372427235235319e-05,0.8544893891053615
2025-05-14 14:44:31.354,-4.638223109139281e-05,0.1851025627853999
2025-05-14 14:44:31.362,-4.79554031786744e-05,-0.409985874951875
2025-05-14 14:44:31.369,-4.8522558676572405e-05,-0.9283318445556868
2025-05-14 14:44:31.377,-4.820079821171796e-05,-1.369157288068961
2025-05-14 14:44:31.385,-4.7142722065658056e-05,-1.7332545406035342
2025-05-14 14:44:31.393,-4.553212786120488e-05,-2.022864696490009
2025-05-14 14:44:31.401,-4.357826250167494e-05,-2.241537805501153
2025-05-14 14:44:31.409,-4.150876068104576e-05,-2.393982246638541
2025-05-14 14:44:31.416,-3.956149546007402e-05,-2.4859097608216287
2025-05-14 14:44:31.424,-3.797564201910613e-05,-2.5238814723244496
2025-05-14 14:44:31.432,-3.6982311703075066e-05,-2.5151588950176422
2025-05-14 14:44:31.440,-3.679514824106658e-05,-2.4675625065791027
2025-05-14 14:44:31.448,-3.760129036964236e-05,-2.3893390775226457
2025-05-14 14:44:31.455,-3.955309430348448e-05,-2.289037649490097
2025-05-14 14:44:31.463,-4.276097536455268e-05,-2.175392950593816
2025-05-14 14:44:31.471,-4.728767254088918e-05,-2.0572141908133057
2025-05-14 14:44:31.479,-5.314417335609939e-05,-1.9432766621629096
2025-05-14 14:44:31.487,-6.028748125335232e-05,-1.8422134208991272
2025-05-14 14:44:31.494,-6.862037698627538e-05,-1.7624045684059215
2025-05-14 14:44:31.502,-7.799329561855743e-05,-1.7118622561706516
2025-05-14 14:44:31.510,-8.82083651366204e-05,-1.6981104664312137
2025-05-14 14:44:31.518,-9.902551102931836e-05,-1.728059779930359
2025-05-14 14:44:31.526,-0.0001101703513588,-1.80787862845484
2025-05-14 14:44:31.534,-0.0001213434476877,-1.9428638247338383
2025-05-14 14:44:31.541,-0.0001322303970939,-2.13731435092392
2025-05-14 14:44:31.549,-0.0001425122660315,-2.3944133643074914
2025-05-14 14:44:31.557,-0.0001518759328183,-2.716124052271353
2025-05-14 14:44:31.565,-0.0001600239607624,-3.103105263431156
2025-05-14 14:44:31.573,-0.0001666836568459,-3.5546527112866007
2025-05-14 14:44:31.580,-0.0001716150151583,-4.068670978379736
2025-05-14 14:44:31.588,-0.000174617320675,-4.641680561022515
2025-05-14 14:44:31.596,-0.0001755342832254,-5.268862830269663
2025-05-14 14:44:31.604,-0.000174257660867,-5.944144109632697
2025-05-14 14:44:31.612,-0.0001707294054667,-6.660318176597189
2025-05-14 14:44:31.619,-0.0001649424191504,-7.4092045044601775
2025-05-14 14:44:31.627,-0.0001569400489004,-8.181837613481088
2025-05-14 14:44:31.635,-0.0001468144691908,-8.968681137009673
2025-05-14 14:44:31.643,-0.0001347041109601,-9.759858757015309
2025-05-14 14:44:31.651,-0.0001207902917576,-10.545393132824843
2025-05-14 14:44:31.659,-0.0001052931891904,-11.315443420841705
2025-05-14 14:44:31.666,-8.846728069406172e-05,-12.06053201149948
2025-05-14 14:44:31.674,-7.059635003863553e-05,-12.771751700815514
2025-05-14 14:44:31.682,-5.198813766833864e-05,-13.4409456347847
2025-05-14 14:44:31.690,-3.296869052991202e-05,-14.06085394820756
2025-05-14 14:44:31.698,-1.3876449729223792e-05,-14.625222968194096
2025-05-14 14:44:31.705,4.943897040341873e-06,-15.128875040615476
2025-05-14 14:44:31.713,2.3147775539187124e-05,-15.567739314626278
