Timestamp,Lead I (LA-RA),Lead II (LL-LA),Lead III (LL-RA),Vx-RL
2025-05-14 14:39:05.969,-6.448436457588372,22.29078301003704,15.842346503159106,4.586451661207141e-08
2025-05-14 14:39:05.977,-6.0291658735724685,11.46229301968969,5.433127096463855,4.6669891217683353e-08
2025-05-14 14:39:05.981,-6.609660476472569,7.598567987513169,0.988907460983388,4.74724080889942e-08
2025-05-14 14:39:05.985,-8.032045429839894,10.559712228026346,2.5276667476505663,4.8260973880129224e-08
2025-05-14 14:39:05.989,-9.376042668763048,17.17086425020754,7.794821530455471,4.9028516240568044e-08
2025-05-14 14:39:05.993,-10.240757899330976,25.437497677633036,15.196739726942608,4.978336671041391e-08
2025-05-14 14:39:05.997,-10.76234547638916,32.92479656981231,22.16245104167248,5.0533152377753535e-08
2025-05-14 14:39:06.001,-10.473638499064194,37.407107955863765,26.933469404553147,5.127179267737808e-08
2025-05-14 14:39:06.004,-8.671557551658626,41.26249862031379,32.59094101590695,5.1991320275090257e-08
2025-05-14 14:39:06.008,-6.039359922603558,48.88679389879047,42.84743392304114,5.269533051773568e-08
2025-05-14 14:39:06.012,-4.172108519802284,58.45411048179054,54.2820019084624,5.3391115429859776e-08
2025-05-14 14:39:06.016,-3.4577665216621445,62.89960475697855,59.44183818129128,5.4076742847405535e-08
2025-05-14 14:39:06.020,-3.0654527125577524,60.0109571061057,56.94550433896993,5.4745520607732275e-08
2025-05-14 14:39:06.024,-2.54715055160287,54.9632445052404,52.416093898610704,5.53976459646346e-08
2025-05-14 14:39:06.028,-1.8150365546033924,51.96723899270591,50.15220238269316,5.6038459425696795e-08
2025-05-14 14:39:06.032,-0.4555658338448438,49.495368284327725,49.0398023945842,5.666858868269906e-08
2025-05-14 14:39:06.036,1.3306724181483471,45.17240582579215,46.50307818744839,5.728374990962526e-08
2025-05-14 14:39:06.040,2.262985846747801,40.30997120569134,42.5729569954278,5.788252744530949e-08
2025-05-14 14:39:06.043,1.950023158462788,37.1273478538265,39.07737095486803,5.846771920059196e-08
2025-05-14 14:39:06.047,2.0334111394017573,34.71584937308528,36.74926045459112,5.904067702996779e-08
2025-05-14 14:39:06.051,3.933080193833468,30.62110314889215,34.55418328421517,5.9599576460255087e-08
2025-05-14 14:39:06.055,6.794834074352745,24.76265016789044,31.55748418313552,6.0143157509671e-08
2025-05-14 14:39:06.059,8.90731328912305,19.44389634628224,28.351209575829195,6.067221913580645e-08
2025-05-14 14:39:06.063,9.561150172637593,16.88588828961444,26.447038402205788,6.11874305452212e-08
2025-05-14 14:39:06.067,8.68600608070662,18.47863704651021,27.16464306655593,6.168851436058975e-08
2025-05-14 14:39:06.071,6.926570676393704,24.17390260929295,31.100473224359654,6.217532720145037e-08
2025-05-14 14:39:06.075,6.56665831426364,30.81357309199408,37.38023134437712,6.264770733322238e-08
2025-05-14 14:39:06.079,9.44680531039759,33.894086288091,43.34089153611726,6.310499760851708e-08
2025-05-14 14:39:06.083,13.74579891690389,32.734742740204574,46.48054159413503,6.354728649237882e-08
2025-05-14 14:39:06.086,15.89322602099408,31.275728453663728,47.16895441097199,6.397580456328965e-08
2025-05-14 14:39:06.090,15.395065158504536,32.878876130410944,48.27394122457736,6.439067784279563e-08
2025-05-14 14:39:06.094,14.693965464901009,36.88960901263296,51.58357441265015,6.479016793559009e-08
2025-05-14 14:39:06.098,14.938251068822236,40.48535837678537,55.42360938013128,6.517368838722015e-08
2025-05-14 14:39:06.102,15.15584065030715,41.33545324652285,56.49129383062368,6.55432284120644e-08
2025-05-14 14:39:06.106,15.055444927053056,38.26497761512469,53.320422475227474,6.589984584075219e-08
2025-05-14 14:39:06.110,15.513837914225157,31.61494450687192,47.128782353514765,6.624136595179576e-08
2025-05-14 14:39:06.114,16.655650498600345,23.676838149565164,40.33248857997947,6.656605033710405e-08
2025-05-14 14:39:06.118,17.88783517748535,16.483951219894976,34.37178632846924,6.687589482564745e-08
2025-05-14 14:39:06.122,19.27135004068245,7.436580763195077,26.70793073415615,6.717318856183536e-08
2025-05-14 14:39:06.126,21.2039318347724,-8.70793922815129,12.495992536163213,6.745626958204913e-08
2025-05-14 14:39:06.129,23.437881273303397,-29.07788178331127,-5.640000581114526,6.772239686344898e-08
2025-05-14 14:39:06.133,25.344828441456144,-41.45840391957472,-16.11357554993993,6.797277926794356e-08
2025-05-14 14:39:06.137,26.57575481630895,-41.413066958970106,-14.837312215325944,6.82105425955307e-08
2025-05-14 14:39:06.141,27.07084657912727,-39.72188806117636,-12.651041555552595,6.843515552468198e-08
2025-05-14 14:39:06.145,26.92729348419986,-44.700665753922486,-17.773372343955273,6.864343507585621e-08
2025-05-14 14:39:06.149,26.542343217472197,-51.19271560140076,-24.650372458881517,6.883536604143624e-08
2025-05-14 14:39:06.153,26.432543879240825,-53.01176516527004,-26.57922136183053,6.901419499310775e-08
2025-05-14 14:39:06.157,26.592988054393963,-51.03136162688067,-24.438373649206437,6.918066245774705e-08
2025-05-14 14:39:06.161,26.52785265789519,-46.33905662403535,-19.81120404369316,6.93318209772666e-08
2025-05-14 14:39:06.165,26.171450936159417,-39.17020086977065,-12.99875001192251,6.946646421659556e-08
2025-05-14 14:39:06.168,26.07030964235288,-34.40578772303148,-8.335478159831283,6.958731231182548e-08
2025-05-14 14:39:06.172,26.39245103318656,-37.50258462425185,-11.110133671180478,6.96962001740536e-08
2025-05-14 14:39:06.176,26.58568571851467,-46.79455111532084,-20.20886547785943,6.979107708064167e-08
2025-05-14 14:39:06.180,26.28676802739481,-56.34205917590858,-30.05529123039952,6.987000060363496e-08
2025-05-14 14:39:06.184,25.793498014032757,-62.43918580552976,-36.64568787422853,6.993470049458539e-08
2025-05-14 14:39:06.188,25.453514044977336,-63.267789269502025,-37.81427530823039,6.998748791250835e-08
2025-05-14 14:39:06.192,25.28747286861552,-58.24942743366385,-32.961954649775635,7.002736078487906e-08
2025-05-14 14:39:06.196,25.322319342910845,-51.71104558103683,-26.38872632378662,7.005214958735723e-08
2025-05-14 14:39:06.200,25.630485686944887,-50.82956166713706,-25.19907606673531,7.006249587278679e-08
2025-05-14 14:39:06.204,25.921154924524128,-56.288076895550006,-30.36692205854218,7.006063688638801e-08
2025-05-14 14:39:06.208,25.77568918875469,-60.75141223456878,-34.975723134401456,7.004660571990953e-08
2025-05-14 14:39:06.211,25.519602457399245,-58.8172286597637,-33.29762629198908,7.001863470821577e-08
2025-05-14 14:39:06.215,26.11616834262961,-52.6639000318212,-26.547731779773123,6.997658134824618e-08
2025-05-14 14:39:06.219,27.741353941926125,-46.58566281967777,-18.844308969318817,6.992216919046343e-08
2025-05-14 14:39:06.223,29.216557943898167,-41.685127229987714,-12.468569378747658,6.985605381415394e-08
2025-05-14 14:39:06.227,29.60510649590476,-37.843015001834,-8.237908599707175,6.977710505290241e-08
2025-05-14 14:39:06.231,29.76066483533976,-36.55755563573928,-6.796890895232895,6.968475778727309e-08
2025-05-14 14:39:06.235,31.171217974045195,-39.06056728997228,-7.889349411790561,6.957999516033746e-08
2025-05-14 14:39:06.239,33.44612052830588,-44.22727139805543,-10.78115096671372,6.946358893697877e-08
2025-05-14 14:39:06.243,34.366066699177864,-50.70323966830599,-16.33717306726217,6.933504661548274e-08
2025-05-14 14:39:06.247,32.96582877897668,-58.42310035195874,-25.457271672270533,6.919384166147273e-08
2025-05-14 14:39:06.251,31.24931377343132,-66.04732585412196,-34.798012181087174,6.904039986683113e-08
2025-05-14 14:39:06.254,31.735987266762564,-70.36377012569963,-38.62778296045694,6.887532924290987e-08
2025-05-14 14:39:06.258,34.20219927091955,-70.53614123076588,-36.3339420625585,6.869862608380244e-08
2025-05-14 14:39:06.262,36.11312917221747,-69.80793548597482,-33.69480641769956,6.851008637893716e-08
2025-05-14 14:39:06.266,35.88185357715262,-70.67511937270102,-34.79326590069381,6.830978809098193e-08
2025-05-14 14:39:06.270,34.59844692540291,-71.09376381315238,-36.49531699406796,6.80978558647065e-08
2025-05-14 14:39:06.274,34.35785877939401,-68.2814184432171,-33.923559771346035,6.787429489781237e-08
2025-05-14 14:39:06.278,35.51763971086929,-64.01544043767501,-28.49780083559996,6.763919079549585e-08
2025-05-14 14:39:06.282,36.32721634340368,-62.36390518815089,-26.036688954833643,6.739260300984218e-08
2025-05-14 14:39:06.286,35.33689860819055,-63.43027332147249,-28.09337482461964,6.713431698608298e-08
2025-05-14 14:39:06.290,33.23080546220369,-63.58034766758178,-30.349542317944618,6.686420447122037e-08
2025-05-14 14:39:06.293,31.665932111568395,-61.58223187769565,-29.91629987997668,6.658264192390193e-08
2025-05-14 14:39:06.297,31.23639257812913,-60.38781605097824,-29.151423588050545,6.628999416651593e-08
2025-05-14 14:39:06.301,31.457680305822574,-62.29105441530333,-30.833374226023302,6.598596512315504e-08
2025-05-14 14:39:06.305,31.96965629104956,-65.8696769497471,-33.90002077651773,6.567016482017813e-08
2025-05-14 14:39:06.309,32.73208663171613,-68.63256008258979,-35.900473569975745,6.534299930693716e-08
2025-05-14 14:39:06.313,33.38348808091464,-70.05161361171463,-36.66812565127408,6.500513279671675e-08
2025-05-14 14:39:06.317,33.318294661490654,-71.26330959347669,-37.94501505387865,6.465634915904403e-08
2025-05-14 14:39:06.321,32.53157641120123,-73.19111078527715,-40.65953449731918,6.429596055361455e-08
2025-05-14 14:39:06.325,31.80078371794777,-74.94456986691785,-43.14378627350171,6.3924163673108e-08
2025-05-14 14:39:06.329,31.582522381350262,-74.29147258502977,-42.70895032956712,6.354185807571997e-08
2025-05-14 14:39:06.333,31.032509240721712,-71.18166429037588,-40.14915517700391,6.314915294285045e-08
2025-05-14 14:39:06.336,28.96145110443429,-68.81385486125005,-39.8524038856005,6.274527148937289e-08
2025-05-14 14:39:06.340,25.90376495814312,-67.26099411539388,-41.35722928735515,6.233009673073104e-08
2025-05-14 14:39:06.344,24.139073296644884,-59.12626723996544,-34.987194074748345,6.190456656930279e-08
2025-05-14 14:39:06.348,25.103280698979205,-38.60909492908709,-13.505814362997382,6.146915939914584e-08
2025-05-14 14:39:06.352,27.861768874469643,-12.423409158623317,15.438359581448028,6.102319802522985e-08
2025-05-14 14:39:06.356,30.619358133064885,6.6112187788761085,37.23057677616247,6.056624670447098e-08
2025-05-14 14:39:06.360,32.381139649923,14.903419602205162,47.28455911505003,6.009908267634139e-08
2025-05-14 14:39:06.364,32.754938744674135,19.495879673514796,52.25081827968771,5.962249567443479e-08
2025-05-14 14:39:06.368,31.7997245945344,26.68337336059082,58.48309781507337,5.9136097131214114e-08
2025-05-14 14:39:06.372,30.47483249331049,36.16548945998072,66.64032181178078,5.863926961756773e-08
2025-05-14 14:39:06.376,29.65916842942151,45.044130367854194,74.70329865446212,5.81325059912639e-08
2025-05-14 14:39:06.379,28.78710296694905,52.23565860852532,81.02276143129616,5.761674069837836e-08
2025-05-14 14:39:06.383,27.198356654928823,58.148736706369846,85.34709321557241,5.709193495773459e-08
2025-05-14 14:39:06.387,26.099118027618005,62.56783586949106,88.66695374984991,5.655744895213757e-08
2025-05-14 14:39:06.391,26.6995465030176,65.14347812741823,91.84302448183682,5.6013449283387526e-08
2025-05-14 14:39:06.395,27.45712882654717,67.59844065413618,95.05556933077462,5.546082045260601e-08
2025-05-14 14:39:06.399,26.292724181183857,71.78459678143582,98.07732081120874,5.489984110670275e-08
2025-05-14 14:39:06.403,24.308271473657022,74.28399509193424,98.5922664126019,5.4330023831038876e-08
2025-05-14 14:39:06.407,24.20843360874781,67.88653857519378,92.09497202955323,5.3751294379869386e-08
2025-05-14 14:39:06.411,26.517453680220967,51.64197460515382,78.15942812970746,5.3164349108968645e-08
2025-05-14 14:39:06.415,29.158081156756907,35.32035510881681,64.47843610847605,5.2569656953258e-08
2025-05-14 14:39:06.418,28.60340731536781,30.26176456487319,58.86517172156038,5.196696966385749e-08
2025-05-14 14:39:06.422,21.92608849787361,37.66386858193383,59.58995691966173,5.135614229089934e-08
2025-05-14 14:39:06.426,11.236273332462922,47.93958423743376,59.17585740846496,5.0737715288450194e-08
2025-05-14 14:39:06.430,4.162221897451714,51.019005099527774,55.18122683418824,5.0112275913464144e-08
2025-05-14 14:39:06.434,5.9121107426527,45.829797385025046,51.74190796333777,4.947982184263647e-08
2025-05-14 14:39:06.438,13.27194689820318,38.55739610610968,51.82934283845606,4.8840193640174576e-08
2025-05-14 14:39:06.442,19.541246091189105,33.05156585992768,52.59281178393681,4.819368759571994e-08
2025-05-14 14:39:06.446,22.186733802333297,26.85827912382409,49.0450127576705,4.7540802518134426e-08
2025-05-14 14:39:06.450,22.85319711950748,17.61633466152839,40.46953161106303,4.6881694291004466e-08
2025-05-14 14:39:06.454,22.995517110559824,9.13636707563511,32.131884014684346,4.6216276380979575e-08
2025-05-14 14:39:06.458,22.580236941486607,7.41923468048028,29.99947144908336,4.554466025418597e-08
2025-05-14 14:39:06.461,21.581239194906285,12.324911468704368,33.90615048944676,4.486716783118029e-08
2025-05-14 14:39:06.465,20.51308094003495,17.642758471531753,38.15583923599135,4.4184026344995264e-08
2025-05-14 14:39:06.469,19.72651700466201,19.93389834912208,39.6604151766844,4.3495314633687835e-08
2025-05-14 14:39:06.473,19.20809802219976,22.37812642901698,41.586224272698814,4.280115109737223e-08
2025-05-14 14:39:06.477,18.9861848666134,27.31167943460472,46.29786412142146,4.2101742792326715e-08
2025-05-14 14:39:06.481,19.01989988983464,30.19317647412804,49.21307618282414,4.1397293573863254e-08
2025-05-14 14:39:06.485,18.798510408031287,25.78167336068222,44.58018358609126,4.0687992989134335e-08
2025-05-14 14:39:06.489,17.931251903782453,16.214984987260898,34.1462367069735,3.997403667539857e-08
2025-05-14 14:39:06.493,17.023623163381878,7.374345513222714,24.397968491240263,3.9255576366394194e-08
2025-05-14 14:39:06.497,16.89049309941568,0.2577815990592257,17.14827451182335,3.853274258917753e-08
2025-05-14 14:39:06.501,17.106767985348455,-8.198681364953758,8.90808643231734,3.7805770010890786e-08
2025-05-14 14:39:06.504,16.575305880877075,-17.913752808205963,-1.338447116860527,3.707495769877515e-08
2025-05-14 14:39:06.508,15.256918248339296,-25.446801215665783,-10.189883158174943,3.634045192518188e-08
2025-05-14 14:39:06.512,14.092204507038256,-29.9517567552466,-15.85955244030755,3.560225490770535e-08
2025-05-14 14:39:06.516,13.421624535917587,-33.75872326641391,-20.337098923956415,3.486051556930135e-08
2025-05-14 14:39:06.520,12.56698615578904,-37.71356495070682,-25.146578989815687,3.411558686501674e-08
2025-05-14 14:39:06.524,11.051645287720705,-40.75405421124709,-29.702409119761025,3.336770113675097e-08
2025-05-14 14:39:06.528,9.532467738015928,-43.08411501088878,-33.55164747033916,3.261685042150146e-08
2025-05-14 14:39:06.532,9.082313736671846,-45.35960606086773,-36.27729252295969,3.1863134233619133e-08
2025-05-14 14:39:06.536,9.71470021943706,-46.06018175724518,-36.34548173797268,3.110695489538088e-08
2025-05-14 14:39:06.540,10.26546302763956,-43.934797760726994,-33.66933493459933,3.034867458457931e-08
2025-05-14 14:39:06.543,10.090171077495324,-41.54998497762965,-31.45981410287342,2.9588338088259032e-08
2025-05-14 14:39:06.547,10.180252656453408,-41.93144592658957,-31.75119347411807,2.8825968208647604e-08
2025-05-14 14:39:06.551,11.44049181916455,-43.23268404852321,-31.792192434689248,2.8061896387654786e-08
2025-05-14 14:39:06.555,12.058736818160442,-41.95868037189915,-29.899943760413624,2.7296515733276016e-08
2025-05-14 14:39:06.559,8.85793859920081,-40.01153191932946,-31.15359352803636,2.652989797395904e-08
2025-05-14 14:39:06.563,2.43904461717904,-41.27666841029763,-38.83762400222899,2.576198091221944e-08
2025-05-14 14:39:06.567,-1.904307840899407,-40.59815253348647,-42.502460584785325,2.499300179779005e-08
2025-05-14 14:39:06.571,-0.6928138267251127,-24.1201236999575,-24.81293773840552,2.422339377523632e-08
2025-05-14 14:39:06.575,3.0610677422691177,15.78527859754131,18.846346126848413,2.34533303538452e-08
2025-05-14 14:39:06.579,3.813203238853726,69.58089093211824,73.39409395683201,2.2682740104867065e-08
2025-05-14 14:39:06.583,0.6361678014421406,114.3487644139426,114.98493200001523,2.191175937118384e-08
2025-05-14 14:39:06.586,0.1178830337320722,126.87682142490068,126.99470424198095,2.1140809665048887e-08
2025-05-14 14:39:06.590,10.651161824492965,101.07934795998202,111.7305095665887,2.0370181719586925e-08
2025-05-14 14:39:06.594,30.210846365032488,58.95424019212747,89.16508633810719,1.9599882562997557e-08
2025-05-14 14:39:06.598,44.26941219023076,33.23413320633425,77.5035451763316,1.882999618359978e-08
2025-05-14 14:39:06.602,42.67794115937781,29.73047169320816,72.4084126311267,1.8060895282519867e-08
2025-05-14 14:39:06.606,31.772138507708533,21.48529154342564,53.25742982846401,1.7292950057692376e-08
2025-05-14 14:39:06.610,23.1104748452744,-9.274779702697275,13.835694918744323,1.6526283488624296e-08
2025-05-14 14:39:06.614,19.72849536867942,-44.29670697244434,-24.56821182874988,1.5760992139164177e-08
2025-05-14 14:39:06.618,18.98714348483632,-58.06365326390267,-39.076510005219816,1.49973951167824e-08
2025-05-14 14:39:06.622,19.5088290779482,-51.97240195344408,-32.46357310281676,1.4235862569358122e-08
2025-05-14 14:39:06.626,21.185891061194443,-45.608953402182685,-24.4230625694633,1.3476556479194296e-08
2025-05-14 14:39:06.629,24.064221083581597,-50.184811760249,-26.12059090628565,1.2719543561017531e-08
2025-05-14 14:39:06.633,28.229518108659285,-60.90056147442666,-32.671043596509406,1.1965060584486249e-08
2025-05-14 14:39:06.637,32.12670453739929,-65.67283049803186,-33.54612619248512,1.121347959589722e-08
2025-05-14 14:39:06.641,32.72494849932271,-57.09184762624696,-24.36689935990707,1.0465069308386392e-08
2025-05-14 14:39:06.645,29.125555099483996,-41.17458147754376,-12.049026612186772,9.719965759288425e-09
2025-05-14 14:39:06.649,23.689941207392728,-32.20944172975396,-8.519500757587824,8.978361718895524e-09
2025-05-14 14:39:06.653,18.738247927940638,-35.07918296514288,-16.340935273480486,8.240568619893704e-09
2025-05-14 14:39:06.657,14.740864672981626,-39.78428069326979,-25.04341625765296,7.506873252633355e-09
2025-05-14 14:39:06.661,12.06949385759316,-37.157464246777735,-25.087970627691742,6.777462082453761e-09
2025-05-14 14:39:06.665,11.386090938424577,-28.98682067229946,-17.60072997347737,6.052526939564013e-09
2025-05-14 14:39:06.668,11.215529371582134,-17.227408655158243,-6.011879524180809,5.332340941750398e-09
2025-05-14 14:39:06.672,7.828380352990264,4.351644887731139,12.1800249990909,4.61717437040997e-09
2025-05-14 14:39:06.676,-0.4297789935477822,38.63595315281509,38.206173916510274,3.907212750931805e-09
2025-05-14 14:39:06.680,-10.176211427828797,73.65582061545771,63.47960894376715,3.202606026713652e-09
2025-05-14 14:39:06.684,-16.410257662849013,92.4602675270502,76.05000961936827,2.5035317479482154e-09
2025-05-14 14:39:06.688,-18.082606122004314,90.93397555249814,72.85136918470397,1.8101675807991966e-09
2025-05-14 14:39:06.692,-18.32941824898573,78.50728349704056,60.17786500117403,1.1226496382919398e-09
2025-05-14 14:39:06.696,-19.69960451299916,64.25582926140416,44.55622450040528,4.4108464384113847e-10
2025-05-14 14:39:06.700,-21.439743135381985,48.98454391758417,27.54480053323812,-2.3442661583364493e-10
2025-05-14 14:39:06.704,-21.8798550526834,29.072249923795997,7.192394621254614,-9.037838945363585e-10
2025-05-14 14:39:06.708,-21.30564237292879,3.521530412022269,-17.78411221180241,-1.5668833771645362e-09
2025-05-14 14:39:06.711,-21.16412179275717,-21.83248362711248,-42.99660567189525,-2.22362783354355e-09
2025-05-14 14:39:06.715,-21.872180154116123,-36.38797326474831,-58.26015367187232,-2.873959910049726e-09
2025-05-14 14:39:06.719,-22.608280487953373,-33.61254287731737,-56.22082361912649,-3.517859478698168e-09
2025-05-14 14:39:06.723,-22.1046877593786,-17.829466858478742,-39.93415487268312,-4.155273558217406e-09
2025-05-14 14:39:06.727,-19.527451774990425,0.1351109560900063,-19.392341074852048,-4.7860783447308115e-09
2025-05-14 14:39:06.731,-17.072386893458393,12.564403234798256,-4.507983915631099,-5.4101608026031755e-09
2025-05-14 14:39:06.735,-20.702279942912835,17.00263156541039,-3.699648635303152,-6.027507568522523e-09
2025-05-14 14:39:06.739,-32.83393189608431,12.19822821824852,-20.63570393653353,-6.6381469278439716e-09
2025-05-14 14:39:06.743,-45.19294264548762,-1.4327559987756064,-46.62569890405916,-7.242024225244811e-09
2025-05-14 14:39:06.747,-46.61099314442038,-17.970263210569648,-64.58125661584764,-7.839010582372457e-09
2025-05-14 14:39:06.751,-37.20939666719672,-28.75955583259241,-65.96895276149141,-8.429028756067149e-09
2025-05-14 14:39:06.754,-27.079293888196,-30.696417541697755,-57.77571169243066,-9.012086384528129e-09
2025-05-14 14:39:06.758,-22.536485392047865,-29.049971245044752,-51.58645690067475,-9.588173849570288e-09
2025-05-14 14:39:06.762,-20.753025193126877,-31.524297446821603,-52.27732290462186,-1.0157225888084689e-08
2025-05-14 14:39:06.766,-16.300979033907527,-40.59477277736276,-56.895752076831926,-1.0719223033920744e-08
2025-05-14 14:39:06.770,-8.070228644347175,-50.02571352226031,-58.09594243297013,-1.1274235586957788e-08
2025-05-14 14:39:06.774,-0.9741705609516108,-48.49805704729796,-49.4722278755917,-1.1822303972902886e-08
2025-05-14 14:39:06.778,-2.3503928824867004,-31.409109941215057,-33.7595030921401,-1.2363358475216549e-08
2025-05-14 14:39:06.782,-14.099377528669365,-9.245961424839471,-23.345339222893557,-1.2897330991028708e-08
2025-05-14 14:39:06.786,-28.710840376136048,3.105783204655632,-25.60505744167172,-1.3424266537538372e-08
2025-05-14 14:39:06.790,-37.07168616552613,4.428090049597613,-32.64359638704183,-1.394423651839842e-08
2025-05-14 14:39:06.793,-38.95432292500601,6.136067777594769,-32.81825541960026,-1.4457216894871616e-08
2025-05-14 14:39:06.797,-40.99387634168716,16.412337275801214,-24.58153933907427,-1.4963152527479413e-08
2025-05-14 14:39:06.801,-46.38194081778178,33.88387495692214,-12.498066134894582,-1.5462080082512896e-08
2025-05-14 14:39:06.805,-52.17279337730449,52.89616976316955,0.7233761109387316,-1.595408340635959e-08
2025-05-14 14:39:06.809,-55.36601744061682,67.94592771528272,12.579909998698737,-1.6439169083989554e-08
2025-05-14 14:39:06.813,-56.49482251116793,76.07362894049322,19.57880615232518,-1.6917284202741958e-08
2025-05-14 14:39:06.817,-57.27225400127561,78.72458424718178,21.452329967999297,-1.7388430419029682e-08
2025-05-14 14:39:06.821,-58.13092593635585,79.02715012222258,20.896223907061724,-1.7852663291379823e-08
2025-05-14 14:39:06.825,-58.605895919839554,76.90732042325843,18.301424223603103,-1.8309991550687023e-08
2025-05-14 14:39:06.829,-58.42819644566725,69.43513354603715,11.006936819509136,-1.8760367774976654e-08
2025-05-14 14:39:06.833,-57.97131121629938,55.14516262918235,-2.8261488689458543,-1.9203766324183817e-08
2025-05-14 14:39:06.836,-58.20282789359924,36.42120198553277,-21.781626190833293,-1.9640186927516687e-08
2025-05-14 14:39:06.840,-59.71012870812488,18.919621217691915,-40.79050777420076,-2.0069595182235145e-08
2025-05-14 14:39:06.844,-61.44531450513973,8.197487378419252,-53.24782741152942,-2.0491930550750858e-08
2025-05-14 14:39:06.848,-61.56466548421238,4.731118708123539,-56.83354706191058,-2.0907161890914324e-08
2025-05-14 14:39:06.852,-60.27059528956812,3.5804880055037893,-56.69010757087938,-2.131528260704233e-08
2025-05-14 14:39:06.856,-60.33405633105611,0.4068222820532772,-59.92723433683365,-2.171626650230976e-08
2025-05-14 14:39:06.860,-63.03255316033655,-4.618378035369076,-67.6509314845703,-2.2110077654669792e-08
2025-05-14 14:39:06.864,-64.95715680118292,-9.406139984740802,-74.36329707582478,-2.249671447404458e-08
2025-05-14 14:39:06.868,-61.79724594472512,-13.056521328343823,-74.85376756401763,-2.2876197773128753e-08
2025-05-14 14:39:06.872,-54.53535115245954,-15.69490390124041,-70.23025534569948,-2.324851368359229e-08
2025-05-14 14:39:06.876,-48.52901931609358,-17.69470579899941,-66.22372540812562,-2.3613605310236308e-08
2025-05-14 14:39:06.879,-46.72442554650898,-19.42341386120217,-66.1478397017857,-2.3971427277709778e-08
2025-05-14 14:39:06.883,-46.56317410209538,-21.016967251646,-67.58014164890535,-2.4321978122198853e-08
2025-05-14 14:39:06.887,-43.50977547309631,-23.11286459120144,-66.62264036055936,-2.4665270381768072e-08
2025-05-14 14:39:06.891,-36.240229630519,-27.01518146162501,-63.255411389451,-2.5001294224323045e-08
2025-05-14 14:39:06.895,-28.34891965016309,-32.17475996120397,-60.52367990971207,-2.5330023428445024e-08
2025-05-14 14:39:06.899,-24.52022500106378,-35.16857188363315,-59.68879718415658,-2.5651440896715033e-08
2025-05-14 14:39:06.903,-24.74155635146652,-34.28783559525488,-59.02939224732859,-2.596553818775988e-08
2025-05-14 14:39:06.907,-23.927607902494195,-33.443814770981945,-57.37142297515607,-2.627229347032478e-08
2025-05-14 14:39:06.911,-18.194849290012662,-37.178361117006354,-55.3732107097322,-2.6571673088820374e-08
2025-05-14 14:39:06.915,-9.76772820787382,-42.71977750368872,-52.48750601539825,-2.6863660112772953e-08
2025-05-14 14:39:06.918,-4.240872249705491,-42.72953465947285,-46.97040721420454,-2.714826490991896e-08
2025-05-14 14:39:06.922,-4.372107055057775,-36.42140979747677,-40.79351715867176,-2.7425505661494266e-08
2025-05-14 14:39:06.926,-8.071189787503876,-31.53024437933789,-39.60143447401209,-2.7695386656912413e-08
2025-05-14 14:39:06.930,-11.311918820377056,-33.73864562551587,-45.05056475417977,-2.7957887113862214e-08
2025-05-14 14:39:06.934,-11.610046983441894,-40.12095348640959,-51.73100077935939,-2.821296693130723e-08
2025-05-14 14:39:06.938,-9.409215223058393,-44.346390907089656,-53.75560644081022,-2.8460600704816474e-08
2025-05-14 14:39:06.942,-7.322164479856972,-43.13178792877719,-50.45395272033637,-2.870080738196168e-08
2025-05-14 14:39:06.946,-8.119884514342527,-36.989100837351145,-45.10898566449737,-2.8933625696930602e-08
2025-05-14 14:39:06.950,-12.515918899283134,-29.21852483210581,-41.73444404543036,-2.9159067364188746e-08
2025-05-14 14:39:06.954,-18.23477686343368,-24.523011644865832,-42.757788823539045,-2.9377118986246998e-08
2025-05-14 14:39:06.958,-21.874226763658037,-25.38022063694004,-47.25444771689212,-2.9587776735251738e-08
2025-05-14 14:39:06.961,-21.97623222641293,-29.80713200080147,-51.78336454458912,-2.9791046082120764e-08
2025-05-14 14:39:06.965,-19.67692705992776,-33.82329678903979,-53.50022416758144,-2.9986908120307874e-08
2025-05-14 14:39:06.969,-16.891019551307444,-34.488860447415306,-51.37988031857469,-3.0175316255143806e-08
2025-05-14 14:39:06.973,-14.724304997630767,-30.35176745701351,-45.07607277557182,-3.0356238132992213e-08
2025-05-14 14:39:06.977,-13.263025782172228,-21.80773074958754,-35.07075685374372,-3.0529676627962327e-08
2025-05-14 14:39:06.981,-12.581540276753794,-11.542333488524491,-24.123874088487472,-3.069563304421094e-08
2025-05-14 14:39:06.985,-13.547156506361182,-2.492414383723015,-16.039571214564553,-3.085407413000948e-08
2025-05-14 14:39:06.989,-16.461466246494645,4.664494283566166,-11.796972288511435,-3.100495774876992e-08
2025-05-14 14:39:06.993,-19.53713792884149,11.34979284934188,-8.18734540611226,-3.114826893582041e-08
2025-05-14 14:39:06.997,-21.04630575718805,19.751727061317816,-1.2945790236767771,-3.1284001649372986e-08
2025-05-14 14:39:07.001,-22.34423263922152,31.22758432835412,8.883351360032364,-3.1412120919509694e-08
2025-05-14 14:39:07.004,-25.80465555646452,43.67946621737132,17.87481033067072,-3.1532575992481324e-08
2025-05-14 14:39:07.008,-30.44340426609114,51.74849959532703,21.30509499799581,-3.164533939129407e-08
2025-05-14 14:39:07.012,-32.87900870809017,52.140488346048095,19.261479305573893,-3.175039599075792e-08
2025-05-14 14:39:07.016,-32.07345350488193,46.97262027695429,14.89916643838891,-3.1847698942054445e-08
2025-05-14 14:39:07.020,-30.033170311814263,40.07308681584037,10.039916169169054,-3.1937170005829914e-08
2025-05-14 14:39:07.024,-28.28919687229079,32.136823993839535,3.847626785706577,-3.201874380784073e-08
2025-05-14 14:39:07.028,-26.30318333641452,20.57715432562713,-5.726029347708148,-3.209239093798921e-08
2025-05-14 14:39:07.032,-23.16152796485658,3.1115463321148398,-20.04998197094617,-3.215809542502397e-08
2025-05-14 14:39:07.036,-19.42967685797981,-17.757588827144456,-37.18726602454241,-3.2215826619366386e-08
2025-05-14 14:39:07.040,-17.787018146740827,-34.01816323667418,-51.80518172381417,-3.226554672231944e-08
2025-05-14 14:39:07.043,-21.478127223352608,-38.55438312882241,-60.03251069357993,-3.2307238000909445e-08
2025-05-14 14:39:07.047,-30.02120517598584,-31.90760746696219,-61.92881298559515,-3.2340914507082174e-08
2025-05-14 14:39:07.051,-37.49477607873928,-20.34851649387241,-57.843292916506,-3.2366615386193424e-08
2025-05-14 14:39:07.055,-38.4686378176733,-8.93092650064934,-47.39956466321028,-3.238438865180977e-08
2025-05-14 14:39:07.059,-34.4577506148851,1.020873020940014,-33.43687793976699,-3.239427615733114e-08
2025-05-14 14:39:07.063,-31.167136166411986,9.597117975442425,-21.57001853796598,-3.2396317246130813e-08
2025-05-14 14:39:07.067,-31.19855974268764,16.8761354908049,-14.322424600142934,-3.2390569091782995e-08
2025-05-14 14:39:07.071,-32.658665851586605,23.551674629882758,-9.106991570983457,-3.2377114854903745e-08
2025-05-14 14:39:07.075,-33.03131818738814,30.550543256927565,-2.4807752806140217,-3.235604374509228e-08
2025-05-14 14:39:07.079,-31.64682166577401,37.45235355925266,5.80553154223942,-3.232742793889123e-08
2025-05-14 14:39:07.083,-29.52837927856712,42.53511262473627,13.006732993674422,-3.229132421612748e-08
2025-05-14 14:39:07.086,-28.326991654330666,44.685312220429374,16.358320212550485,-3.224778987901785e-08
2025-05-14 14:39:07.090,-28.59483512245014,44.47412548715873,15.879290010327727,-3.219689136763937e-08
2025-05-14 14:39:07.094,-29.066717354598165,43.34709782269901,14.280380112734994,-3.213870752036687e-08
2025-05-14 14:39:07.098,-28.709284308415054,42.43866264453932,13.729377979540908,-3.2073336894043435e-08
2025-05-14 14:39:07.102,-28.494357031826656,42.00998363702499,13.515626247528388,-3.2000898524826826e-08
2025-05-14 14:39:07.106,-29.66425905513413,41.391227414768274,11.72696800114932,-3.1921516361465266e-08
2025-05-14 14:39:07.110,-31.393229731086155,39.771185645364056,8.37795555490905,-3.183530894810355e-08
2025-05-14 14:39:07.114,-31.61183335731154,37.39683642431095,5.78500270648122,-3.174239393563392e-08
2025-05-14 14:39:07.118,-29.638418765664014,35.22134671609389,5.582927588805145,-3.164288145399171e-08
2025-05-14 14:39:07.122,-27.334134401976492,33.26211682177578,5.927982057356676,-3.153685681365294e-08
2025-05-14 14:39:07.126,-27.25623241390833,30.589817019613964,3.333584242469392,-3.142438126066655e-08
2025-05-14 14:39:07.129,-29.0173792295495,26.81136243783414,-2.2060171560067685,-3.130550478539728e-08
2025-05-14 14:39:07.133,-28.3712042336354,22.081334636818013,-6.289869962211542,-3.118026644239606e-08
2025-05-14 14:39:07.137,-21.886608322730886,16.576144221550777,-5.310464467408104,-3.104869541907843e-08
2025-05-14 14:39:07.141,-12.096855010354831,11.83843036881076,-0.2584250084935777,-3.0910833038161945e-08
2025-05-14 14:39:07.145,-5.677031898131776,10.52476711805702,4.847734852031845,-3.0766747750969474e-08
2025-05-14 14:39:07.149,-6.182396335968833,12.022566805953918,5.840170101022721,-3.0616516531963895e-08
2025-05-14 14:39:07.153,-10.252286658109815,11.330809605641036,1.0785225777173912,-3.046020607864173e-08
2025-05-14 14:39:07.157,-11.662561215396792,6.258758416587737,-5.403803169292939,-3.0297885784885006e-08
2025-05-14 14:39:07.161,-8.427438494329309,2.753169050099018,-5.6742698155400015,-3.0129643313409266e-08
2025-05-14 14:39:07.165,-5.036554240457598,8.401352779378795,3.36479816660775,-2.995557393953112e-08
2025-05-14 14:39:07.168,-7.0333160160227735,22.558161868902676,15.524845479706284,-2.9775771202192943e-08
2025-05-14 14:39:07.172,-13.985584295059173,36.88800830977468,22.902423640902835,-2.959034145082289e-08
2025-05-14 14:39:07.176,-19.737378184772723,44.31328535971766,24.575906800420608,-2.9399411881679013e-08
2025-05-14 14:39:07.180,-19.815321920112368,44.30052843762549,24.485206142079207,-2.9203113291178196e-08
2025-05-14 14:39:07.184,-16.270090731298332,40.85374987760548,24.583658770023384,-2.9001565736883632e-08
2025-05-14 14:39:07.188,-14.292878671798595,38.63527752664744,24.34239847794064,-2.8794882171741257e-08
2025-05-14 14:39:07.192,-15.95048253140494,40.1885332479557,24.23805033903081,-2.8583170378756682e-08
2025-05-14 14:39:07.196,-18.736898394409643,44.16851264138288,25.43161386865935,-2.8366528414618578e-08
2025-05-14 14:39:07.200,-19.705060649032145,46.92942711253089,27.224366084371397,-2.8145053656125603e-08
2025-05-14 14:39:07.204,-19.374988015744588,47.44618270228632,28.071194306794435,-2.7918859173540403e-08
2025-05-14 14:39:07.208,-20.24699669699339,48.754505362081865,28.507508284806068,-2.7688066201619144e-08
2025-05-14 14:39:07.211,-22.360053928887,52.868151305787215,30.50809699595002,-2.7452779637143914e-08
2025-05-14 14:39:07.215,-23.12843664023257,57.29870753375546,34.1702705118279,-2.72130813545215e-08
2025-05-14 14:39:07.219,-21.98742432743197,59.19509163965244,37.20766692991367,-2.6969042313330485e-08
2025-05-14 14:39:07.223,-21.975932308371263,59.74402855371965,37.76809586255763,-2.672073529822095e-08
2025-05-14 14:39:07.227,-25.320257252573413,61.26776833404914,35.94751069813974,-2.646824712140879e-08
2025-05-14 14:39:07.231,-30.239868097067514,62.87783512008822,32.637966639040656,-2.6211681173960875e-08
2025-05-14 14:39:07.235,-33.612911650021346,62.2774486058535,28.66453657126764,-2.595113434197076e-08
2025-05-14 14:39:07.239,-34.61910429232982,59.48975269746619,24.870648020117752,-2.5686674619628072e-08
2025-05-14 14:39:07.243,-34.61760499530689,56.12323783383942,21.50563245307116,-2.5418356817349505e-08
2025-05-14 14:39:07.247,-34.90025011174987,52.895137015507785,17.994886517774916,-2.5146254471315093e-08
2025-05-14 14:39:07.251,-35.36724825891328,49.84042450134533,14.473175855924536,-2.4870468364656658e-08
2025-05-14 14:39:07.254,-35.034138297443874,47.488575570270754,12.454436885888088,-2.4591112684740218e-08
2025-05-14 14:39:07.258,-33.633006774354584,46.484681636170926,12.85167447450761,-2.4308291481021688e-08
2025-05-14 14:39:07.262,-32.15775201121934,46.8734508608204,14.715698461896688,-2.4022081937244693e-08
2025-05-14 14:39:07.266,-31.27139483144856,48.35693892804978,17.08554370846834,-2.3732548872234186e-08
2025-05-14 14:39:07.270,-29.96252157177179,50.692987009954415,20.730465049654462,-2.3439774608593614e-08
2025-05-14 14:39:07.274,-26.735666689994147,53.46753933738259,26.73187225853724,-2.3143863610950437e-08
2025-05-14 14:39:07.278,-21.76689002752865,55.79672675723434,34.02983634056917,-2.2844930628616096e-08
2025-05-14 14:39:07.282,-17.12335277004712,56.69175713544114,39.568403975950986,-2.2543104848229268e-08
2025-05-14 14:39:07.286,-14.535119323997623,55.64352919083873,41.10840947706844,-2.2238534126774632e-08
2025-05-14 14:39:07.290,-13.300746103183863,52.81469264088051,39.51394614763751,-2.1931364844722946e-08
2025-05-14 14:39:07.293,-11.37020713860751,49.60015716265657,38.22994963378678,-2.1621728608090633e-08
2025-05-14 14:39:07.297,-8.282036225207909,49.25057015914105,40.96853354349143,-2.1309762713558042e-08
2025-05-14 14:39:07.301,-5.511272766771407,54.91282312102339,49.40154996358008,-2.0995627130668876e-08
2025-05-14 14:39:07.305,-4.195132723732017,65.61171550544518,61.41658239080114,-2.0679483109354112e-08
2025-05-14 14:39:07.309,-4.147127513146692,76.22908676326247,72.08195885905468,-2.0361466411221925e-08
2025-05-14 14:39:07.313,-4.61923842667893,84.59645093696899,79.97721211915871,-2.0041700668115272e-08
2025-05-14 14:39:07.317,-4.69556158994806,97.1666567522255,92.47109477103984,-1.972032466633123e-08
2025-05-14 14:39:07.321,-3.700262196821821,120.68276621581208,116.98250362758884,-1.9397480024071325e-08
2025-05-14 14:39:07.325,-1.9339854432213988,146.70595125292567,144.77196541819586,-1.9073281116330504e-08
2025-05-14 14:39:07.329,0.2060547151156274,155.62483542002002,155.8308897436329,-1.8747823283350305e-08
2025-05-14 14:39:07.333,3.5377703482489467,141.64898698881987,145.18675694558627,-1.8421217894078672e-08
2025-05-14 14:39:07.336,7.952700116662299,121.08392799909797,129.03662772422874,-1.8093609949177654e-08
2025-05-14 14:39:07.340,9.723797885444974,109.836454974723,119.56025246858748,-1.7765171765127338e-08
2025-05-14 14:39:07.344,5.298587122584046,106.1612710846889,111.45985781574548,-1.7436081285343457e-08
2025-05-14 14:39:07.348,-2.340058972860865,100.11560645690476,97.77554709264246,-1.7106493143028557e-08
2025-05-14 14:39:07.352,-5.996078487425383,87.79710880889974,81.80102993016797,-1.6776533233403772e-08
2025-05-14 14:39:07.356,-3.2676303468455963,72.83637417039175,69.56874343229086,-1.6446326702643332e-08
2025-05-14 14:39:07.360,0.8222271434214798,61.8455555767195,62.66778232898368,-1.6116013863661466e-08
2025-05-14 14:39:07.364,0.0116185239032272,59.62450434172739,59.63612247467138,-1.5785730364991506e-08
2025-05-14 14:39:07.368,-6.917137489613328,63.759534814323096,56.84239693398932,-1.5455586163100376e-08
2025-05-14 14:39:07.372,-14.962839967360225,65.00303867530882,50.0401983174262,-1.5125670162242074e-08
2025-05-14 14:39:07.376,-17.597121633008857,57.91366086963695,40.31653884627928,-1.4796070168430928e-08
2025-05-14 14:39:07.379,-14.514846337245348,47.04776732043924,32.53292059309007,-1.4466885371520636e-08
2025-05-14 14:39:07.383,-12.402784392295024,35.345260633989,22.942475851942987,-1.4138225471362296e-08
2025-05-14 14:39:07.387,-14.72008426109066,14.691331595519438,-0.0287530549510499,-1.3810209948249917e-08
2025-05-14 14:39:07.391,-15.137046340394171,-19.9202095609649,-35.05725629043853,-1.3482968315491537e-08
2025-05-14 14:39:07.395,-6.66759819320326,-56.13206452677805,-62.79966310876701,-1.3156629793515605e-08
2025-05-14 14:39:07.399,7.097959978330384,-77.37143362309448,-70.27347403312567,-1.2831310456809574e-08
2025-05-14 14:39:07.403,16.681743897401425,-81.99808443595705,-65.31634092638191,-1.2507116399067061e-08
2025-05-14 14:39:07.407,18.99625998418384,-79.78538830302043,-60.78912870618764,-1.2184156129087476e-08
2025-05-14 14:39:07.411,18.42071200727731,-78.1894265121746,-59.768714891873415,-1.1862540475467462e-08
2025-05-14 14:39:07.415,18.909250042033733,-79.15742485060824,-60.248175195089246,-1.1542373218050626e-08
2025-05-14 14:39:07.418,20.63294410332417,-81.37135094117475,-60.73840722370854,-1.1223747771835325e-08
2025-05-14 14:39:07.422,22.148061851952512,-80.40811699375806,-58.26005552699132,-1.0906747087297264e-08
2025-05-14 14:39:07.426,22.36673956383041,-73.25474967908505,-50.88801049993236,-1.0591445807922758e-08
2025-05-14 14:39:07.430,21.632125095684717,-64.8372145842958,-43.20508987279615,-1.027791843938207e-08
2025-05-14 14:39:07.434,21.610476767078943,-62.56094761227223,-40.950471228657634,-9.966237424299116e-09
2025-05-14 14:39:07.438,22.919537855004027,-63.9661423798626,-41.04660490746919,-9.656458846138888e-09
2025-05-14 14:39:07.442,23.91481173747467,-59.48908803409213,-35.57427667853646,-9.348624531919422e-09
2025-05-14 14:39:07.446,23.415099598853864,-48.269907685535074,-24.854808468049768,-9.042781119180246e-09
2025-05-14 14:39:07.450,22.827472013282147,-40.491614107520135,-17.664142474871483,-8.738991974351552e-09
2025-05-14 14:39:07.454,23.646770361638232,-41.96648732744716,-18.31971734545718,-8.43733984988989e-09
2025-05-14 14:39:07.458,24.81542148197641,-46.57678097333677,-21.76135987010641,-8.137914734126035e-09
2025-05-14 14:39:07.461,24.722239660259905,-47.33077938937062,-22.608540107196557,-7.840784239266551e-09
2025-05-14 14:39:07.465,24.0549752156402,-46.17843281328874,-22.12345797500319,-7.54598300908709e-09
2025-05-14 14:39:07.469,24.41203486160853,-48.11683977998173,-23.704805294676916,-7.253538559714682e-09
2025-05-14 14:39:07.473,25.44765081729295,-52.00196518028859,-26.554314738196307,-6.963495734542571e-09
2025-05-14 14:39:07.477,25.647928499362635,-53.04610854797964,-27.39818042299162,-6.675912884004271e-09
2025-05-14 14:39:07.481,25.08721104764628,-51.04829774452991,-25.961087070510416,-6.390842348198751e-09
2025-05-14 14:39:07.485,25.212237414203965,-50.61456988483358,-25.402332843195627,-6.108318517825078e-09
2025-05-14 14:39:07.489,26.155907903309725,-53.91559412853662,-27.75968659653285,-5.828369987762961e-09
2025-05-14 14:39:07.493,26.378115011416167,-57.26752555620679,-30.889410915068467,-5.551041415020651e-09
2025-05-14 14:39:07.497,25.312223698584518,-56.07160770485289,-30.75938437573287,-5.276391527339938e-09
2025-05-14 14:39:07.501,24.433623841862516,-51.602452291415496,-27.1688288179746,-5.004474805942539e-09
2025-05-14 14:39:07.504,24.894894296789342,-50.8331016288814,-25.93820769915996,-4.7353387694451885e-09
2025-05-14 14:39:07.508,25.788099611713506,-56.818858005959925,-31.03075876008161,-4.469030939083923e-09
2025-05-14 14:39:07.512,25.78448206780785,-58.87226921200738,-33.08778750909876,-4.205595440802477e-09
2025-05-14 14:39:07.516,25.03338126423925,-38.65322111711663,-13.619840216743594,-3.945062353284541e-09
2025-05-14 14:39:07.520,24.361200179286456,7.319170558001144,31.68037037480868,-3.6874409838084227e-09
2025-05-14 14:39:07.524,23.868866505304812,56.06566477718753,79.93453092141834,-3.43272742282981e-09
2025-05-14 14:39:07.528,23.380248729819797,79.24878442544204,102.62903279528818,-3.1809237070264305e-09
2025-05-14 14:39:07.532,23.25095185283622,73.24990035393782,96.500851847861,-2.93204125015392e-09
2025-05-14 14:39:07.536,23.751986364540997,57.466872251073866,81.21885825808755,-2.6860762999104994e-09
2025-05-14 14:39:07.540,24.338607322542163,46.93100927863485,71.26961624517361,-2.4429883137681772e-09
2025-05-14 14:39:07.543,24.36130062227601,40.66552117657525,65.02682144412384,-2.202707847076979e-09
2025-05-14 14:39:07.547,24.10658210494011,33.850330572531455,57.95691232388077,-1.9651616954840773e-09
2025-05-14 14:39:07.551,24.36373572411588,26.38070303775928,50.74443840966784,-1.730290021700466e-09
2025-05-14 14:39:07.555,25.13419082642529,19.29817488582478,44.43236536163609,-1.498044513444443e-09
2025-05-14 14:39:07.559,25.62394688231513,12.73863476640525,38.36258129954022,-1.2683829374217132e-09
2025-05-14 14:39:07.563,25.534092459349328,7.289965385016044,32.82405749643506,-1.0412794601756795e-09
2025-05-14 14:39:07.567,25.4089986765044,2.4825192850838693,27.891517615062767,-8.167332847305987e-10
2025-05-14 14:39:07.571,25.63520178773827,-3.73860946342522,21.896591979418005,-5.947487081349095e-10
2025-05-14 14:39:07.575,26.151435607566093,-11.485538483238384,14.665896780986571,-3.7530465880807266e-10
2025-05-14 14:39:07.579,27.07749937831229,-19.33759197071208,7.739907065633341,-1.5835054855914794e-10
2025-05-14 14:39:07.583,28.359724401968773,-30.36934921652108,-2.009625155062343,5.617508267964761e-11
2025-05-14 14:39:07.586,29.05805614303352,-50.28597202922228,-21.227916225039536,2.6833510646659907e-10
2025-05-14 14:39:07.590,28.517434009490035,-75.2570343328804,-46.73960066060558,4.781960599235533e-10
2025-05-14 14:39:07.594,27.884370301790412,-91.0562507628945,-63.17188079683381,6.858215326022213e-10
2025-05-14 14:39:07.598,28.82857037881088,-91.01798293261707,-62.18941288800482,8.912671634003218e-10
2025-05-14 14:39:07.602,31.120805522021925,-85.35950953020547,-54.23870434068197,1.0945906667957136e-09
2025-05-14 14:39:07.606,32.91728138543641,-85.96147638124037,-53.04419532660842,1.2958500055091106e-09
2025-05-14 14:39:07.610,33.15273781391933,-91.39247461884592,-58.23973713416221,1.495086093250322e-09
2025-05-14 14:39:07.614,32.60062275021252,-93.14590100387412,-60.54527858128988,1.6923261530727062e-09
2025-05-14 14:39:07.618,32.66460375049311,-87.85839408584934,-55.19379066122425,1.887598773322069e-09
2025-05-14 14:39:07.622,33.7731150864602,-78.32056112057012,-44.54744635822658,2.080926162631385e-09
2025-05-14 14:39:07.626,35.1313102225369,-70.34921153824959,-35.21790163820363,2.272311445098808e-09
2025-05-14 14:39:07.629,35.68864190039366,-70.4751578952843,-34.78651631571762,2.461743391959986e-09
2025-05-14 14:39:07.633,35.237038091610884,-77.26344513736606,-42.02640736475482,2.649201302988713e-09
2025-05-14 14:39:07.637,35.110239230496674,-77.48944872655996,-42.379209813239896,2.834658011711149e-09
2025-05-14 14:39:07.641,37.13067010433978,-64.24649999183528,-27.115830202997124,3.018093891125712e-09
2025-05-14 14:39:07.645,39.87413270492951,-52.37396716565889,-12.49983477453821,3.199504198838013e-09
2025-05-14 14:39:07.649,37.849864227935214,-59.269166576213856,-21.419302660209297,3.378883001565927e-09
2025-05-14 14:39:07.653,29.200928307266032,-79.53231632839126,-50.33138833115036,3.5562041708245543e-09
2025-05-14 14:39:07.657,21.65870595632885,-95.11404971787566,-73.45534406983572,3.7314227601356454e-09
2025-05-14 14:39:07.661,23.781085452708684,-99.79401317714428,-76.01292803102038,3.9044913944881664e-09
2025-05-14 14:39:07.665,33.351083815749675,-100.23099451327792,-66.87991100221933,4.075370899493846e-09
2025-05-14 14:39:07.668,41.53459885131548,-102.7077334405093,-61.17313489190858,4.2440255292429494e-09
2025-05-14 14:39:07.672,44.34104716015646,-107.56523543241396,-63.22418857315586,4.410415601491606e-09
2025-05-14 14:39:07.676,44.09231955470496,-111.04296591758585,-66.95064666205856,4.574495726625112e-09
2025-05-14 14:39:07.680,43.955133970470094,-110.08925089563166,-66.13411722246416,4.736210768411224e-09
2025-05-14 14:39:07.684,45.19317949236984,-107.07030491208424,-61.87712571500421,4.8955010047474975e-09
2025-05-14 14:39:07.688,46.99935824479656,-106.87157259412116,-59.872214642708926,5.05232310918166e-09
2025-05-14 14:39:07.692,47.55128310539532,-109.2653795922488,-61.71409677847309,5.206652882431008e-09
2025-05-14 14:39:07.696,46.74030873120367,-109.56162250678756,-62.82131406535747,5.358466772319813e-09
2025-05-14 14:39:07.700,46.85568797788583,-106.51860333354443,-59.66291564342746,5.507741122547787e-09
2025-05-14 14:39:07.704,49.08890092897295,-103.75474241586164,-54.6658417726792,5.654457990455526e-09
2025-05-14 14:39:07.708,51.444404905829934,-103.26527896790992,-51.82087434603135,5.798592056434745e-09
2025-05-14 14:39:07.711,51.94927105330269,-102.05243933703969,-50.1031685658543,5.940108334728765e-09
2025-05-14 14:39:07.715,51.730920464517794,-95.80401187533803,-44.07309169097751,6.0789776783175445e-09
2025-05-14 14:39:07.719,52.70693772848934,-84.61200928491735,-31.905071834576997,6.215170124207043e-09
2025-05-14 14:39:07.723,54.11950245459309,-75.15896635402254,-21.039464175654796,6.348633793201065e-09
2025-05-14 14:39:07.727,54.03900660867919,-75.24465238947471,-21.205646055164188,6.479302519589938e-09
2025-05-14 14:39:07.731,53.06617388205765,-83.8762938019463,-30.81012019235443,6.6071160440232965e-09
2025-05-14 14:39:07.735,53.48657890782224,-90.14374505449136,-36.65716641714994,6.732006053116568e-09
2025-05-14 14:39:07.739,55.19353359470399,-85.75698573131936,-30.563452405105394,6.853872294053925e-09
2025-05-14 14:39:07.743,55.69419926209088,-75.3331728037073,-19.63897380818954,6.972605828567055e-09
2025-05-14 14:39:07.747,54.47517678068117,-70.5336567347868,-16.058480218813656,7.088130714599691e-09
2025-05-14 14:39:07.751,54.05016338646456,-77.20114935454885,-23.15098623087396,7.200396130935443e-09
2025-05-14 14:39:07.754,55.61832617036699,-90.48338197568204,-34.86505606609248,7.309339334164285e-09
2025-05-14 14:39:07.758,56.86411883629228,-99.11692631978774,-42.25280774227755,7.414878802781711e-09
2025-05-14 14:39:07.762,55.79871262448529,-93.8428034088149,-38.04409104124203,7.516930362372182e-09
2025-05-14 14:39:07.766,54.014282413601926,-75.91910340419739,-21.90482124567245,7.615418441251198e-09
2025-05-14 14:39:07.770,53.89713495565103,-58.28905730273134,-4.391922600184306,7.710283327878372e-09
2025-05-14 14:39:07.774,54.76089110654561,-54.90400464007448,-0.1431137845730643,7.801479501381376e-09
2025-05-14 14:39:07.778,54.37712299439933,-67.99137333207727,-13.614250586801516,7.888962318363676e-09
2025-05-14 14:39:07.782,53.02201356930571,-87.61218836130378,-34.590175039351955,7.972681882443862e-09
2025-05-14 14:39:07.786,53.03856647103118,-102.41653941432052,-49.37797318876342,8.05259447880807e-09
2025-05-14 14:39:07.790,54.76524026252253,-108.2465762489224,-53.48133622979674,8.128679158583639e-09
2025-05-14 14:39:07.793,56.03295372216147,-108.356102414178,-52.32314893341388,8.200940429027762e-09
2025-05-14 14:39:07.797,56.08881877200575,-108.72468591642844,-52.63586738407065,8.26939163895668e-09
2025-05-14 14:39:07.801,56.80622452249403,-112.11513000797198,-55.30890572336392,8.33403753309348e-09
2025-05-14 14:39:07.805,58.98479959899164,-115.0087365754668,-56.023937212329926,8.394872985263277e-09
2025-05-14 14:39:07.809,60.46989378149963,-111.81216779056132,-51.34227424284162,8.451882570213571e-09
2025-05-14 14:39:07.813,59.35468168010621,-101.6922432605608,-42.33756181245043,8.505029462870764e-09
2025-05-14 14:39:07.817,56.72810049807523,-88.69481853578924,-31.96671826805332,8.554263142296624e-09
2025-05-14 14:39:07.821,55.23341086008895,-77.35598653443647,-22.12257590276157,8.599549170510147e-09
2025-05-14 14:39:07.825,56.23180050377423,-70.49393142109227,-14.262131143620152,8.640868649796073e-09
2025-05-14 14:39:07.829,57.67881952857773,-64.91095914487491,-7.232139840739309,8.678180377022125e-09
2025-05-14 14:39:07.833,54.302350063715664,-47.099843596748286,7.202506244119483,8.711403885190108e-09
2025-05-14 14:39:07.836,43.729062159495584,-5.440731228528483,38.288330709902425,8.740443045513098e-09
2025-05-14 14:39:07.840,32.81949573383827,49.190703229158046,82.01019874401854,8.765214041130568e-09
2025-05-14 14:39:07.844,31.01555967149335,88.86864375899354,119.88420321345448,8.78565379579266e-09
2025-05-14 14:39:07.848,37.25711215358714,97.89014054737645,135.14725248551983,8.801710225777703e-09
2025-05-14 14:39:07.852,42.06157958084424,84.12452148659236,126.1861008536335,8.813325802538097e-09
2025-05-14 14:39:07.856,41.31846826263643,63.62139042882594,104.9398584796574,8.820438454823536e-09
2025-05-14 14:39:07.860,38.762839958317,47.89371011559543,86.65654986411383,8.823004296696612e-09
2025-05-14 14:39:07.864,36.99377906154926,40.79962793781917,77.79340679120418,8.821007075290508e-09
2025-05-14 14:39:07.868,34.73766101479089,33.20725174439492,67.9449125525554,8.814438889420576e-09
2025-05-14 14:39:07.872,31.81396703664781,7.597739718098024,39.4117065499827,8.803282660512492e-09
2025-05-14 14:39:07.876,30.8777625839261,-38.67173778608431,-7.793975404902023,8.787511988750556e-09
2025-05-14 14:39:07.879,33.92485488387181,-83.68262965451939,-49.7577749716837,8.767096378791214e-09
2025-05-14 14:39:07.883,39.42385877541092,-105.75729862421213,-66.33344004835584,8.742013082060748e-09
2025-05-14 14:39:07.887,43.66830357761563,-106.3967223670699,-62.72841898728603,8.712258378215372e-09
2025-05-14 14:39:07.891,44.711091689207,-100.14321064226202,-55.43211914891365,8.677832010952165e-09
2025-05-14 14:39:07.895,44.25470995849598,-96.83646820062788,-52.5817584362128,8.638712042390624e-09
2025-05-14 14:39:07.899,45.24669228197217,-100.96758624558092,-55.72089415620189,8.594864888253308e-09
2025-05-14 14:39:07.903,48.262341578492816,-110.48664953482212,-62.2243081473234,8.546272301044463e-09
2025-05-14 14:39:07.907,51.1740070241462,-109.47837751132448,-58.30437067629612,8.492922318945171e-09
2025-05-14 14:39:07.911,52.34098768957657,-82.05692379395464,-29.715936291680773,8.434777574428781e-09
2025-05-14 14:39:07.915,52.810599317532,-39.168748705370426,13.641850426395514,8.371774594680259e-09
2025-05-14 14:39:07.918,54.400144176113,-10.016814132727577,44.38332985914138,8.303852654451834e-09
2025-05-14 14:39:07.922,56.73023979921637,-3.9935369075400575,52.736702709186034,8.230972815505984e-09
2025-05-14 14:39:07.926,57.51827603460203,-3.4697462878576104,54.04852956605504,8.153118890892361e-09
2025-05-14 14:39:07.930,55.01146357599464,6.168864374639121,61.18032777153993,8.070292569540139e-09
2025-05-14 14:39:07.934,49.14335345099352,21.67951402998049,70.82286730337844,7.982502499393436e-09
2025-05-14 14:39:07.938,41.08322222243043,36.693262505597446,77.77648455206997,7.889752692969127e-09
2025-05-14 14:39:07.942,32.39686879189188,52.54326484653062,84.94013346420004,7.792048759019183e-09
2025-05-14 14:39:07.946,24.287575405304413,71.58818131648181,95.87575654919324,7.689414660528438e-09
2025-05-14 14:39:07.950,17.230431385385543,90.58884569166472,107.8192769059698,7.581889050438657e-09
2025-05-14 14:39:07.954,10.99176794535149,104.13640772811536,115.12817550394024,7.469502657646217e-09
2025-05-14 14:39:07.958,4.926166856751256,110.7630006519664,115.68916734083132,7.352272486765979e-09
2025-05-14 14:39:07.961,-1.049511866685645,115.56689363584168,114.5173816028884,7.230221175533493e-09
2025-05-14 14:39:07.965,-5.7032561572936284,128.05420612916964,122.35094980714426,7.1033871528696485e-09
2025-05-14 14:39:07.969,-7.880431927470704,152.22028103040805,144.33984893971717,6.9718107170725475e-09
2025-05-14 14:39:07.973,-8.721271360538369,176.0483887099167,167.3271171877057,6.835522983730682e-09
2025-05-14 14:39:07.977,-10.786172656027876,180.2564511857216,169.47027836958853,6.694551880211134e-09
2025-05-14 14:39:07.981,-14.411566986843503,162.5548441110219,148.14327696561497,6.548930167657616e-09
2025-05-14 14:39:07.985,-16.822675265075983,142.2152668366439,125.39259141450609,6.3987005476925114e-09
2025-05-14 14:39:07.989,-16.20492064962031,135.89067270582666,119.68575190062924,6.2439262693001586e-09
2025-05-14 14:39:07.993,-14.77636760614244,140.46282645151354,125.6864586912946,6.0846989555385925e-09
2025-05-14 14:39:07.997,-15.511269397114033,142.5651720606205,127.05390251094764,5.921127603008204e-09
2025-05-14 14:39:08.001,-17.4911203229671,134.24338246088865,116.75226198685822,5.7533161133450464e-09
2025-05-14 14:39:08.004,-17.613385827456312,118.26324057257712,100.64985459550576,5.5813538501478204e-09
2025-05-14 14:39:08.008,-15.633045080779072,105.80233045221496,90.169285223257,5.405326591289223e-09
2025-05-14 14:39:08.012,-14.21249604972631,106.92298053777716,92.71048434134016,5.2253292966614324e-09
2025-05-14 14:39:08.016,-14.902404987725571,118.21912913064472,103.31672399768368,5.041466264455209e-09
2025-05-14 14:39:08.020,-16.99662912647029,125.43026122525166,108.43363195496954,4.853842320357366e-09
2025-05-14 14:39:08.024,-19.610016069700528,122.05892951549583,102.44891330336498,4.662554655025842e-09
2025-05-14 14:39:08.028,-22.47661434005933,115.69668801218036,93.22007353109672,4.467695905707942e-09
2025-05-14 14:39:08.032,-25.121696518349104,110.74312936129772,85.62143270336239,4.269367079107024e-09
2025-05-14 14:39:08.036,-26.874119271518804,97.4780251252595,70.60390571555466,4.067685732101782e-09
2025-05-14 14:39:08.040,-27.55078709185852,67.12958568283025,39.57879845412232,3.862786528251802e-09
2025-05-14 14:39:08.043,-27.513531975633157,27.104379221865333,-0.409152889277637,3.654819944162887e-09
2025-05-14 14:39:08.047,-27.40613048043041,-7.181120702124215,-34.58725131668122,3.443946160854715e-09
2025-05-14 14:39:08.051,-27.895879672067647,-27.44801850818975,-55.34389831301708,3.230326412681132e-09
2025-05-14 14:39:08.055,-29.05061440154096,-36.285632026558034,-65.33624655956204,3.0141231870570823e-09
2025-05-14 14:39:08.059,-30.093683461060923,-43.72567542182348,-73.81935901307293,2.795506943855408e-09
2025-05-14 14:39:08.063,-30.57331829673899,-55.095644932255006,-85.6689633578682,2.5746605296007947e-09
2025-05-14 14:39:08.067,-31.43236419682144,-53.29044240377232,-84.72280672815012,2.3517780057626957e-09
2025-05-14 14:39:08.071,-33.6254466486225,-12.57311506860254,-46.19856184352845,2.127048459068137e-09
2025-05-14 14:39:08.075,-35.9384268560908,52.558344961596575,16.61991798041214,1.900631563210972e-09
2025-05-14 14:39:08.079,-35.90698079240345,82.88065240135316,46.9736714850921,1.6726548237612862e-09
2025-05-14 14:39:08.083,-33.06311736562664,45.99021755282695,12.92710006459513,1.4432342260983086e-09
2025-05-14 14:39:08.086,-29.776437791110872,-19.296170139238463,-49.07260805175521,1.2124911953067867e-09
2025-05-14 14:39:08.090,-28.47952859207963,-55.782021424281794,-84.26155013662357,9.805546305620788e-10
2025-05-14 14:39:08.094,-29.04651505889899,-53.10407237334857,-82.15058755135615,7.475524914479145e-10
2025-05-14 14:39:08.098,-29.450001236507426,-39.21162077813294,-68.66162213257465,5.13608785709146e-10
2025-05-14 14:39:08.102,-28.388655348925862,-36.5180801117786,-64.90673557750534,2.788633670243031e-10
2025-05-14 14:39:08.106,-26.3657570388712,-45.425290847297845,-71.79104800189647,4.3490326261464926e-11
2025-05-14 14:39:08.110,-24.46466675319981,-52.51892297465615,-76.98358984251405,-1.9232569813670287e-10
2025-05-14 14:39:08.114,-23.30117597075154,-44.03485759628292,-67.33603368060324,-4.284323877998631e-10
2025-05-14 14:39:08.118,-23.156936136863,-21.909350988265604,-45.06628723763895,-6.647089405957002e-10
2025-05-14 14:39:08.122,-23.918697300822654,-6.60740956033494,-30.52610697266969,-9.010245203281667e-10
2025-05-14 14:39:08.126,-24.836867284220933,-13.235585712484308,-38.07245310723552,-1.137220150357767e-09
2025-05-14 14:39:08.129,-25.10654579443641,-31.635633672763284,-56.74217957673249,-1.3731290606001763e-09
2025-05-14 14:39:08.133,-24.498277099025685,-42.9287857715326,-67.42706297911647,-1.6085978736395776e-09
2025-05-14 14:39:08.137,-23.201416628650925,-44.280215017846274,-67.48163175413993,-1.8434962776982654e-09
2025-05-14 14:39:08.141,-21.55273125597996,-42.16488707477083,-63.71761843750607,-2.0777177516021296e-09
2025-05-14 14:39:08.145,-19.90770209663176,-34.61847808075081,-54.526180283239896,-2.311163578265717e-09
2025-05-14 14:39:08.149,-18.38656584297025,-17.30911251296314,-35.69567846090672,-2.5437228730928963e-09
2025-05-14 14:39:08.153,-16.91850540208649,3.3651845078029896,-13.553320998428656,-2.7752735047152156e-09
2025-05-14 14:39:08.157,-15.617836736893809,17.54108330291563,1.9232464626643704,-3.005692915669262e-09
2025-05-14 14:39:08.161,-14.79461531045768,23.94023186402258,9.145616450997595,-3.2348507229237147e-09
2025-05-14 14:39:08.165,-14.585770887662768,25.150817718910403,10.56504672946602,-3.462596002123547e-09
2025-05-14 14:39:08.168,-14.785268627013933,20.02840580252959,5.243137074471076,-3.6887667746222718e-09
2025-05-14 14:39:08.172,-15.071461909939163,9.745372290432536,-5.326089719866364,-3.913208534413549e-09
2025-05-14 14:39:08.176,-15.358598277043416,3.772058049225975,-11.58654032750238,-4.135777717928383e-09
2025-05-14 14:39:08.180,-15.81958541257918,10.067838368342038,-5.7517471432449625,-4.356337331583481e-09
2025-05-14 14:39:08.184,-16.507161211239897,23.23422144890497,6.727060139297443,-4.574761486834287e-09
2025-05-14 14:39:08.188,-17.113656293958705,31.81239824556537,14.698741853820572,-4.790941744092291e-09
2025-05-14 14:39:08.192,-17.257045055660036,35.49084248700965,18.23379733411956,-5.004776775267057e-09
2025-05-14 14:39:08.196,-17.01020538765475,44.44235083780203,27.432145353476237,-5.216154006398212e-09
2025-05-14 14:39:08.200,-17.035156612584984,60.92515592801888,43.88999921929843,-5.424950793304579e-09
2025-05-14 14:39:08.204,-17.884916511704148,73.44765188639721,55.562735279035785,-5.631055363023682e-09
2025-05-14 14:39:08.208,-19.088234651930563,73.71015196718238,54.62191722003328,-5.834381427459141e-09
2025-05-14 14:39:08.211,-19.438860291465296,69.176726708324,49.73786632207582,-6.03486204022996e-09
2025-05-14 14:39:08.215,-18.427311656007028,72.06304123120479,53.635729480837625,-6.2324327746678525e-09
2025-05-14 14:39:08.219,-16.879299402269098,82.0477475975758,65.16844810131997,-6.4270224901148955e-09
2025-05-14 14:39:08.223,-16.06782217686883,85.50191972702018,69.43409745649049,-6.618559128029614e-09
2025-05-14 14:39:08.227,-16.64672205158368,69.18513328864022,52.53841114370816,-6.806982958176876e-09
2025-05-14 14:39:08.231,-18.25240853521368,33.0471081451649,14.794699516907102,-6.992252273488857e-09
2025-05-14 14:39:08.235,-19.672307755625177,-8.109409950521737,-27.78171779892549,-7.1743365193343145e-09
2025-05-14 14:39:08.239,-19.858819599846505,-35.978415189772186,-55.83723488218181,-7.353210943555138e-09
2025-05-14 14:39:08.243,-19.267756708350447,-44.01007081787238,-63.27782761859488,-7.528860761337958e-09
2025-05-14 14:39:08.247,-19.55421571955025,-40.7727957198271,-60.32701153156661,-7.701283853402646e-09
2025-05-14 14:39:08.251,-21.426641318628263,-38.13514026724685,-59.56178167791046,-7.8704854560196e-09
2025-05-14 14:39:08.254,-23.5819576574136,-39.47656943990916,-63.05852718925273,-8.036466159576715e-09
2025-05-14 14:39:08.258,-24.475876859915942,-40.74783031199938,-65.22370726377349,-8.199210825014544e-09
2025-05-14 14:39:08.262,-24.46191922918012,-39.40240359661662,-63.86432291759464,-8.358693065598907e-09
2025-05-14 14:39:08.266,-25.187862563652573,-38.282433165608026,-63.47029582101973,-8.514887976866105e-09
2025-05-14 14:39:08.270,-27.144453056048608,-39.90661382247538,-67.05106697028914,-8.667771426110181e-09
2025-05-14 14:39:08.274,-28.95534218405292,-39.69539804400688,-68.65074031986995,-8.81730999911595e-09
2025-05-14 14:39:08.278,-29.3775332194718,-29.57545297391145,-58.95298628525359,-8.963459268182287e-09
2025-05-14 14:39:08.282,-28.932562207276373,-9.233096351747085,-38.16565865097139,-9.106171659179981e-09
2025-05-14 14:39:08.286,-28.931798565969554,11.116820294672682,-17.814978363364176,-9.245404373836951e-09
2025-05-14 14:39:08.290,-29.810417153944865,21.63438249348519,-8.17603475268923,-9.381121844747912e-09
2025-05-14 14:39:08.293,-31.0438826426679,22.703296793920817,-8.340585941156606,-9.513291548336788e-09
2025-05-14 14:39:08.297,-31.8773996677788,22.81590442690693,-9.06149533347445,-9.641877064849857e-09
2025-05-14 14:39:08.301,-31.76772997426145,30.93559364045601,-0.8321364266408091,-9.766836515910976e-09
2025-05-14 14:39:08.305,-30.927502077245077,50.70991667967622,19.782414509314567,-9.888122883158303e-09
2025-05-14 14:39:08.309,-30.47074254276312,77.60161396128589,47.1308713251054,-1.0005676888263052e-08
2025-05-14 14:39:08.313,-31.16103123817064,102.74875397553724,71.58772264364313,-1.0119424506584994e-08
2025-05-14 14:39:08.317,-32.3109166799525,121.28596131180508,88.97504453778703,-1.0229291820481186e-08
2025-05-14 14:39:08.321,-32.80284164647889,131.03661640819894,98.23377466725564,-1.0335217047447241e-08
2025-05-14 14:39:08.325,-32.54974515296548,123.78559812070326,91.23585287284963,-1.04371424283221e-08
2025-05-14 14:39:08.329,-31.995777656736337,91.533595576124,59.5378178240803,-1.0535001289986569e-08
2025-05-14 14:39:08.333,-30.91523890546901,43.80961146994203,12.89437246871929,-1.0628713297035378e-08
2025-05-14 14:39:08.336,-28.318655692607717,3.53276869575305,-24.78588709312093,-1.071818832270657e-08
2025-05-14 14:39:08.340,-22.86154098376981,-18.20587812890119,-41.06741920948701,-1.0803341235587691e-08
2025-05-14 14:39:08.344,-14.150768411656063,-30.10835693533968,-44.259125444347845,-1.0884104537639913e-08
2025-05-14 14:39:08.348,-5.366721526033054,-41.440260988978906,-46.80698261290872,-1.0960423416580994e-08
2025-05-14 14:39:08.352,-2.476592797587712,-47.53519656621097,-50.01178946231096,-1.1032244223524022e-08
2025-05-14 14:39:08.356,-7.480734797849326,-38.084551502999,-45.56528640003428,-1.1099506772530852e-08
2025-05-14 14:39:08.360,-14.860016871171608,-11.759661025177678,-26.619677996192035,-1.1162142721837664e-08
2025-05-14 14:39:08.364,-18.567134356277798,20.18600966956144,1.6188752128041743,-1.1220087691376277e-08
2025-05-14 14:39:08.368,-19.43406060213993,41.95565775952424,22.521597056204584,-1.1273289789884844e-08
2025-05-14 14:39:08.372,-21.47279553597652,46.688051102415,25.21525546447408,-1.1321692630141006e-08
2025-05-14 14:39:08.376,-24.09610339163376,43.18424841218041,19.08814491780428,-1.1365220801632205e-08
2025-05-14 14:39:08.379,-22.309210831316687,44.65886700078637,22.349656066001284,-1.1403796615428591e-08
2025-05-14 14:39:08.383,-12.83617634370058,52.73175806044484,39.89558161251132,-1.1437360087946234e-08
2025-05-14 14:39:08.387,1.925327248637238,60.44812871836486,62.37345586189723,-1.1465865503721489e-08
2025-05-14 14:39:08.391,14.40650292378009,66.29319593701499,80.69969875479705,-1.1489275740310177e-08
2025-05-14 14:39:08.395,17.232035581242513,73.25178446765517,90.48381994208182,-1.1507566769726566e-08
2025-05-14 14:39:08.399,11.37785951847933,77.94897760445306,89.32683701530257,-1.1520723258534401e-08
2025-05-14 14:39:08.403,6.848317127815496,73.32213233563377,80.17044935489099,-1.1528728269254236e-08
2025-05-14 14:39:08.407,11.287129400367215,60.643415228531325,71.93054451935085,-1.1531566124249178e-08
2025-05-14 14:39:08.411,21.27978747419112,50.39733388738894,71.67712125112125,-1.152922885349174e-08
2025-05-14 14:39:08.415,28.83897294275892,52.31710694678997,81.15607977823045,-1.1521713098033416e-08
2025-05-14 14:39:08.418,31.65911737404268,67.35426439660773,99.01338165837385,-1.1509017482469672e-08
2025-05-14 14:39:08.422,32.743262270010845,86.34617597414817,119.0894381308261,-1.1491148482543972e-08
2025-05-14 14:39:08.426,34.72721618897545,96.93482401847022,131.66204009311474,-1.1468126737692008e-08
2025-05-14 14:39:08.430,38.47373165896333,94.73812912066316,133.21186066438574,-1.1439982241788865e-08
2025-05-14 14:39:08.434,43.46156120469582,85.3147856000492,128.77634668853216,-1.1406745247910864e-08
2025-05-14 14:39:08.438,46.900304408348994,75.38131780005789,122.28162209110732,-1.1368450639066704e-08
2025-05-14 14:39:08.442,45.84900649443424,67.65600920655194,113.50501558262772,-1.1325143231447881e-08
2025-05-14 14:39:08.446,41.54724118503337,63.0606268470341,104.60786791275066,-1.1276862173953791e-08
2025-05-14 14:39:08.450,37.329106089311054,62.57135600496335,99.90046197397388,-1.1223628083029532e-08
2025-05-14 14:39:08.454,31.559883118159902,66.57247833543931,98.1323613322065,-1.1165459706143042e-08
2025-05-14 14:39:08.458,18.81827774789381,71.56916751113823,90.38744513654864,-1.1102390700783173e-08
2025-05-14 14:39:08.461,-0.3862549753986886,67.96820492008581,67.58194982120477,-1.1034458311329843e-08
2025-05-14 14:39:08.465,-17.304925598661875,48.627737220064176,31.32281149692041,-1.0961691848569672e-08
2025-05-14 14:39:08.469,-23.988096137545227,19.906808491129304,-4.081287771987823,-1.0884123141978704e-08
2025-05-14 14:39:08.473,-20.215912945670283,-4.80239395567547,-25.01830702801856,-1.0801794266675224e-08
2025-05-14 14:39:08.477,-12.07452542813305,-19.845967076966225,-31.920492632795217,-1.0714746723316816e-08
2025-05-14 14:39:08.481,-7.348031809787268,-27.475699622180773,-34.823731560678496,-1.0623008909407288e-08
2025-05-14 14:39:08.485,-9.976636372418696,-30.045907255269064,-40.0225437574889,-1.0526592819054884e-08
2025-05-14 14:39:08.489,-16.346366113118634,-29.450809605680185,-45.79717584970189,-1.0425501837502941e-08
2025-05-14 14:39:08.493,-19.878407792451423,-28.02474072521508,-47.90314864959888,-1.0319752301969306e-08
2025-05-14 14:39:08.497,-19.441329626816604,-26.26156381715195,-45.7028935769207,-1.0209388937842236e-08
2025-05-14 14:39:08.501,-19.315862100948657,-23.87358289819989,-43.1894451331957,-1.0094469180281951e-08
2025-05-14 14:39:08.504,-22.246546998274813,-22.056157835419437,-44.30270496884668,-9.975034157036711e-09
2025-05-14 14:39:08.508,-26.912553507710488,-21.198031209456232,-48.11058485334313,-9.851106196820122e-09
2025-05-14 14:39:08.512,-31.12542180086221,-19.69114357115358,-50.816565509200096,-9.722714711940528e-09
2025-05-14 14:39:08.516,-34.32471532974009,-17.673730101390362,-51.99844556940772,-9.589917144003461e-09
2025-05-14 14:39:08.520,-37.21701258096557,-17.687412582830287,-54.90442530318488,-9.452799103173241e-09
2025-05-14 14:39:08.524,-40.23482042680566,-19.61102845118264,-59.84584901839027,-9.311461556329964e-09
2025-05-14 14:39:08.528,-42.6561785333363,-19.719842527048336,-62.37602120176193,-9.16600436089314e-09
2025-05-14 14:39:08.532,-43.57084793532255,-16.847472327961285,-60.41832040573386,-9.016518901528136e-09
2025-05-14 14:39:08.536,-43.36266677706527,-14.785361810357047,-58.14802873099001,-8.863092190954357e-09
2025-05-14 14:39:08.540,-43.27195917281807,-16.193845690954923,-59.4658050083475,-8.705809585375547e-09
2025-05-14 14:39:08.543,-43.67199207349599,-18.22690538973972,-61.89889760874174,-8.544757988327059e-09
2025-05-14 14:39:08.547,-43.74340243460904,-16.70056176249232,-60.44396434363812,-8.380034595776231e-09
2025-05-14 14:39:08.551,-43.00288784793567,-11.565939909568154,-54.56882790515733,-8.211746993526428e-09
2025-05-14 14:39:08.555,-42.40156863636092,-6.250930222442363,-48.652499007467895,-8.040001926045307e-09
2025-05-14 14:39:08.559,-43.22427964792167,-3.769279755391116,-46.99355955286539,-7.864899102234662e-09
2025-05-14 14:39:08.563,-45.18654327725585,-4.8610791337111605,-50.04762256148646,-7.686534212298768e-09
2025-05-14 14:39:08.567,-46.56581821323972,-8.301972144251339,-54.86779050910848,-7.505002459334176e-09
2025-05-14 14:39:08.571,-46.34551504568453,-11.649072808244744,-57.99458800656984,-7.3203994857286855e-09
2025-05-14 14:39:08.575,-45.44068454725435,-12.469522279173498,-57.910206979924766,-7.132828677296191e-09
2025-05-14 14:39:08.579,-45.56903999952965,-10.416597387995749,-55.98563754191113,-6.942416235391949e-09
2025-05-14 14:39:08.583,-47.36296433354928,-8.267352269296603,-55.63031675828412,-6.749310522122393e-09
2025-05-14 14:39:08.586,-49.745965197275176,-9.24419971851571,-58.9901650722614,-6.5536598549480805e-09
2025-05-14 14:39:08.590,-51.08001496592993,-12.55470490365505,-63.63472002689707,-6.3556006949615594e-09
2025-05-14 14:39:08.594,-50.74046818097852,-13.335373586246924,-64.07584192534515,-6.1552654035892605e-09
2025-05-14 14:39:08.598,-49.26375847661278,-8.49973415611456,-57.763492791823325,-5.95278823061978e-09
2025-05-14 14:39:08.602,-47.54558681261315,-1.476490352439917,-49.02207732517218,-5.748311073692265e-09
2025-05-14 14:39:08.606,-46.79306942980545,1.3392344543002386,-45.45383513646634,-5.541994393586684e-09
2025-05-14 14:39:08.610,-48.29504589986838,-1.097515657598804,-49.39256171916821,-5.334010811214378e-09
2025-05-14 14:39:08.614,-51.74772393633069,-3.796622292035116,-55.544346390945606,-5.124523129675222e-09
2025-05-14 14:39:08.618,-54.290860484859394,-5.032606507404851,-59.32346715582781,-4.913682548875453e-09
2025-05-14 14:39:08.622,-52.33375248292774,-9.633856221205738,-61.96760886854214,-4.7016423579088035e-09
2025-05-14 14:39:08.626,-45.04583501023572,-17.73899323048215,-62.784828405819766,-4.488548744665303e-09
2025-05-14 14:39:08.629,-36.57471315050262,-17.02722040872381,-53.60193372510291,-4.274513238892648e-09
2025-05-14 14:39:08.633,-33.31805024021942,5.576891208557289,-27.74115919844981,-4.0596065049510605e-09
2025-05-14 14:39:08.637,-36.89084568990335,47.44764488401552,10.556799026491245,-3.843880039119874e-09
2025-05-14 14:39:08.641,-41.73485888997892,91.40461218940612,49.66975313114413,-3.6273830747046453e-09
2025-05-14 14:39:08.645,-42.22772292049108,121.7725591956459,79.544836106195,-3.410164522078852e-09
2025-05-14 14:39:08.649,-38.99674859025093,136.0118337555083,97.01508499548504,-3.1922799697103393e-09
2025-05-14 14:39:08.653,-35.01281972074911,139.70822077367936,104.69540088236263,-2.9737943592529503e-09
2025-05-14 14:39:08.657,-29.6187477936235,131.05490532667238,101.4361573618444,-2.754762051956129e-09
2025-05-14 14:39:08.661,-21.283094967973057,98.43852134035876,77.15542620058662,-2.53521802594029e-09
2025-05-14 14:39:08.665,-13.058995505866722,41.77935348676549,28.72035780839689,-2.315202243950916e-09
2025-05-14 14:39:08.668,-9.310899700442905,-14.128928346559157,-23.43982822023508,-2.094771819997618e-09
2025-05-14 14:39:08.672,-8.19621428764805,-43.30514247123904,-51.50135693272845,-1.873983460958736e-09
2025-05-14 14:39:08.676,-3.3798401623762677,-47.650609288038254,-51.03044962478675,-1.6528898365615791e-09
2025-05-14 14:39:08.680,6.303269249252992,-47.578776684348114,-41.27550761006407,-1.4315504492853271e-09
2025-05-14 14:39:08.684,13.66063841661142,-52.03458192860271,-38.373943687607024,-1.2100179872371155e-09
2025-05-14 14:39:08.688,10.24826265333843,-51.828436397695285,-41.58017392053884,-9.883211251051095e-10
2025-05-14 14:39:08.692,-5.697810527585,-38.07872545324211,-43.77653615748568,-7.664853932987023e-10
2025-05-14 14:39:08.696,-26.72154446938274,-16.834310291775118,-43.55585493831714,-5.44568137976853e-10
2025-05-14 14:39:08.700,-41.009423009323285,-2.9614928745729747,-43.97091606160828,-3.2266787946512434e-10
2025-05-14 14:39:08.704,-43.7946687181064,-1.892565513871285,-45.687234410198286,-1.0090873842474565e-10
2025-05-14 14:39:08.708,-41.8009370245516,-4.237302115252783,-46.03823931844725,1.2058977421154235e-10
2025-05-14 14:39:08.711,-41.41937224106523,-2.209719975243864,-43.62909239536626,3.4174633964089517e-10
2025-05-14 14:39:08.715,-39.57370042095469,-1.1190863162914484,-40.69278691676162,5.625260396930065e-10
2025-05-14 14:39:08.719,-33.2624312864085,-6.641399148844364,-39.90383061520923,7.829131141562796e-10
2025-05-14 14:39:08.723,-28.68289296766009,-11.907152382836912,-40.59004553081832,1.0028890869219715e-09
2025-05-14 14:39:08.727,-32.85019753437638,-7.4907654000198,-40.340963115052205,1.222448979163605e-09
2025-05-14 14:39:08.731,-43.35463993697271,3.540062943912292,-39.81457717408322,1.4416209189553863e-09
2025-05-14 14:39:08.735,-52.21014118380069,9.798119944592624,-42.41202142059943,1.6604498775860951e-09
2025-05-14 14:39:08.739,-55.485071026561016,8.275936904915472,-47.20913430334393,1.8789735499545382e-09
2025-05-14 14:39:08.743,-55.739343324031054,10.640318573606589,-45.09902493238356,2.097228655561062e-09
2025-05-14 14:39:08.747,-57.24327577028156,29.6588250460399,-27.584450906477336,2.3152683160655427e-09
2025-05-14 14:39:08.751,-61.19924587757801,59.83239960861484,-1.3668464514912566,2.53315739855793e-09
2025-05-14 14:39:08.754,-65.47008754416427,77.72455070053809,12.254462973595972,2.7509551492251252e-09
2025-05-14 14:39:08.758,-67.87548739488126,67.43229675219219,-0.443190825658541,2.968707228214713e-09
2025-05-14 14:39:08.762,-68.80092103304533,40.02501230448478,-28.77590891171489,3.18644724488196e-09
2025-05-14 14:39:08.766,-70.13939092486835,19.19443995962028,-50.9449511486108,3.4042028512868502e-09
2025-05-14 14:39:08.770,-72.50828734532928,13.99155811968676,-58.51672940919537,3.6219972608668082e-09
2025-05-14 14:39:08.774,-74.90247646807072,15.862802996157916,-59.03967365559343,3.839836275562464e-09
2025-05-14 14:39:08.778,-76.8819793911515,16.137382084587962,-60.74459749033842,4.057703770679224e-09
2025-05-14 14:39:08.782,-79.26312645582702,14.749835167540567,-64.51329147217703,4.275588141563275e-09
2025-05-14 14:39:08.786,-82.06495617031331,14.358767982668908,-67.70618837165793,4.493505726288736e-09
2025-05-14 14:39:08.790,-83.70224838525391,15.118924302358874,-68.58332426697636,4.7114877387862184e-09
2025-05-14 14:39:08.793,-83.51738248890265,16.01495439072695,-67.50242828226811,4.929560108352323e-09
2025-05-14 14:39:08.797,-83.24124533292505,16.721631884011973,-66.51961363302583,5.1477470326552844e-09
2025-05-14 14:39:08.801,-84.06730290173022,17.21516192683575,-66.85214115905347,5.366079636118019e-09
2025-05-14 14:39:08.805,-84.24813029214585,17.48329023282385,-66.76484024348738,5.5845948834040876e-09
2025-05-14 14:39:08.809,-82.25882571276846,17.86622875288353,-64.39259714398685,5.8033348386184555e-09
2025-05-14 14:39:08.813,-80.32438246889572,18.677431308777184,-61.64695134414982,6.0223378549390676e-09
2025-05-14 14:39:08.817,-81.15164766505147,19.51792923087764,-61.63371861816861,6.241617137476423e-09
2025-05-14 14:39:08.821,-82.99071681850876,19.769378482698546,-63.22133851974504,6.461159331733604e-09
2025-05-14 14:39:08.825,-82.43496733356274,19.827111647297173,-62.60785587006679,6.680944434633889e-09
2025-05-14 14:39:08.829,-80.52415503417359,20.762218066085325,-59.76193715173363,6.900946954301552e-09
2025-05-14 14:39:08.833,-80.92155510188755,22.130604461872583,-58.790950823539525,7.1211336760143655e-09
2025-05-14 14:39:08.836,-83.182911815634,21.92076782544147,-61.26214417358696,7.341486606123906e-09
2025-05-14 14:39:08.840,-83.15435058836417,20.68006706836374,-62.4742837031933,7.562004606885329e-09
2025-05-14 14:39:08.844,-79.53707956407764,22.876252607588995,-56.66082713944629,7.782667301174149e-09
2025-05-14 14:39:08.848,-75.17161520241413,29.744273837175943,-45.427341547992576,8.003427459485694e-09
2025-05-14 14:39:08.852,-71.70075761896351,33.99947033391693,-37.70128746759886,8.22424739609075e-09
2025-05-14 14:39:08.856,-66.63713861299291,27.915240950308377,-38.72189784496865,8.44511878388945e-09
2025-05-14 14:39:08.860,-55.78003070133277,13.426976035739164,-42.35305484756805,8.666038991813849e-09
2025-05-14 14:39:08.864,-36.953182691821056,-1.6569665336858317,-38.61014940719824,8.886979606597843e-09
2025-05-14 14:39:08.868,-13.283260788608231,-13.24420760818984,-26.5274685782151,9.107885383491028e-09
2025-05-14 14:39:08.872,6.984635874912408,-21.97796019270212,-14.993324498874054,9.328696152881805e-09
2025-05-14 14:39:08.876,17.892027287007878,-29.31879781673276,-11.426770710430398,9.549354546844526e-09
2025-05-14 14:39:08.879,21.79152591944642,-35.788848016251094,-13.997322277151984,9.769792962422886e-09
2025-05-14 14:39:08.883,23.3855093512137,-39.75186659947733,-16.36635742826686,9.989931096585082e-09
2025-05-14 14:39:08.887,22.553777944476156,-38.52451595908971,-15.970738194221086,1.0209690396382373e-08
2025-05-14 14:39:08.891,19.584132104826104,-34.36378901330264,-14.779657087638276,1.0428998538123856e-08
2025-05-14 14:39:08.895,20.25190271815358,-35.10649841727445,-14.85459587785216,1.0647780905683642e-08
2025-05-14 14:39:08.899,27.12612492671188,-42.87428556138758,-15.748160812995929,1.0865953441403169e-08
2025-05-14 14:39:08.903,32.64691336015011,-47.61294092064655,-14.96602773835999,1.1083418123131476e-08
2025-05-14 14:39:08.907,29.139380567916763,-39.34338693995097,-10.20400654938579,1.1300073374680262e-08
2025-05-14 14:39:08.911,19.91578793624179,-20.753186324646503,-0.8373985652545186,1.1515848096326582e-08
2025-05-14 14:39:08.915,13.697426275892465,0.5890647437686889,14.286490843286598,1.173071981800645e-08
2025-05-14 14:39:08.918,13.245746189064947,24.560651673883733,37.80639768708828,1.1944681396366624e-08
2025-05-14 14:39:08.922,15.141769217655426,51.816369250388696,66.95813829276,1.2157699641479551e-08
2025-05-14 14:39:08.926,16.47014754563297,72.72158017428819,89.19172754520947,1.2369723370898921e-08
2025-05-14 14:39:08.930,17.006929235955283,76.59631422233412,93.60324328411464,1.2580711523109488e-08
2025-05-14 14:39:08.934,17.585290362027756,66.6974649772649,84.28275516568509,1.2790629111108904e-08
2025-05-14 14:39:08.938,18.59075441097773,55.44284452578335,74.03359876379201,1.2999434473815244e-08
2025-05-14 14:39:08.942,18.000889829144697,49.63063207415637,67.63152173097714,1.3207092209458412e-08
2025-05-14 14:39:08.946,12.665563599550744,45.76089907762726,58.42646250545404,1.3413582586381118e-08
2025-05-14 14:39:08.950,4.933438413503856,35.02674619035686,39.96018443275399,1.3618885242060221e-08
2025-05-14 14:39:08.954,2.601408548943244,12.45542051713486,15.056828895668964,1.3822969824519964e-08
2025-05-14 14:39:08.958,7.231604495972837,-15.149041802315589,-7.917437476032981,1.4025807944470286e-08
2025-05-14 14:39:08.961,10.363478470274629,-33.75537258194467,-23.391894280695404,1.4227379668936348e-08
2025-05-14 14:39:08.965,6.566601887425609,-37.16335611959306,-30.59675440052897,1.4427667095233924e-08
2025-05-14 14:39:08.969,1.0301829019492297,-32.726056498254266,-31.69587376391644,1.46266501812279e-08
2025-05-14 14:39:08.973,-0.1412520258668682,-30.538106473261745,-30.6793586659488,1.4824304640503506e-08
2025-05-14 14:39:08.977,1.888940762991301,-32.28996805874908,-30.401027461844865,1.5020595631762494e-08
2025-05-14 14:39:08.981,3.448778574476271,-33.24856204937484,-29.79978364027633,1.521547621162597e-08
2025-05-14 14:39:08.985,4.102145785795417,-31.12012338379528,-27.01797776258212,1.5408895086817107e-08
2025-05-14 14:39:08.989,5.195738885323811,-29.12860267188765,-23.932863950285437,1.5600799247192385e-08
2025-05-14 14:39:08.993,6.9408803179881815,-31.09831484893103,-24.15743469385833,1.5791125374425828e-08
2025-05-14 14:39:08.997,8.50935222064975,-36.26866175347003,-27.75930969497914,1.597979816743154e-08
2025-05-14 14:39:09.001,9.450162790164642,-40.56830333029508,-31.11814070145447,1.6166746817552363e-08
2025-05-14 14:39:09.004,10.47469708780894,-42.04127911367056,-31.56658218625963,1.6351917701641952e-08
2025-05-14 14:39:09.008,12.775968977171727,-42.54029508179162,-29.76432626413425,1.6535265403958272e-08
2025-05-14 14:39:09.012,16.232739049043992,-43.94368850377376,-27.71094961343608,1.6716745827705113e-08
2025-05-14 14:39:09.016,19.020786737286887,-45.35270269111049,-26.33191611166108,1.689632708025658e-08
2025-05-14 14:39:09.020,19.877514819720588,-44.87585332142913,-24.998338658561003,1.707398968389701e-08
2025-05-14 14:39:09.024,19.83695096579942,-42.62880580613046,-22.79185499621838,1.7249706820101533e-08
2025-05-14 14:39:09.028,20.558726144388697,-41.41090341525853,-20.85217742589183,1.7423437030938104e-08
2025-05-14 14:39:09.032,21.875788845677494,-43.427202767958526,-21.551414076405848,1.7595134096656884e-08
2025-05-14 14:39:09.036,22.38374870846659,-44.23006297825691,-21.846314422880816,1.7764748825514555e-08
2025-05-14 14:39:09.040,21.73061291132023,-33.32311811218705,-11.59250535290882,1.7932232145124735e-08
2025-05-14 14:39:09.043,20.8684791787183,-7.346621836660271,13.521857190946772,1.8097549166629436e-08
2025-05-14 14:39:09.047,20.391894533815403,21.08512171686432,41.477016100490346,1.8260667923369555e-08
2025-05-14 14:39:09.051,19.99667849549064,36.56216059974411,56.55883894611671,1.84215264472326e-08
2025-05-14 14:39:09.055,19.691507850636903,38.75949626636584,58.45100396901585,1.8580038308159467e-08
2025-05-14 14:39:09.059,20.401363706393145,37.97154905467688,58.372912614090765,1.8736132512160376e-08
2025-05-14 14:39:09.063,22.70351708346305,37.98854272386231,60.69205966129492,1.888976792894901e-08
2025-05-14 14:39:09.067,25.54770818184436,34.00579237356571,59.55350041047491,1.9040914694094667e-08
2025-05-14 14:39:09.071,27.22722457688092,24.47326551525135,51.70048994840455,1.9189528647460537e-08
2025-05-14 14:39:09.075,27.61663426780748,14.639982302083292,42.25661642725878,1.9335525571656322e-08
2025-05-14 14:39:09.079,28.297410479987317,7.999127915806364,36.29653825414413,1.94787734761759e-08
2025-05-14 14:39:09.083,30.14155302356777,1.5005437158318704,31.642096598856448,1.9619121447748972e-08
2025-05-14 14:39:09.086,32.2341022331595,-9.576833683058668,22.657268410830323,1.9756423482411307e-08
2025-05-14 14:39:09.090,33.82410155928346,-25.917793657757443,7.906307763450491,1.9890516128411893e-08
2025-05-14 14:39:09.094,35.36898613260065,-43.128485321670965,-7.759499326115677,2.0021198542489383e-08
2025-05-14 14:39:09.098,36.33226875794958,-54.62545550664958,-18.29318688463665,2.0148261549172395e-08
2025-05-14 14:39:09.102,34.27129997527412,-56.93020623074037,-22.658906390081103,2.0271520136705523e-08
2025-05-14 14:39:09.106,28.604873328985583,-51.95868525097261,-23.353812055300452,2.0390811453287885e-08
2025-05-14 14:39:09.110,23.409048577343544,-42.324321219878414,-18.915272774749905,2.0505987730040943e-08
2025-05-14 14:39:09.114,23.27731535747229,-27.966873686237943,-4.689558459871433,2.0616914743229133e-08
2025-05-14 14:39:09.118,27.669069454149454,-12.401258153694624,15.267811170698788,2.0723455509006767e-08
2025-05-14 14:39:09.122,32.29904512129339,-7.309468802139831,24.98957619080413,2.0825458965352604e-08
2025-05-14 14:39:09.126,34.66459724476199,-20.734608691366716,13.92998842623708,2.0922776557404357e-08
2025-05-14 14:39:09.129,35.50357525797756,-42.45765578832043,-6.954080656381791,2.1015273880558853e-08
2025-05-14 14:39:09.133,36.295241109203474,-52.949788972703296,-16.654547988182973,2.1102817836912632e-08
2025-05-14 14:39:09.137,37.6627040552486,-47.70038782711272,-10.03768389504886,2.118527131767485e-08
2025-05-14 14:39:09.141,39.39939620081088,-41.103908580903685,-1.7045125019713367,2.126250414966205e-08
2025-05-14 14:39:09.145,40.82630863969321,-44.27190324888418,-3.445594729918577,2.1334392514887344e-08
2025-05-14 14:39:09.149,41.60264989587196,-50.55506698159659,-8.952417205106935,2.1400809383929852e-08
2025-05-14 14:39:09.153,42.309112098608765,-48.413183795625045,-6.104071814834233,2.1461632352498484e-08
2025-05-14 14:39:09.157,43.51766503988303,-40.09883615014344,3.4188287733543445,2.1516755797936616e-08
2025-05-14 14:39:09.161,44.72188512989288,-38.64956380128028,6.072321213440806,2.1566077958314462e-08
2025-05-14 14:39:09.165,45.31187457125495,-49.35429602158371,-4.042421564169021,2.1609482061090193e-08
2025-05-14 14:39:09.168,45.9732781363572,-63.42541025979674,-17.452132235682434,2.164684535175684e-08
2025-05-14 14:39:09.172,47.58698720861185,-69.9310227117005,-22.3440356137784,2.167806363618981e-08
2025-05-14 14:39:09.176,49.40374274769209,-65.64119039647014,-16.23744775816021,2.1703062465118744e-08
2025-05-14 14:39:09.180,50.176057396175054,-53.495468560737976,-3.3194112726128893,2.1721794034028422e-08
2025-05-14 14:39:09.184,50.48999617516743,-39.903023362258125,10.586972706460696,2.173422948339768e-08
2025-05-14 14:39:09.188,51.83692984520256,-33.47159983239298,18.365329908010995,2.1740350729742506e-08
2025-05-14 14:39:09.192,53.8109933678502,-39.27605845880792,14.534934805666907,2.174014897963904e-08
2025-05-14 14:39:09.196,54.56492989956128,-54.45982028015448,0.1051095173916043,2.173363202882301e-08
2025-05-14 14:39:09.200,53.86598251275155,-72.71123630445638,-18.845253892130785,2.1720830906466435e-08
2025-05-14 14:39:09.204,53.15266448697159,-87.46605370577082,-34.31338931751161,2.170179481220265e-08
2025-05-14 14:39:09.208,52.533032126366365,-87.05487058895213,-34.52183855975486,2.1676574254788757e-08
2025-05-14 14:39:09.211,50.68433822058056,-59.45253674793676,-8.768198623105729,2.164520853132349e-08
2025-05-14 14:39:09.215,48.084708174450455,-10.912149708012407,37.17255837226698,2.16077289278004e-08
2025-05-14 14:39:09.219,47.17714784474188,33.28678672359992,80.46393447591404,2.1564168628730664e-08
2025-05-14 14:39:09.223,48.62091164120594,55.04483354128818,103.66574509171512,2.1514563428022736e-08
2025-05-14 14:39:09.227,50.17758156526387,58.25399780508538,108.43157928107335,2.145893709222968e-08
2025-05-14 14:39:09.231,50.11034400415617,55.008208703245145,105.1185526197087,2.1397291239367388e-08
2025-05-14 14:39:09.235,49.44151767081558,50.99506595726013,100.43658354213164,2.132962417043544e-08
2025-05-14 14:39:09.239,49.87384579100247,46.19063062994198,96.06447633672649,2.1255959224989056e-08
2025-05-14 14:39:09.243,51.12402162091493,39.62912869020363,90.75315022849524,2.1176345484375018e-08
2025-05-14 14:39:09.247,51.62435749507806,31.73347046904589,83.35782788311067,2.10908370299412e-08
2025-05-14 14:39:09.251,50.92873336623629,25.273189809818,76.2019230967868,2.0999484282702077e-08
2025-05-14 14:39:09.254,49.99132299909788,22.65506492258724,72.64638784419023,2.090234298499037e-08
2025-05-14 14:39:09.258,49.43487167601536,21.99922388613159,71.4340954863288,2.079947884193008e-08
2025-05-14 14:39:09.262,48.87901709850566,19.359417518190327,68.23843454253247,2.0690961120911317e-08
2025-05-14 14:39:09.266,47.93918143513822,14.925555502737264,62.86473686545916,2.0576858076189737e-08
2025-05-14 14:39:09.270,46.94247294588668,12.467870010980104,59.41034288624308,2.045724257792165e-08
2025-05-14 14:39:09.274,46.96395243069147,9.819281853902808,56.783234215705285,2.0332205120662132e-08
2025-05-14 14:39:09.278,49.43720619020311,-5.189058699998927,44.248147423016746,2.020185603133525e-08
2025-05-14 14:39:09.282,54.03037247422185,-39.35006815478113,14.680304254008368,2.0066304190497545e-08
2025-05-14 14:39:09.286,56.78136573034497,-74.96847624110457,-18.187110574395938,1.9925635338225853e-08
2025-05-14 14:39:09.290,53.61477585473016,-80.98989021040867,-27.37511441755069,1.977991675213543e-08
2025-05-14 14:39:09.293,46.20461159904163,-49.18786976072466,-2.9832582218180903,1.9629222281570763e-08
2025-05-14 14:39:09.297,40.69099077356472,-6.156107456665508,34.5348832585331,1.9473654830160298e-08
2025-05-14 14:39:09.301,40.3885122058647,17.228081347605446,57.616593496900045,1.9313345202448355e-08
2025-05-14 14:39:09.305,43.20524949349392,16.61646164699477,59.82171108568996,1.9148426390661552e-08
2025-05-14 14:39:09.309,45.75058604927656,8.062150103307562,53.81273609953743,1.897901058620538e-08
2025-05-14 14:39:09.313,46.66772330732379,1.187236638044875,47.85495989410165,1.8805187698204175e-08
2025-05-14 14:39:09.317,46.391353271636014,-11.147009246999788,35.24434397516708,1.8627030832615432e-08
2025-05-14 14:39:09.321,46.1656007687251,-37.237442982177285,8.928157738844906,1.8444592819450335e-08
2025-05-14 14:39:09.325,47.15000584181246,-69.4800707081283,-22.330064912274697,1.825790941440985e-08
2025-05-14 14:39:09.329,49.21098283531699,-90.50185004466998,-41.29086725353548,1.8067022031323443e-08
2025-05-14 14:39:09.333,50.79423908628242,-93.21111502299236,-42.41687597909154,1.7871986471251556e-08
2025-05-14 14:39:09.336,50.60891189038632,-86.45597225621485,-35.847060406448605,1.7672846592845013e-08
2025-05-14 14:39:09.340,49.172902616196346,-82.2095946746744,-33.03669209737798,1.7469617114875476e-08
2025-05-14 14:39:09.344,47.96804560861617,-84.11135253419917,-36.14330696273267,1.7262304240419463e-08
2025-05-14 14:39:09.348,47.2929708978312,-87.81296826759728,-40.51999740511941,1.7050923939150236e-08
2025-05-14 14:39:09.352,46.276749760084726,-87.86836490804652,-41.591615181551205,1.6835489436269698e-08
2025-05-14 14:39:09.356,44.96823672165217,-83.44579957040668,-38.47756288064981,1.6615998454159287e-08
2025-05-14 14:39:09.360,44.41873808025242,-77.31896195390307,-32.90022390384296,1.639244500901522e-08
2025-05-14 14:39:09.364,44.37007373980148,-69.41316627181492,-25.043092560432644,1.6164837955038082e-08
2025-05-14 14:39:09.368,43.220355514454205,-55.65143606335382,-12.431080575547623,1.5933203032678296e-08
2025-05-14 14:39:09.372,41.034013016359935,-36.965229683257206,4.068783308136568,1.569756675350552e-08
2025-05-14 14:39:09.376,40.12676047494805,-24.634296497971725,15.492463953657072,1.5457939536134727e-08
2025-05-14 14:39:09.379,41.44618694875624,-28.919991137644573,12.526195789514215,1.5214315675940942e-08
2025-05-14 14:39:09.383,42.62837901738521,-43.83563405627857,-1.2072550587232795,1.4966687410877042e-08
2025-05-14 14:39:09.387,41.252011846417886,-51.21089763548851,-9.95888580721495,1.4715053066821088e-08
2025-05-14 14:39:09.391,38.23350860548626,-40.911759391619874,-2.6782508026799325,1.4459407568979352e-08
2025-05-14 14:39:09.395,36.15046787960664,-19.958089478119845,16.19237838658518,1.4199733917946824e-08
2025-05-14 14:39:09.399,35.44809372114656,-0.1576780646449815,35.29041564333517,1.39360188574744e-08
2025-05-14 14:39:09.403,34.3667922029784,15.6336782883804,50.00047047988737,1.3668276846151092e-08
2025-05-14 14:39:09.407,31.84551120935337,33.34067597905531,65.1861871785066,1.3396549937858058e-08
2025-05-14 14:39:09.411,28.25206336077836,61.753909534437895,90.00597288686986,1.3120886421479112e-08
2025-05-14 14:39:09.415,23.90244256970365,105.62357380003552,129.52601636305678,1.2841325083761541e-08
2025-05-14 14:39:09.418,19.487206560743616,153.58795362615305,173.07516018190478,1.2557896724725807e-08
2025-05-14 14:39:09.422,17.391477685797753,177.17747351211318,194.5689511944837,1.2270632312496758e-08
2025-05-14 14:39:09.426,19.62062942654743,158.23143463921468,177.85206406381286,1.1979560737717338e-08
2025-05-14 14:39:09.430,24.530993253812863,113.58436314003237,138.1153563934575,1.1684707348937338e-08
2025-05-14 14:39:09.434,28.113767275866277,76.0842329471104,104.19800022424413,1.1386120779464162e-08
2025-05-14 14:39:09.438,28.62748585521653,57.41154949349728,86.03903535155482,1.1083901855629541e-08
2025-05-14 14:39:09.442,28.34710183327411,45.31923438579972,73.66633622334258,1.0778182391954812e-08
2025-05-14 14:39:09.446,30.545772019007764,28.591558898708843,59.13733092343092,1.0469072082683454e-08
2025-05-14 14:39:09.450,35.38057701111416,8.493156362915819,43.87373338132406,1.0156639205199496e-08
2025-05-14 14:39:09.454,39.22215427227811,-9.130375636826844,30.091778644321685,9.840944680739294e-09
2025-05-14 14:39:09.458,38.85480937848951,-21.332671462361517,17.522137926407737,9.522085275742538e-09
2025-05-14 14:39:09.461,36.3861225895276,-28.772828587668556,7.613294013478628,9.200196438822309e-09
2025-05-14 14:39:09.465,38.13030713066992,-33.681945927200246,4.448361216559767,8.875417481134789e-09
2025-05-14 14:39:09.469,46.34873824113258,-35.99045032844094,10.358287927335772,8.547865830044952e-09
2025-05-14 14:39:09.473,53.0061901617324,-30.48348275842589,22.52270741936369,8.217650501624241e-09
2025-05-14 14:39:09.477,47.04025805065915,-12.452410019670058,34.58784804830679,7.884898606122981e-09
2025-05-14 14:39:09.481,29.866188482528912,11.26661100537178,41.13279950655912,7.549747002702935e-09
2025-05-14 14:39:09.485,16.83280034221557,23.86353854492357,40.69633890729091,7.212306839785919e-09
2025-05-14 14:39:09.489,19.18741015858786,16.072781163664942,35.260191343824495,6.872659120620747e-09
2025-05-14 14:39:09.493,30.91638901152573,-3.945198334834504,26.97119069947651,6.5308893443293446e-09
2025-05-14 14:39:09.497,37.153116191007314,-21.052376888809547,16.100739326192535,6.18710020414777e-09
2025-05-14 14:39:09.501,30.724616201361247,-27.13520128885397,3.5894149378945053,5.8413803944307175e-09
2025-05-14 14:39:09.504,17.713058246275075,-24.090711507871745,-6.377653234799134,5.493784305388432e-09
2025-05-14 14:39:09.508,9.16676534614313,-19.60676740062228,-10.440002026486288,5.144359306791519e-09
2025-05-14 14:39:09.512,9.59742650108772,-21.25497281567923,-11.657546285502889,4.793186276067297e-09
2025-05-14 14:39:09.516,14.495523496764031,-30.737989521115303,-16.242465994001098,4.440384452640304e-09
2025-05-14 14:39:09.520,17.767288524267286,-42.88658714742294,-25.119298591436184,4.086078571774145e-09
2025-05-14 14:39:09.524,18.36735136431409,-51.76777809778179,-33.40042670055482,3.730365511175837e-09
2025-05-14 14:39:09.528,19.422635728647837,-57.28724759836324,-37.86461183578872,3.3733105821777832e-09
2025-05-14 14:39:09.532,23.83916976724909,-63.72842166291369,-39.88925186061769,3.0149738007187173e-09
2025-05-14 14:39:09.536,31.08274865381036,-71.96540389299551,-40.882655202845925,2.655441214136994e-09
2025-05-14 14:39:09.540,36.41952358552578,-76.62332816948465,-40.20380454642775,2.2948267483668926e-09
2025-05-14 14:39:09.543,34.88287168675801,-73.36929350436107,-38.486421779103686,1.933245044703688e-09
2025-05-14 14:39:09.547,27.8791794101772,-66.04299702706119,-38.16381757739512,1.5708004370979823e-09
2025-05-14 14:39:09.551,22.52671266883899,-61.91895698462097,-39.39224427510912,1.2075987024378918e-09
2025-05-14 14:39:09.555,22.463392678041306,-61.58133114081795,-39.11793842092962,8.437403161969136e-10
2025-05-14 14:39:09.559,23.895669715633204,-59.51281243738509,-35.61714267895195,4.793092383373385e-10
2025-05-14 14:39:09.563,22.36289730490699,-54.1691816468418,-31.806284298248134,1.1439507267993608e-10
2025-05-14 14:39:09.567,18.388576174862703,-50.494637124533,-32.10606090492573,-2.5089052857508067e-10
2025-05-14 14:39:09.571,15.471333891970607,-50.97628802633512,-35.5049540884906,-6.164436490861915e-10
2025-05-14 14:39:09.575,16.51446372727238,-50.2364948994619,-33.72203112536298,-9.82204196571813e-10
2025-05-14 14:39:09.579,21.65721410828567,-41.94630986327864,-20.289095707346544,-1.34815201852091e-09
2025-05-14 14:39:09.583,26.791332442277017,-27.87427156448157,-1.0829390736255151,-1.7142704966183006e-09
2025-05-14 14:39:09.586,26.501608994945613,-16.762894381087747,9.738714663491908,-2.0805158575255102e-09
2025-05-14 14:39:09.590,20.621820925814557,-15.62755071444525,4.994270261951792,-2.446819297948184e-09
2025-05-14 14:39:09.594,14.620881462829374,-24.15893021718931,-9.538048702992452,-2.813106403803844e-09
2025-05-14 14:39:09.598,12.088896789107746,-36.36889930762039,-24.28000246632136,-3.1793003655967805e-09
2025-05-14 14:39:09.602,11.045286059762969,-46.1018588276593,-35.0565727147457,-3.5453111712834262e-09
2025-05-14 14:39:09.606,9.024338911841197,-51.34610714092007,-42.32176817499963,-3.911039980980441e-09
2025-05-14 14:39:09.610,7.168330170598598,-53.79743688266706,-46.62910665721683,-4.27640278436073e-09
2025-05-14 14:39:09.614,7.223853236217678,-54.87697916810431,-47.65312587629318,-4.641341454243038e-09
2025-05-14 14:39:09.618,8.242278666242903,-53.67282980832035,-45.43055108562831,-5.005803025245604e-09
2025-05-14 14:39:09.622,8.695612397381616,-49.44474088963635,-40.74912843491747,-5.369717082499618e-09
2025-05-14 14:39:09.626,9.32706499912492,-44.472933663352265,-35.14586860612096,-5.7330025021855525e-09
2025-05-14 14:39:09.629,11.28741074079098,-42.09571373916272,-30.808302939576706,-6.095586905900283e-09
2025-05-14 14:39:09.633,13.10759264167256,-42.44764739633236,-29.340054695107263,-6.4574130362403084e-09
2025-05-14 14:39:09.637,12.496536378323782,-42.98862870971943,-30.492092271013693,-6.818430965894864e-09
2025-05-14 14:39:09.641,10.08265482181156,-42.92613276995958,-32.84347788700113,-7.1785841577333636e-09
2025-05-14 14:39:09.645,8.320873846822527,-43.937114066263845,-35.61624015763272,-7.537800926790471e-09
2025-05-14 14:39:09.649,7.754830932058778,-46.897796832192505,-39.142965837649626,-7.895998119123196e-09
2025-05-14 14:39:09.653,7.259378534659114,-50.632646615352215,-43.37326801745026,-8.253086698501012e-09
2025-05-14 14:39:09.657,6.621210153972511,-53.614143141060445,-46.99293292309356,-8.608968090627871e-09
2025-05-14 14:39:09.661,6.353769412956664,-55.36378700547386,-49.01001752787071,-8.963531297793555e-09
2025-05-14 14:39:09.665,6.349930463973904,-56.29987847486546,-49.94994794563175,-9.316667893668596e-09
2025-05-14 14:39:09.668,6.331950566533277,-56.81091189061945,-50.478961258144224,-9.668288629262357e-09
2025-05-14 14:39:09.672,6.247463052706002,-56.9121187276463,-50.66465560827623,-1.0018310503911418e-08
2025-05-14 14:39:09.676,5.695253800642634,-56.9217182670998,-51.22646439914559,-1.0366635017910276e-08
2025-05-14 14:39:09.680,4.43709678227243,-57.55928589076038,-53.122189040605846,-1.0713158114054295e-08
2025-05-14 14:39:09.684,3.291433748264704,-58.90561122251166,-55.61417740575739,-1.1057791975463784e-08
2025-05-14 14:39:09.688,3.1711595590488946,-60.40461602671938,-57.2334563985052,-1.1400459738492576e-08
2025-05-14 14:39:09.692,3.73098293016324,-61.99317016526255,-58.26218716529627,-1.1741075043361076e-08
2025-05-14 14:39:09.696,3.832502294095112,-63.632530962540585,-59.80002859809931,-1.2079536811248425e-08
2025-05-14 14:39:09.700,2.565252871391754,-64.32698210896615,-61.76172916668696,-1.241573994663966e-08
2025-05-14 14:39:09.704,-0.559913997956403,-63.833610516279,-64.39352444273158,-1.2749579556182804e-08
2025-05-14 14:39:09.708,-5.0907055168467545,-64.18450378536643,-69.27520923009291,-1.3080937835176808e-08
2025-05-14 14:39:09.711,-8.97259260967515,-66.72584049124615,-75.69843302827604,-1.3409677623360289e-08
2025-05-14 14:39:09.715,-10.062656842250092,-69.06920217231215,-79.13185894142924,-1.3735663978108528e-08
2025-05-14 14:39:09.719,-8.547803067230817,-68.33531149410794,-76.88311448765556,-1.4058787127143788e-08
2025-05-14 14:39:09.723,-6.459576125525973,-65.81989828123639,-72.2794743324998,-1.4378958242487432e-08
2025-05-14 14:39:09.727,-5.415520195260651,-64.16121759405038,-69.57673771454208,-1.469609541891809e-08
2025-05-14 14:39:09.731,-5.952231143946797,-61.51153583160068,-67.4637669003319,-1.501012016245483e-08
2025-05-14 14:39:09.735,-7.596969142531338,-53.79895405621324,-61.39592312304325,-1.532096046332936e-08
2025-05-14 14:39:09.739,-8.883373881376407,-41.54531241793214,-50.42868622307908,-1.5628556322049396e-08
2025-05-14 14:39:09.743,-8.943901547951699,-29.279457723946734,-38.22335919519092,-1.593285994241101e-08
2025-05-14 14:39:09.747,-9.031054899105335,-19.40647509562584,-28.437529917611627,-1.6233821975771957e-08
2025-05-14 14:39:09.751,-11.065612560600735,-10.96986670668673,-22.035479189738588,-1.653138111680899e-08
2025-05-14 14:39:09.754,-15.48752427912821,-2.9707711729878405,-18.458295374097297,-1.6825471649422915e-08
2025-05-14 14:39:09.758,-21.4429933008771,4.340245735845685,-17.102747486576714,-1.7116030047022183e-08
2025-05-14 14:39:09.762,-27.520673318779803,9.939486593945624,-17.581186646004475,-1.740298942740323e-08
2025-05-14 14:39:09.766,-31.681993991290337,12.243052670914006,-19.438941241166305,-1.7686275799900668e-08
2025-05-14 14:39:09.770,-32.45934027067948,10.871996665400022,-21.58734352565741,-1.79658089355476e-08
2025-05-14 14:39:09.774,-30.804298652992603,8.460485454451524,-22.343813118536904,-1.824149950552631e-08
2025-05-14 14:39:09.778,-29.109273994376647,8.104880205771451,-21.00439370827301,-1.8513247127377233e-08
2025-05-14 14:39:09.782,-28.358643115880614,9.333504015510908,-19.02513901970412,-1.8780943814254744e-08
2025-05-14 14:39:09.786,-27.810210985049764,9.576338516898822,-18.23387238712614,-1.9044481115432273e-08
2025-05-14 14:39:09.790,-27.233371272366657,9.119504488412636,-18.113866702606305,-1.9303765441322764e-08
2025-05-14 14:39:09.793,-27.571077207189237,11.036605417383807,-16.53447170818928,-1.9558728730218143e-08
2025-05-14 14:39:09.797,-29.04823797711592,16.022988741250536,-13.025249153967431,-1.9809314607666604e-08
2025-05-14 14:39:09.801,-30.26440053456561,20.782411599562067,-9.481988852792508,-2.0055457917521567e-08
2025-05-14 14:39:09.805,-30.02464826246368,22.489269470816467,-7.535378709169404,-2.0297079964659643e-08
2025-05-14 14:39:09.809,-28.94774990201154,22.083873926420125,-6.863875892915168,-2.0534093061273143e-08
2025-05-14 14:39:09.813,-28.330270824575475,21.98916965281075,-6.341101088869685,-2.0766405043544924e-08
2025-05-14 14:39:09.817,-28.367244767878,22.887272795495267,-5.479971889218056,-2.0993920863837568e-08
2025-05-14 14:39:09.821,-28.47229911536781,24.190834167053143,-4.2814648649303,-2.1216548914180226e-08
2025-05-14 14:39:09.825,-28.35617376460572,25.725485020760924,-2.6306886603357924,-2.1434218779839592e-08
2025-05-14 14:39:09.829,-27.678609846617583,27.16456038143778,-0.5140493815309349,-2.1646888762819336e-08
2025-05-14 14:39:09.833,-25.75904368781409,27.43564729066705,1.6766036867208922,-2.1854524437234483e-08
2025-05-14 14:39:09.836,-22.9124956657323,26.65664881559493,3.744153233911632,-2.2057070086019613e-08
2025-05-14 14:39:09.840,-20.890587226945208,27.22292130651224,6.332334163671278,-2.2254447310588998e-08
2025-05-14 14:39:09.844,-20.75532223898889,30.937894353942685,10.1825721991054,-2.2446579157308928e-08
2025-05-14 14:39:09.848,-21.542926295694933,36.25842953065636,14.71550331926612,-2.263340188820265e-08
2025-05-14 14:39:09.852,-21.945583838203767,40.1953041367579,18.249720383004693,-2.281485387640885e-08
2025-05-14 14:39:09.856,-21.93296413694542,41.9708683924576,20.03790433995995,-2.299087213080467e-08
2025-05-14 14:39:09.860,-22.101174920184484,43.34681162849647,21.245636792707984,-2.316139999413864e-08
2025-05-14 14:39:09.864,-22.77358574164205,46.15403026374507,23.38044460656554,-2.332638734010849e-08
2025-05-14 14:39:09.868,-23.997600627020898,50.64864345843274,26.65104291597905,-2.3485790524080995e-08
2025-05-14 14:39:09.872,-25.194195401448876,55.50304748400232,30.30885216707215,-2.3639574954289773e-08
2025-05-14 14:39:09.876,-25.05397065098308,58.464971944270864,33.41100137765742,-2.378770511363493e-08
2025-05-14 14:39:09.879,-23.153349874330356,58.01890874106671,34.8655589510662,-2.3930131321826524e-08
2025-05-14 14:39:09.883,-21.14488758270305,55.28552641622807,34.14063891790411,-2.4066794797204064e-08
2025-05-14 14:39:09.887,-20.874258108206824,53.18138567102968,32.307127647117554,-2.4197642564665933e-08
2025-05-14 14:39:09.891,-22.009917956917988,53.08338263679024,31.073464763931497,-2.4322629547792323e-08
2025-05-14 14:39:09.895,-22.938053655456432,53.533131584843936,30.595078013287612,-2.4441707768191942e-08
2025-05-14 14:39:09.899,-23.07702192038696,52.41772343658064,29.34070160006805,-2.4554823465533272e-08
2025-05-14 14:39:09.903,-22.811133817744164,48.78519244121963,25.97405870723356,-2.4661929928843198e-08
2025-05-14 14:39:09.907,-22.04503999952384,42.2909485560362,20.24590863996653,-2.476299826491509e-08
2025-05-14 14:39:09.911,-20.51002600199068,33.15538998138443,12.645364062568817,-2.4858016628068172e-08
2025-05-14 14:39:09.915,-19.005351268235017,23.921181714477044,4.915830529298816,-2.4946986698052118e-08
2025-05-14 14:39:09.918,-18.758320066670212,18.83211711008598,0.0737971263218878,-2.5029919836959698e-08
2025-05-14 14:39:09.922,-19.651356807264712,19.070980206143624,-0.5803765185696422,-2.5106832617806493e-08
2025-05-14 14:39:09.926,-20.264660575514966,20.829128770644548,0.5644682772899282,-2.5177744332510685e-08
2025-05-14 14:39:09.930,-19.698725420970497,20.886594103336503,1.1878687643020531,-2.5242675632392465e-08
2025-05-14 14:39:09.934,-18.610150415414196,21.46833220270726,2.85818186903537,-2.5301649120422017e-08
2025-05-14 14:39:09.938,-18.44040834142161,26.40932297564207,7.9689147155698254,-2.535468995667112e-08
2025-05-14 14:39:09.942,-19.925126686470797,35.220349479656846,15.29522287404359,-2.5401823890889724e-08
2025-05-14 14:39:09.946,-22.22130887410388,43.92591847775591,21.70460968416977,-2.5443081438565216e-08
2025-05-14 14:39:09.950,-23.36374065105735,49.391712797838416,26.02797222705023,-2.5478506465934223e-08
2025-05-14 14:39:09.954,-21.81941821238032,50.80548237291479,28.986064240379648,-2.5508149548414503e-08
2025-05-14 14:39:09.958,-18.19588157941854,49.480553060315856,31.28467156016136,-2.5532051563478725e-08
2025-05-14 14:39:09.961,-15.53466343462827,48.72914121233871,33.19447785651285,-2.5550244686451613e-08
2025-05-14 14:39:09.965,-16.457543484149426,51.10713414960972,34.64959074394727,-2.5562766423945023e-08
2025-05-14 14:39:09.969,-19.363284723106894,54.68956527157675,35.32628062650599,-2.5569662197078658e-08
2025-05-14 14:39:09.973,-19.84847573334404,55.28283941793275,35.43436376196468,-2.5570976688108798e-08
2025-05-14 14:39:09.977,-16.753891557146687,52.59532868844347,35.84143720808358,-2.5566746322616217e-08
2025-05-14 14:39:09.981,-13.625858717640709,50.24563158158433,36.61977294033487,-2.5556994942779672e-08
2025-05-14 14:39:09.985,-13.5011808789551,50.10425688917335,36.60307608613462,-2.5541735297736743e-08
2025-05-14 14:39:09.989,-15.597929639504756,50.93838338102312,35.3404538167075,-2.5520980997812383e-08
2025-05-14 14:39:09.993,-17.509688205001247,51.72191548896061,34.21222735842627,-2.5494759729783272e-08
2025-05-14 14:39:09.997,-17.99576984030813,52.49766331043594,34.50189354410138,-2.5463111471164148e-08
2025-05-14 14:39:10.001,-17.770439624019204,53.3879259849593,35.617486434415795,-2.5426073813849673e-08
2025-05-14 14:39:10.004,-19.0160967238036,55.50085847609464,36.48476182498928,-2.538366995703377e-08
2025-05-14 14:39:10.008,-23.23871557769483,60.759464756111015,37.52074925025617,-2.5335906328662352e-08
2025-05-14 14:39:10.012,-29.17175796058327,68.92288114307618,39.7511232537177,-2.52827799488062e-08
2025-05-14 14:39:10.016,-34.24423644622945,77.21197928201599,42.96774290648592,-2.522429283051936e-08
2025-05-14 14:39:10.020,-37.8382290709211,84.23646867492823,46.39823967390295,-2.5160463530091923e-08
2025-05-14 14:39:10.024,-41.19425837305302,91.62818427081037,50.4339259666672,-2.5091329051109192e-08
2025-05-14 14:39:10.028,-44.36133942590212,100.23827290709502,55.87693354933825,-2.5016942412038763e-08
2025-05-14 14:39:10.032,-45.38088111268104,107.13385030974028,61.75296926463394,-2.4937366452974292e-08
2025-05-14 14:39:10.036,-43.20832393157386,108.736857513097,65.52853364829261,-2.4852658324280063e-08
2025-05-14 14:39:10.040,-39.87072975678429,105.58235794250632,65.71162825140226,-2.476285916897164e-08
2025-05-14 14:39:10.043,-38.294877012563305,101.4818440913682,63.18696714355018,-2.466800753965437e-08
2025-05-14 14:39:10.047,-39.08930715512989,98.97542588515836,59.88611879412524,-2.4568158638033533e-08
2025-05-14 14:39:10.051,-41.09099436074364,98.24776506807883,57.15677077063966,-2.4463379842258087e-08
2025-05-14 14:39:10.055,-43.67733163600187,99.41379195514835,55.73646038129876,-2.4353732616251325e-08
2025-05-14 14:39:10.059,-46.30248328394902,102.47513493409076,56.1726517111847,-2.4239270031536972e-08
2025-05-14 14:39:10.063,-46.94663854522835,105.11826589300546,58.17162740805046,-2.4120049567657823e-08
2025-05-14 14:39:10.067,-43.50148191517711,103.47648688452568,59.975005028835945,-2.3996139837696083e-08
2025-05-14 14:39:10.071,-36.424423427549655,95.78475946412404,59.36033609489155,-2.3867613596230735e-08
2025-05-14 14:39:10.075,-28.543235634645207,83.75432580092082,55.21109022333026,-2.3734538816710023e-08
2025-05-14 14:39:10.079,-22.380756933796743,70.25436557864684,47.87360870097497,-2.3596979615382694e-08
2025-05-14 14:39:10.083,-18.415779471507985,57.07445672478055,38.65867730858752,-2.3455008425349678e-08
2025-05-14 14:39:10.086,-15.65045532723542,45.01220149290955,29.3617462198356,-2.3308721111695125e-08
2025-05-14 14:39:10.090,-13.22738717103864,34.58675947425404,21.359372356005306,-2.3158234531719665e-08
2025-05-14 14:39:10.094,-11.41131640075198,25.69999960069897,14.288683251628992,-2.3003658450936918e-08
2025-05-14 14:39:10.098,-10.996451980522544,17.029775056748875,6.033323127030327,-2.2845073013022553e-08
2025-05-14 14:39:10.102,-11.747370963003588,6.68378119242525,-5.06358972089962,-2.2682544527374885e-08
2025-05-14 14:39:10.106,-12.003173008350462,-6.159599047036055,-18.162772007134077,-2.251616150942579e-08
2025-05-14 14:39:10.110,-10.355742467676054,-20.483877650078696,-30.839620070776878,-2.234604393711805e-08
2025-05-14 14:39:10.114,-7.201555585639088,-34.24966745188539,-41.45122299153572,-2.2172319560217047e-08
2025-05-14 14:39:10.118,-3.953605586263131,-45.80598018263179,-49.75958572401827,-2.199510634964281e-08
2025-05-14 14:39:10.122,-1.1883752122630975,-54.88540096053528,-56.07377612935493,-2.1814515452336003e-08
2025-05-14 14:39:10.126,1.5003535483389991,-62.04882832078773,-60.548474730407655,-2.163065493087183e-08
2025-05-14 14:39:10.129,3.96973561460749,-66.57686224408698,-62.60712658856363,-2.144363243046009e-08
2025-05-14 14:39:10.133,5.113787905096961,-66.38891097073915,-61.27512302586063,-2.1253565872401352e-08
2025-05-14 14:39:10.137,4.582291643424991,-61.708856328093546,-57.1265646463042,-2.1060588238586093e-08
2025-05-14 14:39:10.141,3.746499421838631,-56.35329235688775,-52.60679289816501,-2.0864831774245293e-08
2025-05-14 14:39:10.145,3.883479349504254,-52.67277839727195,-48.789299012143815,-2.0666407953526812e-08
2025-05-14 14:39:10.149,4.474456649970117,-48.31922861213148,-43.844771927733504,-2.0465407074907262e-08
2025-05-14 14:39:10.153,4.508936418768797,-41.41538738137379,-36.90645092958265,-2.026191355196644e-08
2025-05-14 14:39:10.157,4.322415660018995,-35.1716778868375,-30.84926219530959,-2.0056015509027106e-08
2025-05-14 14:39:10.161,4.8038573784310366,-32.90571658747978,-28.1018591789107,-1.9847801735524438e-08
2025-05-14 14:39:10.165,5.7615316400005385,-31.84794713891912,-26.086415470068573,-1.963735826057032e-08
2025-05-14 14:39:10.168,6.336169833477631,-27.154557263443994,-20.81838740253834,-1.942477113382952e-08
2025-05-14 14:39:10.172,6.357686258710864,-19.798950109321435,-13.44126382470402,-1.9210128402319523e-08
2025-05-14 14:39:10.176,6.266287852219867,-14.876054151429171,-8.609766274743295,-1.8993518236345184e-08
2025-05-14 14:39:10.180,6.227938549475766,-13.302022663245236,-7.074084090686897,-1.8775028077987892e-08
2025-05-14 14:39:10.184,6.28652533113413,-11.25378326044618,-4.967257907699803,-1.8554747642885866e-08
2025-05-14 14:39:10.188,6.937664187677143,-7.789244217096181,-0.85158000933385,-1.833277204602357e-08
2025-05-14 14:39:10.192,8.617753384321333,-6.698504817377256,1.919248585561861,-1.8109197736445183e-08
2025-05-14 14:39:10.196,10.97352345324888,-9.473634960345713,1.4998885100664534,-1.7884108215964614e-08
2025-05-14 14:39:10.200,13.216811350076233,-12.109243447289346,1.1075679184105276,-1.7657560427448695e-08
2025-05-14 14:39:10.204,14.670468759350866,-11.09298083427026,3.577487939152629,-1.7429592672942868e-08
2025-05-14 14:39:10.208,14.740111118173443,-8.088946998019143,6.651164132758375,-1.7200255117995283e-08
2025-05-14 14:39:10.211,13.073419953005068,-5.987354571011462,7.086065393113186,-1.6969628801195878e-08
2025-05-14 14:39:10.215,9.814560221792222,-3.492701496752044,6.321858734552777,-1.6737809023553325e-08
2025-05-14 14:39:10.219,5.2660581750907465,3.2254012682768405,8.49145945127749,-1.6504879890761965e-08
2025-05-14 14:39:10.223,-0.2756587632251028,15.165620618639725,14.88996186185865,-1.627091655457886e-08
2025-05-14 14:39:10.227,-6.079665740538911,29.963746745831894,23.88408101026485,-1.603600732920717e-08
2025-05-14 14:39:10.231,-11.204304382412108,46.05467129467812,34.850366915591344,-1.5800259846851784e-08
2025-05-14 14:39:10.235,-15.428787848133126,63.80096106681341,48.37217322033452,-1.5563779460389967e-08
2025-05-14 14:39:10.239,-19.119022777460373,81.7786244041439,62.65960162685576,-1.5326644577195588e-08
2025-05-14 14:39:10.243,-22.099082494483063,95.19804460882654,73.09896211308384,-1.5088903895436198e-08
2025-05-14 14:39:10.247,-23.71368149370636,100.79276331319544,77.07908181658806,-1.4850594826475004e-08
2025-05-14 14:39:10.251,-24.439284203196284,103.97143203605238,79.53214782821811,-1.4611762232305389e-08
2025-05-14 14:39:10.254,-26.510763745213414,119.06807810153497,92.55731435015656,-1.4372457670861378e-08
2025-05-14 14:39:10.258,-31.611831892771075,154.7603967427779,123.14856484245368,-1.4132729716160785e-08
2025-05-14 14:39:10.262,-37.85803436533777,194.52519898879012,156.66716461430707,-1.3892632208420794e-08
2025-05-14 14:39:10.266,-40.86904050433398,203.5714078748388,162.70236735957968,-1.3652235262323822e-08
2025-05-14 14:39:10.270,-38.77678234472236,167.53973699480215,128.76295463755758,-1.3411605392048746e-08
2025-05-14 14:39:10.274,-34.33381031078274,112.72737953593082,78.39356921126229,-1.3170781204722606e-08
2025-05-14 14:39:10.278,-31.189708757479085,74.6614517415767,43.47174296870055,-1.2929784909514473e-08
2025-05-14 14:39:10.282,-30.203644085986117,58.91189808148141,28.70825397831587,-1.2688643529523056e-08
2025-05-14 14:39:10.286,-30.115677162649156,45.16191207763059,15.046234896125988,-1.2447388695710654e-08
2025-05-14 14:39:10.290,-29.785930070318784,19.07651091179813,-10.709419178746389,-1.2206055731065208e-08
2025-05-14 14:39:10.293,-29.028573644732077,-11.914018298680928,-40.94259196505764,-1.1964696425099744e-08
2025-05-14 14:39:10.297,-28.32031999780784,-31.180277037404657,-59.5005970585956,-1.1723386135078821e-08
2025-05-14 14:39:10.301,-28.046004730662915,-32.85927833377263,-60.90528308956105,-1.1482211563724263e-08
2025-05-14 14:39:10.305,-27.936162326082304,-25.83868776918744,-53.774850121804704,-1.124124755101901e-08
2025-05-14 14:39:10.309,-27.567281962032137,-21.261624694080183,-48.828906683983206,-1.1000546878403576e-08
2025-05-14 14:39:10.313,-27.155803388203186,-21.70803247391368,-48.86383589163995,-1.0760158476209309e-08
2025-05-14 14:39:10.317,-27.09471088914646,-22.900523236897467,-49.99523415734375,-1.0520150144029242e-08
2025-05-14 14:39:10.321,-26.99470197863369,-21.638055264817524,-48.63275727622234,-1.0280607494284642e-08
2025-05-14 14:39:10.325,-26.162750848054507,-19.27114930009371,-45.43390018219715,-1.0041615633052724e-08
2025-05-14 14:39:10.329,-24.824373896261925,-18.076021672434287,-42.90039560427984,-9.803238805681235e-09
2025-05-14 14:39:10.333,-23.865752155462395,-17.31918578065765,-41.184937973466376,-9.565515221718628e-09
2025-05-14 14:39:10.336,-23.494021364924663,-15.372412296659046,-38.86643370046612,-9.328477088981977e-09
2025-05-14 14:39:10.340,-23.09514201328144,-13.557361898694316,-36.65250395211016,-9.092164657084651e-09
2025-05-14 14:39:10.344,-22.361955654682944,-14.060494079877577,-36.42244977610075,-8.856609852818492e-09
2025-05-14 14:39:10.348,-21.668586728088584,-15.495102326450532,-37.16368909777654,-8.621824336900388e-09
2025-05-14 14:39:10.352,-21.22096699966269,-14.864628976667063,-36.08559602114947,-8.38781683548043e-09
2025-05-14 14:39:10.356,-20.635783662734365,-12.976623704014475,-33.61240741282427,-8.154606721434638e-09
2025-05-14 14:39:10.360,-19.64086659211707,-13.338564749722888,-32.97943138920185,-7.922216245210638e-09
2025-05-14 14:39:10.364,-18.512829701072757,-15.97467425666579,-34.487504006689534,-7.690667894453225e-09
2025-05-14 14:39:10.368,-17.433338725519974,-17.103835768628173,-34.53717454469227,-7.459996914838736e-09
2025-05-14 14:39:10.372,-16.067367236534196,-15.77504522133829,-31.842412509693904,-7.230263447347356e-09
2025-05-14 14:39:10.376,-14.29785083707299,-16.0814368064395,-30.379287696525136,-7.001552518522337e-09
2025-05-14 14:39:10.379,-12.725478264931205,-20.395496936757127,-33.12097525615618,-6.773955954680234e-09
2025-05-14 14:39:10.383,-11.820502648132056,-24.40863318588264,-36.22913589004301,-6.5475454205174474e-09
2025-05-14 14:39:10.387,-11.148491244870014,-22.57948306784097,-33.72797437003962,-6.322360805211378e-09
2025-05-14 14:39:10.391,-9.970753310810924,-15.902477947144789,-25.87323131641071,-6.098415677547106e-09
2025-05-14 14:39:10.395,-8.177252968701314,-10.330419952580662,-18.50767298105276,-5.875699063400652e-09
2025-05-14 14:39:10.399,-6.3337703260755145,-9.001102756789962,-15.33487314412183,-5.654176915927823e-09
2025-05-14 14:39:10.403,-5.068854331897196,-9.832182949201709,-14.901037343661672,-5.433812846206886e-09
2025-05-14 14:39:10.407,-4.461494080459836,-10.176627745936486,-14.638121890045271,-5.214595313905788e-09
2025-05-14 14:39:10.411,-3.9978255719460742,-10.092781641805509,-14.090607278588603,-4.996534863527202e-09
2025-05-14 14:39:10.415,-3.2431285639947287,-10.334840083499586,-13.577968713712464,-4.7796294534701085e-09
2025-05-14 14:39:10.418,-2.35742529264298,-10.10466673488515,-12.462092095032254,-4.563840874398867e-09
2025-05-14 14:39:10.422,-1.7244450548358154,-8.425939447734926,-10.150384571133984,-4.349107949385385e-09
2025-05-14 14:39:10.426,-1.3602323697897734,-6.035006380886468,-7.395238820320401,-4.135372722165132e-09
2025-05-14 14:39:10.430,-0.9538838014619756,-4.2016743601959705,-5.1555582325658165,-3.922589586365931e-09
2025-05-14 14:39:10.434,-0.2754060331194397,-2.479650690462224,-2.755056795728171,-3.710719340136487e-09
2025-05-14 14:39:10.438,0.6728297375483419,0.8807164377294712,1.5535461020990389,-3.499728372535902e-09
2025-05-14 14:39:10.442,1.7738930836461844,6.49407000601008,8.26796301548488,-3.289600745862221e-09
2025-05-14 14:39:10.446,2.868820636483891,12.9232440917609,15.79206465292804,-3.080349795564133e-09
2025-05-14 14:39:10.450,3.743772150591207,18.394479338267708,22.13825141237237,-2.8720121431584278e-09
2025-05-14 14:39:10.454,4.211118835010311,22.892606451655062,27.10372520918198,-2.664627325265666e-09
2025-05-14 14:39:10.458,4.248720977928915,28.191520875819517,32.44024177534884,-2.458223593320329e-09
2025-05-14 14:39:10.461,3.9691853939004975,35.84784275275969,39.81702806722883,-2.2528221056390544e-09
2025-05-14 14:39:10.465,3.459157548248996,45.60325437199119,49.06241183972199,-2.0484493841726187e-09
2025-05-14 14:39:10.469,2.7573323528891107,56.13925277470506,58.89658504612533,-1.8451347629101102e-09
2025-05-14 14:39:10.473,1.9433374448950795,66.93310536773055,68.87644273031026,-1.6428917494212263e-09
2025-05-14 14:39:10.477,1.083665755858534,78.37014003865679,79.45380571127484,-1.4417145934519775e-09
2025-05-14 14:39:10.481,0.1034600846906311,89.95818989089402,90.06164989134827,-1.2416019874067823e-09
2025-05-14 14:39:10.485,-1.122281624921088,99.75181334525716,98.62953163520493,-1.0425774676641555e-09
2025-05-14 14:39:10.489,-2.50605182459722,106.31336702144904,103.80731511093973,-8.446807372097937e-10
2025-05-14 14:39:10.493,-3.678684553012039,109.75885696463878,106.08017232488793,-6.47941761620351e-10
2025-05-14 14:39:10.497,-4.25849111517314,109.4954121183311,105.23692091551726,-4.523663723806641e-10
2025-05-14 14:39:10.501,-4.210030875533787,103.219523090193,99.00949212618698,-2.5794487845331367e-10
2025-05-14 14:39:10.504,-3.935500081668909,91.14990567584456,87.21440550498355,-6.46712649472806e-11
