Timestamp,GSR_Filtered,PPG_Filtered,FMS,Condition
2025-05-14 14:52:27.943,-6.836665283630387e-06,-1.950787158200149,0,DB
2025-05-14 14:52:27.951,-8.510433312378386e-06,-1.835652004076253,0,DB
2025-05-14 14:52:27.959,-1.1026854584813694e-05,-1.710889521275076,0,DB
2025-05-14 14:52:27.967,-1.4110391699238791e-05,-1.579129124807027,0,DB
2025-05-14 14:52:27.974,-1.7455924691895664e-05,-1.4429465155689984,0,DB
2025-05-14 14:52:27.982,-2.0736524324799103e-05,-1.3048031621448957,0,DB
2025-05-14 14:52:27.990,-2.361244467973265e-05,-1.166993941784262,0,DB
2025-05-14 14:52:27.998,-2.574120641468505e-05,-1.0316040734921563,0,DB
2025-05-14 14:52:28.006,-2.6788569035246e-05,-0.9004760336458566,0,DB
2025-05-14 14:52:28.014,-2.644010844443812e-05,-0.7751867044597921,0,DB
2025-05-14 14:52:28.021,-2.441302794033356e-05,-0.6570345953036976,0,DB
2025-05-14 14:52:28.029,-2.0467740504169992e-05,-0.5470366208217304,0,DB
2025-05-14 14:52:28.037,-1.4418673649920589e-05,-0.4459336358238576,0,DB
2025-05-14 14:52:28.045,-6.143681417132435e-06,-0.3542037243698309,0,DB
2025-05-14 14:52:28.053,4.408563320368362e-06,-0.2720821193163485,0,DB
2025-05-14 14:52:28.060,1.7213742190587e-05,-0.1995865790289869,0,DB
2025-05-14 14:52:28.068,3.217001155648145e-05,-0.1365470515826871,0,DB
2025-05-14 14:52:28.076,4.909926247373261e-05,-0.0826384902667901,0,DB
2025-05-14 14:52:28.084,6.775154236256257e-05,-0.0374157239666863,0,DB
2025-05-14 14:52:28.092,8.781248587483301e-05,-0.0003493124495592,0,DB
2025-05-14 14:52:28.099,0.0001089134032244,0.0291386811384387,0,DB
2025-05-14 14:52:28.107,0.0001306434922885,0.0516400880281548,0,DB
2025-05-14 14:52:28.115,0.0001525635372731,0.0677283161690808,0,DB
2025-05-14 14:52:28.123,0.0001742204415414,0.077929443805227,0,DB
2025-05-14 14:52:28.131,0.000195161980098,0.0826978271648291,0,DB
2025-05-14 14:52:28.139,0.0002149512148237,0.0823972469557632,0,DB
2025-05-14 14:52:28.146,0.0002331800789433,0.0772884721457318,0,DB
2025-05-14 14:52:28.154,0.0002494817026857,0.0675238990717557,0,DB
2025-05-14 14:52:28.162,0.0002635411181954,0.0531496333553991,0,DB
2025-05-14 14:52:28.170,0.0002751040475945,0.0341150366322649,0,DB
2025-05-14 14:52:28.178,0.0002839835433716,0.0102893832846933,0,DB
2025-05-14 14:52:28.185,0.0002900643151789,-0.0185151094282065,0,DB
2025-05-14 14:52:28.193,0.0002933046422736,-0.0525149757711482,0,DB
2025-05-14 14:52:28.201,0.0002937358371428,-0.0919233346371366,0,DB
2025-05-14 14:52:28.209,0.0002914592944113,-0.1369155221194706,0,DB
2025-05-14 14:52:28.217,0.0002866412310409,-0.1875943384992349,0,DB
2025-05-14 14:52:28.224,0.0002795053001106,-0.2439567697366133,0,DB
2025-05-14 14:52:28.232,0.0002703233418424,-0.3058639734640025,0,DB
2025-05-14 14:52:28.240,0.0002594046207393,-0.3730161404494471,0,DB
2025-05-14 14:52:28.248,0.0002470839768745,-0.4449335723768461,0,DB
2025-05-14 14:52:28.256,0.0002337093711402,-0.5209449815358344,0,DB
2025-05-14 14:52:28.264,0.0002196293143831,-0.6001836466234597,0,DB
2025-05-14 14:52:28.271,0.000205180653329,-0.6815916794217824,0,DB
2025-05-14 14:52:28.279,0.0001906771668152,-0.7639322967319502,0,DB
2025-05-14 14:52:28.287,0.0001763994056535,-0.8458096783330054,0,DB
2025-05-14 14:52:28.295,0.00016258617647,-0.925695751198706,0,DB
2025-05-14 14:52:28.303,0.0001494280250819,-1.0019630902219832,0,DB
2025-05-14 14:52:28.310,0.0001370630225995,-1.0729230664411606,0,DB
2025-05-14 14:52:28.318,0.0001255750836567,-1.1368683854725905,0,DB
2025-05-14 14:52:28.326,0.0001149949311241,-1.1921192078200675,0,DB
2025-05-14 14:52:28.334,0.0001053036679835,-1.2370720918744431,0,DB
2025-05-14 14:52:28.342,9.643875147720914e-05,-1.2702510182643614,0,DB
2025-05-14 14:52:28.349,8.830201434939978e-05,-1.2903597193499747,0,DB
2025-05-14 14:52:28.357,8.076925661616254e-05,-1.296334439502998,0,DB
2025-05-14 14:52:28.365,7.370084337564135e-05,-1.2873960899199548,0,DB
2025-05-14 14:52:28.373,6.695269164577081e-05,-1.2631005442849303,0,DB
2025-05-14 14:52:28.381,6.038701298496291e-05,-1.2233855636607307,0,DB
2025-05-14 14:52:28.389,5.38821986402332e-05,-1.1686125610394538,0,DB
2025-05-14 14:52:28.396,4.734128912685316e-05,-1.0996011441023936,0,DB
2025-05-14 14:52:28.404,4.0698558497017455e-05,-1.017654141384582,0,DB
2025-05-14 14:52:28.412,3.3923862234970285e-05,-0.924570660702513,0,DB
2025-05-14 14:52:28.420,2.702454301416967e-05,-0.8226446914108487,0,DB
2025-05-14 14:52:28.428,2.0044854350106906e-05,-0.7146468852348233,0,DB
2025-05-14 14:52:28.435,1.3063033583755069e-05,-0.6037874696963367,0,DB
2025-05-14 14:52:28.443,6.186306180109307e-06,-0.4936587861106011,0,DB
2025-05-14 14:52:28.451,-4.557861838767376e-07,-0.3881567014366285,0,DB
2025-05-14 14:52:28.459,-6.719262646086324e-06,-0.2913810936535778,0,DB
2025-05-14 14:52:28.467,-1.2454255037181862e-05,-0.2075167056443143,0,DB
2025-05-14 14:52:28.474,-1.7513679441862656e-05,-0.140696844101536,0,DB
2025-05-14 14:52:28.482,-2.176149712478928e-05,-0.0948536056756697,0,DB
2025-05-14 14:52:28.490,-2.5080093801552013e-05,-0.0735594759610495,0,DB
2025-05-14 14:52:28.498,-2.7376385366725943e-05,-0.079866193792725,0,DB
2025-05-14 14:52:28.506,-2.858636977308856e-05,-0.1161476246313682,0,DB
2025-05-14 14:52:28.514,-2.8677997196669714e-05,-0.1839539682187181,0,DB
2025-05-14 14:52:28.521,-2.7652403318421943e-05,-0.2838848760841346,0,DB
2025-05-14 14:52:28.529,-2.554370597888828e-05,-0.4154889269141664,0,DB
2025-05-14 14:52:28.537,-2.241765867431437e-05,-0.5771963670209002,0,DB
2025-05-14 14:52:28.545,-1.836944769174433e-05,-0.7662910478887927,0,DB
2025-05-14 14:52:28.553,-1.3520824791606062e-05,-0.978926083466578,0,DB
2025-05-14 14:52:28.560,-8.016657746776659e-06,-1.2101859368935266,0,DB
2025-05-14 14:52:28.568,-2.0209306577360743e-06,-1.454195495959016,0,DB
2025-05-14 14:52:28.576,4.287752317649382e-06,-1.7042743145712282,0,DB
2025-05-14 14:52:28.584,1.0721046361692855e-05,-1.9531317295081223,0,DB
2025-05-14 14:52:28.592,1.7085951216437885e-05,-2.193096185127247,0,DB
2025-05-14 14:52:28.599,2.3189880110058188e-05,-2.4163700009837017,0,DB
2025-05-14 14:52:28.607,2.884548868263258e-05,-2.615299165674196,0,DB
2025-05-14 14:52:28.615,3.387509480939471e-05,-2.7826466578010094,0,DB
2025-05-14 14:52:28.623,3.811460628583276e-05,-2.9118573531520764,0,DB
2025-05-14 14:52:28.631,4.1416942374761184e-05,-2.9973027991583763,0,DB
2025-05-14 14:52:28.639,4.365496237335262e-05,-3.0344950022284065,0,DB
2025-05-14 14:52:28.646,4.472391238543473e-05,-3.0202598172889648,0,DB
2025-05-14 14:52:28.654,4.454339255495231e-05,-2.952862451298462,0,DB
2025-05-14 14:52:28.662,4.305884232255252e-05,-2.832079866620484,0,DB
2025-05-14 14:52:28.670,4.024254380658951e-05,-2.6592173551302944,0,DB
2025-05-14 14:52:28.678,3.60941543495144e-05,-2.4370691061394814,0,DB
2025-05-14 14:52:28.685,3.064079787801973e-05,-2.169825072585419,0,DB
2025-05-14 14:52:28.693,2.393676186922596e-05,-1.8629287244430248,0,DB
2025-05-14 14:52:28.701,1.6062841950291048e-05,-1.5228922575620367,0,DB
2025-05-14 14:52:28.709,7.125338017260003e-06,-1.157077413970332,0,DB
2025-05-14 14:52:28.717,-2.7453418068366107e-06,-0.7734512055196963,0,DB
2025-05-14 14:52:28.724,-1.3396531137266e-05,-0.3803264836434296,0,DB
2025-05-14 14:52:28.732,-2.465565602774681e-05,0.0139025396844071,0,DB
2025-05-14 14:52:28.740,-3.633311069115487e-05,0.4010200149520865,0,DB
2025-05-14 14:52:28.748,-4.822565227253494e-05,0.7732343265600228,0,DB
2025-05-14 14:52:28.756,-6.012024662298036e-05,1.1234020590716995,0,DB
2025-05-14 14:52:28.764,-7.179821619587252e-05,1.4452232875029123,0,DB
2025-05-14 14:52:28.771,-8.303950278900217e-05,1.733402850453833,0,DB
2025-05-14 14:52:28.779,-9.362690536641712e-05,1.9837737570603495,0,DB
2025-05-14 14:52:28.787,-0.0001033502602994,2.19338036861048,0,DB
2025-05-14 14:52:28.795,-0.0001120106192473,2.360520439453644,0,DB
2025-05-14 14:52:28.803,-0.0001194244788416,2.484746470969669,0,DB
2025-05-14 14:52:28.810,-0.00012542802537,2.5668281033896574,0,DB
2025-05-14 14:52:28.818,-0.0001298812478165,2.60867841846446,0,DB
2025-05-14 14:52:28.826,-0.0001326717175331,2.613248027130594,0,DB
2025-05-14 14:52:28.834,-0.000133717845641,2.5843916520164743,0,DB
2025-05-14 14:52:28.842,-0.0001329714767979,2.52671257440528,0,DB
2025-05-14 14:52:28.849,-0.0001304197291123,2.445390793873975,0,DB
2025-05-14 14:52:28.857,-0.000126086033158,2.34600104168434,0,DB
2025-05-14 14:52:28.865,-0.0001200303568747,2.234326888963152,0,DB
2025-05-14 14:52:28.873,-0.0001123486283197,2.11617708818142,0,DB
2025-05-14 14:52:28.881,-0.0001031713858272,1.9972099745876923,0,DB
2025-05-14 14:52:28.889,-9.266169646130571e-05,1.882771237320323,0,DB
2025-05-14 14:52:28.896,-8.101239023799161e-05,1.7777496686154108,0,DB
2025-05-14 14:52:28.904,-6.844266102981413e-05,1.6864546496763038,0,DB
2025-05-14 14:52:28.912,-5.51940869292864e-05,1.6125181788299496,0,DB
2025-05-14 14:52:28.920,-4.152612461421009e-05,1.5588232407645617,0,DB
2025-05-14 14:52:28.928,-2.771113519426856e-05,1.5274593029687005,0,DB
2025-05-14 14:52:28.935,-1.4029004141183694e-05,1.519704750516916,0,DB
2025-05-14 14:52:28.943,-7.614258927368787e-07,1.5360351709849411,0,DB
2025-05-14 14:52:28.951,1.1814065116075611e-05,1.5761556100494942,0,DB
2025-05-14 14:52:28.959,2.343022099477006e-05,1.6390542628100662,0,DB
2025-05-14 14:52:28.967,3.383625168185662e-05,1.7230745688862017,0,DB
2025-05-14 14:52:28.974,4.280390962754468e-05,1.826002356820051,0,DB
2025-05-14 14:52:28.982,5.01333375999005e-05,1.9451645376243256,0,DB
2025-05-14 14:52:28.990,5.565851158281702e-05,2.0775358596551645,0,DB
2025-05-14 14:52:28.998,5.925209599459668e-05,2.219850367405572,0,DB
2025-05-14 14:52:29.006,6.082951875041399e-05,2.368714405624949,0,DB
2025-05-14 14:52:29.014,6.0352071114465785e-05,2.520718233397373,0,DB
2025-05-14 14:52:29.021,5.782884390361335e-05,2.672543531529182,0,DB
2025-05-14 14:52:29.029,5.331732933734785e-05,2.821064288080981,0,DB
2025-05-14 14:52:29.037,4.692254834436516e-05,2.963438731643423,0,DB
2025-05-14 14:52:29.045,3.8794607725750015e-05,3.0971901598794425,0,DB
2025-05-14 14:52:29.053,2.9124651047076263e-05,3.22027469761178,0,DB
2025-05-14 14:52:29.060,1.81392417115702e-05,3.331134233143568,0,DB
2025-05-14 14:52:29.068,6.09330591008358e-06,3.428733043799898,0,DB
2025-05-14 14:52:29.076,-6.738134127909645e-06,3.5125769517118077,0,DB
2025-05-14 14:52:29.084,-2.0069093527157868e-05,3.582714264208434,0,DB
2025-05-14 14:52:29.092,-3.361217165169753e-05,3.6397182543640394,0,DB
2025-05-14 14:52:29.099,-4.7087977529277005e-05,3.684651513179207,0,DB
2025-05-14 14:52:29.107,-6.023387211464862e-05,3.719013123366387,0,DB
2025-05-14 14:52:29.115,-7.281150448619729e-05,3.744670219150642,0,DB
2025-05-14 14:52:29.123,-8.461272209871753e-05,3.763776054690537,0,DB
2025-05-14 14:52:29.131,-9.546359914170968e-05,3.7786771585791423,0,DB
2025-05-14 14:52:29.139,-0.0001052265351965,3.791812470261742,0,DB
2025-05-14 14:52:29.146,-0.0001138005862687,3.805607520231385,0,DB
2025-05-14 14:52:29.154,-0.0001211203416767,3.8223667302943,0,DB
2025-05-14 14:52:29.162,-0.0001271537051363,3.8441667906872254,0,DB
2025-05-14 14:52:29.170,-0.0001318988848532,3.8727538529728025,0,DB
2025-05-14 14:52:29.178,-0.0001353808176232,3.909447010992234,0,DB
2025-05-14 14:52:29.185,-0.0001376472172648,3.955050279052145,0,DB
2025-05-14 14:52:29.193,-0.0001387644510189,4.009775059941786,0,DB
2025-05-14 14:52:29.201,-0.0001388134544112,4.073174952694489,0,DB
2025-05-14 14:52:29.209,-0.0001378858525356,4.144094692851756,0,DB
2025-05-14 14:52:29.217,-0.0001360803779229,4.220635043788999,0,DB
2025-05-14 14:52:29.224,-0.0001334996100189,4.30013554887997,0,DB
2025-05-14 14:52:29.232,-0.0001302470349708,4.379177175603081,0,DB
2025-05-14 14:52:29.240,-0.0001264244256748,4.453606981501918,0,DB
2025-05-14 14:52:29.248,-0.0001221295503249,4.518586945501333,0,DB
2025-05-14 14:52:29.256,-0.0001174542234854,4.568668973477534,0,DB
2025-05-14 14:52:29.264,-0.0001124827155913,4.597897747025419,0,DB
2025-05-14 14:52:29.271,-0.0001072905350639,4.59994249000173,0,DB
2025-05-14 14:52:29.279,-0.0001019435922546,4.568257841080799,0,DB
2025-05-14 14:52:29.287,-9.649774660760049e-05,4.496272824516467,0,DB
2025-05-14 14:52:29.295,-9.09987281742944e-05,4.377605419697809,0,DB
2025-05-14 14:52:29.303,-8.548241240589011e-05,4.2062984977573645,0,DB
2025-05-14 14:52:29.310,-7.997541345738348e-05,3.97707101575156,0,DB
2025-05-14 14:52:29.318,-7.449594658515855e-05,3.685576463250222,0,DB
2025-05-14 14:52:29.326,-6.90548951232385e-05,3.3286587902735945,0,DB
2025-05-14 14:52:29.334,-6.365700252535547e-05,2.9045945656101173,0,DB
2025-05-14 14:52:29.342,-5.830209560700779e-05,2.4133090758511937,0,DB
2025-05-14 14:52:29.349,-5.298623196651265e-05,1.8565536240594345,0,DB
2025-05-14 14:52:29.357,-4.7702654782501424e-05,1.23803154966249,0,DB
2025-05-14 14:52:29.365,-4.244244200315978e-05,0.5634615625349327,0,DB
2025-05-14 14:52:29.373,-3.7194775483543134e-05,-0.1594310875902358,0,DB
2025-05-14 14:52:29.381,-3.194684056122395e-05,-0.9210023134543256,0,DB
2025-05-14 14:52:29.389,-2.668347198468076e-05,-1.7098589445676629,0,DB
2025-05-14 14:52:29.396,-2.138673854088053e-05,-2.5131096034454274,0,DB
2025-05-14 14:52:29.404,-1.6035680537200687e-05,-3.316691329869633,0,DB
2025-05-14 14:52:29.412,-1.0606393684699066e-05,-4.105762109359619,0,DB
2025-05-14 14:52:29.420,-5.072611818496596e-06,-4.865145301050835,0,DB
2025-05-14 14:52:29.428,5.931094726033065e-07,-5.579808436391695,0,DB
2025-05-14 14:52:29.435,6.417562439843031e-06,-6.235356262863504,0,DB
2025-05-14 14:52:29.443,1.2424424201658792e-05,-6.818516457912887,0,DB
2025-05-14 14:52:29.451,1.863123725641653e-05,-7.317596267132896,0,DB
2025-05-14 14:52:29.459,2.50459709379428e-05,-7.722889449720018,0,DB
2025-05-14 14:52:29.467,3.1663359994459195e-05,-8.027015256626765,0,DB
2025-05-14 14:52:29.474,3.846127028022163e-05,-8.2251745412491,0,DB
2025-05-14 14:52:29.482,4.539738827930271e-05,-8.315312258426564,0,DB
2025-05-14 14:52:29.490,5.240656879812219e-05,-8.298180252765746,0,DB
2025-05-14 14:52:29.498,5.939920019924035e-05,-8.177299062543984,0,DB
2025-05-14 14:52:29.506,6.626094610433911e-05,-7.958822167927699,0,DB
2025-05-14 14:52:29.514,7.285416500867046e-05,-7.651310419385203,0,DB
2025-05-14 14:52:29.521,7.902116204258725e-05,-7.2654280716577215,0,DB
2025-05-14 14:52:29.529,8.458920488853463e-05,-6.81357475850077,0,DB
2025-05-14 14:52:29.537,8.937701483964738e-05,-6.309469771961703,0,DB
2025-05-14 14:52:29.545,9.32023005028731e-05,-5.767706113566325,0,DB
2025-05-14 14:52:29.553,9.588985072317928e-05,-5.2032919793484265,0,DB
2025-05-14 14:52:29.560,9.72797127590114e-05,-4.631196702959248,0,DB
2025-05-14 14:52:29.568,9.723502066302806e-05,-4.06591684109334,0,DB
2025-05-14 14:52:29.576,9.564909506459402e-05,-3.5210762065723644,0,DB
2025-05-14 14:52:29.584,9.245150480056284e-05,-3.0090714082893824,0,DB
2025-05-14 14:52:29.592,8.76128521264636e-05,-2.5407720033301158,0,DB
2025-05-14 14:52:29.599,8.114809443176726e-05,-2.125281841710869,0,DB
2025-05-14 14:52:29.607,7.311823351651441e-05,-1.7697656982467496,0,DB
2025-05-14 14:52:29.615,6.363021285057417e-05,-1.479342920221396,0,DB
2025-05-14 14:52:29.623,5.283491134758705e-05,-1.25704762679131,0,DB
2025-05-14 14:52:29.631,4.092323070415145e-05,-1.1038530069009995,0,DB
2025-05-14 14:52:29.639,2.81204176454154e-05,-1.0187554935264125,0,DB
2025-05-14 14:52:29.646,1.467889518803428e-05,-0.9989130534699404,0,DB
2025-05-14 14:52:29.654,8.69962613145848e-07,-1.039830531985225,0,DB
2025-05-14 14:52:29.662,-1.3025240982451646e-05,-1.1355839404093673,0,DB
2025-05-14 14:52:29.670,-2.672510714015416e-05,-1.2790747876946478,0,DB
2025-05-14 14:52:29.678,-3.995685672237461e-05,-1.462305051320283,0,DB
2025-05-14 14:52:29.685,-5.2465353373477615e-05,-1.6766631746427745,0,DB
2025-05-14 14:52:29.693,-6.402101472456379e-05,-1.91321157342883,0,DB
2025-05-14 14:52:29.701,-7.442642817541186e-05,-2.16296653175828,0,DB
2025-05-14 14:52:29.709,-8.352135214526567e-05,-2.417162054447162,0,DB
2025-05-14 14:52:29.717,-9.118590635667732e-05,-2.667490195527399,0,DB
2025-05-14 14:52:29.724,-9.73419001064392e-05,-2.9063115616310524,0,DB
2025-05-14 14:52:29.732,-0.000101952389059,-3.126831043109453,0,DB
2025-05-14 14:52:29.740,-0.0001050196740393,-3.3232352943515933,0,DB
2025-05-14 14:52:29.748,-0.0001065820455657,-3.4907900081694176,0,DB
2025-05-14 14:52:29.756,-0.0001067096129152,-3.625896551171455,0,DB
2025-05-14 14:52:29.764,-0.0001054995240057,-3.726108992950094,0,DB
2025-05-14 14:52:29.771,-0.0001030708082374,-3.79011391449174,0,DB
2025-05-14 14:52:29.779,-9.955900879038412e-05,-3.817676562153544,0,DB
2025-05-14 14:52:29.787,-9.511074056448575e-05,-3.8095578701707744,0,DB
2025-05-14 14:52:29.795,-8.987830446834003e-05,-3.7674075675068384,0,DB
2025-05-14 14:52:29.803,-8.401448829340023e-05,-3.693638992318717,0,DB
2025-05-14 14:52:29.810,-7.766768013318955e-05,-3.59129135866099,0,DB
2025-05-14 14:52:29.818,-7.097741147933003e-05,-3.4638850776909917,0,DB
2025-05-14 14:52:29.826,-6.407043462235737e-05,-3.3152753729191398,0,DB
2025-05-14 14:52:29.834,-5.7057423632136856e-05,-3.149508901360595,0,DB
2025-05-14 14:52:29.842,-5.003037074902602e-05,-2.9706874557728518,0,DB
2025-05-14 14:52:29.849,-4.30607311572434e-05,-2.78284212732396,0,DB
2025-05-14 14:52:29.857,-3.6198349419274935e-05,-2.589820596745912,0,DB
2025-05-14 14:52:29.865,-2.947118081626449e-05,-2.3951895350124666,0,DB
2025-05-14 14:52:29.873,-2.2885800870933995e-05,-2.2021534663907603,0,DB
2025-05-14 14:52:29.881,-1.6428676760133213e-05,-2.0134909018150533,0,DB
2025-05-14 14:52:29.889,-1.006815542936272e-05,-1.8315080978809053,0,DB
2025-05-14 14:52:29.896,-3.7571052374499217e-06,-1.6580104273872864,0,DB
2025-05-14 14:52:29.904,2.5638688991935344e-06,-1.4942910367351112,0,DB
2025-05-14 14:52:29.912,8.962732414838178e-06,-1.3411361808358888,0,DB
2025-05-14 14:52:29.920,1.551195956690066e-05,-1.1988463367615037,0,DB
2025-05-14 14:52:29.928,2.228422513165785e-05,-1.0672718831603212,0,DB
2025-05-14 14:52:29.935,2.934798103373147e-05,-0.9458617875718608,0,DB
2025-05-14 14:52:29.943,3.676305725556059e-05,-0.8337233766675758,0,DB
2025-05-14 14:52:29.951,4.457643124031337e-05,-0.7296908982973833,0,DB
2025-05-14 14:52:29.959,5.281831172444653e-05,-0.6324002547541725,0,DB
2025-05-14 14:52:29.967,6.149868113069523e-05,-0.5403670343872209,0,DB
2025-05-14 14:52:29.974,7.060443494859749e-05,-0.4520648286828973,0,DB
2025-05-14 14:52:29.982,8.009724659754825e-05,-0.3660008165490734,0,DB
2025-05-14 14:52:29.990,8.991227184664513e-05,-0.2807857338061065,0,DB
2025-05-14 14:52:29.998,9.995778779857378e-05,-0.1951956175889116,0,DB
2025-05-14 14:52:30.006,0.0001101158377097,-0.1082231085822937,0,DB
2025-05-14 14:52:30.014,0.0001202439246623,-0.0191165913350776,0,DB
2025-05-14 14:52:30.021,0.0001301777646701,0.0725939669631011,0,DB
2025-05-14 14:52:30.029,0.000139735073755,0.1670849832487379,0,DB
2025-05-14 14:52:30.037,0.0001487203246817,0.2642408773089555,0,DB
2025-05-14 14:52:30.045,0.0001569303684359,0.3636685473463334,0,DB
2025-05-14 14:52:30.053,0.0001641607744798,0.4647233230625887,0,DB
2025-05-14 14:52:30.060,0.0001702127038499,0.5665445330576487,0,DB
2025-05-14 14:52:30.068,0.0001749000920079,0.6680984804162046,0,DB
2025-05-14 14:52:30.076,0.0001780568859342,0.768226448597228,0,DB
2025-05-14 14:52:30.084,0.0001795440542655,0.86569536976395,0,DB
2025-05-14 14:52:30.092,0.0001792560723942,0.959248966004818,0,DB
2025-05-14 14:52:30.100,0.0001771265784033,1.047657485941079,0,DB
2025-05-14 14:52:30.107,0.0001731329023952,1.1297645570906083,0,DB
2025-05-14 14:52:30.115,0.0001672991929148,1.204530104684789,0,DB
2025-05-14 14:52:30.123,0.0001596979011113,1.2710686981167592,0,DB
2025-05-14 14:52:30.131,0.0001504494370265,1.3286830319790175,0,DB
2025-05-14 14:52:30.139,0.0001397198833763,1.3768924976829706,0,DB
2025-05-14 14:52:30.146,0.0001277167402679,1.4154569353916873,0,DB
2025-05-14 14:52:30.154,0.0001146827786481,1.4443956650702914,0,DB
2025-05-14 14:52:30.162,0.0001008881993391,1.4640017775928813,0,DB
2025-05-14 14:52:30.170,8.662142432464863e-05,1.474851433881806,0,DB
2025-05-14 14:52:30.178,7.217897468622218e-05,1.477807609289868,0,DB
2025-05-14 14:52:30.185,5.785498910744684e-05,1.4740173968129615,0,DB
2025-05-14 14:52:30.193,4.393098103011107e-05,1.4649017257963342,0,DB
2025-05-14 14:52:30.201,3.066641211773033e-05,1.452136236708443,0,DB
2025-05-14 14:52:30.209,1.8290585270088645e-05,1.4376221309606168,0,DB
2025-05-14 14:52:30.217,6.996255597606235e-06,1.4234461148760942,0,DB
2025-05-14 14:52:30.225,-3.064751638653645e-06,1.4118290786025285,0,DB
2025-05-14 14:52:30.232,-1.1783736641863213e-05,1.4050638655921168,0,DB
2025-05-14 14:52:30.240,-1.909508472221629e-05,1.4054433392811836,0,DB
2025-05-14 14:52:30.248,-2.4974100826238046e-05,1.4151808597003233,0,DB
2025-05-14 14:52:30.256,-2.943300194636094e-05,1.4363261489454977,0,DB
2025-05-14 14:52:30.264,-3.251550703170493e-05,1.470680254351442,0,DB
2025-05-14 14:52:30.271,-3.429058001421737e-05,1.5197138247900022,0,DB
2025-05-14 14:52:30.279,-3.484592181039038e-05,1.584493130114726,0,DB
2025-05-14 14:52:30.287,-3.428173762143418e-05,1.665618136188597,0,DB
2025-05-14 14:52:30.295,-3.270514039791883e-05,1.7631764958269855,0,DB
2025-05-14 14:52:30.303,-3.022536581228928e-05,1.8767165665326817,0,DB
2025-05-14 14:52:30.310,-2.694984486727514e-05,2.005241585931519,0,DB
2025-05-14 14:52:30.318,-2.298112277798917e-05,2.147226006294515,0,DB
2025-05-14 14:52:30.326,-1.841459554229959e-05,2.300653793653154,0,DB
2025-05-14 14:52:30.334,-1.3337028752311422e-05,2.46307731511229,0,DB
2025-05-14 14:52:30.342,-7.825815814362155e-06,2.6316943456269097,0,DB
2025-05-14 14:52:30.350,-1.9489236659135024e-06,2.803439791053523,0,DB
2025-05-14 14:52:30.357,4.234536220608285e-06,2.97508800387559,0,DB
2025-05-14 14:52:30.365,1.06731847911874e-05,3.1433610994813264,0,DB
2025-05-14 14:52:30.373,1.732178485105454e-05,3.305038481052656,0,DB
2025-05-14 14:52:30.381,2.413927858402945e-05,3.457062848797285,0,DB
2025-05-14 14:52:30.389,3.108655911364218e-05,3.596638288978923,0,DB
2025-05-14 14:52:30.396,3.81240913105328e-05,3.721316579895086,0,DB
2025-05-14 14:52:30.404,4.520950474673221e-05,3.829068569050132,0,DB
2025-05-14 14:52:30.412,5.229528747075324e-05,3.9183383079054432,0,DB
2025-05-14 14:52:30.420,5.932671279584511e-05,3.9880785119313535,0,DB
2025-05-14 14:52:30.428,6.624013228060745e-05,4.037766782950341,0,DB
2025-05-14 14:52:30.435,7.296176632580547e-05,4.067402838736642,0,DB
2025-05-14 14:52:30.443,7.940711918005937e-05,4.077487707189388,0,DB
2025-05-14 14:52:30.451,8.548113759422424e-05,4.068986437805093,0,DB
2025-05-14 14:52:30.459,9.107922031656878e-05,4.043276350650199,0,DB
2025-05-14 14:52:30.467,9.60891595522779e-05,4.002083182747767,0,DB
2025-05-14 14:52:30.475,0.0001003940350917,3.9474077175995785,0,DB
2025-05-14 14:52:30.482,0.0001038759762533,3.881445620844559,0,DB
2025-05-14 14:52:30.490,0.0001064205829475,3.806503282110478,0,DB
2025-05-14 14:52:30.498,0.0001079217055357,3.7249125010358113,0,DB
2025-05-14 14:52:30.506,0.0001082862504125,3.638946861583039,0,DB
2025-05-14 14:52:30.514,0.0001074386931986,3.550742605532757,0,DB
2025-05-14 14:52:30.521,0.0001053250231916,3.462226724032608,0,DB
2025-05-14 14:52:30.529,0.0001019159009419,3.3750548101960387,0,DB
2025-05-14 14:52:30.537,9.72088828737501e-05,3.2905609335117108,0,DB
2025-05-14 14:52:30.545,9.122965139701424e-05,3.2097213970857505,0,DB
2025-05-14 14:52:30.553,8.403228258563401e-05,3.1331337270799424,0,DB
2025-05-14 14:52:30.560,7.569867280790426e-05,3.061011641092969,0,DB
2025-05-14 14:52:30.568,6.633729789975212e-05,2.993196078956773,0,DB
2025-05-14 14:52:30.576,5.608145892718675e-05,2.929181690446632,0,DB
2025-05-14 14:52:30.584,4.508708762654578e-05,2.868157497823946,0,DB
2025-05-14 14:52:30.592,3.3530105253909645e-05,2.8090598259695763,0,DB
2025-05-14 14:52:30.600,2.1603302248984822e-05,2.7506350550598597,0,DB
2025-05-14 14:52:30.607,9.512730001066276e-06,2.6915093304205886,0,DB
2025-05-14 14:52:30.615,-2.526352743095534e-06,2.6302620850342326,0,DB
2025-05-14 14:52:30.623,-1.4293876880784129e-05,2.5655001084276727,0,DB
2025-05-14 14:52:30.631,-2.55695698322444e-05,2.49592893807567,0,DB
2025-05-14 14:52:30.639,-3.613767172954938e-05,2.4204185509800675,0,DB
2025-05-14 14:52:30.646,-4.579174349078458e-05,2.3380606763144973,0,DB
2025-05-14 14:52:30.654,-5.4339612902912304e-05,2.248215508303664,0,DB
2025-05-14 14:52:30.662,-6.160848162486436e-05,2.1505461410889017,0,DB
2025-05-14 14:52:30.670,-6.745010591049655e-05,2.045039642108454,0,DB
2025-05-14 14:52:30.678,-7.174583861017174e-05,1.932014294745768,0,DB
2025-05-14 14:52:30.685,-7.441125385822585e-05,1.812113143528033,0,DB
2025-05-14 14:52:30.693,-7.540008239959014e-05,1.6862845387967456,0,DB
2025-05-14 14:52:30.701,-7.470723184788457e-05,1.5557508788059646,0,DB
2025-05-14 14:52:30.709,-7.237072130692613e-05,1.4219671639133282,0,DB
2025-05-14 14:52:30.717,-6.847241209095408e-05,1.2865712911709144,0,DB
2025-05-14 14:52:30.725,-6.313746411744641e-05,1.1513282166831844,0,DB
2025-05-14 14:52:30.732,-5.65324911726744e-05,1.0180701981460971,0,DB
2025-05-14 14:52:30.740,-4.886242809590021e-05,0.8886353144130084,0,DB
2025-05-14 14:52:30.748,-4.036615952324679e-05,0.7648063635778553,0,DB
2025-05-14 14:52:30.756,-3.13109937230199e-05,0.6482520858051742,0,DB
2025-05-14 14:52:30.764,-2.198609672491611e-05,0.5404724549653491,0,DB
2025-05-14 14:52:30.771,-1.2695031747140308e-05,0.4427495402475844,0,DB
2025-05-14 14:52:30.779,-3.747577015069324e-06,0.3561051596060726,0,DB
2025-05-14 14:52:30.787,4.548978641167002e-06,0.2812662382618326,0,DB
2025-05-14 14:52:30.795,1.1898838880698837e-05,0.2186384593880819,0,DB
2025-05-14 14:52:30.803,1.802675675777798e-05,0.1682884680611083,0,DB
2025-05-14 14:52:30.810,2.2686882919348502e-05,0.1299345874082817,0,DB
2025-05-14 14:52:30.818,2.567112981273795e-05,0.1029457551829637,0,DB
2025-05-14 14:52:30.826,2.681677011324182e-05,0.0863482139646259,0,DB
2025-05-14 14:52:30.834,2.60129888393964e-05,0.0788394022550175,0,DB
2025-05-14 14:52:30.842,2.3206119220905373e-05,0.078808496119099,0,DB
2025-05-14 14:52:30.850,1.840331385646023e-05,0.0843631278743971,0,DB
2025-05-14 14:52:30.857,1.1674436439969358e-05,0.0933619357316547,0,DB
2025-05-14 14:52:30.865,3.152006484043335e-06,0.1034527443955685,0,DB
2025-05-14 14:52:30.873,-6.970909198205095e-06,0.1121163040916219,0,DB
2025-05-14 14:52:30.881,-1.8444890307192097e-05,0.1167155856030609,0,DB
2025-05-14 14:52:30.889,-3.097039714995839e-05,0.1145506075377333,0,DB
2025-05-14 14:52:30.896,-4.420594158584901e-05,0.1029186358409239,0,DB
2025-05-14 14:52:30.904,-5.777806450372827e-05,0.0791793363611506,0,DB
2025-05-14 14:52:30.912,-7.12929702272426e-05,0.0408240878980126,0,DB
2025-05-14 14:52:30.920,-8.434960993430013e-05,-0.0144517976532952,0,DB
2025-05-14 14:52:30.928,-9.655388688815646e-05,-0.0886757051979148,0,DB
2025-05-14 14:52:30.935,-0.0001075334943221,-0.1835254425059593,0,DB
2025-05-14 14:52:30.943,-0.0001169527306253,-0.3002607223735353,0,DB
2025-05-14 14:52:30.951,-0.0001245265133943,-0.4396613480199748,0,DB
2025-05-14 14:52:30.959,-0.0001300327770326,-0.6019751731932703,0,DB
2025-05-14 14:52:30.967,-0.0001333224925538,-0.7868788475035601,0,DB
2025-05-14 14:52:30.975,-0.0001343266574623,-0.9934540995527804,0,DB
2025-05-14 14:52:30.982,-0.0001330597439439,-1.2201818535341709,0,DB
2025-05-14 14:52:30.990,-0.0001296192760584,-1.4649558274309324,0,DB
2025-05-14 14:52:30.998,-0.0001241814392955,-1.7251164429331294,0,DB
2025-05-14 14:52:31.006,-0.0001169928890663,-1.99750492575286,0,DB
2025-05-14 14:52:31.014,-0.000108359189509,-2.278536449586229,0,DB
2025-05-14 14:52:31.021,-9.863055279195226e-05,-2.5642901579575064,0,DB
2025-05-14 14:52:31.029,-8.818572360297437e-05,-2.850612975307527,0,DB
2025-05-14 14:52:31.037,-7.741492574660894e-05,-3.133233373428352,0,DB
2025-05-14 14:52:31.045,-6.670276537386514e-05,-3.407880748328496,0,DB
2025-05-14 14:52:31.053,-5.641192932133609e-05,-3.6704058073657087,0,DB
2025-05-14 14:52:31.060,-4.686847580077981e-05,-3.916897354066036,0,DB
2025-05-14 14:52:31.068,-3.834947516274382e-05,-4.14379105450794,0,DB
2025-05-14 14:52:31.076,-3.107367742737025e-05,-4.347966138866058,0,DB
2025-05-14 14:52:31.084,-2.5195731405648163e-05,-4.526826509592945,0,DB
2025-05-14 14:52:31.092,-2.080424986352508e-05,-4.678363378619505,0,DB
2025-05-14 14:52:31.100,-1.792372075590811e-05,-4.801197326570705,0,DB
2025-05-14 14:52:31.107,-1.6519940615406662e-05,-4.894598547128609,0,DB
2025-05-14 14:52:31.115,-1.6508336444803636e-05,-4.958484976413256,0,DB
2025-05-14 14:52:31.123,-1.776429833559637e-05,-4.9933989645074455,0,DB
2025-05-14 14:52:31.131,-2.0134520524273136e-05,-5.00046406987064,0,DB
2025-05-14 14:52:31.139,-2.34483690869205e-05,-4.981324391296267,0,DB
2025-05-14 14:52:31.146,-2.752843469201991e-05,-4.938069542400033,0,DB
2025-05-14 14:52:31.154,-3.219963664700507e-05,-4.873148874340883,0,DB
2025-05-14 14:52:31.162,-3.729647867453675e-05,-4.789278834257946,0,DB
2025-05-14 14:52:31.170,-4.266829519322809e-05,-4.689347403000666,0,DB
2025-05-14 14:52:31.178,-4.818254895152435e-05,-4.576319399276574,0,DB
2025-05-14 14:52:31.185,-5.372641578146898e-05,-4.45314609445347,0,DB
2025-05-14 14:52:31.193,-5.920698947034666e-05,-4.32268208847234,0,DB
2025-05-14 14:52:31.201,-6.455044810853293e-05,-4.187611797760533,0,DB
2025-05-14 14:52:31.209,-6.970045455302676e-05,-4.050387252993451,0,DB
2025-05-14 14:52:31.217,-7.461595374876892e-05,-3.913178250405205,0,DB
2025-05-14 14:52:31.225,-7.926843879228545e-05,-3.777835289984138,0,DB
2025-05-14 14:52:31.232,-8.363873709432542e-05,-3.645865200925985,0,DB
2025-05-14 14:52:31.240,-8.77134191391511e-05,-3.518418920838937,0,DB
2025-05-14 14:52:31.248,-9.148101786050705e-05,-3.396290569451109,0,DB
2025-05-14 14:52:31.256,-9.492833110681e-05,-3.279926735084073,0,DB
2025-05-14 14:52:31.264,-9.803713892897382e-05,-3.1694447561841064,0,DB
2025-05-14 14:52:31.271,-0.0001007816766145,-3.06465870996163,0,DB
2025-05-14 14:52:31.279,-0.0001031271485874,-2.965111799619353,0,DB
2025-05-14 14:52:31.287,-0.0001050294626197,-2.870113851830448,0,DB
2025-05-14 14:52:31.295,-0.0001064362366122,-2.778782690229052,0,DB
2025-05-14 14:52:31.303,-0.0001072889960053,-2.690088227625571,0,DB
2025-05-14 14:52:31.310,-0.0001075263534663,-2.6028982032511645,0,DB
2025-05-14 14:52:31.318,-0.0001070878730549,-2.516024565258882,0,DB
2025-05-14 14:52:31.326,-0.000105918285103,-2.4282695522219293,0,DB
2025-05-14 14:52:31.334,-0.0001039717225004,-2.338470557019572,0,DB
2025-05-14 14:52:31.342,-0.000101215673053,-2.2455428644426147,0,DB
2025-05-14 14:52:31.350,-9.763437599293806e-05,-2.1485193467740125,0,DB
2025-05-14 14:52:31.357,-9.32314314877379e-05,-2.046586192298825,0,DB
2025-05-14 14:52:31.365,-8.803143955627548e-05,-1.939113749661404,0,DB
2025-05-14 14:52:31.373,-8.208053848939656e-05,-1.82568161757463,0,DB
2025-05-14 14:52:31.381,-7.544577191247234e-05,-1.7060972099514666,0,DB
2025-05-14 14:52:31.389,-6.821327708132278e-05,-1.5804071853698722,0,DB
2025-05-14 14:52:31.396,-6.048535379314504e-05,-1.4489013394354735,0,DB
2025-05-14 14:52:31.404,-5.237654216350922e-05,-1.3121088024873897,0,DB
2025-05-14 14:52:31.412,-4.40089070370078e-05,-1.17078664283761,0,DB
2025-05-14 14:52:31.420,-3.550679535081134e-05,-1.0259012287994649,0,DB
2025-05-14 14:52:31.428,-2.69913985738018e-05,-0.8786029373865955,0,DB
2025-05-14 14:52:31.435,-1.857551183689092e-05,-0.7301950050062129,0,DB
2025-05-14 14:52:31.443,-1.035892280595511e-05,-0.5820974907886962,0,DB
2025-05-14 14:52:31.451,-2.4248623543627223e-06,-0.4358074637057676,0,DB
2025-05-14 14:52:31.459,5.162118998973352e-06,-0.2928566294331094,0,DB
2025-05-14 14:52:31.467,1.235662619027434e-05,-0.1547676835810001,0,DB
2025-05-14 14:52:31.475,1.913122195355017e-05,-0.0230107176757641,0,DB
2025-05-14 14:52:31.482,2.5473748372360645e-05,0.1010389853633903,0,DB
2025-05-14 14:52:31.490,3.1383531077669906e-05,0.2161404508193098,0,DB
2025-05-14 14:52:31.498,3.6866905026599184e-05,0.3212225481681083,0,DB
2025-05-14 14:52:31.506,4.193248806730113e-05,0.4154143988104012,0,DB
2025-05-14 14:52:31.514,4.658658570726232e-05,0.4980696220045174,0,DB
2025-05-14 14:52:31.521,5.08290837755038e-05,0.5687835536583219,0,DB
2025-05-14 14:52:31.529,5.4650164983546966e-05,0.6274027777550144,0,DB
2025-05-14 14:52:31.537,5.802812938178482e-05,0.6740265502416785,0,DB
2025-05-14 14:52:31.545,6.092849647911615e-05,0.7089999677248191,0,DB
2025-05-14 14:52:31.553,6.330445626751612e-05,0.7328990376677886,0,DB
2025-05-14 14:52:31.560,6.509865572962875e-05,0.746508141883487,0,DB
2025-05-14 14:52:31.568,6.624624804101338e-05,0.750790743940264,0,DB
2025-05-14 14:52:31.576,6.667906147342566e-05,0.7468545575339408,0,DB
2025-05-14 14:52:31.584,6.633066484715194e-05,0.735912741733006,0,DB
2025-05-14 14:52:31.592,6.514204531621067e-05,0.7192429870488481,0,DB
2025-05-14 14:52:31.600,6.306757476668657e-05,0.6981465645598357,0,DB
2025-05-14 14:52:31.607,6.008089899125531e-05,0.6739094898992601,0,DB
2025-05-14 14:52:31.615,5.618034125459115e-05,0.6477678750496048,0,DB
2025-05-14 14:52:31.623,5.139339898133289e-05,0.6208792914769202,0,DB
2025-05-14 14:52:31.631,4.5779938768171696e-05,0.5943015572405338,0,DB
2025-05-14 14:52:31.639,3.943374800008891e-05,0.568979816784935,0,DB
2025-05-14 14:52:31.646,3.248218208983405e-05,0.5457421486616184,0,DB
2025-05-14 14:52:31.654,2.5083766259378763e-05,0.5253032670292026,0,DB
2025-05-14 14:52:31.662,1.7423765249933675e-05,0.5082752369958965,0,DB
2025-05-14 14:52:31.670,9.707904405652022e-06,0.4951835634253813,0,DB
2025-05-14 14:52:31.678,2.1545882538456905e-06,0.4864865948073453,0,DB
2025-05-14 14:52:31.685,-5.013911419280938e-06,0.4825959503868047,0,DB
2025-05-14 14:52:31.693,-1.1580763605085545e-05,0.4838956497566552,0,DB
2025-05-14 14:52:31.701,-1.7343850754131524e-05,0.4907577971655573,0,DB
2025-05-14 14:52:31.709,-2.2124519844365336e-05,0.5035530280720749,0,DB
2025-05-14 14:52:31.717,-2.5775388841184325e-05,0.522654429704789,0,DB
2025-05-14 14:52:31.725,-2.8186855398397694e-05,0.5484342567010964,0,DB
2025-05-14 14:52:31.732,-2.929202788241626e-05,0.5812534264039299,0,DB
2025-05-14 14:52:31.740,-2.9069874085499712e-05,0.6214444413597469,0,DB
2025-05-14 14:52:31.748,-2.754645919529492e-05,0.669288992760979,0,DB
2025-05-14 14:52:31.756,-2.4794220750050035e-05,0.724991994121691,0,DB
2025-05-14 14:52:31.764,-2.0929303606610917e-05,0.7886541337218705,0,DB
2025-05-14 14:52:31.771,-1.610705163796647e-05,0.8602451864815694,0,DB
2025-05-14 14:52:31.779,-1.0515824242713684e-05,0.9395802814303345,0,DB
2025-05-14 14:52:31.787,-4.369374048646199e-06,1.0263010959167196,0,DB
2025-05-14 14:52:31.795,2.1019133895284693e-06,1.1198635815297018,0,DB
2025-05-14 14:52:31.803,8.660557493955522e-06,1.2195333718487666,0,DB
2025-05-14 14:52:31.810,1.5071884049054302e-05,1.32438953104993,0,DB
2025-05-14 14:52:31.818,2.1113829356648413e-05,1.4333368177702093,0,DB
2025-05-14 14:52:31.826,2.6586149996644492e-05,1.5451261886257674,0,DB
2025-05-14 14:52:31.834,3.1318527555202025e-05,1.6583828621673573,0,DB
2025-05-14 14:52:31.842,3.517709910042388e-05,1.77164090466949,0,DB
2025-05-14 14:52:31.850,3.806907394493745e-05,1.8833829780521467,0,DB
2025-05-14 14:52:31.857,3.994530180114956e-05,1.992083611424733,0,DB
2025-05-14 14:52:31.865,4.08008621054976e-05,2.096254140707708,0,DB
2025-05-14 14:52:31.873,4.067387454653538e-05,2.1944873339537025,0,DB
2025-05-14 14:52:31.881,3.964277369334631e-05,2.285499709908295,0,DB
2025-05-14 14:52:31.889,3.782228041401763e-05,2.3681696799055856,0,DB
2025-05-14 14:52:31.896,3.5358272568380595e-05,2.4415698969815844,0,DB
2025-05-14 14:52:31.904,3.2421723079787025e-05,2.5049925594030378,0,DB
2025-05-14 14:52:31.912,2.920184911814993e-05,2.557966849638465,0,DB
2025-05-14 14:52:31.920,2.589862509549101e-05,2.600268145520697,0,DB
2025-05-14 14:52:31.928,2.271486814984522e-05,2.631919069600284,0,DB
2025-05-14 14:52:31.935,1.9848183565719147e-05,2.6531828074980237,0,DB
2025-05-14 14:52:31.943,1.7483110996656675e-05,2.6645494051817944,0,DB
2025-05-14 14:52:31.951,1.5783815704367964e-05,2.66671594266748,0,DB
2025-05-14 14:52:31.959,1.4887634995454254e-05,2.66056158145413,0,DB
2025-05-14 14:52:31.967,1.4899740570659954e-05,2.6471185058195896,0,DB
2025-05-14 14:52:31.975,1.5889123460771445e-05,2.62753974336586,0,DB
2025-05-14 14:52:31.982,1.7886052232365505e-05,2.603064785089271,0,DB
2025-05-14 14:52:31.990,2.088109804595774e-05,2.574983857389426,0,DB
2025-05-14 14:52:31.998,2.4825762646507104e-05,2.5446016479554845,0,DB
2025-05-14 14:52:32.006,2.9634688072547223e-05,2.513201264671947,0,DB
2025-05-14 14:52:32.014,3.518937034091176e-05,2.482009213525616,0,DB
2025-05-14 14:52:32.021,4.134324414350756e-05,2.4521622117519803,0,DB
2025-05-14 14:52:32.029,4.7927952257981687e-05,2.424676690386941,0,DB
2025-05-14 14:52:32.037,5.476056257522868e-05,2.4004218619615485,0,DB
2025-05-14 14:52:32.045,6.165144813911803e-05,2.3800972076900093,0,DB
2025-05-14 14:52:32.053,6.841250226261485e-05,2.364215152886377,0,DB
2025-05-14 14:52:32.060,7.486532265582852e-05,2.353089540969415,0,DB
2025-05-14 14:52:32.068,8.084896674117588e-05,2.346830294096181,0,DB
2025-05-14 14:52:32.076,8.622685785283365e-05,2.3453443864825108,0,DB
2025-05-14 14:52:32.084,9.08924198873918e-05,2.348342985001206,0,DB
2025-05-14 14:52:32.092,9.477305984337144e-05,2.3553543557741654,0,DB
2025-05-14 14:52:32.100,9.783222583412662e-05,2.365741910824009,0,DB
2025-05-14 14:52:32.107,0.0001000694381591,2.378726584603521,0,DB
2025-05-14 14:52:32.115,0.0001015183853391,2.3934125926319987,0,DB
2025-05-14 14:52:32.123,0.0001022433442696,2.408815535781472,0,DB
2025-05-14 14:52:32.131,0.0001023342865003,2.4238917700632325,0,DB
2025-05-14 14:52:32.139,0.0001019010670935,2.4375679561767205,0,DB
2025-05-14 14:52:32.146,0.0001010670814106,2.448769732810718,0,DB
2025-05-14 14:52:32.154,9.996274294490184e-05,2.4564485275884733,0,DB
2025-05-14 14:52:32.162,9.87190938825014e-05,2.459605638506423,0,DB
2025-05-14 14:52:32.170,9.746181333808274e-05,2.4573128916229123,0,DB
2025-05-14 14:52:32.178,9.63058383383845e-05,2.4487294019966086,0,DB
2025-05-14 14:52:32.185,9.535076167611872e-05,2.43311421859819,0,DB
2025-05-14 14:52:32.193,9.467712056875634e-05,2.4098349000901327,0,DB
2025-05-14 14:52:32.201,9.434364226382188e-05,2.378372327257054,0,DB
2025-05-14 14:52:32.209,9.438546870279768e-05,2.3383222889657613,0,DB
2025-05-14 14:52:32.217,9.481334319418362e-05,2.2893945585897795,0,DB
2025-05-14 14:52:32.225,9.561370858693558e-05,2.2314102839955097,0,DB
2025-05-14 14:52:32.232,9.674963925079868e-05,2.1642985316316112,0,DB
2025-05-14 14:52:32.240,9.8162508586407e-05,2.0880927529877664,0,DB
2025-05-14 14:52:32.248,9.977427990865448e-05,2.0029277919090025,0,DB
2025-05-14 14:52:32.256,0.0001014903012792,1.9090378444319291,0,DB
2025-05-14 14:52:32.264,0.0001032024839506,1.8067555428964823,0,DB
2025-05-14 14:52:32.271,0.0001047927491337,1.6965120874381432,0,DB
2025-05-14 14:52:32.279,0.0001061366383189,1.5788381131941442,0,DB
2025-05-14 14:52:32.287,0.0001071069978057,1.454364779348278,0,DB
2025-05-14 14:52:32.295,0.000107577667809,1.323824408547028,0,DB
2025-05-14 14:52:32.303,0.0001074271298806,1.1880498967140367,0,DB
2025-05-14 14:52:32.310,0.0001065420911415,1.0479720549313214,0,DB
2025-05-14 14:52:32.318,0.0001048209996439,0.9046140411405116,0,DB
2025-05-14 14:52:32.326,0.0001021774708429,0.7590820991871601,0,DB
2025-05-14 14:52:32.334,9.854354887375388e-05,0.6125519556570908,0,DB
2025-05-14 14:52:32.342,9.387265385649436e-05,0.4662504349834745,0,DB
2025-05-14 14:52:32.350,8.81420270741256e-05,0.3214321350604559,0,DB
2025-05-14 14:52:32.357,8.135450332784061e-05,0.1793513418038385,0,DB
2025-05-14 14:52:32.365,7.353949180595807e-05,0.0412297226619031,0,DB
2025-05-14 14:52:32.373,6.475309039803949e-05,-0.0917793090122271,0,DB
2025-05-14 14:52:32.381,5.5077270464710464e-05,-0.218628355102327,0,DB
2025-05-14 14:52:32.389,4.46180717498911e-05,-0.3384144623769594,0,DB
2025-05-14 14:52:32.396,3.350278727847495e-05,-0.4504165742207493,0,DB
2025-05-14 14:52:32.404,2.18762167051148e-05,-0.5541302313325005,0,DB
2025-05-14 14:52:32.412,9.896196738194412e-06,-0.6492976822759106,0,DB
2025-05-14 14:52:32.420,-2.2712770110671315e-06,-0.7359315609946503,0,DB
2025-05-14 14:52:32.428,-1.4456989833823354e-05,-0.8143303535602092,0,DB
2025-05-14 14:52:32.435,-2.6493206889894236e-05,-0.8850840202622327,0,DB
2025-05-14 14:52:32.443,-3.821791235673618e-05,-0.9490683703356426,0,DB
2025-05-14 14:52:32.451,-4.947846460444927e-05,-1.0074271107447208,0,DB
2025-05-14 14:52:32.459,-6.0134647412921406e-05,-1.0615409110659726,0,DB
2025-05-14 14:52:32.467,-7.006118753110355e-05,-1.1129833453205575,0,DB
2025-05-14 14:52:32.475,-7.914983349126861e-05,-1.1634641853892247,0,DB
2025-05-14 14:52:32.482,-8.731103785769244e-05,-1.2147612162146773,0,DB
2025-05-14 14:52:32.490,-9.447521638661316e-05,-1.2686424921068973,0,DB
2025-05-14 14:52:32.498,-0.0001005935415016,-1.326781710916772,0,DB
2025-05-14 14:52:32.506,-0.0001056382656282,-1.3906700912234589,0,DB
2025-05-14 14:52:32.514,-0.0001096026065323,-1.4615287363244425,0,DB
2025-05-14 14:52:32.521,-0.0001125002176166,-1.5402259000764804,0,DB
2025-05-14 14:52:32.529,-0.0001143642240273,-1.6272037804791435,0,DB
2025-05-14 14:52:32.537,-0.0001152457771159,-1.722419410301094,0,DB
2025-05-14 14:52:32.545,-0.0001152120903634,-1.8253038538615425,0,DB
2025-05-14 14:52:32.553,-0.0001143439570585,-1.9347432385478875,0,DB
2025-05-14 14:52:32.560,-0.0001127327924079,-2.0490841621976457,0,DB
2025-05-14 14:52:32.568,-0.000110477280044,-2.166164774413348,0,DB
2025-05-14 14:52:32.576,-0.000107679733038,-2.2833714176978344,0,DB
2025-05-14 14:52:32.584,-0.0001044423022886,-2.3977192407623407,0,DB
2025-05-14 14:52:32.592,-0.0001008631804528,-2.5059537743513363,0,DB
2025-05-14 14:52:32.600,-9.70329574817835e-05,-2.604669197858571,0,DB
2025-05-14 14:52:32.607,-9.303128450026384e-05,-2.690438022652243,0,DB
2025-05-14 14:52:32.615,-8.892399653285792e-05,-2.7599462591254795,0,DB
2025-05-14 14:52:32.623,-8.476083182277096e-05,-2.810127872436003,0,DB
2025-05-14 14:52:32.631,-8.057386671963732e-05,-2.8382924759639003,0,DB
2025-05-14 14:52:32.639,-7.63767609137467e-05,-2.8422407241898155,0,DB
2025-05-14 14:52:32.646,-7.216487884944235e-05,-2.8203626745217854,0,DB
2025-05-14 14:52:32.654,-6.791632022956913e-05,-2.771715398448856,0,DB
2025-05-14 14:52:32.662,-6.359385648680669e-05,-2.696077240691934,0,DB
2025-05-14 14:52:32.670,-5.914773189735397e-05,-2.5939772615263035,0,DB
2025-05-14 14:52:32.678,-5.451924868647197e-05,-2.4666994756866383,0,DB
2025-05-14 14:52:32.685,-4.964501614532794e-05,-2.3162624634843403,0,DB
2025-05-14 14:52:32.693,-4.4461705639428345e-05,-2.1453757418720896,0,DB
2025-05-14 14:52:32.701,-3.891111769493534e-05,-1.957374934821721,0,DB
2025-05-14 14:52:32.709,-3.294533539375784e-05,-1.7561382804242498,0,DB
2025-05-14 14:52:32.717,-2.6531711397813356e-05,-1.5459873716297847,0,DB
2025-05-14 14:52:32.725,-1.965741534392552e-05,-1.3315752665476868,0,DB
2025-05-14 14:52:32.732,-1.2333255331947189e-05,-1.1177652434829288,0,DB
2025-05-14 14:52:32.740,-4.59648452142766e-06,-0.9095035387032392,0,DB
2025-05-14 14:52:32.748,3.4876778828111498e-06,-0.7116894147805539,0,DB
2025-05-14 14:52:32.756,1.182602136220408e-05,-0.5290458851090075,0,DB
2025-05-14 14:52:32.764,2.0298909977753805e-05,-0.3659943808997169,0,DB
2025-05-14 14:52:32.771,2.8763392294733857e-05,-0.2265365950950056,0,DB
2025-05-14 14:52:32.779,3.705768772633239e-05,-0.1141466636654731,0,DB
2025-05-14 14:52:32.787,4.500680976813685e-05,-0.031676725686105,0,DB
2025-05-14 14:52:32.795,5.242905221436256e-05,0.0187212915602925,0,DB
2025-05-14 14:52:32.803,5.914304719677745e-05,0.035655117655054,0,DB
2025-05-14 14:52:32.811,6.497509435210113e-05,0.0185306972629592,0,DB
2025-05-14 14:52:32.818,6.976645732433409e-05,-0.0324316971560987,0,DB
2025-05-14 14:52:32.826,7.338032756449042e-05,-0.1162046781298965,0,DB
2025-05-14 14:52:32.834,7.570816647732788e-05,-0.2309843835874158,0,DB
2025-05-14 14:52:32.842,7.667515588580626e-05,-0.3742438022302333,0,DB
2025-05-14 14:52:32.850,7.624451402904587e-05,-0.5428071759631107,0,DB
2025-05-14 14:52:32.857,7.442047030565074e-05,-0.7329430442769277,0,DB
2025-05-14 14:52:32.865,7.124973702866294e-05,-0.9404727659201508,0,DB
2025-05-14 14:52:32.873,6.682137069656378e-05,-1.1608907705376774,0,DB
2025-05-14 14:52:32.881,6.126497858666763e-05,-1.389492389841556,0,DB
2025-05-14 14:52:32.889,5.474729841574266e-05,-1.6215049083275046,0,DB
2025-05-14 14:52:32.896,4.74672585968004e-05,-1.8522174529964992,0,DB
2025-05-14 14:52:32.904,3.964971142372474e-05,-2.077105490071229,0,DB
2025-05-14 14:52:32.912,3.1538110005071155e-05,-2.291945986294193,0,DB
2025-05-14 14:52:32.920,2.3386449233126487e-05,-2.492919695541078,0,DB
2025-05-14 14:52:32.928,1.5450796139166443e-05,-2.676697526880555,0,DB
2025-05-14 14:52:32.936,7.980709306844993e-06,-2.840508523753713,0,DB
2025-05-14 14:52:32.943,1.210814837102218e-06,-2.98218762705664,0,DB
2025-05-14 14:52:32.951,-4.647230956092001e-06,-3.1002021024423088,0,DB
2025-05-14 14:52:32.959,-9.41221456471617e-06,-3.193656279160992,0,DB
2025-05-14 14:52:32.967,-1.2940151549406288e-05,-3.262275064174158,0,DB
2025-05-14 14:52:32.975,-1.5130284083753548e-05,-3.3063675399384493,0,DB
2025-05-14 14:52:32.982,-1.5930144854028442e-05,-3.326772790535825,0,DB
2025-05-14 14:52:32.990,-1.533944719275153e-05,-3.324790876204986,0,DB
2025-05-14 14:52:32.998,-1.3412464824427183e-05,-3.302102527745662,0,DB
2025-05-14 14:52:33.006,-1.0258519631885446e-05,-3.260681597099224,0,DB
2025-05-14 14:52:33.014,-6.040225798336807e-06,-3.2027045301321078,0,DB
2025-05-14 14:52:33.021,-9.692462766498618e-07,-3.130461099138012,0,DB
2025-05-14 14:52:33.029,4.7005006824506426e-06,-3.0462703515957106,0,DB
2025-05-14 14:52:33.037,1.068201713398847e-05,-2.9524052267676564,0,DB
2025-05-14 14:52:33.045,1.6666399034332472e-05,-2.851028603082789,0,DB
2025-05-14 14:52:33.053,2.2335484488918167e-05,-2.7441427114215564,0,DB
2025-05-14 14:52:33.061,2.737539507839255e-05,-2.633552931104571,0,DB
2025-05-14 14:52:33.068,3.149034754609323e-05,-2.5208460323735995,0,DB
2025-05-14 14:52:33.076,3.441603324866571e-05,-2.407382002152305,0,DB
2025-05-14 14:52:33.084,3.5931770160547904e-05,-2.2942977472992543,0,DB
2025-05-14 14:52:33.092,3.587061097457802e-05,-2.182520263153392,0,DB
2025-05-14 14:52:33.100,3.41266969086193e-05,-2.07278633105805,0,DB
2025-05-14 14:52:33.107,3.06593667566301e-05,-1.9656655081237235,0,DB
2025-05-14 14:52:33.115,2.549381296406578e-05,-1.8615831282075157,0,DB
2025-05-14 14:52:33.123,1.8718370694064135e-05,-1.760840260470367,0,DB
2025-05-14 14:52:33.131,1.0478789474248994e-05,-1.6636280623163344,0,DB
2025-05-14 14:52:33.139,9.700369008019916e-07,-1.5700346818749489,0,DB
2025-05-14 14:52:33.146,-9.57369456951786e-06,-1.4800437529117514,0,DB
2025-05-14 14:52:33.154,-2.0890065595331418e-05,-1.393524506482644,0,DB
2025-05-14 14:52:33.162,-3.270007928436059e-05,-1.3102145135382266,0,DB
2025-05-14 14:52:33.170,-4.471941247391042e-05,-1.2296969858494853,0,DB
2025-05-14 14:52:33.178,-5.666914945932522e-05,-1.151375325163606,0,DB
2025-05-14 14:52:33.186,-6.828558491687512e-05,-1.0744481674460369,0,DB
2025-05-14 14:52:33.193,-7.932881834393234e-05,-0.997888484214377,0,DB
2025-05-14 14:52:33.201,-8.95898865992122e-05,-0.9204303539412432,0,DB
2025-05-14 14:52:33.209,-9.889621945546664e-05,-0.8405667929425731,0,DB
2025-05-14 14:52:33.217,-0.0001071152779132,-0.7565615430495528,0,DB
2025-05-14 14:52:33.225,-0.0001141563319083,-0.6664769795441856,0,DB
2025-05-14 14:52:33.232,-0.0001199704297584,-0.5682193732906482,0,DB
2025-05-14 14:52:33.240,-0.0001245486946157,-0.4596016734199257,0,DB
2025-05-14 14:52:33.248,-0.0001279191504062,-0.3384228330162194,0,DB
2025-05-14 14:52:33.256,-0.0001301423306044,-0.2025615413881633,0,DB
2025-05-14 14:52:33.264,-0.0001313059576191,-0.050081113703525,0,DB
2025-05-14 14:52:33.271,-0.0001315189990171,0.1206587152757353,0,DB
2025-05-14 14:52:33.279,-0.0001309054101569,0.3108881780181636,0,DB
2025-05-14 14:52:33.287,-0.0001295978623293,0.5213177260396256,0,DB
2025-05-14 14:52:33.295,-0.0001277317327557,0.7520381538378506,0,DB
2025-05-14 14:52:33.303,-0.0001254395995913,1.0024366202314738,0,DB
2025-05-14 14:52:33.311,-0.0001228464433472,1.2711342940356924,0,DB
2025-05-14 14:52:33.318,-0.0001200657079365,1.5559507337643457,0,DB
2025-05-14 14:52:33.326,-0.000117196321928,1.853899178761105,0,DB
2025-05-14 14:52:33.334,-0.0001143207255977,2.1612156945361165,0,DB
2025-05-14 14:52:33.342,-0.0001115038939961,2.473423608334598,0,DB
2025-05-14 14:52:33.350,-0.0001087932923613,2.7854329490451204,0,DB
2025-05-14 14:52:33.357,-0.0001062196495518,3.0916727539943616,0,DB
2025-05-14 14:52:33.365,-0.0001037983893376,3.386252231703005,0,DB
2025-05-14 14:52:33.373,-0.0001015315197684,3.663144996967653,0,DB
2025-05-14 14:52:33.381,-9.940975029147842e-05,3.9163890553474823,0,DB
2025-05-14 14:52:33.389,-9.741459550651778e-05,4.140294042122042,0,DB
2025-05-14 14:52:33.396,-9.55202548426453e-05,4.329646532390515,0,DB
2025-05-14 14:52:33.404,-9.36951407810166e-05,4.479904108795899,0,DB
2025-05-14 14:52:33.412,-9.190303855983349e-05,4.58736931736452,0,DB
2025-05-14 14:52:33.420,-9.01039678493354e-05,4.649335616781359,0,DB
2025-05-14 14:52:33.428,-8.825485564838718e-05,4.664198841566275,0,DB
2025-05-14 14:52:33.436,-8.63101312924512e-05,4.63152943384879,0,DB
2025-05-14 14:52:33.443,-8.422234021735777e-05,4.552102615339887,0,DB
2025-05-14 14:52:33.451,-8.194285345877022e-05,4.427885634153679,0,DB
2025-05-14 14:52:33.459,-7.942272731056743e-05,4.261983109328451,0,DB
2025-05-14 14:52:33.467,-7.661374311960095e-05,4.058543216229747,0,DB
2025-05-14 14:52:33.475,-7.346963194007042e-05,3.822628947273704,0,DB
2025-05-14 14:52:33.482,-6.994746384000177e-05,3.560059909206085,0,DB
2025-05-14 14:52:33.490,-6.600915819927349e-05,3.2772310600810117,0,DB
2025-05-14 14:52:33.498,-6.162305050886978e-05,2.980915431524795,0,DB
2025-05-14 14:52:33.506,-5.676543407855613e-05,2.6780582141207185,0,DB
2025-05-14 14:52:33.514,-5.142198271342876e-05,2.3755696049051465,0,DB
2025-05-14 14:52:33.521,-4.5588953747094055e-05,2.0801235431807648,0,DB
2025-05-14 14:52:33.529,-3.927407059436035e-05,1.797968932011321,0,DB
2025-05-14 14:52:33.537,-3.2496990805145064e-05,1.5347592105256305,0,DB
2025-05-14 14:52:33.545,-2.5289279850441622e-05,1.295405262440982,0,DB
2025-05-14 14:52:33.553,-1.7693832699751432e-05,1.0839556673510136,0,DB
2025-05-14 14:52:33.561,-9.763714544844022e-06,0.9035072595174324,0,DB
2025-05-14 14:52:33.568,-1.5604283941823965e-06,0.7561478809217351,0,DB
2025-05-14 14:52:33.576,6.8483399796500415e-06,0.6429321243684616,0,DB
2025-05-14 14:52:33.584,1.5391401093431813e-05,0.563889782216005,0,DB
2025-05-14 14:52:33.592,2.3997013868305312e-05,0.5180656724826659,0,DB
2025-05-14 14:52:33.600,3.259590500056268e-05,0.5035885351683914,0,DB
2025-05-14 14:52:33.607,4.11240957818558e-05,0.5177658093308071,0,DB
2025-05-14 14:52:33.615,4.952523677433764e-05,0.5572003475914631,0,DB
2025-05-14 14:52:33.623,5.775215767276709e-05,0.6179245264689809,0,DB
2025-05-14 14:52:33.631,6.576742744641681e-05,0.6955467881909188,0,DB
2025-05-14 14:52:33.639,7.354287567553749e-05,0.7854054159623844,0,DB
2025-05-14 14:52:33.646,8.105817604355768e-05,0.8827243082932422,0,DB
2025-05-14 14:52:33.654,8.82986653166354e-05,0.9827656801011868,0,DB
2025-05-14 14:52:33.662,9.525256367195902e-05,1.080974967857821,0,DB
2025-05-14 14:52:33.670,0.0001019077327814,1.1731137243461496,0,DB
2025-05-14 14:52:33.678,0.0001082481136596,1.255376910870515,0,DB
2025-05-14 14:52:33.686,0.0001142500467541,1.324491681815508,0,DB
2025-05-14 14:52:33.693,0.0001198787803783,1.3777954683810023,0,DB
2025-05-14 14:52:33.701,0.0001250855840247,1.4132918787912745,0,DB
2025-05-14 14:52:33.709,0.0001298059408514,1.4296836234447667,0,DB
2025-05-14 14:52:33.717,0.0001339592491729,1.4263823313444908,0,DB
2025-05-14 14:52:33.725,0.0001374503176034,1.4034957396589176,0,DB
2025-05-14 14:52:33.732,0.0001401727352603,1.3617933094318089,0,DB
2025-05-14 14:52:33.740,0.0001420139852881,1.3026518505506834,0,DB
2025-05-14 14:52:33.748,0.0001428619873376,1.2279832326302198,0,DB
2025-05-14 14:52:33.756,0.0001426126240118,1.1401467182982317,0,DB
2025-05-14 14:52:33.764,0.0001411777115811,1.0418488795435257,0,DB
2025-05-14 14:52:33.771,0.0001384927863222,0.9360344358772408,0,DB
2025-05-14 14:52:33.779,0.0001345240085543,0.8257716653079459,0,DB
2025-05-14 14:52:33.787,0.0001292734975647,0.7141362610441216,0,DB
2025-05-14 14:52:33.795,0.0001227825373893,0.6040976167509238,0,DB
2025-05-14 14:52:33.803,0.0001151322986476,0.4984115072977373,0,DB
2025-05-14 14:52:33.811,0.0001064419426291,0.3995229838111318,0,DB
2025-05-14 14:52:33.818,9.686419295047291e-05,0.3094830182635746,0,DB
2025-05-14 14:52:33.826,8.657869397338268e-05,0.2298820106318422,0,DB
2025-05-14 14:52:33.834,7.578370558437716e-05,0.1618027096595908,0,DB
2025-05-14 14:52:33.842,6.468684536091581e-05,0.1057944034506957,0,DB
2025-05-14 14:52:33.850,5.349563302378685e-05,0.061869428690087,0,DB
2025-05-14 14:52:33.857,4.240853083003363e-05,0.0295221602390342,0,DB
2025-05-14 14:52:33.865,3.160705411202517e-05,0.0077697189915323,0,DB
2025-05-14 14:52:33.873,2.1249385789005413e-05,-0.0047872741674505,0,DB
2025-05-14 14:52:33.881,1.1465783826657776e-05,-0.0098864123012936,0,DB
2025-05-14 14:52:33.889,2.355927749429122e-06,-0.0095109229995764,0,DB
2025-05-14 14:52:33.896,-6.0117861645989175e-06,-0.0057866074861445,0,DB
2025-05-14 14:52:33.904,-1.3599117518740016e-05,-0.0008725128208969,0,DB
2025-05-14 14:52:33.912,-2.0395251176669416e-05,0.0031502236425963,0,DB
2025-05-14 14:52:33.920,-2.6412788114811585e-05,0.0043868700617559,0,DB
2025-05-14 14:52:33.928,-3.1682857817961926e-05,0.0012305642056203,0,DB
2025-05-14 14:52:33.936,-3.624979579348219e-05,-0.0075473677992912,0,DB
2025-05-14 14:52:33.943,-4.0165819759755234e-05,-0.0227219733329628,0,DB
2025-05-14 14:52:33.951,-4.348606282918318e-05,-0.0445573704854462,0,DB
2025-05-14 14:52:33.959,-4.626420795356428e-05,-0.0727702639290039,0,DB
2025-05-14 14:52:33.967,-4.854886549073611e-05,-0.1065163083718242,0,DB
2025-05-14 14:52:33.975,-5.038077203842901e-05,-0.1444006216934362,0,DB
2025-05-14 14:52:33.982,-5.179085327955594e-05,-0.1845129674824465,0,DB
2025-05-14 14:52:33.990,-5.2799166755667e-05,-0.2244873094358049,0,DB
2025-05-14 14:52:33.998,-5.341471346484339e-05,-0.2615846076446651,0,DB
2025-05-14 14:52:34.006,-5.3636079294958816e-05,-0.2927968949350144,0,DB
2025-05-14 14:52:34.014,-5.345283952584604e-05,-0.3149698506799731,0,DB
2025-05-14 14:52:34.021,-5.284763294145647e-05,-0.3249402852680781,0,DB
2025-05-14 14:52:34.029,-5.17987874511905e-05,-0.3196841659819046,0,DB
2025-05-14 14:52:34.037,-5.028335746650843e-05,-0.2964700699120576,0,DB
2025-05-14 14:52:34.045,-4.828041550881445e-05,-0.253012275441799,0,DB
2025-05-14 14:52:34.053,-4.5774427469037854e-05,-0.1876171513234297,0,DB
2025-05-14 14:52:34.061,-4.275853334739673e-05,-0.0993161308267941,0,DB
2025-05-14 14:52:34.068,-3.9237553818348295e-05,0.0120215692956289,0,DB
2025-05-14 14:52:34.076,-3.523054810801433e-05,0.145603143971286,0,DB
2025-05-14 14:52:34.084,-3.07727608048699e-05,0.2996594149264697,0,DB
2025-05-14 14:52:34.092,-2.591681453809257e-05,0.4714302001235468,0,DB
2025-05-14 14:52:34.100,-2.0733031939950013e-05,0.6571915675811542,0,DB
2025-05-14 14:52:34.107,-1.5308803724289755e-05,0.8523268938481996,0,DB
2025-05-14 14:52:34.115,-9.746959585842513e-06,1.0514415045644392,0,DB
2025-05-14 14:52:34.123,-4.163144221291679e-06,1.248518315943754,0,DB
2025-05-14 14:52:34.131,1.317748905522438e-06,1.4371094792750003,0,DB
2025-05-14 14:52:34.139,6.565979649611264e-06,1.6105567420178506,0,DB
2025-05-14 14:52:34.146,1.145203699634014e-05,1.7622312740606914,0,DB
2025-05-14 14:52:34.154,1.5852170574519553e-05,1.885782244798185,0,DB
2025-05-14 14:52:34.162,1.9654105743998788e-05,1.9753826127340317,0,DB
2025-05-14 14:52:34.170,2.2762619964575187e-05,2.0259604819905777,0,DB
2025-05-14 14:52:34.178,2.510461580909106e-05,2.0334050013548493,0,DB
2025-05-14 14:52:34.186,2.6633303460967984e-05,1.9947370803314963,0,DB
2025-05-14 14:52:34.193,2.7331127357265108e-05,1.908237068100664,0,DB
2025-05-14 14:52:34.201,2.7211160858803942e-05,1.773523839615185,0,DB
2025-05-14 14:52:34.209,2.6316845701707733e-05,1.591582288208595,0,DB
2025-05-14 14:52:34.217,2.4720132531884417e-05,1.3647388570993793,0,DB
2025-05-14 14:52:34.225,2.251823408289803e-05,1.096587278703392,0,DB
2025-05-14 14:52:34.232,1.9829296498559733e-05,0.7918689738758835,0,DB
2025-05-14 14:52:34.240,1.6787323073396452e-05,0.4563144667821351,0,DB
2025-05-14 14:52:34.248,1.3536671187077732e-05,0.0964536094303842,0,DB
2025-05-14 14:52:34.256,1.0226411756602932e-05,-0.2805966578110475,0,DB
2025-05-14 14:52:34.264,7.004802861010062e-06,-0.6673578563288747,0,DB
2025-05-14 14:52:34.271,4.014088880424953e-06,-1.05621972019837,0,DB
2025-05-14 14:52:34.279,1.3857953145766828e-06,-1.439665492395681,0,DB
2025-05-14 14:52:34.287,-7.633510309165613e-07,-1.8104848986923976,0,DB
2025-05-14 14:52:34.295,-2.334785267696276e-06,-2.161967968596622,0,DB
2025-05-14 14:52:34.303,-3.250695251632657e-06,-2.488074076334996,0,DB
2025-05-14 14:52:34.311,-3.4558158232984943e-06,-2.7835718720946856,0,DB
2025-05-14 14:52:34.318,-2.918429611467117e-06,-3.04414710284784,0,DB
2025-05-14 14:52:34.326,-1.6306004049777482e-06,-3.266476631362681,0,DB
2025-05-14 14:52:34.334,3.923164983117405e-07,-3.448268207982504,0,DB
2025-05-14 14:52:34.342,3.1128283673748597e-06,-3.5882666968653383,0,DB
2025-05-14 14:52:34.350,6.473054559378966e-06,-3.686228480143407,0,DB
2025-05-14 14:52:34.357,1.0396995405125178e-05,-3.742866643413318,0,DB
2025-05-14 14:52:34.365,1.4793239947634602e-05,-3.7597702766061167,0,DB
2025-05-14 14:52:34.373,1.955802962888964e-05,-3.739301804741831,0,DB
2025-05-14 14:52:34.381,2.457859403770624e-05,-3.684476697843007,0,DB
2025-05-14 14:52:34.389,2.973667469314974e-05,-3.5988302075516594,0,DB
2025-05-14 14:52:34.396,3.491215306495023e-05,-3.486275950698484,0,DB
2025-05-14 14:52:34.404,3.998669926710894e-05,-3.350961215866461,0,DB
2025-05-14 14:52:34.412,4.484735788691431e-05,-3.197123813002358,0,DB
2025-05-14 14:52:34.420,4.938998716707926e-05,-3.028955120777523,0,DB
2025-05-14 14:52:34.428,5.35224673405185e-05,-2.8504737110199234,0,DB
2025-05-14 14:52:34.436,5.716759357590482e-05,-2.6654135393287794,0,DB
2025-05-14 14:52:34.443,6.026556911778968e-05,-2.4771301776281693,0,DB
2025-05-14 14:52:34.451,6.277601530534928e-05,-2.2885279192733146,0,DB
2025-05-14 14:52:34.459,6.467941782386029e-05,-2.102009807847193,0,DB
2025-05-14 14:52:34.467,6.597793342925328e-05,-1.91945173967228,0,DB
2025-05-14 14:52:34.475,6.669548914506833e-05,-1.7422008015839168,0,DB
2025-05-14 14:52:34.482,6.687711718497032e-05,-1.571096982347251,0,DB
2025-05-14 14:52:34.490,6.658748414442359e-05,-1.4065163978304167,0,DB
2025-05-14 14:52:34.498,6.590859274810286e-05,-1.248433251795377,0,DB
2025-05-14 14:52:34.506,6.493665888234017e-05,-1.0964969614681108,0,DB
2025-05-14 14:52:34.514,6.377819582460834e-05,-0.9501202462142048,0,DB
2025-05-14 14:52:34.521,6.254537130633819e-05,-0.8085735382482333,0,DB
2025-05-14 14:52:34.529,6.13507408511025e-05,-0.6710808512250627,0,DB
2025-05-14 14:52:34.537,6.030150198243478e-05,-0.5369122550359087,0,DB
2025-05-14 14:52:34.545,5.949345738302824e-05,-0.4054683615455506,0,DB
2025-05-14 14:52:34.553,5.9004919633173554e-05,-0.2763527180104536,0,DB
2025-05-14 14:52:34.561,5.889083424308436e-05,-0.1494287060197034,0,DB
2025-05-14 14:52:34.568,5.917743959901874e-05,-0.0248584123868833,0,DB
2025-05-14 14:52:34.576,5.985782029008719e-05,0.0968780783064593,0,DB
2025-05-14 14:52:34.584,6.088874047641106e-05,0.2149834818746085,0,DB
2025-05-14 14:52:34.592,6.218915482409033e-05,0.3283636847759322,0,DB
2025-05-14 14:52:34.600,6.364076190908565e-05,0.4356662004843205,0,DB
2025-05-14 14:52:34.607,6.50908646052084e-05,0.5353343702215578,0,DB
2025-05-14 14:52:34.615,6.635762833182555e-05,0.6256742610808319,0,DB
2025-05-14 14:52:34.623,6.723759800636962e-05,0.7049306908796567,0,DB
2025-05-14 14:52:34.631,6.751508842200846e-05,0.7713684889913505,0,DB
2025-05-14 14:52:34.639,6.697286445519342e-05,0.8233549973278684,0,DB
2025-05-14 14:52:34.646,6.540343123620538e-05,0.8594399229007438,0,DB
2025-05-14 14:52:34.654,6.262026208364441e-05,0.8784289514926994,0,DB
2025-05-14 14:52:34.662,5.846835803540103e-05,0.8794479796779231,0,DB
2025-05-14 14:52:34.670,5.283360336728599e-05,0.8619953668177266,0,DB
2025-05-14 14:52:34.678,4.565043072581524e-05,0.8259801994204945,0,DB
2025-05-14 14:52:34.686,3.690735840505325e-05,0.7717451611358718,0,DB
2025-05-14 14:52:34.693,2.665005504688492e-05,0.7000731941530463,0,DB
2025-05-14 14:52:34.701,1.4981735531736932e-05,0.6121777183472854,0,DB
2025-05-14 14:52:34.709,2.0608588315290537e-06,0.5096767472389484,0,DB
2025-05-14 14:52:34.717,-1.1903753725289545e-05,0.3945518066091554,0,DB
2025-05-14 14:52:34.725,-2.666012456575478e-05,0.2690931152090692,0,DB
2025-05-14 14:52:34.732,-4.1922239497944205e-05,0.1358330105151143,0,DB
2025-05-14 14:52:34.740,-5.738050894402735e-05,-0.0025299278351543,0,DB
2025-05-14 14:52:34.748,-7.271289534911365e-05,-0.1432132169227888,0,DB
2025-05-14 14:52:34.756,-8.759603186020601e-05,-0.2834361559791466,0,DB
2025-05-14 14:52:34.764,-0.0001017157480742,-0.4205056004447718,0,DB
2025-05-14 14:52:34.771,-0.0001147765518339,-0.5518985649754258,0,DB
2025-05-14 14:52:34.779,-0.0001265097543,-0.6753385251471303,0,DB
2025-05-14 14:52:34.787,-0.0001366800529088,-0.7888625304899343,0,DB
2025-05-14 14:52:34.795,-0.0001450904980542,-0.8908765817311494,0,DB
2025-05-14 14:52:34.803,-0.0001515858617404,-0.9801971534557108,0,DB
2025-05-14 14:52:34.811,-0.000156054498426,-1.0560772543698322,0,DB
2025-05-14 14:52:34.818,-0.0001584288391685,-1.1182160026730097,0,DB
2025-05-14 14:52:34.826,-0.0001586846903338,-1.1667513377225418,0,DB
2025-05-14 14:52:34.834,-0.0001568395187356,-1.2022361666593346,0,DB
2025-05-14 14:52:34.842,-0.0001529498981128,-1.2255989244858967,0,DB
2025-05-14 14:52:34.850,-0.0001471082699521,-1.2380901728766105,0,DB
2025-05-14 14:52:34.857,-0.0001394391396008,-1.2412174418344113,0,DB
2025-05-14 14:52:34.865,-0.0001300947995915,-1.23667100029208,0,DB
2025-05-14 14:52:34.873,-0.0001192506704538,-1.2262436081174204,0,DB
2025-05-14 14:52:34.881,-0.0001071003900059,-1.2117475429509503,0,DB
2025-05-14 14:52:34.889,-9.385084255914404e-05,-1.1949323053818257,0,DB
2025-05-14 14:52:34.896,-7.971735325939801e-05,-1.177406381803405,0,DB
2025-05-14 14:52:34.904,-6.491925710046575e-05,-1.1605662867031592,0,DB
2025-05-14 14:52:34.912,-4.967600159623666e-05,-1.145535821205596,0,DB
2025-05-14 14:52:34.920,-3.420388054482447e-05,-1.1331180813188693,0,DB
2025-05-14 14:52:34.928,-1.871343638043203e-05,-1.1237622370746432,0,DB
2025-05-14 14:52:34.936,-3.407514484536931e-06,-1.1175464935082986,0,DB
2025-05-14 14:52:34.943,1.1520093367814553e-05,-1.11417795069407,0,DB
2025-05-14 14:52:34.951,2.5885515897197988e-05,-1.1130093237308585,0,DB
2025-05-14 14:52:34.959,3.951530502104793e-05,-1.113071695550761,0,DB
2025-05-14 14:52:34.967,5.224671466254339e-05,-1.113121698268574,0,DB
2025-05-14 14:52:34.975,6.392789959147419e-05,-1.11170080420594,0,DB
2025-05-14 14:52:34.982,7.441817118239144e-05,-1.1072038099833852,0,DB
2025-05-14 14:52:34.990,8.358843028493117e-05,-1.0979531634695263,0,DB
2025-05-14 14:52:34.998,9.132187252373508e-05,-1.0822755446436283,0,DB
2025-05-14 14:52:35.006,9.751503013479068e-05,-1.0585770776468473,0,DB
2025-05-14 14:52:35.014,0.0001020791790752,-1.02541371467796,0,DB
2025-05-14 14:52:35.021,0.00010494210303,-0.9815536727014604,0,DB
2025-05-14 14:52:35.029,0.0001060501696489,-0.9260292936172266,0,DB
2025-05-14 14:52:35.037,0.0001053706415135,-0.8581763067485539,0,DB
2025-05-14 14:52:35.045,0.000102894117545,-0.777659166334104,0,DB
2025-05-14 14:52:35.053,9.863698227752082e-05,-0.6844818796085336,0,DB
2025-05-14 14:52:35.061,9.26437312307218e-05,-0.5789844917269693,0,DB
2025-05-14 14:52:35.068,8.498903272281104e-05,-0.4618261079706519,0,DB
2025-05-14 14:52:35.076,7.57793607166463e-05,-0.3339559693259114,0,DB
2025-05-14 14:52:35.084,6.515397946973762e-05,-0.1965746218992203,0,DB
2025-05-14 14:52:35.092,5.32850055617923e-05,-0.0510876143271577,0,DB
2025-05-14 14:52:35.100,4.037626589445177e-05,0.1009455881211669,0,DB
2025-05-14 14:52:35.107,2.666073646275822e-05,0.2578646722316405,0,DB
2025-05-14 14:52:35.115,1.239647078379327e-05,0.4179607609442668,0,DB
2025-05-14 14:52:35.123,-2.138925067054954e-06,0.5795253234745583,0,DB
2025-05-14 14:52:35.131,-1.6655076803850035e-05,0.7408934389420898,0,DB
2025-05-14 14:52:35.139,-3.085658575444344e-05,0.9004795820390542,0,DB
2025-05-14 14:52:35.146,-4.445134912623564e-05,1.056804640432477,0,DB
2025-05-14 14:52:35.154,-5.71590028183752e-05,1.208513483259818,0,DB
2025-05-14 14:52:35.162,-6.871899953615976e-05,1.3543830421495957,0,DB
2025-05-14 14:52:35.170,-7.88978763936708e-05,1.4933215027926143,0,DB
2025-05-14 14:52:35.178,-8.749537983387871e-05,1.6243597985225315,0,DB
2025-05-14 14:52:35.186,-9.434926246505556e-05,1.7466371123601276,0,DB
2025-05-14 14:52:35.193,-9.933870956352093e-05,1.859382499923963,0,DB
2025-05-14 14:52:35.201,-0.000102386467613,1.9618950172388567,0,DB
2025-05-14 14:52:35.209,-0.0001034598081465,2.053524854062517,0,DB
2025-05-14 14:52:35.217,-0.0001025704541357,2.1336579183366764,0,DB
2025-05-14 14:52:35.225,-9.977354851601278e-05,2.201706078671499,0,DB
2025-05-14 14:52:35.232,-9.51657048205676e-05,2.257104843746791,0,DB
2025-05-14 14:52:35.240,-8.888217492022344e-05,2.2993196480060027,0,DB
2025-05-14 14:52:35.248,-8.109318793201944e-05,2.3278611542119343,0,DB
2025-05-14 14:52:35.256,-7.199953771133092e-05,2.3423091363118638,0,DB
2025-05-14 14:52:35.264,-6.18275153224424e-05,2.342343651128626,0,DB
2025-05-14 14:52:35.271,-5.082329696985037e-05,2.327781428328632,0,DB
2025-05-14 14:52:35.279,-3.92469081758991e-05,2.2986147799478163,0,DB
2025-05-14 14:52:35.287,-2.736589253704074e-05,2.255049914150796,0,DB
2025-05-14 14:52:35.295,-1.544881905986701e-05,2.197541374336893,0,DB
2025-05-14 14:52:35.303,-3.758766541969353e-06,2.1268194312736504,0,DB
2025-05-14 14:52:35.311,7.453072853748781e-06,2.043907622329808,0,DB
2025-05-14 14:52:35.318,1.7953525629533567e-05,1.950128222015856,0,DB
2025-05-14 14:52:35.326,2.753315709776214e-05,1.8470941868172333,0,DB
2025-05-14 14:52:35.334,3.6011431037161555e-05,1.7366869794811794,0,DB
2025-05-14 14:52:35.342,4.324116098226138e-05,1.621020574635408,0,DB
2025-05-14 14:52:35.350,4.911210870629753e-05,1.5023928100532404,0,DB
2025-05-14 14:52:35.357,5.355359264081973e-05,1.383226011798997,0,DB
2025-05-14 14:52:35.365,5.653598102551142e-05,1.265999434567824,0,DB
2025-05-14 14:52:35.373,5.807096263594504e-05,1.153176487044703,0,DB
2025-05-14 14:52:35.381,5.821051306355571e-05,1.0471299424385885,0,DB
2025-05-14 14:52:35.389,5.7044507635328383e-05,0.950068369312558,0,DB
2025-05-14 14:52:35.397,5.469697383562358e-05,0.8639668718948569,0,DB
2025-05-14 14:52:35.404,5.132102688426042e-05,0.7905049254512639,0,DB
2025-05-14 14:52:35.412,4.709259189582228e-05,0.73101366001537,0,DB
2025-05-14 14:52:35.420,4.220308430408264e-05,0.6864344149972963,0,DB
2025-05-14 14:52:35.428,3.685129599236408e-05,0.6572897878953943,0,DB
2025-05-14 14:52:35.436,3.123481630905522e-05,0.6436677667218552,0,DB
2025-05-14 14:52:35.443,2.5541401192980108e-05,0.6452189100241909,0,DB
2025-05-14 14:52:35.451,1.994077773547269e-05,0.6611659675405099,0,DB
2025-05-14 14:52:35.459,1.4577410396492253e-05,0.6903248629119892,0,DB
2025-05-14 14:52:35.467,9.56473445584736e-06,0.7311356225340262,0,DB
2025-05-14 14:52:35.475,4.981282467541561e-06,0.7817016523882002,0,DB
2025-05-14 14:52:35.482,8.690138960153893e-07,0.839835741219105,0,DB
2025-05-14 14:52:35.490,-2.765976927083645e-06,0.9031112898187288,0,DB
2025-05-14 14:52:35.498,-5.950361440395366e-06,0.9689175014506224,0,DB
2025-05-14 14:52:35.506,-8.738268723224708e-06,1.0345175699636924,0,DB
2025-05-14 14:52:35.514,-1.1204153483225364e-05,1.097109210460615,0,DB
2025-05-14 14:52:35.522,-1.3434390052240544e-05,1.1538871331315184,0,DB
2025-05-14 14:52:35.529,-1.5518253534711098e-05,1.202107218221629,0,DB
2025-05-14 14:52:35.537,-1.7539006652401787e-05,1.239152183137223,0,DB
2025-05-14 14:52:35.545,-1.956578997756793e-05,1.2625984336876148,0,DB
2025-05-14 14:52:35.553,-2.1646890765808173e-05,1.2702835674588846,0,DB
2025-05-14 14:52:35.561,-2.3804778584395457e-05,1.2603736676735635,0,DB
2025-05-14 14:52:35.568,-2.6033122660153152e-05,1.231429119132099,0,DB
2025-05-14 14:52:35.576,-2.8295883150835675e-05,1.1824672290318363,0,DB
2025-05-14 14:52:35.584,-3.052846597883018e-05,1.113019486579503,0,DB
2025-05-14 14:52:35.592,-3.26408090545091e-05,1.0231808956350066,0,DB
2025-05-14 14:52:35.600,-3.4522130305579524e-05,0.9136485162223456,0,DB
2025-05-14 14:52:35.607,-3.604695344083528e-05,0.7857461996922919,0,DB
2025-05-14 14:52:35.615,-3.7081970387786814e-05,0.6414325317812029,0,DB
2025-05-14 14:52:35.623,-3.749330317768682e-05,0.4832892273477797,0,DB
2025-05-14 14:52:35.631,-3.715376957126969e-05,0.3144876606882176,0,DB
2025-05-14 14:52:35.639,-3.594981164123817e-05,0.1387318724634656,0,DB
2025-05-14 14:52:35.647,-3.3787803382220456e-05,-0.0398227287248748,0,DB
2025-05-14 14:52:35.654,-3.059950909773432e-05,-0.2166746616346223,0,DB
2025-05-14 14:52:35.662,-2.6346517653635687e-05,-0.3871040779070049,0,DB
2025-05-14 14:52:35.670,-2.102352784449289e-05,-0.5463198802757618,0,DB
2025-05-14 14:52:35.678,-1.4660406551484972e-05,-0.6896218008185037,0,DB
2025-05-14 14:52:35.686,-7.32298380772909e-06,-0.8125716031013576,0,DB
2025-05-14 14:52:35.693,8.874127110038106e-07,-0.9111663893572554,0,DB
2025-05-14 14:52:35.701,9.835646747340077e-06,-0.9820061394864216,0,DB
2025-05-14 14:52:35.709,1.9355618185201014e-05,-1.0224471954367298,0,DB
2025-05-14 14:52:35.717,2.9254167994864413e-05,-1.030733517029691,0,DB
2025-05-14 14:52:35.725,3.931592340626984e-05,-1.0060982153039089,0,DB
2025-05-14 14:52:35.732,4.930894149129288e-05,-0.9488291026402772,0,DB
2025-05-14 14:52:35.740,5.899099007779974e-05,-0.8602937096391438,0,DB
2025-05-14 14:52:35.748,6.81162882125893e-05,-0.7429212785660395,0,DB
2025-05-14 14:52:35.756,7.644251439748585e-05,-0.6001414916629599,0,DB
2025-05-14 14:52:35.764,8.373787989592449e-05,-0.4362819596523319,0,DB
2025-05-14 14:52:35.772,8.978805709394677e-05,-0.2564286196301819,0,DB
2025-05-14 14:52:35.779,9.440274992870522e-05,-0.0662550327010463,0,DB
2025-05-14 14:52:35.787,9.742169565187392e-05,0.1281719768394729,0,DB
2025-05-14 14:52:35.795,9.871989566806318e-05,0.3206019055329862,0,DB
2025-05-14 14:52:35.803,9.821188892757848e-05,0.5048164358206113,0,DB
2025-05-14 14:52:35.811,9.585490539437104e-05,0.6748426121666165,0,DB
2025-05-14 14:52:35.818,9.165077040087775e-05,0.8251547736592818,0,DB
2025-05-14 14:52:35.826,8.564647401792716e-05,0.9508574891740184,0,DB
2025-05-14 14:52:35.834,7.79333734307331e-05,1.0478428524292869,0,DB
2025-05-14 14:52:35.842,6.864506090280994e-05,1.112916831310422,0,DB
2025-05-14 14:52:35.850,5.795400336736928e-05,1.1438908432362096,0,DB
2025-05-14 14:52:35.857,4.606712997839977e-05,1.1396362684904875,0,DB
2025-05-14 14:52:35.865,3.322057953123844e-05,1.1001011502503488,0,DB
2025-05-14 14:52:35.873,1.9673786902588323e-05,1.0262898077941378,0,DB
2025-05-14 14:52:35.881,5.70299929685604e-06,0.9202074601855124,0,DB
2025-05-14 14:52:35.889,-8.405757684822344e-06,0.7847731806686773,0,DB
2025-05-14 14:52:35.897,-2.2364226702999324e-05,0.6237055430370969,0,DB
2025-05-14 14:52:35.904,-3.5889834774884174e-05,0.4413861516021344,0,DB
2025-05-14 14:52:35.912,-4.871370175410248e-05,0.2427068404462667,0,DB
2025-05-14 14:52:35.920,-6.058836277640743e-05,0.0329066640311591,0,DB
2025-05-14 14:52:35.928,-7.129478257266025e-05,-0.1825951321590407,0,DB
2025-05-14 14:52:35.936,-8.064825749685011e-05,-0.3983641742118081,0,DB
2025-05-14 14:52:35.943,-8.850288100887176e-05,-0.6091085245582534,0,DB
2025-05-14 14:52:35.951,-9.4754378723147e-05,-0.8098238992296922,0,DB
2025-05-14 14:52:35.959,-9.934127062251068e-05,-0.9959225526119294,0,DB
2025-05-14 14:52:35.967,-0.0001022444542067,-1.1633428355371045,0,DB
2025-05-14 14:52:35.975,-0.0001034853891555,-1.308637480952359,0,DB
2025-05-14 14:52:35.982,-0.0001031230857688,-1.4290397052909427,0,DB
2025-05-14 14:52:35.990,-0.0001012500801764,-1.5225071660681968,0,DB
2025-05-14 14:52:35.998,-9.79875675592652e-05,-1.5877446314804764,0,DB
2025-05-14 14:52:36.006,-9.347988567640153e-05,-1.6242068553782931,0,DB
2025-05-14 14:52:36.014,-8.788858291929838e-05,-1.63208358875242,0,DB
2025-05-14 14:52:36.022,-8.138634518639166e-05,-1.6122688958096818,0,DB
2025-05-14 14:52:36.029,-7.41510744562735e-05,-1.566316998433652,0,DB
2025-05-14 14:52:36.037,-6.636038672440597e-05,-1.4963867809571585,0,DB
2025-05-14 14:52:36.045,-5.8186716855314267e-05,-1.405176886197075,0,DB
2025-05-14 14:52:36.053,-4.979310944473592e-05,-1.2958530634244538,0,DB
2025-05-14 14:52:36.061,-4.132968817302208e-05,-1.171969134432665,0,DB
2025-05-14 14:52:36.068,-3.293075772680528e-05,-1.0373826771947838,0,DB
2025-05-14 14:52:36.076,-2.4712490705633323e-05,-0.8961663383978652,0,DB
2025-05-14 14:52:36.084,-1.677116583835314e-05,-0.7525156126314423,0,DB
2025-05-14 14:52:36.092,-9.181942789585823e-06,-0.6106539817952806,0,DB
2025-05-14 14:52:36.100,-1.998180150573606e-06,-0.4747364867950947,0,DB
2025-05-14 14:52:36.107,4.748674367240207e-06,-0.348753080872034,0,DB
2025-05-14 14:52:36.115,1.1048570365247906e-05,-0.2364334522447127,0,DB
2025-05-14 14:52:36.123,1.6911647850598584e-05,-0.1411553546424101,0,DB
2025-05-14 14:52:36.131,2.2366262743168323e-05,-0.0658587936556936,0,DB
2025-05-14 14:52:36.139,2.7456202820540063e-05,-0.0129686333741318,0,DB
2025-05-14 14:52:36.147,3.223713344327604e-05,0.0156717284850943,0,DB
2025-05-14 14:52:36.154,3.677241757076831e-05,0.0188530423599934,0,DB
2025-05-14 14:52:36.162,4.112853464874561e-05,-0.0039630888467328,0,DB
2025-05-14 14:52:36.170,4.5370352623784286e-05,-0.0526254142779646,0,DB
2025-05-14 14:52:36.178,4.955649892627634e-05,-0.1262935290414392,0,DB
2025-05-14 14:52:36.186,5.373505152995361e-05,-0.2234583653088461,0,DB
2025-05-14 14:52:36.193,5.793974099592149e-05,-0.3419826281118322,0,DB
2025-05-14 14:52:36.201,6.218682150752457e-05,-0.4791603165732492,0,DB
2025-05-14 14:52:36.209,6.647273438994012e-05,-0.631793663474324,0,DB
2025-05-14 14:52:36.217,7.077265251176662e-05,-0.7962850653649326,0,DB
2025-05-14 14:52:36.225,7.503995923934491e-05,-0.968740907823672,0,DB
2025-05-14 14:52:36.232,7.920668213733689e-05,-1.1450836548443608,0,DB
2025-05-14 14:52:36.240,8.318487018687297e-05,-1.3211682007174677,0,DB
2025-05-14 14:52:36.248,8.686887466213262e-05,-1.4928983076669369,0,DB
2025-05-14 14:52:36.256,9.013846864168084e-05,-1.6563389965400614,0,DB
2025-05-14 14:52:36.264,9.286271905024084e-05,-1.8078210270468105,0,DB
2025-05-14 14:52:36.272,9.490450869694789e-05,-1.9440340802552187,0,DB
2025-05-14 14:52:36.279,9.612559451641465e-05,-2.0621058995993606,0,DB
2025-05-14 14:52:36.287,9.639208097393172e-05,-2.159665403020961,0,DB
2025-05-14 14:52:36.295,9.55801750970491e-05,-2.2348885853398635,0,DB
2025-05-14 14:52:36.303,9.358205159297987e-05,-2.286526823843284,0,DB
2025-05-14 14:52:36.311,9.031158210003908e-05,-2.313917927467515,0,DB
2025-05-14 14:52:36.318,8.57095983277012e-05,-2.3169808902084683,0,DB
2025-05-14 14:52:36.326,7.974831458956423e-05,-2.296195795634543,0,DB
2025-05-14 14:52:36.334,7.243455687852466e-05,-2.2525706588529464,0,DB
2025-05-14 14:52:36.342,6.381152092002675e-05,-2.18759718664592,0,DB
2025-05-14 14:52:36.350,5.3958888292463526e-05,-2.1031974983908346,0,DB
2025-05-14 14:52:36.357,4.299125575386333e-05,-2.00166379879152,0,DB
2025-05-14 14:52:36.365,3.105497383296468e-05,-1.8855928527037575,0,DB
2025-05-14 14:52:36.373,1.832364139100185e-05,-1.7578169131982389,0,DB
2025-05-14 14:52:36.381,4.992647822436805e-06,-1.6213325316517282,0,DB
2025-05-14 14:52:36.389,-8.726742731956818e-06,-1.4792284671253455,0,DB
2025-05-14 14:52:36.397,-2.2613258581230503e-05,-1.3346137383912966,0,DB
2025-05-14 14:52:36.404,-3.644103311319247e-05,-1.1905467407750348,0,DB
2025-05-14 14:52:36.412,-4.998434140827296e-05,-1.0499662841751092,0,DB
2025-05-14 14:52:36.420,-6.302164351549617e-05,-0.9156253934931544,0,DB
2025-05-14 14:52:36.428,-7.53390694949165e-05,-0.7900287428612011,0,DB
2025-05-14 14:52:36.436,-8.673353092679734e-05,-0.6753746658425629,0,DB
2025-05-14 14:52:36.443,-9.701559709518945e-05,-0.5735027858467453,0,DB
2025-05-14 14:52:36.451,-0.0001060122022825,-0.4858484243956464,0,DB
2025-05-14 14:52:36.459,-0.0001135692238544,-0.4134050405314214,0,DB
2025-05-14 14:52:36.467,-0.0001195539910434,-0.3566960029438701,0,DB
2025-05-14 14:52:36.475,-0.0001238577965127,-0.3157569746084359,0,DB
2025-05-14 14:52:36.482,-0.0001263984436588,-0.2901300829617946,0,DB
2025-05-14 14:52:36.490,-0.0001271227863553,-0.2788708472387252,0,DB
2025-05-14 14:52:36.498,-0.0001260091526951,-0.2805685333622409,0,DB
2025-05-14 14:52:36.506,-0.0001230695170559,-0.2933802072919511,0,DB
2025-05-14 14:52:36.514,-0.0001183512851199,-0.3150782718884814,0,DB
2025-05-14 14:52:36.522,-0.0001119385648718,-0.343110725213165,0,DB
2025-05-14 14:52:36.529,-0.0001039528047474,-0.3746728081802193,0,DB
2025-05-14 14:52:36.537,-9.455268788835116e-05,-0.4067881639293421,0,DB
2025-05-14 14:52:36.545,-8.393318042296273e-05,-0.4363971573296351,0,DB
2025-05-14 14:52:36.553,-7.232364332590575e-05,-0.4604496371068963,0,DB
2025-05-14 14:52:36.561,-5.998493304778847e-05,-0.4759991840659159,0,DB
2025-05-14 14:52:36.568,-4.7205436841136574e-05,-0.4802957789805508,0,DB
2025-05-14 14:52:36.576,-3.429601530456683e-05,-0.470873836113285,0,DB
2025-05-14 14:52:36.584,-2.1583857487459808e-05,-0.4456326748731796,0,DB
2025-05-14 14:52:36.592,-9.405292852128527e-06,-0.4029067363149121,0,DB
2025-05-14 14:52:36.600,1.9023511038342408e-06,-0.341523186243778,0,DB
2025-05-14 14:52:36.607,1.2009707799324693e-05,-0.260844972197409,0,DB
2025-05-14 14:52:36.615,2.060495750858469e-05,-0.1607979020222522,0,DB
2025-05-14 14:52:36.623,2.7403798096502844e-05,-0.0418808676987326,0,DB
2025-05-14 14:52:36.631,3.2159507474266394e-05,0.0948410723148905,0,DB
2025-05-14 14:52:36.639,3.4672758380551964e-05,0.2477604391625844,0,DB
2025-05-14 14:52:36.647,3.4800807439068296e-05,0.4147670100096867,0,DB
2025-05-14 14:52:36.654,3.246565268011846e-05,0.5933019821328216,0,DB
2025-05-14 14:52:36.662,2.766074006052112e-05,0.7804247032463568,0,DB
2025-05-14 14:52:36.670,2.045580303144964e-05,0.972889656899715,0,DB
2025-05-14 14:52:36.678,1.099944262549817e-05,1.1672311086744798,0,DB
2025-05-14 14:52:36.686,-4.808988849742121e-07,1.359852650733946,0,DB
2025-05-14 14:52:36.693,-1.3681848362069766e-05,1.5471188278789014,0,DB
2025-05-14 14:52:36.701,-2.82300799030328e-05,1.7254460811382586,0,DB
2025-05-14 14:52:36.709,-4.369142602284907e-05,1.891390397580672,0,DB
2025-05-14 14:52:36.717,-5.958304570001673e-05,2.0417292998006387,0,DB
2025-05-14 14:52:36.725,-7.538841059046758e-05,2.173536134689823,0,DB
2025-05-14 14:52:36.732,-9.05746908609911e-05,2.284245011098112,0,DB
2025-05-14 14:52:36.740,-0.0001046119312115,2.3717051643982803,0,DB
2025-05-14 14:52:36.748,-0.0001169932229396,2.4342239624880904,0,DB
2025-05-14 14:52:36.756,-0.0001272549365931,2.470598181612703,0,DB
2025-05-14 14:52:36.764,-0.0001349960231509,2.48013354406224,0,DB
2025-05-14 14:52:36.772,-0.0001398954245293,2.462652803349025,0,DB
2025-05-14 14:52:36.779,-0.0001417267213414,2.4184928789364477,0,DB
2025-05-14 14:52:36.787,-0.0001403692638295,2.348491691204091,0,DB
2025-05-14 14:52:36.795,-0.0001358151910867,2.253965449867494,0,DB
2025-05-14 14:52:36.803,-0.0001281719437401,2.1366772295180225,0,DB
2025-05-14 14:52:36.811,-0.0001176600773721,1.998797739779381,0,DB
2025-05-14 14:52:36.818,-0.0001046063511759,1.8428592667047508,0,DB
2025-05-14 14:52:36.826,-8.943221041521063e-05,1.671703816544076,0,DB
2025-05-14 14:52:36.834,-7.263794565407888e-05,1.488426517935772,0,DB
2025-05-14 14:52:36.842,-5.4783017733881706e-05,1.2963153235849965,0,DB
2025-05-14 14:52:36.850,-3.646326850848584e-05,1.0987880001681667,0,DB
2025-05-14 14:52:36.857,-1.8285967070879104e-05,0.8993273227943211,0,DB
2025-05-14 14:52:36.865,-8.438522102416084e-07,0.7014153237341024,0,DB
2025-05-14 14:52:36.873,1.5310495167315822e-05,0.5084674090631696,0,DB
2025-05-14 14:52:36.881,2.9688519412920028e-05,0.3237671670318232,0,DB
2025-05-14 14:52:36.889,4.188639675133543e-05,0.1504027521632282,0,DB
2025-05-14 14:52:36.897,5.1601359719704507e-05,-0.0087941671169266,0,DB
2025-05-14 14:52:36.904,5.86427196316167e-05,-0.1513057765818381,0,DB
2025-05-14 14:52:36.912,6.29370379025523e-05,-0.2749805387088603,0,DB
2025-05-14 14:52:36.920,6.45272943606277e-05,-0.378079286348772,0,DB
2025-05-14 14:52:36.928,6.356630127226742e-05,-0.4593135283216307,0,DB
2025-05-14 14:52:36.936,6.03049925169351e-05,-0.5178745022837627,0,DB
2025-05-14 14:52:36.943,5.507653613600792e-05,-0.5534515956230784,0,DB
2025-05-14 14:52:36.951,4.827742241394433e-05,-0.5662389452086827,0,DB
2025-05-14 14:52:36.959,4.0346742446845305e-05,-0.556929325252732,0,DB
2025-05-14 14:52:36.967,3.174481780705657e-05,-0.5266948298998015,0,DB
2025-05-14 14:52:36.975,2.293222086500454e-05,-0.4771543316302332,0,DB
2025-05-14 14:52:36.982,1.4350076673870256e-05,-0.4103282175526175,0,DB
2025-05-14 14:52:36.990,6.4023791447305605e-06,-0.3285814375503316,0,DB
2025-05-14 14:52:36.998,-5.591056575464625e-07,-0.2345564043555807,0,DB
2025-05-14 14:52:37.006,-6.246932452509304e-06,-0.13109773294431,0,DB
2025-05-14 14:52:37.014,-1.0446797161847976e-05,-0.0211711692035953,0,DB
2025-05-14 14:52:37.022,-1.302295197307e-05,0.0922206833767485,0,DB
2025-05-14 14:52:37.029,-1.3920203415659189e-05,0.2061230879540601,0,DB
2025-05-14 14:52:37.037,-1.3162586445283272e-05,0.3177115767596554,0,DB
2025-05-14 14:52:37.045,-1.084889620979886e-05,0.4243693495071122,0,DB
2025-05-14 14:52:37.053,-7.145341339109179e-06,0.523757169180753,0,DB
2025-05-14 14:52:37.061,-2.275679273130276e-06,0.6138735103701297,0,DB
2025-05-14 14:52:37.068,3.490682556022848e-06,0.6931030217101473,0,DB
2025-05-14 14:52:37.076,9.85201093561512e-06,0.7602517156308319,0,DB
2025-05-14 14:52:37.084,1.6488309394723764e-05,0.8145676969090937,0,DB
2025-05-14 14:52:37.092,2.307542438929668e-05,0.8557466898462437,0,DB
2025-05-14 14:52:37.100,2.9298549895211847e-05,0.8839221195278987,0,DB
2025-05-14 14:52:37.107,3.4864567946782354e-05,0.8996400330870102,0,DB
2025-05-14 14:52:37.115,3.951276596961328e-05,0.9038196930458452,0,DB
2025-05-14 14:52:37.123,4.302359061132721e-05,0.8977012157040292,0,DB
2025-05-14 14:52:37.131,4.522522872618369e-05,0.8827821416233635,0,DB
2025-05-14 14:52:37.139,4.59979441022143e-05,0.8607452889657543,0,DB
2025-05-14 14:52:37.147,4.527623023985517e-05,0.8333806285523585,0,DB
2025-05-14 14:52:37.154,4.3048940895447375e-05,0.8025042083151263,0,DB
2025-05-14 14:52:37.162,3.935761490360113e-05,0.7698773258117418,0,DB
2025-05-14 14:52:37.170,3.429323319497645e-05,0.7371291900863458,0,DB
2025-05-14 14:52:37.178,2.799165814504513e-05,0.7056862258238874,0,DB
2025-05-14 14:52:37.186,2.0628010115645863e-05,0.6767109561667177,0,DB
2025-05-14 14:52:37.193,1.2410222085045705e-05,0.6510530613716731,0,DB
2025-05-14 14:52:37.201,3.5719845497665725e-06,0.6292147577355658,0,DB
2025-05-14 14:52:37.209,-5.634734920602789e-06,0.6113320881503573,0,DB
2025-05-14 14:52:37.217,-1.494742951269164e-05,0.5971730784166419,0,DB
2025-05-14 14:52:37.225,-2.410088222081953e-05,0.5861530096405705,0,DB
2025-05-14 14:52:37.232,-3.283490803978841e-05,0.5773663070271077,0,DB
2025-05-14 14:52:37.240,-4.090181383530785e-05,0.5696337762670813,0,DB
2025-05-14 14:52:37.248,-4.807337125532481e-05,0.5615631671435344,0,DB
2025-05-14 14:52:37.256,-5.414709938642389e-05,0.5516203544005605,0,DB
2025-05-14 14:52:37.264,-5.895165330984716e-05,0.5382078456914697,0,DB
2025-05-14 14:52:37.272,-6.235111327502743e-05,0.5197469007406711,0,DB
2025-05-14 14:52:37.279,-6.424799099196931e-05,0.4947593122231161,0,DB
2025-05-14 14:52:37.287,-6.458482826690266e-05,0.4619448813418379,0,DB
2025-05-14 14:52:37.295,-6.334434373368813e-05,0.4202508274321457,0,DB
2025-05-14 14:52:37.303,-6.054816344803704e-05,0.3689297938243333,0,DB
2025-05-14 14:52:37.311,-5.6254239804695294e-05,0.3075837312211182,0,DB
2025-05-14 14:52:37.318,-5.055311841516242e-05,0.2361917215068807,0,DB
2025-05-14 14:52:37.326,-4.35632541773416e-05,0.1551207016621147,0,DB
2025-05-14 14:52:37.334,-3.5425606148071955e-05,0.0651189981150933,0,DB
2025-05-14 14:52:37.342,-2.6297756730541503e-05,-0.0327064840087221,0,DB
2025-05-14 14:52:37.350,-1.6347805139136654e-05,-0.1369277251710338,0,DB
2025-05-14 14:52:37.357,-5.748279350287946e-06,-0.2458453172574991,0,DB
2025-05-14 14:52:37.365,5.329703818497831e-06,-0.3575475459878744,0,DB
2025-05-14 14:52:37.373,1.6721822766106894e-05,-0.4699756175328118,0,DB
2025-05-14 14:52:37.381,2.827529932180268e-05,-0.580991711941781,0,DB
2025-05-14 14:52:37.389,3.985286327822032e-05,-0.6884466244683947,0,DB
2025-05-14 14:52:37.397,5.133582054648934e-05,-0.7902439922789913,0,DB
2025-05-14 14:52:37.404,6.26261490902724e-05,-0.8843984734117665,0,DB
2025-05-14 14:52:37.412,7.364758420290977e-05,-0.9690857250658074,0,DB
2025-05-14 14:52:37.420,8.434569163203275e-05,-1.0426825972150917,0,DB
2025-05-14 14:52:37.428,9.46869626505641e-05,-1.103796589640682,0,DB
2025-05-14 14:52:37.436,0.0001046569986831,-1.151284285600801,0,DB
2025-05-14 14:52:37.443,0.0001142578839151,-1.1842591384513614,0,DB
2025-05-14 14:52:37.451,0.0001235048719464,-1.202089608488785,0,DB
2025-05-14 14:52:37.459,0.0001324225366208,-1.204389182979681,0,DB
2025-05-14 14:52:37.467,0.0001410405573559,-1.1910002221454532,0,DB
2025-05-14 14:52:37.475,0.0001493893254006,-1.1619738269275726,0,DB
2025-05-14 14:52:37.482,0.0001574955692697,-1.1175480045370825,0,DB
2025-05-14 14:52:37.490,0.0001653782050355,-1.0581263140428916,0,DB
2025-05-14 14:52:37.498,0.0001730446201014,-0.9842589181601898,0,DB
2025-05-14 14:52:37.506,0.0001804875974935,-0.896627570546952,0,DB
2025-05-14 14:52:37.514,0.0001876830815705,-0.7960355594040505,0,DB
2025-05-14 14:52:37.522,0.0001945889737867,-0.6834030418042029,0,DB
2025-05-14 14:52:37.529,0.0002011451191387,-0.5597675753049757,0,DB
2025-05-14 14:52:37.537,0.0002072745797461,-0.4262890232817446,0,DB
2025-05-14 14:52:37.545,0.0002128861807155,-0.2842574225628075,0,DB
2025-05-14 14:52:37.553,0.000217878181702,-0.1351019065643613,0,DB
2025-05-14 14:52:37.561,0.000222142825725,0.0196015744762453,0,DB
2025-05-14 14:52:37.568,0.0002255714713409,0.1781261577206371,0,DB
2025-05-14 14:52:37.576,0.0002280600139325,0.3385959623408843,0,DB
2025-05-14 14:52:37.584,0.0002295143256888,0.4989960558586155,0,DB
2025-05-14 14:52:37.592,0.0002298554798897,0.6571920719738196,0,DB
2025-05-14 14:52:37.600,0.0002290245612322,0.8109603749016603,0,DB
2025-05-14 14:52:37.607,0.000226986878429,0.95802885278791,0,DB
2025-05-14 14:52:37.615,0.0002237353756923,1.096127557462014,0,DB
2025-05-14 14:52:37.623,0.0002192930107767,1.2230475738747184,0,DB
2025-05-14 14:52:37.631,0.0002137138770825,1.336705777705586,0,DB
2025-05-14 14:52:37.639,0.000207082918244,1.435212580530717,0,DB
2025-05-14 14:52:37.647,0.0001995141917492,1.516939398312214,0,DB
2025-05-14 14:52:37.654,0.0001911477386569,1.5805824172213727,0,DB
2025-05-14 14:52:37.662,0.0001821451843601,1.6252192632755038,0,DB
2025-05-14 14:52:37.670,0.0001726842490202,1.6503553950187844,0,DB
2025-05-14 14:52:37.678,0.00016295242085,1.6559574142206204,0,DB
2025-05-14 14:52:37.686,0.0001531401391,1.6424710072479412,0,DB
2025-05-14 14:52:37.693,0.0001434339062176,1.6108218642808223,0,DB
2025-05-14 14:52:37.701,0.0001340097669928,1.5623986472317457,0,DB
2025-05-14 14:52:37.709,0.0001250275462576,1.499017862067155,0,DB
2025-05-14 14:52:37.717,0.0001166261274716,1.4228713090676193,0,DB
2025-05-14 14:52:37.725,0.0001089199055545,1.3364576042256515,0,DB
2025-05-14 14:52:37.732,0.0001019964091219,1.2425000484572544,0,DB
2025-05-14 14:52:37.740,9.591500161242056e-05,1.1438538235653368,0,DB
2025-05-14 14:52:37.748,9.070653652889483e-05,1.0434060684763111,0,DB
2025-05-14 14:52:37.756,8.637383645877336e-05,0.943972796330526,0,DB
2025-05-14 14:52:37.764,8.289287779898182e-05,0.848196824193916,0,DB
2025-05-14 14:52:37.772,8.021458165253817e-05,0.7584508865128331,0,DB
2025-05-14 14:52:37.779,7.826711141782169e-05,0.6767498891899063,0,DB
2025-05-14 14:52:37.787,7.695855471186171e-05,0.6046758505681674,0,DB
2025-05-14 14:52:37.795,7.617985700728372e-05,0.5433185070736032,0,DB
2025-05-14 14:52:37.803,7.580791025290356e-05,0.4932338870128629,0,DB
2025-05-14 14:52:37.811,7.5708766474751e-05,0.4544224279971526,0,DB
2025-05-14 14:52:37.818,7.574099661395688e-05,0.4263274729905456,0,DB
2025-05-14 14:52:37.826,7.575922323936553e-05,0.4078542563070674,0,DB
2025-05-14 14:52:37.834,7.561783438746127e-05,0.3974088040190401,0,DB
2025-05-14 14:52:37.842,7.517485615395002e-05,0.3929555365754483,0,DB
2025-05-14 14:52:37.850,7.429593437663651e-05,0.3920917836598089,0,DB
2025-05-14 14:52:37.857,7.285835330197749e-05,0.3921369078555978,0,DB
2025-05-14 14:52:37.865,7.075500233624208e-05,0.39023328799969,0,DB
2025-05-14 14:52:37.873,6.789819159287166e-05,0.3834560384914584,0,DB
2025-05-14 14:52:37.881,6.422321360877128e-05,0.3689280412514589,0,DB
2025-05-14 14:52:37.889,5.9691551209726864e-05,0.3439366462476312,0,DB
2025-05-14 14:52:37.897,5.42936307358659e-05,0.3060482576567651,0,DB
2025-05-14 14:52:37.904,4.805099525930944e-05,0.2532169692953824,0,DB
2025-05-14 14:52:37.912,4.1017712802988784e-05,0.1838834491985751,0,DB
2025-05-14 14:52:37.920,3.3280765939096104e-05,0.0970604033664573,0,DB
2025-05-14 14:52:37.928,2.4959140782243084e-05,-0.0075988229992365,0,DB
2025-05-14 14:52:37.936,1.6201370339902533e-05,-0.1297516158218677,0,DB
2025-05-14 14:52:37.943,7.181376237483287e-06,-0.2683400975059817,0,DB
2025-05-14 14:52:37.951,-1.9074293435590125e-06,-0.4215898651255961,0,DB
2025-05-14 14:52:37.959,-1.085968620546944e-05,-0.5870348739296852,0,DB
2025-05-14 14:52:37.967,-1.946703443253817e-05,-0.7615690834751209,0,DB
2025-05-14 14:52:37.975,-2.752808268248158e-05,-0.941524595348708,0,DB
2025-05-14 14:52:37.982,-3.4858874896945605e-05,-1.1227750515618733,0,DB
2025-05-14 14:52:37.990,-4.130323710951703e-05,-1.3008620576090366,0,DB
2025-05-14 14:52:37.998,-4.674235507970523e-05,-1.4711413741411363,0,DB
2025-05-14 14:52:38.006,-5.110297020762889e-05,-1.6289446198488662,0,DB
2025-05-14 14:52:38.014,-5.436366253634046e-05,-1.7697512834656874,0,DB
2025-05-14 14:52:38.022,-5.655879128289063e-05,-1.8893649989221653,0,DB
2025-05-14 14:52:38.029,-5.777977351938944e-05,-1.9840873464076876,0,DB
2025-05-14 14:52:38.037,-5.817349672225794e-05,-2.0508819636106725,0,DB
2025-05-14 14:52:38.045,-5.793778056077663e-05,-2.0875215518228267,0,DB
2025-05-14 14:52:38.053,-5.731393518626817e-05,-2.092710504917805,0,DB
2025-05-14 14:52:38.061,-5.657662757937823e-05,-2.0661764260610678,0,DB
2025-05-14 14:52:38.068,-5.60214813046928e-05,-2.008724754715149,0,DB
2025-05-14 14:52:38.076,-5.59510806108177e-05,-1.922252101828824,0,DB
2025-05-14 14:52:38.084,-5.6660263881820064e-05,-1.809715643583644,0,DB
2025-05-14 14:52:38.092,-5.8421698302222776e-05,-1.6750579713375873,0,DB
2025-05-14 14:52:38.100,-6.147269083189535e-05,-1.5230890159071615,0,DB
2025-05-14 14:52:38.108,-6.600403233929525e-05,-1.3593289103691992,0,DB
2025-05-14 14:52:38.115,-7.215144421389105e-05,-1.1898177714609235,0,DB
2025-05-14 14:52:38.123,-7.998995099795826e-05,-1.0209002175984592,0,DB
2025-05-14 14:52:38.131,-8.953128813429799e-05,-0.8589938733695824,0,DB
2025-05-14 14:52:38.139,-0.00010072431229,-0.7103520383126606,0,DB
2025-05-14 14:52:38.147,-0.0001134583057439,-0.5808310646373682,0,DB
2025-05-14 14:52:38.154,-0.0001275689893121,-0.4756727829810478,0,DB
2025-05-14 14:52:38.162,-0.0001428469217513,-0.399311568498048,0,DB
2025-05-14 14:52:38.170,-0.0001590477831145,-0.3552144137589688,0,DB
2025-05-14 14:52:38.178,-0.0001759038782717,-0.3457607500685233,0,DB
2025-05-14 14:52:38.186,-0.0001931360997144,-0.3721668241595149,0,DB
2025-05-14 14:52:38.193,-0.0002104655695121,-0.4344572892750062,0,DB
2025-05-14 14:52:38.201,-0.0002276242403761,-0.5314844129585017,0,DB
2025-05-14 14:52:38.209,-0.0002443638628124,-0.6609930511619155,0,DB
2025-05-14 14:52:38.217,-0.0002604628902871,-0.8197274084015411,0,DB
2025-05-14 14:52:38.225,-0.000275731068844,-1.0035737158099722,0,DB
2025-05-14 14:52:38.233,-0.0002900116264797,-1.2077314213179249,0,DB
2025-05-14 14:52:38.240,-0.0003031811342827,-1.4269043818736162,0,DB
2025-05-14 14:52:38.248,-0.0003151472517236,-1.6555029235377887,0,DB
2025-05-14 14:52:38.256,-0.0003258446891567,-1.8878475002840105,0,DB
2025-05-14 14:52:38.264,-0.0003352298189765,-2.118365012852128,0,DB
2025-05-14 14:52:38.272,-0.000343274441177,-2.3417695982334683,0,DB
2025-05-14 14:52:38.279,-0.0003499592582791,-2.553220806608164,0,DB
2025-05-14 14:52:38.287,-0.0003552676368634,-2.7484534758856767,0,DB
2025-05-14 14:52:38.295,-0.0003591802190425,-2.923875220131886,0,DB
2025-05-14 14:52:38.303,-0.0003616708776948,-3.0766291885100685,0,DB
2025-05-14 14:52:38.311,-0.000362704374711,-3.204621542304161,0,DB
2025-05-14 14:52:38.318,-0.0003622359105749,-3.306514852572412,0,DB
2025-05-14 14:52:38.326,-0.0003602125973333,-3.381690254486756,0,DB
2025-05-14 14:52:38.334,-0.0003565767649224,-3.430182626062851,0,DB
2025-05-14 14:52:38.342,-0.0003512708938922,-3.4525942175748026,0,DB
2025-05-14 14:52:38.350,-0.0003442438266979,-3.449992985322752,0,DB
2025-05-14 14:52:38.358,-0.0003354577640412,-3.4238023385470693,0,DB
2025-05-14 14:52:38.365,-0.0003248954527343,-3.3756890717409296,0,DB
2025-05-14 14:52:38.373,-0.0003125669450681,-3.3074559312852485,0,DB
2025-05-14 14:52:38.381,-0.000298515346252,-3.220944583771658,0,DB
2025-05-14 14:52:38.389,-0.0002828210454458,-3.117953764081509,0,DB
2025-05-14 14:52:38.397,-0.00026560403654,-3.0001761557334623,0,DB
2025-05-14 14:52:38.404,-0.0002470240736437,-2.8691561842702,0,DB
2025-05-14 14:52:38.412,-0.0002272785687305,-2.726269487002806,0,DB
2025-05-14 14:52:38.420,-0.0002065983116082,-2.572723455348666,0,DB
2025-05-14 14:52:38.428,-0.0001852412500105,-2.409577006337615,0,DB
2025-05-14 14:52:38.436,-0.0001634846917495,-2.2377766805552004,0,DB
2025-05-14 14:52:38.443,-0.000141616390158,-2.05820531915262,0,DB
2025-05-14 14:52:38.451,-0.0001199250592902,-1.8717389664700836,0,DB
2025-05-14 14:52:38.459,-9.869091167888208e-05,-1.6793072940607727,0,DB
2025-05-14 14:52:38.467,-7.817678195470252e-05,-1.4819527534073176,0,DB
2025-05-14 14:52:38.475,-5.862029724764477e-05,-1.280883831962305,0,DB
2025-05-14 14:52:38.483,-4.022741938293434e-05,-1.0775181909280669,0,DB
2025-05-14 14:52:38.490,-2.3167549794693147e-05,-0.8735120737824988,0,DB
2025-05-14 14:52:38.498,-7.570271129522634e-06,-0.6707731532717441,0,DB
2025-05-14 14:52:38.506,6.476295727991342e-06,-0.4714548842867508,0,DB
2025-05-14 14:52:38.514,1.8925612162564173e-05,-0.2779313986865222,0,DB
2025-05-14 14:52:38.522,2.977146019050624e-05,-0.0927529652860263,0,DB
2025-05-14 14:52:38.529,3.904546231672776e-05,0.0814169996294144,0,DB
2025-05-14 14:52:38.537,4.681354702393284e-05,0.2418814841032857,0,DB
2025-05-14 14:52:38.545,5.317150543008105e-05,0.386003295101553,0,DB
2025-05-14 14:52:38.553,5.823975947948364e-05,0.5113089387016578,0,DB
2025-05-14 14:52:38.561,6.215745435929882e-05,0.6155990072977019,0,DB
2025-05-14 14:52:38.568,6.507601277803714e-05,0.6970607055939627,0,DB
2025-05-14 14:52:38.576,6.71523258542307e-05,0.754377895168866,0,DB
2025-05-14 14:52:38.584,6.854176890768997e-05,0.7868339388710512,0,DB
2025-05-14 14:52:38.592,6.939122118541849e-05,0.7944026712822821,0,DB
2025-05-14 14:52:38.600,6.983227369897416e-05,0.7778230018120601,0,DB
2025-05-14 14:52:38.608,6.997485068032931e-05,0.7386529724707074,0,DB
2025-05-14 14:52:38.615,6.99015336470849e-05,0.6792995510037911,0,DB
2025-05-14 14:52:38.623,6.966293777976047e-05,0.603021051054832,0,DB
2025-05-14 14:52:38.631,6.927452640984176e-05,0.5138998339686369,0,DB
2025-05-14 14:52:38.639,6.871523486728568e-05,0.4167838453732266,0,DB
2025-05-14 14:52:38.647,6.792818707055112e-05,0.3171965443502945,0,DB
2025-05-14 14:52:38.654,6.682362982358792e-05,0.2212158602213434,0,DB
2025-05-14 14:52:38.662,6.528401060329807e-05,0.1353239314321693,0,DB
2025-05-14 14:52:38.670,6.317092417322114e-05,0.0662305172981491,0,DB
2025-05-14 14:52:38.678,6.033348965532677e-05,0.0206741027699924,0,DB
2025-05-14 14:52:38.686,5.661761487745764e-05,0.005205813114645,0,DB
2025-05-14 14:52:38.693,5.18755514029118e-05,0.0259622899084111,0,DB
2025-05-14 14:52:38.701,4.597512928345234e-05,0.0884346178626322,0,DB
2025-05-14 14:52:38.709,3.880809944596482e-05,0.1972411928250641,0,DB
2025-05-14 14:52:38.717,3.0297116273214752e-05,0.3559130344395782,0,DB
2025-05-14 14:52:38.725,2.040103473954672e-05,0.566700413359867,0,DB
2025-05-14 14:52:38.733,9.118327803907636e-06,0.8304097206607534,0,DB
2025-05-14 14:52:38.740,-3.511473504663148e-06,1.1462791985428706,0,DB
2025-05-14 14:52:38.748,-1.7408342823841818e-05,1.511901428369666,0,DB
2025-05-14 14:52:38.756,-3.2454271653089784e-05,1.923199300284896,0,DB
2025-05-14 14:52:38.764,-4.849757477238338e-05,2.3744605548353235,0,DB
2025-05-14 14:52:38.772,-6.535870732392033e-05,2.858433905988412,0,DB
2025-05-14 14:52:38.779,-8.283721258284887e-05,3.366487273838498,0,DB
2025-05-14 14:52:38.787,-0.000100719373826,3.8888258572476686,0,DB
2025-05-14 14:52:38.795,-0.0001187861546727,4.414764786468872,0,DB
2025-05-14 14:52:38.803,-0.000136821055359,4.933048082363904,0,DB
2025-05-14 14:52:38.811,-0.0001546175622859,5.432202816393215,0,DB
2025-05-14 14:52:38.818,-0.000171985912649,5.900914934178526,0,DB
2025-05-14 14:52:38.826,-0.0001887589315363,6.328411387192127,0,DB
2025-05-14 14:52:38.834,-0.0002047967244193,6.704832190745101,0,DB
2025-05-14 14:52:38.842,-0.0002199900230438,7.021575912104378,0,DB
2025-05-14 14:52:38.850,-0.0002342619892536,7.271602933678674,0,DB
2025-05-14 14:52:38.858,-0.0002475682915439,7.449682595135105,0,DB
2025-05-14 14:52:38.865,-0.0002598953149988,7.552572885146584,0,DB
2025-05-14 14:52:38.873,-0.0002712564822482,7.579124561706401,0,DB
2025-05-14 14:52:38.881,-0.0002816868482547,7.530305223278536,0,DB
2025-05-14 14:52:38.889,-0.0002912363323539,7.409142701387066,0,DB
2025-05-14 14:52:38.897,-0.0002999621054527,7.220590960993713,0,DB
2025-05-14 14:52:38.904,-0.0003079207214539,6.971325250912248,0,DB
2025-05-14 14:52:38.912,-0.0003151605583884,6.669476343272219,0,DB
2025-05-14 14:52:38.920,-0.0003217150360471,6.324316181305107,0,DB
2025-05-14 14:52:38.928,-0.0003275969546115,5.9459090120543046,0,DB
2025-05-14 14:52:38.936,-0.0003327942034226,5.5447430647238685,0,DB
2025-05-14 14:52:38.943,-0.0003372670324059,5.131358052969414,0,DB
2025-05-14 14:52:38.951,-0.000340947031871,4.715983287308842,0,DB
2025-05-14 14:52:38.959,-0.0003437378869891,4.308200073521116,0,DB
2025-05-14 14:52:38.967,-0.0003455178427912,3.916640452471985,0,DB
2025-05-14 14:52:38.975,-0.0003461436680175,3.5487323181852446,0,DB
2025-05-14 14:52:38.983,-0.0003454558056343,3.2104986459176605,0,DB
2025-05-14 14:52:38.990,-0.0003432843709422,2.906416083404616,0,DB
2025-05-14 14:52:38.998,-0.0003394556703676,2.639335621130309,0,DB
2025-05-14 14:52:39.006,-0.0003337989229882,2.410465573520536,0,DB
2025-05-14 14:52:39.014,-0.0003261528713742,2.219414772183392,0,DB
2025-05-14 14:52:39.022,-0.0003163719937792,2.064291773060296,0,DB
2025-05-14 14:52:39.029,-0.0003043320862555,1.9418540639831008,0,DB
2025-05-14 14:52:39.037,-0.0002899350590551,1.8476997560821056,0,DB
2025-05-14 14:52:39.045,-0.0002731128840611,1.7764930641672774,0,DB
2025-05-14 14:52:39.053,-0.0002538307489044,1.7222140350071815,0,DB
2025-05-14 14:52:39.061,-0.0002320895969424,1.678422479334332,0,DB
2025-05-14 14:52:39.068,-0.0002079282977208,1.638525918854577,0,DB
2025-05-14 14:52:39.076,-0.0001814256557406,1.596041584907843,0,DB
2025-05-14 14:52:39.084,-0.0001527023429839,1.5448430952985372,0,DB
2025-05-14 14:52:39.092,-0.0001219226835746,1.4793833611936866,0,DB
2025-05-14 14:52:39.100,-8.929606793958676e-05,1.3948864880180385,0,DB
2025-05-14 14:52:39.108,-5.507764988589994e-05,1.2875028720556991,0,DB
2025-05-14 14:52:39.115,-1.9567901428243757e-05,1.154423289816003,0,DB
2025-05-14 14:52:39.123,1.6889406722958407e-05,0.993949457674432,0,DB
2025-05-14 14:52:39.131,5.3911150985256144e-05,0.805520233846205,0,DB
2025-05-14 14:52:39.139,9.108093570137348e-05,0.5896942811764463,0,DB
2025-05-14 14:52:39.147,0.0001279573602214,0.3480915572548559,0,DB
2025-05-14 14:52:39.154,0.0001640843793261,0.0832974062804627,0,DB
2025-05-14 14:52:39.162,0.0001990035240207,-0.2012657439677578,0,DB
2025-05-14 14:52:39.170,0.0002322675987967,-0.5014930656087515,0,DB
2025-05-14 14:52:39.178,0.0002634553149347,-0.8127716228598824,0,DB
2025-05-14 14:52:39.186,0.0002921861845834,-1.130167023879819,0,DB
2025-05-14 14:52:39.193,0.0003181349175699,-1.4486149964927058,0,DB
2025-05-14 14:52:39.201,0.0003410445466054,-1.7631105514427672,0,DB
2025-05-14 14:52:39.209,0.0003607375579408,-2.068887766134968,0,DB
2025-05-14 14:52:39.217,0.0003771244147334,-2.361583836054943,0,DB
2025-05-14 14:52:39.225,0.0003902089977534,-2.637381866180358,0,DB
2025-05-14 14:52:39.233,0.000400090613935,-2.8931278653816164,0,DB
2025-05-14 14:52:39.240,0.0004069623372781,-3.126418506789472,0,DB
2025-05-14 14:52:39.248,0.000411105584871,-3.335657366073353,0,DB
2025-05-14 14:52:39.256,0.0004128810140096,-3.520078494864762,0,DB
2025-05-14 14:52:39.264,0.0004127160376119,-3.679737292072786,0,DB
2025-05-14 14:52:39.272,0.0004110894598615,-3.815469682704707,0,DB
2025-05-14 14:52:39.279,0.0004085138975914,-3.92882159367072,0,DB
2025-05-14 14:52:39.287,0.0004055167563432,-4.021951622374036,0,DB
2025-05-14 14:52:39.295,0.0004026205852204,-4.097510617115202,0,DB
2025-05-14 14:52:39.303,0.0004003236643315,-4.158502616096265,0,DB
2025-05-14 14:52:39.311,0.000399081681245,-4.20813221004567,0,DB
2025-05-14 14:52:39.318,0.0003992913058904,-4.249643885655217,0,DB
2025-05-14 14:52:39.326,0.0004012763568552,-4.286159253370572,0,DB
2025-05-14 14:52:39.334,0.0004052770610442,-4.32051824377533,0,DB
2025-05-14 14:52:39.342,0.0004114426679975,-4.355130357681195,0,DB
2025-05-14 14:52:39.350,0.0004198274533879,-4.391841869571979,0,DB
2025-05-14 14:52:39.358,0.0004303900056518,-4.431824509245312,0,DB
2025-05-14 14:52:39.365,0.0004429956584936,-4.475490578378005,0,DB
2025-05-14 14:52:39.373,0.0004574219556687,-4.522438694501951,0,DB
2025-05-14 14:52:39.381,0.0004733670271153,-4.571433400989468,0,DB
2025-05-14 14:52:39.389,0.0004904606797402,-4.620420760087985,0,DB
2025-05-14 14:52:39.397,0.0005082778876191,-4.6665807933532175,0,DB
2025-05-14 14:52:39.404,0.0005263542375682,-4.706416296100202,0,DB
2025-05-14 14:52:39.412,0.0005442027592367,-4.735876181063651,0,DB
2025-05-14 14:52:39.420,0.00056133146002,-4.750510153657265,0,DB
2025-05-14 14:52:39.428,0.0005772608215278,-4.745650234283053,0,DB
2025-05-14 14:52:39.436,0.0005915405190732,-4.716613459393354,0,DB
2025-05-14 14:52:39.443,0.0006037647067982,-4.658919040745534,0,DB
2025-05-14 14:52:39.451,0.0006135853484957,-4.568512366659422,0,DB
2025-05-14 14:52:39.459,0.0006207232186991,-4.441987517738262,0,DB
2025-05-14 14:52:39.467,0.0006249763111052,-4.276799474376361,0,DB
2025-05-14 14:52:39.475,0.0006262254817462,-4.07145695048715,0,DB
2025-05-14 14:52:39.483,0.0006244372548729,-3.825686838400631,0,DB
2025-05-14 14:52:39.490,0.0006196638218586,-3.540561639400668,0,DB
2025-05-14 14:52:39.498,0.0006120403203265,-3.2185820255836965,0,DB
2025-05-14 14:52:39.506,0.0006017794825224,-2.8637078599194767,0,DB
2025-05-14 14:52:39.514,0.0005891637495327,-2.481332598331249,0,DB
2025-05-14 14:52:39.522,0.0005745350217683,-2.078197990976137,0,DB
2025-05-14 14:52:39.529,0.0005582823455955,-1.6622483450043988,0,DB
2025-05-14 14:52:39.537,0.0005408279705818,-1.2424262362311536,0,DB
2025-05-14 14:52:39.545,0.0005226123296578,-0.8284143605779445,0,DB
2025-05-14 14:52:39.553,0.0005040785949278,-0.4303310638355234,0,DB
2025-05-14 14:52:39.561,0.0004856575183006,-0.0583898162619993,0,DB
2025-05-14 14:52:39.568,0.0004677532415737,0.2774646783279625,0,DB
2025-05-14 14:52:39.576,0.0004507306579737,0.5679291210547898,0,DB
2025-05-14 14:52:39.584,0.000434904765759,0.8047071269348594,0,DB
2025-05-14 14:52:39.592,0.0004205323096358,0.9808512742579494,0,DB
2025-05-14 14:52:39.600,0.0004078058727565,1.0910657987390588,0,DB
2025-05-14 14:52:39.608,0.0003968504655587,1.131955370047942,0,DB
2025-05-14 14:52:39.615,0.0003877225596135,1.102207559861504,0,DB
2025-05-14 14:52:39.623,0.0003804114359409,1.002699498013626,0,DB
2025-05-14 14:52:39.631,0.0003748426579482,0.8365226472927978,0,DB
2025-05-14 14:52:39.639,0.0003708834384782,0.6089234045441339,0,DB
2025-05-14 14:52:39.647,0.0003683496469467,0.3271611315526695,0,DB
2025-05-14 14:52:39.654,0.0003670141941598,0.0002890056804056,0,DB
2025-05-14 14:52:39.662,0.0003666165367015,-0.361133454977752,0,DB
2025-05-14 14:52:39.670,0.0003668730554258,-0.745384375253548,0,DB
2025-05-14 14:52:39.678,0.0003674880710794,-1.139965879835756,0,DB
2025-05-14 14:52:39.686,0.0003681652410073,-1.5320171048404638,0,DB
2025-05-14 14:52:39.693,0.0003686190204287,-1.908737340308604,0,DB
2025-05-14 14:52:39.701,0.0003685857938653,-2.257802746933881,0,DB
2025-05-14 14:52:39.709,0.0003678342347761,-2.567760784383488,0,DB
2025-05-14 14:52:39.717,0.0003661744586158,-2.828387837623416,0,DB
2025-05-14 14:52:39.725,0.0003634655832267,-3.030997442541487,0,DB
2025-05-14 14:52:39.733,0.0003596213782067,-3.1686888906869424,0,DB
2025-05-14 14:52:39.740,0.0003546137601972,-3.2365287193783483,0,DB
2025-05-14 14:52:39.748,0.0003484739705956,-3.231660537639243,0,DB
2025-05-14 14:52:39.756,0.0003412913544124,-3.153341657613185,0,DB
2025-05-14 14:52:39.764,0.0003332097423167,-3.0029079457987127,0,DB
2025-05-14 14:52:39.772,0.0003244215208144,-2.783671034568996,0,DB
2025-05-14 14:52:39.779,0.000315159556443,-2.500754419867599,0,DB
2025-05-14 14:52:39.787,0.0003056872172447,-2.160876929208035,0,DB
2025-05-14 14:52:39.795,0.0002962868069298,-1.7720935293050883,0,DB
2025-05-14 14:52:39.803,0.0002872467922945,-1.3435044449540927,0,DB
2025-05-14 14:52:39.811,0.0002788482607426,-0.8849440942927562,0,DB
2025-05-14 14:52:39.818,0.0002713510902295,-0.40666143588162,0,DB
2025-05-14 14:52:39.826,0.0002649803465765,0.0809969984048267,0,DB
2025-05-14 14:52:39.834,0.0002599134408835,0.5678908046556943,0,DB
2025-05-14 14:52:39.842,0.0002562685807231,1.04436657999808,0,DB
2025-05-14 14:52:39.850,0.0002540950311279,1.5015076908384044,0,DB
2025-05-14 14:52:39.858,0.0002533656634932,1.9313461566329544,0,DB
2025-05-14 14:52:39.865,0.0002539722112221,2.3270315230910485,0,DB
2025-05-14 14:52:39.873,0.0002557235694757,2.682953355741652,0,DB
2025-05-14 14:52:39.881,0.0002583473726481,2.994815791404504,0,DB
2025-05-14 14:52:39.889,0.0002614949577251,3.2596643851587093,0,DB
2025-05-14 14:52:39.897,0.0002647496759175,3.4758672259139733,0,DB
2025-05-14 14:52:39.904,0.000267638351193,3.643053905506183,0,DB
2025-05-14 14:52:39.912,0.0002696455058432,3.762017354606673,0,DB
2025-05-14 14:52:39.920,0.0002702297859359,3.8345847451584905,0,DB
2025-05-14 14:52:39.928,0.0002688418399982,3.8634645500724094,0,DB
2025-05-14 14:52:39.936,0.0002649427707124,3.852077403181669,0,DB
2025-05-14 14:52:39.943,0.0002580222419633,3.804378588569125,0,DB
2025-05-14 14:52:39.951,0.0002476154067935,3.724679803015802,0,DB
2025-05-14 14:52:39.959,0.0002333179992886,3.6174772993469015,0,DB
2025-05-14 14:52:39.967,0.0002147991449653,3.4872926775501525,0,DB
2025-05-14 14:52:39.975,0.000191811629187,3.3385315081277955,0,DB
2025-05-14 14:52:39.983,0.0001641994836063,3.1753637216443384,0,DB
2025-05-14 14:52:39.990,0.0001319028060021,3.0016283597630644,0,DB
2025-05-14 14:52:39.998,9.49597523155653e-05,2.82076394111366,0,DB
2025-05-14 14:52:40.006,5.350567080140521e-05,2.635764433054756,0,DB
2025-05-14 14:52:40.014,7.769402063832846e-06,2.4491597056122427,0,DB
2025-05-14 14:52:40.022,-4.193316321735692e-05,2.263018419674462,0,DB
2025-05-14 14:52:40.029,-9.520809425152328e-05,2.078970587966507,0,DB
2025-05-14 14:52:40.037,-0.0001515947127917,1.8982465498616088,0,DB
2025-05-14 14:52:40.045,-0.0002105787633763,1.7217288161988569,0,DB
2025-05-14 14:52:40.053,-0.000271606975805,1.5500131550828942,0,DB
2025-05-14 14:52:40.061,-0.0003341025068865,1.3834753793308692,0,DB
2025-05-14 14:52:40.068,-0.0003974807247588,1.2223405242610028,0,DB
2025-05-14 14:52:40.076,-0.0004611647440392,1.0667514273209946,0,DB
2025-05-14 14:52:40.084,-0.0005246000704848,0.9168340952710784,0,DB
2025-05-14 14:52:40.092,-0.0005872677282465,0.7727576334118137,0,DB
2025-05-14 14:52:40.100,-0.0006486953292936,0.6347868876674986,0,DB
2025-05-14 14:52:40.108,-0.0007084656669673,0.5033262975494404,0,DB
2025-05-14 14:52:40.115,-0.0007662225419741,0.37895376885275,0,DB
2025-05-14 14:52:40.123,-0.000821673655671,0.26244364956386,0,DB
2025-05-14 14:52:40.131,-0.0008745905501992,0.1547781351423482,0,DB
2025-05-14 14:52:40.139,-0.0009248057490646,0.0571466450200969,0,DB
2025-05-14 14:52:40.147,-0.0009722074297603,-0.029067093414532,0,DB
2025-05-14 14:52:40.154,-0.0010167320938158,-0.1023103331045477,0,DB
2025-05-14 14:52:40.162,-0.0010583557656679,-0.1608988547582586,0,DB
2025-05-14 14:52:40.170,-0.0010970842647246,-0.2030664319998722,0,DB
2025-05-14 14:52:40.178,-0.0011329430797825,-0.2270255807133901,0,DB
2025-05-14 14:52:40.186,-0.0011659673458787,-0.2310385790708401,0,DB
2025-05-14 14:52:40.193,-0.0011961923872053,-0.2134972633401717,0,DB
2025-05-14 14:52:40.201,-0.0012236452491405,-0.1730095258575077,0,DB
2025-05-14 14:52:40.209,-0.0012483375927739,-0.1084897925521849,0,DB
2025-05-14 14:52:40.217,-0.001270260250258,-0.0192500876190528,0,DB
2025-05-14 14:52:40.225,-0.0012893796299608,0.0949123323099814,0,DB
2025-05-14 14:52:40.233,-0.001305636036561,0.2336353002783006,0,DB
2025-05-14 14:52:40.240,-0.001318943864659,0.3959248617191086,0,DB
2025-05-14 14:52:40.248,-0.0013291935499137,0.5801061050388708,0,DB
2025-05-14 14:52:40.256,-0.0013362551229441,0.7837963629753857,0,DB
2025-05-14 14:52:40.264,-0.0013399832042339,1.0039048663652974,0,DB
2025-05-14 14:52:40.272,-0.0013402232735121,1.2366620096442282,0,DB
2025-05-14 14:52:40.279,-0.0013368190102891,1.477680142836134,0,DB
2025-05-14 14:52:40.287,-0.0013296204395865,1.7220462765331508,0,DB
2025-05-14 14:52:40.295,-0.0013184925684158,1.964445334400548,0,DB
2025-05-14 14:52:40.303,-0.0013033241892955,2.1993106981020736,0,DB
2025-05-14 14:52:40.311,-0.0012840365402094,2.420996876546569,0,DB
2025-05-14 14:52:40.318,-0.0012605915057236,2.623967335130071,0,DB
2025-05-14 14:52:40.326,-0.0012329990034303,2.802988999981255,0,DB
2025-05-14 14:52:40.334,-0.0012013231526245,2.9533238706227767,0,DB
2025-05-14 14:52:40.342,-0.001165686818955,3.0709076772142576,0,DB
2025-05-14 14:52:40.350,-0.0011262741962624,3.152505705273774,0,DB
2025-05-14 14:52:40.358,-0.0010833312065737,3.1958368141677957,0,DB
2025-05-14 14:52:40.365,-0.0010371636282068,3.1996582534246145,0,DB
2025-05-14 14:52:40.373,-0.0009881329762091,3.163806020629309,0,DB
2025-05-14 14:52:40.381,-0.0009366502712047,3.089188038818916,0,DB
2025-05-14 14:52:40.389,-0.0008831679559256,2.9777301604181337,0,DB
2025-05-14 14:52:40.397,-0.0008281703385655,2.83227772285792,0,DB
2025-05-14 14:52:40.404,-0.0007721630354646,2.656457896314616,0,DB
2025-05-14 14:52:40.412,-0.0007156619428002,2.4545102117001365,0,DB
2025-05-14 14:52:40.420,-0.0006591822773629,2.2310943071252733,0,DB
2025-05-14 14:52:40.428,-0.0006032281693095,1.9910849947644405,0,DB
2025-05-14 14:52:40.436,-0.0005482831575154,1.7393651847945495,0,DB
2025-05-14 14:52:40.443,-0.0004948017613036,1.480627013607097,0,DB
2025-05-14 14:52:40.451,-0.0004432021418236,1.2191907572216991,0,DB
2025-05-14 14:52:40.459,-0.0003938597737425,0.9588498474370988,0,DB
2025-05-14 14:52:40.467,-0.000347102027731,0.7027486470292523,0,DB
2025-05-14 14:52:40.475,-0.0003032035819881,0.4532976918167278,0,DB
2025-05-14 14:52:40.483,-0.0002623826118045,0.2121289916153182,0,DB
2025-05-14 14:52:40.490,-0.0002247977583067,-0.0199081734035768,0,DB
2025-05-14 14:52:40.498,-0.0001905459583066,-0.2427125919898151,0,DB
2025-05-14 14:52:40.506,-0.0001596612967283,-0.4568610913177312,0,DB
2025-05-14 14:52:40.514,-0.0001321150717909,-0.6635081967975123,0,DB
2025-05-14 14:52:40.522,-0.0001078172159529,-0.864261743142801,0,DB
2025-05-14 14:52:40.529,-8.661911424496338e-05,-1.06104149543826,0,DB
2025-05-14 14:52:40.537,-6.831776061240265e-05,-1.2559282226070965,0,DB
2025-05-14 14:52:40.545,-5.2661138705148254e-05,-1.4510106516812775,0,DB
2025-05-14 14:52:40.553,-3.935470693378577e-05,-1.6482373622044193,0,DB
2025-05-14 14:52:40.561,-2.806887183408596e-05,-1.8492800188973504,0,DB
2025-05-14 14:52:40.568,-1.8447323273915183e-05,-2.0554134612313817,0,DB
2025-05-14 14:52:40.576,-1.011608921516967e-05,-2.267417143867301,0,DB
2025-05-14 14:52:40.584,-2.6931581705967474e-06,-2.485501314132513,0,DB
2025-05-14 14:52:40.592,4.201500173618892e-06,-2.709260169398661,0,DB
2025-05-14 14:52:40.600,1.0935725109950338e-05,-2.9376530947506985,0,DB
2025-05-14 14:52:40.608,1.7855022301587038e-05,-3.1690139693687653,0,DB
2025-05-14 14:52:40.615,2.5272786132111896e-05,-3.4010874742564625,0,DB
2025-05-14 14:52:40.623,3.346123111793758e-05,-3.6310903589341463,0,DB
2025-05-14 14:52:40.631,4.26434371090504e-05,-3.8557947572397735,0,DB
2025-05-14 14:52:40.639,5.298696013944992e-05,-4.071629912303771,0,DB
2025-05-14 14:52:40.647,6.459944726123918e-05,-4.274798108498556,0,DB
2025-05-14 14:52:40.654,7.75265970216837e-05,-4.461400239229471,0,DB
2025-05-14 14:52:40.662,9.17526500862586e-05,-4.6275662774186745,0,DB
2025-05-14 14:52:40.670,0.0001072034243782,-4.769585957331485,0,DB
2025-05-14 14:52:40.678,0.0001237517543233,-4.8840352037756105,0,DB
2025-05-14 14:52:40.686,0.0001412250462673,-4.967894230202389,0,DB
2025-05-14 14:52:40.694,0.0001594145136027,-5.01865373834825,0,DB
2025-05-14 14:52:40.701,0.0001780855333593,-5.034406251903234,0,DB
2025-05-14 14:52:40.709,0.0001969885175469,-5.013920264563068,0,DB
2025-05-14 14:52:40.717,0.0002158697387603,-4.956695537213099,0,DB
2025-05-14 14:52:40.725,0.0002344816646701,-4.862998502677437,0,DB
2025-05-14 14:52:40.733,0.0002525924811592,-4.733877301314588,0,DB
2025-05-14 14:52:40.740,0.0002699945683443,-4.571156460347227,0,DB
2025-05-14 14:52:40.748,0.000286511732792,-4.377411639128086,0,DB
2025-05-14 14:52:40.756,0.0003020050261022,-4.155925195533768,0,DB
2025-05-14 14:52:40.764,0.0003163770172963,-3.9106235963400446,0,DB
2025-05-14 14:52:40.772,0.0003295744224854,-3.645997914263457,0,DB
2025-05-14 14:52:40.779,0.0003415890171188,-3.3670088493590824,0,DB
2025-05-14 14:52:40.787,0.0003524567791355,-3.078977907164423,0,DB
2025-05-14 14:52:40.795,0.0003622552591762,-2.787466580767251,0,DB
2025-05-14 14:52:40.803,0.0003710992547614,-2.4981456315802357,0,DB
2025-05-14 14:52:40.811,0.0003791349776632,-2.2166568477562443,0,DB
2025-05-14 14:52:40.819,0.0003865330351776,-1.9484699731360315,0,DB
2025-05-14 14:52:40.826,0.0003934806589198,-1.6987378258513608,0,DB
2025-05-14 14:52:40.834,0.0004001736604842,-1.4721529387900751,0,DB
2025-05-14 14:52:40.842,0.0004068085499186,-1.272809324809176,0,DB
2025-05-14 14:52:40.850,0.0004135751439773,-1.1040731678131206,0,DB
2025-05-14 14:52:40.858,0.0004206498666528,-0.9684663389334118,0,DB
2025-05-14 14:52:40.865,0.0004281898435906,-0.8675666136744471,0,DB
2025-05-14 14:52:40.873,0.0004363278280918,-0.8019283090136261,0,DB
2025-05-14 14:52:40.881,0.0004451679715221,-0.7710267671137805,0,DB
2025-05-14 14:52:40.889,0.0004547824572311,-0.7732296902523137,0,DB
2025-05-14 14:52:40.897,0.0004652090307131,-0.8057977885164679,0,DB
2025-05-14 14:52:40.904,0.0004764494636242,-0.8649165456692949,0,DB
2025-05-14 14:52:40.912,0.0004884689971893,-0.945760145912488,0,DB
2025-05-14 14:52:40.920,0.0005011968314987,-1.042587741496486,0,DB
2025-05-14 14:52:40.928,0.0005145277364808,-1.1488712859535533,0,DB
2025-05-14 14:52:40.936,0.0005283248223229,-1.2574531221687977,0,DB
2025-05-14 14:52:40.944,0.000542423422177,-1.3607304199904329,0,DB
2025-05-14 14:52:40.951,0.0005566359462254,-1.450862439116387,0,DB
2025-05-14 14:52:40.959,0.0005707574989033,-1.5199954961543096,0,DB
2025-05-14 14:52:40.967,0.0005845720220028,-1.5604994935466312,0,DB
2025-05-14 14:52:40.975,0.0005978587362185,-1.5652089771588285,0,DB
2025-05-14 14:52:40.983,0.0006103986921342,-1.5276609820200546,0,DB
2025-05-14 14:52:40.990,0.0006219812748182,-1.4423214545287533,0,DB
2025-05-14 14:52:40.998,0.0006324104974803,-1.3047918557625144,0,DB
2025-05-14 14:52:41.006,0.0006415108701646,-1.1119877003214451,0,DB
2025-05-14 14:52:41.014,0.0006491325780346,-0.8622813036413142,0,DB
2025-05-14 14:52:41.022,0.0006551556864059,-0.5556019185956997,0,DB
2025-05-14 14:52:41.029,0.0006594931184866,-0.193487741646714,0,DB
2025-05-14 14:52:41.037,0.0006620922277057,0.2209140613341074,0,DB
2025-05-14 14:52:41.045,0.0006629348991111,0.6829011677747768,0,DB
2025-05-14 14:52:41.053,0.0006620362291432,1.1863233723057651,0,DB
2025-05-14 14:52:41.061,0.0006594419125125,1.7237405718837573,0,DB
2025-05-14 14:52:41.069,0.0006552245084696,2.2866263354508023,0,DB
2025-05-14 14:52:41.076,0.0006494788015489,2.8656097046930284,0,DB
2025-05-14 14:52:41.084,0.0006423165359096,3.450745959814958,0,DB
2025-05-14 14:52:41.092,0.0006338608647986,4.0318056415960655,0,DB
2025-05-14 14:52:41.100,0.0006242408732841,4.598570273438711,0,DB
2025-05-14 14:52:41.108,0.0006135864834037,5.141123048927109,0,DB
2025-05-14 14:52:41.115,0.0006020239610128,5.6501232532261065,0,DB
2025-05-14 14:52:41.123,0.0005896721617843,6.117054318033511,0,DB
2025-05-14 14:52:41.131,0.0005766396072022,6.534437061726835,0,DB
2025-05-14 14:52:41.139,0.000563022451733,6.896001691361429,0,DB
2025-05-14 14:52:41.147,0.0005489033575551,7.196814375552085,0,DB
2025-05-14 14:52:41.154,0.0005343512357721,7.433356474495196,0,DB
2025-05-14 14:52:41.162,0.0005194217799893,7.603556690989016,0,DB
2025-05-14 14:52:41.170,0.0005041587325184,7.706778362595579,0,DB
2025-05-14 14:52:41.178,0.0004885958624999,7.743765752477183,0,DB
2025-05-14 14:52:41.186,0.0004727596523479,7.716554448158847,0,DB
2025-05-14 14:52:41.194,0.0004566726530559,7.628351816505956,0,DB
2025-05-14 14:52:41.201,0.000440357381939,7.483393901851698,0,DB
2025-05-14 14:52:41.209,0.0004238405331661,7.286785231921377,0,DB
2025-05-14 14:52:41.217,0.0004071572020982,7.0443277668708655,0,DB
2025-05-14 14:52:41.225,0.0003903548151577,6.7623447538024415,0,DB
2025-05-14 14:52:41.233,0.0003734964877242,6.447504605171283,0,DB
2025-05-14 14:52:41.240,0.0003566635673308,6.106649183538858,0,DB
2025-05-14 14:52:41.248,0.000339957148141,5.746630124208026,0,DB
2025-05-14 14:52:41.256,0.0003234983783433,5.374156124860644,0,DB
2025-05-14 14:52:41.264,0.0003074274326664,4.995653517966625,0,DB
2025-05-14 14:52:41.272,0.000291901086951,4.61714193282646,0,DB
2025-05-14 14:52:41.279,0.0002770889093134,4.244126444055451,0,DB
2025-05-14 14:52:41.287,0.0002631681628857,3.88150727223665,0,DB
2025-05-14 14:52:41.295,0.0002503175816776,3.53350782369196,0,DB
2025-05-14 14:52:41.303,0.0002387102320339,3.2036216038176413,0,DB
2025-05-14 14:52:41.311,0.000228505720737,2.8945782901966,0,DB
2025-05-14 14:52:41.319,0.0002198420636464,2.60832898754242,0,DB
2025-05-14 14:52:41.326,0.0002128275838872,2.3460503864627293,0,DB
2025-05-14 14:52:41.334,0.0002075332635937,2.108167197474624,0,DB
2025-05-14 14:52:41.342,0.0002039860155978,1.89439183010096,0,DB
2025-05-14 14:52:41.350,0.0002021633442382,1.7037798508380693,0,DB
2025-05-14 14:52:41.358,0.0002019898051712,1.5347993125256094,0,DB
2025-05-14 14:52:41.365,0.0002033355551023,1.3854116364820748,0,DB
2025-05-14 14:52:41.373,0.0002060171375448,1.2531613845677405,0,DB
2025-05-14 14:52:41.381,0.0002098005293862,1.1352720147854,0,DB
2025-05-14 14:52:41.389,0.0002144064008115,1.028744594471381,0,DB
2025-05-14 14:52:41.397,0.000219517496233,0.9304564557551936,0,DB
2025-05-14 14:52:41.404,0.0002247879808892,0.8372569072280345,0,DB
2025-05-14 14:52:41.412,0.0002298544868684,0.7460573417698216,0,DB
