Timestamp,GSR_Filtered,PPG_Filtered
2025-07-22 14:48:57.138,-0.0004876567597106,-8.114538272101141
2025-07-22 14:48:57.146,-0.0004660514287137,-8.711496008127966
2025-07-22 14:48:57.154,-0.0004447463156355,-9.308464518382117
2025-07-22 14:48:57.162,-0.0004234320392706,-9.906024678783185
2025-07-22 14:48:57.170,-0.0004018174980198,-10.505103501696247
2025-07-22 14:48:57.177,-0.0003796413537957,-11.106883142483852
2025-07-22 14:48:57.185,-0.0003566826923182,-11.712683711533405
2025-07-22 14:48:57.193,-0.0003327704568967,-12.323822702021047
2025-07-22 14:48:57.201,-0.0003077911761522,-12.941455239220655
2025-07-22 14:48:57.209,-0.0002816945047233,-13.566400699800996
2025-07-22 14:48:57.216,-0.0002544961814277,-14.198962463960084
2025-07-22 14:48:57.224,-0.0002262781706199,-14.8387485698826
2025-07-22 14:48:57.232,-0.0001971859531494,-15.484501763063989
2025-07-22 14:48:57.240,-0.0001674231224975,-16.133947805408706
2025-07-22 14:48:57.248,-0.0001372435900762,-16.78367087537356
2025-07-22 14:48:57.256,-0.000106941819242,-17.429024413794327
2025-07-22 14:48:57.263,-7.68416008737832e-05,-18.064084839719563
2025-07-22 14:48:57.271,-4.728393941323441e-05,-18.68165419456335
2025-07-22 14:48:57.279,-1.861462304950317e-05,-19.273316013838457
2025-07-22 14:48:57.287,8.82798130859003e-06,-19.82954663726153
2025-07-22 14:48:57.295,3.472442414455022e-05,-20.339881835887763
2025-07-22 14:48:57.302,5.878456774199174e-05,-20.793136168274813
2025-07-22 14:48:57.310,8.075662115708166e-05,-21.177670001543863
2025-07-22 14:48:57.318,0.0001004347087119,-21.481696773744016
2025-07-22 14:48:57.326,0.0001176649818581,-21.6936209475494
2025-07-22 14:48:57.334,0.0001323503342222,-21.802395316796204
2025-07-22 14:48:57.341,0.0001444537633196,-21.797884970063404
2025-07-22 14:48:57.349,0.0001540003741189,-21.67122436767567
2025-07-22 14:48:57.357,0.0001610779896885,-21.41515370788361
2025-07-22 14:48:57.365,0.0001658363494741,-21.02432107925574
2025-07-22 14:48:57.373,0.0001684849159773,-20.49553783127235
2025-07-22 14:48:57.381,0.0001692893332478,-19.827976129715587
2025-07-22 14:48:57.388,0.0001685665665283,-19.02329974938593
2025-07-22 14:48:57.396,0.0001666787260871,-18.08572170407934
2025-07-22 14:48:57.404,0.0001640255872572,-17.02198519437197
2025-07-22 14:48:57.412,0.0001610358877316,-15.841267414611304
2025-07-22 14:48:57.420,0.0001581575888269,-14.555008839814745
2025-07-22 14:48:57.427,0.0001558473817184,-13.176673551622931
2025-07-22 14:48:57.435,0.00015455976922,-11.72144881109769
2025-07-22 14:48:57.443,0.0001547360557032,-10.20589431572337
2025-07-22 14:48:57.451,0.0001567935534976,-8.647553289222929
2025-07-22 14:48:57.459,0.0001611152885912,-7.064538683102587
2025-07-22 14:48:57.466,0.0001680404715125,-5.47510829401204
2025-07-22 14:48:57.474,0.0001778559901652,-3.897242535505677
2025-07-22 14:48:57.482,0.0001907891785056,-2.348237998292531
2025-07-22 14:48:57.490,0.0002070021062405,-0.8443288712661196
2025-07-22 14:48:57.498,0.0002265875949196,0.599653126757997
2025-07-22 14:48:57.506,0.0002495670818895,1.970571343093912
2025-07-22 14:48:57.513,0.000275890348141,3.257222226337757
2025-07-22 14:48:57.521,0.0003054370434975,4.450513700783997
2025-07-22 14:48:57.529,0.0003380199051043,5.543580825250647
2025-07-22 14:48:57.537,0.0003733895493714,6.6182319274272405
2025-07-22 14:48:57.545,0.0004112406862209,7.596876154474793
2025-07-22 14:48:57.552,0.000451219555469,8.476243146683155
2025-07-22 14:48:57.560,0.0004929323512706,9.255238020104374
2025-07-22 14:48:57.568,0.0005359544013962,9.934863369820093
2025-07-22 14:48:57.576,0.0005798398800185,10.518089730216476
2025-07-22 14:48:57.584,0.0006241318190388,11.009679633666767
2025-07-22 14:48:57.591,0.0006683721427468,11.415971607365869
2025-07-22 14:48:57.599,0.0007121114185006,11.74463147475973
2025-07-22 14:48:57.607,0.0007549180156627,12.004379130093726
2025-07-22 14:48:57.615,0.0007963863849896,12.204699482682464
2025-07-22 14:48:57.623,0.0008361441979052,12.355546490147114
2025-07-22 14:48:57.631,0.0008738581327637,12.46704911262039
2025-07-22 14:48:57.638,0.0009092381761807,12.549227643281611
2025-07-22 14:48:57.646,0.0009420404061969,12.611728240048665
2025-07-22 14:48:57.654,0.0009720683163875,12.663582639069835
2025-07-22 14:48:57.662,0.0009991728172234,12.71299901125264
2025-07-22 14:48:57.670,0.0010232511115208,12.767188762311322
2025-07-22 14:48:57.677,0.0010442446840008,12.832232805507743
2025-07-22 14:48:57.685,0.0010621366725077,12.91298948736805
2025-07-22 14:48:57.693,0.001076948892872,13.013044960367324
2025-07-22 14:48:57.701,0.0010887387511752,13.134705419802987
2025-07-22 14:48:57.709,0.0010975961896973,13.279029301497763
2025-07-22 14:48:57.716,0.0011036407055149,13.44589631193342
2025-07-22 14:48:57.724,0.0011070184048126,13.634109065198386
2025-07-22 14:48:57.732,0.0011078990402509,13.841522163477835
2025-07-22 14:48:57.740,0.0011064730040353,14.065192815528404
2025-07-22 14:48:57.748,0.0011029482719996,14.301546577606548
2025-07-22 14:48:57.756,0.0010975472834236,14.54655155316222
2025-07-22 14:48:57.763,0.0010905036907846,14.795894416090828
2025-07-22 14:48:57.771,0.0010820588374876,15.045151926889778
2025-07-22 14:48:57.779,0.001072457757794,15.289952178699911
2025-07-22 14:48:57.787,0.0010619444920436,15.526120615172276
2025-07-22 14:48:57.795,0.0010507565968759,15.749806861079444
2025-07-22 14:48:57.802,0.0010391188804411,15.957589535640988
2025-07-22 14:48:57.810,0.0010272365570363,16.146557397667344
2025-07-22 14:48:57.818,0.0010152881569204,16.314366316727753
2025-07-22 14:48:57.826,0.0010034186296959,16.459272600218256
2025-07-22 14:48:57.834,0.0009917331389672,16.58014407273259
2025-07-22 14:48:57.841,0.0009802920602754,16.676450958142137
2025-07-22 14:48:57.849,0.0009691076632109,16.74823903013187
2025-07-22 14:48:57.857,0.000958142883141,16.79608767012827
2025-07-22 14:48:57.865,0.0009473124705677,16.82105542703514
2025-07-22 14:48:57.873,0.0009364866505519,16.82461546172644
2025-07-22 14:48:57.881,0.0009254972376523,16.808582948126535
2025-07-22 14:48:57.888,0.0009141459495213,16.77503616103305
2025-07-22 14:48:57.896,0.0009022144744754,16.726232666023304
2025-07-22 14:48:57.904,0.0008894757061132,16.66452177896718
2025-07-22 14:48:57.912,0.0008757054764405,16.592254306417246
2025-07-22 14:48:57.920,0.0008606941013466,16.51169052465055
2025-07-22 14:48:57.927,0.0008442571000608,16.424907402121747
2025-07-22 14:48:57.935,0.0008262445529859,16.33370620268124
2025-07-22 14:48:57.943,0.0008065486934174,16.239521801954634
2025-07-22 14:48:57.951,0.000785109462414,16.143335282586207
2025-07-22 14:48:57.959,0.0007619178800996,16.045591627351758
2025-07-22 14:48:57.966,0.0007370171973476,15.946124591647276
2025-07-22 14:48:57.974,0.0007105018878597,15.84409110021402
2025-07-22 14:48:57.982,0.0006825146214827,15.737917764829852
2025-07-22 14:48:57.990,0.0006532414251642,15.625262340559445
2025-07-22 14:48:57.998,0.0006229052886688,15.502993100908157
2025-07-22 14:48:58.006,0.0005917585088818,15.36718918266524
2025-07-22 14:48:58.013,0.0005600740903216,15.21316488897692
2025-07-22 14:48:58.021,0.0005281365316514,15.035520700089752
2025-07-22 14:48:58.029,0.0004962323298981,14.828223283960906
2025-07-22 14:48:58.037,0.000464640527123,14.58471609613578
2025-07-22 14:48:58.045,0.0004336236097468,14.298061205120382
2025-07-22 14:48:58.052,0.0004034190497882,13.9611117953841
2025-07-22 14:48:58.060,0.0003742317509278,13.566713426718138
2025-07-22 14:48:58.068,0.0003462276313821,13.107930626325157
2025-07-22 14:48:58.076,0.0003195285406873,12.57829383215629
2025-07-22 14:48:58.084,0.0002942086690905,11.972060172403188
2025-07-22 14:48:58.091,0.0002702925666266,11.284480138067384
2025-07-22 14:48:58.099,0.0002477548443152,10.512060963557053
2025-07-22 14:48:58.107,0.000226521582365,9.65281655230858
2025-07-22 14:48:58.115,0.000206473419984,8.706493145249148
2025-07-22 14:48:58.123,0.0001874502485567,7.674759699104905
2025-07-22 14:48:58.131,0.0001692573749137,6.5613521802529045
2025-07-22 14:48:58.138,0.00015167296472,5.372161737000735
2025-07-22 14:48:58.146,0.0001344565184036,4.1152580209318765
2025-07-22 14:48:58.154,0.0001173580745946,2.8008407941901283
2025-07-22 14:48:58.162,0.0001001277817048,1.4411153590587449
2025-07-22 14:48:58.170,8.252543838337931e-05,0.0500902125355094
2025-07-22 14:48:58.177,6.432960066406628e-05,-1.3567014487313986
2025-07-22 14:48:58.185,4.5345901037496514e-05,-2.76255131873727
2025-07-22 14:48:58.193,2.541429845701829e-05,-4.149988156683119
2025-07-22 14:48:58.201,4.415032663565448e-06,-5.501240746720609
2025-07-22 14:48:58.209,-1.7726922557804543e-05,-6.7987369248238885
2025-07-22 14:48:58.216,-4.103908949820546e-05,-8.025621596187007
2025-07-22 14:48:58.224,-6.550052222141653e-05,-9.166275033361
2025-07-22 14:48:58.232,-9.104268450814603e-05,-10.206811959098037
2025-07-22 14:48:58.240,-0.0001175521310288,-11.1355420444739
2025-07-22 14:48:58.248,-0.0001448748891901,-11.943373497424007
2025-07-22 14:48:58.256,-0.0001728223619686,-12.624143324082755
2025-07-22 14:48:58.263,-0.000201178483862,-13.17486050516759
2025-07-22 14:48:58.271,-0.0002297078001794,-13.595851589692524
2025-07-22 14:48:58.279,-0.0002581641261917,-13.890801891505053
2025-07-22 14:48:58.287,-0.0002862994633968,-14.066689395651974
2025-07-22 14:48:58.295,-0.0003138728824296,-14.133612460784692
2025-07-22 14:48:58.302,-0.0003406591143607,-14.10451627282471
2025-07-22 14:48:58.310,-0.000366456621204,-13.994826615125085
2025-07-22 14:48:58.318,-0.000391094941411,-13.82200274504055
2025-07-22 14:48:58.326,-0.0004144411264925,-13.605023902334096
2025-07-22 14:48:58.334,-0.0004364051007045,-13.363826139792732
2025-07-22 14:48:58.341,-0.0004569437874274,-13.118707704377693
2025-07-22 14:48:58.349,-0.0004760638543537,-12.889722079345104
2025-07-22 14:48:58.357,-0.000493822936075,-12.696078020808017
2025-07-22 14:48:58.365,-0.0005103291986056,-12.555565503564877
2025-07-22 14:48:58.373,-0.0005257391190172,-12.484025466146536
2025-07-22 14:48:58.381,-0.0005402533760218,-12.49487966759055
2025-07-22 14:48:58.388,-0.0005541108062194,-12.598734907914206
2025-07-22 14:48:58.396,-0.0005675804883993,-12.803073399232582
2025-07-22 14:48:58.404,-0.0005809521511456,-13.112038286282491
2025-07-22 14:48:58.412,-0.0005945252176308,-13.526320284798189
2025-07-22 14:48:58.420,-0.0006085969008368,-14.04314821327775
2025-07-22 14:48:58.427,-0.0006234498654868,-14.656382917288065
2025-07-22 14:48:58.435,-0.0006393400744092,-15.356710809824644
2025-07-22 14:48:58.443,-0.0006564854969652,-16.13193007216933
2025-07-22 14:48:58.451,-0.0006750563513148,-16.967319585100935
2025-07-22 14:48:58.459,-0.0006951674925613,-17.846078004480827
2025-07-22 14:48:58.467,-0.0007168734667583,-18.749818171135704
2025-07-22 14:48:58.474,-0.0007401666373044,-19.65910035659017
2025-07-22 14:48:58.482,-0.0007649786585917,-20.55398677899821
2025-07-22 14:48:58.490,-0.0007911854238456,-21.414599433545096
2025-07-22 14:48:58.498,-0.0008186154522738,-22.22166358731273
2025-07-22 14:48:58.506,-0.0008470615077741,-22.957020268965703
2025-07-22 14:48:58.513,-0.0008762950608655,-23.6040926783465
2025-07-22 14:48:58.521,-0.0009060830227033,-24.148293554824807
2025-07-22 14:48:58.529,-0.0009362060090591,-24.57736305590012
2025-07-22 14:48:58.537,-0.0009664772584401,-24.881629478712007
2025-07-22 14:48:58.545,-0.0009967612485225,-25.05418807714399
2025-07-22 14:48:58.552,-0.0010269910096203,-25.09099616123529
2025-07-22 14:48:58.560,-0.0010571830902011,-24.990885494633183
2025-07-22 14:48:58.568,-0.0010874490992286,-24.75549562012544
2025-07-22 14:48:58.576,-0.0011180027940632,-24.389134048487104
2025-07-22 14:48:58.584,-0.0011491618445358,-23.898571168024223
2025-07-22 14:48:58.592,-0.0011813436664034,-23.29277921985286
2025-07-22 14:48:58.599,-0.0012150550289421,-22.58262570894308
2025-07-22 14:48:58.607,-0.001250875459797,-21.78053218067998
2025-07-22 14:48:58.615,-0.0012894347740325,-20.900109411582527
2025-07-22 14:48:58.623,-0.0013313853322456,-19.95577978856729
2025-07-22 14:48:58.631,-0.0013773698753321,-18.96239704762736
2025-07-22 14:48:58.638,-0.0014279859823487,-17.93487268583563
2025-07-22 14:48:58.646,-0.0014837483449875,-16.8878173368699
2025-07-22 14:48:58.654,-0.0015450501421526,-15.83520430326806
2025-07-22 14:48:58.662,-0.00161212483655,-14.7900613562123
2025-07-22 14:48:58.670,-0.0016850097296192,-13.764195910461709
2025-07-22 14:48:58.677,-0.0017635126419288,-12.767957788732602
2025-07-22 14:48:58.685,-0.0018471831492575,-11.810043007030222
2025-07-22 14:48:58.693,-0.001935289868177,-10.897341323146478
2025-07-22 14:48:58.701,-0.0020268052936871,-10.034829668469678
2025-07-22 14:48:58.709,-0.0021203996045019,-9.225512995012595
2025-07-22 14:48:58.717,-0.0022144446526945,-8.470413477420458
2025-07-22 14:48:58.724,-0.0023070290430078,-7.768608379035664
2025-07-22 14:48:58.732,-0.0023959847987976,-7.117316198709876
2025-07-22 14:48:58.740,-0.0024789256474935,-6.512029953701592
2025-07-22 14:48:58.748,-0.0025532964962093,-5.9466956317153805
2025-07-22 14:48:58.756,-0.0026164332440837,-5.413932979967709
2025-07-22 14:48:58.763,-0.0026656316834895,-4.905294910218284
2025-07-22 14:48:58.771,-0.0026982238474437,-4.41156089798051
2025-07-22 14:48:58.779,-0.0027116597529174,-3.9230588447268273
2025-07-22 14:48:58.787,-0.0027035920914349,-3.4300089535742733
2025-07-22 14:48:58.795,-0.0026719610838897,-2.922882245476932
2025-07-22 14:48:58.802,-0.0026150765063722,-2.3927654274697248
2025-07-22 14:48:58.810,-0.0025316938233868,-1.83172294481293
2025-07-22 14:48:58.818,-0.0024210813891182,-1.2331462547587595
2025-07-22 14:48:58.826,-0.0022830757510639,-0.5920797259920563
2025-07-22 14:48:58.834,-0.0021181222277802,0.0944878128503506
2025-07-22 14:48:58.842,-0.0019272981905639,0.8273768856729119
2025-07-22 14:48:58.849,-0.0017123168988703,1.605027161406116
2025-07-22 14:48:58.857,-0.0014755103169419,2.42337298383664
2025-07-22 14:48:58.865,-0.001219790042048,3.2757930562410835
2025-07-22 14:48:58.873,-0.0009485862849618,4.153140907115714
2025-07-22 14:48:58.881,-0.0006657657733793,5.043860573607423
2025-07-22 14:48:58.888,-0.000375530504698,5.934189420211774
2025-07-22 14:48:58.896,-8.230041791575671e-05,6.808447240471636
2025-07-22 14:48:58.904,0.0002094157846003,7.649407853382781
2025-07-22 14:48:58.912,0.0004951563433087,8.438746394192895
2025-07-22 14:48:58.920,0.000770642472579,9.157552507146224
2025-07-22 14:48:58.927,0.0010319080622989,9.786896777160266
2025-07-22 14:48:58.935,0.0012754165752721,10.308435096153078
2025-07-22 14:48:58.943,0.0014981595007557,10.705033359705034
2025-07-22 14:48:58.951,0.0016977320371461,10.961393042307854
2025-07-22 14:48:58.959,0.0018723832247752,11.064656910303164
2025-07-22 14:48:58.967,0.0020210393454691,11.00497349688441
2025-07-22 14:48:58.974,0.0021433009222665,10.775999066272911
2025-07-22 14:48:58.982,0.0022394149941316,10.375316699879214
2025-07-22 14:48:58.990,0.002310225433296,9.804753887713932
2025-07-22 14:48:58.998,0.0023571048763541,9.070582613406778
2025-07-22 14:48:59.006,0.00238187235659,8.18358934923492
2025-07-22 14:48:59.013,0.0023867009900039,7.159006545442655
2025-07-22 14:48:59.021,0.002374020123882,6.016301965699768
2025-07-22 14:48:59.029,0.0023464162372833,4.778827394648676
2025-07-22 14:48:59.037,0.0023065366069581,3.473333590884072
2025-07-22 14:48:59.045,0.0022569993267264,2.1293636222219847
2025-07-22 14:48:59.052,0.0022003127016069,0.7785416358366399
2025-07-22 14:48:59.060,0.0021388063625259,-0.5462215682184673
2025-07-22 14:48:59.068,0.0020745757189159,-1.811581296757728
2025-07-22 14:48:59.076,0.002009440639172,-2.984642694141294
2025-07-22 14:48:59.084,0.0019449185609098,-4.033846695877671
2025-07-22 14:48:59.092,0.0018822116102339,-4.929829240968018
2025-07-22 14:48:59.099,0.0018222067716346,-5.646225729017658
2025-07-22 14:48:59.107,0.0017654877128388,-6.160394766875245
2025-07-22 14:48:59.115,0.0017123565423642,-6.454038307286823
2025-07-22 14:48:59.123,0.0016628635674308,-6.513699180360853
2025-07-22 14:48:59.131,0.0016168430259727,-6.331121557623216
2025-07-22 14:48:59.138,0.0015739527763039,-5.903464840661626
2025-07-22 14:48:59.146,0.0015337160143899,-5.233366594696616
2025-07-22 14:48:59.154,0.0014955632290748,-4.328855222108169
2025-07-22 14:48:59.162,0.0014588728024371,-3.203117883325508
2025-07-22 14:48:59.170,0.0014230089187856,-1.874133546766188
2025-07-22 14:48:59.177,0.001387355727838,-0.3641848527167636
2025-07-22 14:48:59.185,0.0013513469687104,1.3007343781463063
2025-07-22 14:48:59.193,0.0013144904941131,3.091596715971424
2025-07-22 14:48:59.201,0.0012763873658067,4.977082760532742
2025-07-22 14:48:59.209,0.0012367454363203,6.924364786931937
2025-07-22 14:48:59.217,0.0011953875610443,8.899909940244362
2025-07-22 14:48:59.224,0.0011522547502123,10.870280734227942
2025-07-22 14:48:59.232,0.001107404646997,12.802911392504075
2025-07-22 14:48:59.240,0.0010610057300629,14.666839881903456
2025-07-22 14:48:59.248,0.0010133276358102,16.433377279173172
2025-07-22 14:48:59.256,0.0009647280139602,18.076698332052068
2025-07-22 14:48:59.263,0.0009156363845616,19.57433967159549
2025-07-22 14:48:59.271,0.0008665355562062,20.90759505180417
2025-07-22 14:48:59.279,0.0008179412821391,22.06180017531955
2025-07-22 14:48:59.287,0.0007703809381715,23.02650303465256
2025-07-22 14:48:59.295,0.0007243720556509,23.795519160384288
2025-07-22 14:48:59.302,0.0006804015102251,24.366874604019287
2025-07-22 14:48:59.310,0.0006389060766722,24.74264276422303
2025-07-22 14:48:59.318,0.0006002549597523,24.92868416235529
2025-07-22 14:48:59.326,0.0005647348338957,24.93430087284801
2025-07-22 14:48:59.334,0.0005325378726829,24.771819426966044
2025-07-22 14:48:59.342,0.000503753200134,24.45611757266407
2025-07-22 14:48:59.349,0.000478362123545,24.00411125036982
2025-07-22 14:48:59.357,0.0004562374007533,23.43421851698187
2025-07-22 14:48:59.365,0.0004371466528739,22.765816922298296
2025-07-22 14:48:59.373,0.0004207598574748,22.018710044132085
2025-07-22 14:48:59.381,0.0004066606586974,21.212617581552305
2025-07-22 14:48:59.388,0.0003943610375084,20.36670168041965
2025-07-22 14:48:59.396,0.0003833187231299,19.499140133462785
2025-07-22 14:48:59.404,0.0003729566080928,18.62675487887269
2025-07-22 14:48:59.412,0.0003626833574783,17.764701933620415
2025-07-22 14:48:59.420,0.0003519143783033,16.926226645852648
2025-07-22 14:48:59.427,0.0003400923372463,16.12248602271015
2025-07-22 14:48:59.435,0.0003267064826829,15.36243795094319
2025-07-22 14:48:59.443,0.0003113101381364,14.652795417968257
2025-07-22 14:48:59.451,0.0002935358841313,13.998042377242832
2025-07-22 14:48:59.459,0.000273108118985,13.400506681672782
2025-07-22 14:48:59.467,0.0002498528498118,12.8604845177446
2025-07-22 14:48:59.474,0.000223704664546,12.376409992919337
2025-07-22 14:48:59.482,0.0001947108512888,11.945062943265167
2025-07-22 14:48:59.490,0.0001630325890752,11.561807623725128
2025-07-22 14:48:59.498,0.0001289430857661,11.220854706714912
2025-07-22 14:48:59.506,9.28225230844718e-05,10.915538932607058
2025-07-22 14:48:59.513,5.5149702291171205e-05,10.63860481632065
2025-07-22 14:48:59.521,1.649037131832021e-05,10.38249301036912
2025-07-22 14:48:59.529,-2.2517645549447267e-05,10.139620254157414
2025-07-22 14:48:59.537,-6.118221421227995e-05,9.902646299439612
2025-07-22 14:48:59.545,-9.877706853946476e-05,9.66472177914241
2025-07-22 14:48:59.552,-0.0001345637771628,9.419711651122922
2025-07-22 14:48:59.560,-0.0001678148125075,9.162389558911626
2025-07-22 14:48:59.568,-0.0001978370222605,8.888599168945747
2025-07-22 14:48:59.576,-0.0002239947969211,8.59537924043888
2025-07-22 14:48:59.584,-0.0002457321973448,8.281049846174238
2025-07-22 14:48:59.592,-0.0002625932564878,7.945257791609857
2025-07-22 14:48:59.599,-0.0002742396357726,7.588979895958447
2025-07-22 14:48:59.607,-0.0002804648495087,7.214483442709653
2025-07-22 14:48:59.615,-0.0002812043970031,6.825243829969727
2025-07-22 14:48:59.623,-0.0002765413393776,6.425820297105008
2025-07-22 14:48:59.631,-0.0002667070797003,6.021691592115876
2025-07-22 14:48:59.638,-0.0002520773163739,5.619054559389782
2025-07-22 14:48:59.646,-0.0002331633280222,5.224589825538793
2025-07-22 14:48:59.654,-0.0002105989112675,4.845199977245232
2025-07-22 14:48:59.662,-0.0001851234309794,4.487726787955958
2025-07-22 14:48:59.670,-0.0001575615564962,4.158655096726796
2025-07-22 14:48:59.677,-0.0001288003479292,3.863811827778602
2025-07-22 14:48:59.685,-9.976442495455302e-05,3.6080693354875017
2025-07-22 14:48:59.693,-7.138999736439033e-05,3.395062745449788
2025-07-22 14:48:59.701,-4.459856268793985e-05,3.2269312150094605
2025-07-22 14:48:59.709,-2.0271081636020195e-05,3.104093029496463
2025-07-22 14:48:59.717,7.765732372225367e-07,3.025064155595801
2025-07-22 14:48:59.724,1.7816137063688463e-05,2.986329266449369
2025-07-22 14:48:59.732,3.0226741064044468e-05,2.9822733172245823
2025-07-22 14:48:59.740,3.751135357350059e-05,3.0051804762347665
2025-07-22 14:48:59.748,3.930936577129202e-05,3.045305604473109
2025-07-22 14:48:59.756,3.540494922530758e-05,3.091021533517881
2025-07-22 14:48:59.763,2.5730975283135423e-05,3.1290431375555854
2025-07-22 14:48:59.771,1.0368476232282525e-05,3.1447266641778744
2025-07-22 14:48:59.779,-1.0458166311366458e-05,3.122440032940093
2025-07-22 14:48:59.787,-3.638993203968404e-05,3.0459969028558924
2025-07-22 14:48:59.795,-6.694527208442348e-05,2.8991443451499883
2025-07-22 14:48:59.802,-0.0001015350761295,2.666091055203424
2025-07-22 14:48:59.810,-0.0001394799673645,2.332060340385608
2025-07-22 14:48:59.818,-0.0001800294231852,1.8838497899537876
2025-07-22 14:48:59.826,-0.0002223822437394,1.3103777426052785
2025-07-22 14:48:59.834,-0.00026570791727,0.6031955885162339
2025-07-22 14:48:59.842,-0.0003091684539777,-0.2430552735120042
2025-07-22 14:48:59.849,-0.0003519402536282,-1.230262250012074
2025-07-22 14:48:59.857,-0.0003932355230384,-2.3565547960080546
2025-07-22 14:48:59.865,-0.0004323226913315,-3.61612798531244
2025-07-22 14:48:59.873,-0.0004685452298288,-4.999188642999623
2025-07-22 14:48:59.881,-0.0005013382963884,-6.492031856987254
2025-07-22 14:48:59.888,-0.0005302426791732,-8.077250706760932
2025-07-22 14:48:59.896,-0.0005549155899802,-9.734076736112245
2025-07-22 14:48:59.904,-0.0005751379448468,-11.43884330358419
2025-07-22 14:48:59.912,-0.0005908178688871,-13.165558729759583
2025-07-22 14:48:59.920,-0.0006019902725623,-14.886571384315156
2025-07-22 14:48:59.927,-0.0006088124704788,-16.573304763861355
2025-07-22 14:48:59.935,-0.0006115559520935,-18.197037421812
2025-07-22 14:48:59.943,-0.0006105945650373,-19.729700498806565
2025-07-22 14:48:59.951,-0.0006063895358203,-21.14466468317485
2025-07-22 14:48:59.959,-0.0005994719185938,-22.417488750508667
2025-07-22 14:48:59.967,-0.0005904232043815,-23.526603359170377
2025-07-22 14:48:59.974,-0.0005798549166557,-24.453906417614835
2025-07-22 14:48:59.982,-0.0005683880543531,-25.185249940433813
2025-07-22 14:48:59.990,-0.0005566332199534,-25.710802684236757
2025-07-22 14:48:59.998,-0.0005451721906271,-26.025277785043556
2025-07-22 14:49:00.006,-0.0005345415584882,-26.128019871217184
2025-07-22 14:49:00.013,-0.0005252188881957,-26.022951456543097
2025-07-22 14:49:00.021,-0.0005176116338125,-25.718383584962424
2025-07-22 14:49:00.029,-0.0005120488607178,-25.226700476249626
2025-07-22 14:49:00.037,-0.0005087756832767,-24.563932117160697
2025-07-22 14:49:00.045,-0.0005079502800513,-23.74923220575382
2025-07-22 14:49:00.052,-0.0005096433614984,-22.804281487663506
2025-07-22 14:49:00.060,-0.0005138399908097,-21.752638269348367
2025-07-22 14:49:00.068,-0.0005204436596468,-20.619058742588614
2025-07-22 14:49:00.076,-0.000529282481879,-19.428809729742994
2025-07-22 14:49:00.084,-0.000540117287913,-18.206995614870216
2025-07-22 14:49:00.092,-0.0005526512907969,-16.977919643554078
2025-07-22 14:49:00.099,-0.0005665408865876,-15.764497560093965
2025-07-22 14:49:00.107,-0.0005814070922818,-14.587738832735322
2025-07-22 14:49:00.115,-0.0005968471374718,-13.466307640504844
2025-07-22 14:49:00.123,-0.0006124457870797,-12.416172508018064
2025-07-22 14:49:00.131,-0.0006277860423597,-11.450350116659518
2025-07-22 14:49:00.138,-0.0006424589323733,-10.57874551364041
2025-07-22 14:49:00.146,-0.0006560721783619,-9.80808778982562
2025-07-22 14:49:00.154,-0.0006682575943474,-9.14195739516938
2025-07-22 14:49:00.162,-0.0006786771762787,-8.58089868675274
2025-07-22 14:49:00.170,-0.0006870279266178,-8.122609122720705
2025-07-22 14:49:00.177,-0.0006930455492989,-7.762194771354671
2025-07-22 14:49:00.185,-0.0006965072069347,-7.492480524122313
2025-07-22 14:49:00.193,-0.0006972335446075,-7.304362591343143
2025-07-22 14:49:00.201,-0.0006950901655076,-7.187190506628892
2025-07-22 14:49:00.209,-0.0006899887089977,-7.12916594152959
2025-07-22 14:49:00.217,-0.0006818876236409,-7.117746089437535
2025-07-22 14:49:00.224,-0.0006707926379687,-7.140040159883764
2025-07-22 14:49:00.232,-0.0006567568390041,-7.183188566242612
2025-07-22 14:49:00.240,-0.0006398802147244,-7.234715628467164
2025-07-22 14:49:00.248,-0.0006203085048165,-7.282847992825305
2025-07-22 14:49:00.256,-0.0005982312032302,-7.316792446586679
2025-07-22 14:49:00.263,-0.0005738785493879,-7.326968336362172
2025-07-22 14:49:00.271,-0.000547517354948,-7.305191344448401
2025-07-22 14:49:00.279,-0.0005194455761586,-7.244806896970356
2025-07-22 14:49:00.287,-0.0004899856598136,-7.140772929478526
2025-07-22 14:49:00.295,-0.0004594768240045,-6.989693082481908
2025-07-22 14:49:00.302,-0.0004282665476687,-6.789802612482969
2025-07-22 14:49:00.310,-0.0003967016246129,-6.540910364792032
2025-07-22 14:49:00.318,-0.0003651191831968,-6.244301050147869
2025-07-22 14:49:00.326,-0.0003338380797098,-5.902602785595125
2025-07-22 14:49:00.334,-0.0003031510450816,-5.519625387784316
2025-07-22 14:49:00.342,-0.0002733179019716,-5.1001752357015935
2025-07-22 14:49:00.349,-0.0002445600824894,-4.649852656159385
2025-07-22 14:49:00.357,-0.0002170565925978,-4.174837754446667
2025-07-22 14:49:00.365,-0.0001909415025312,-3.68167045415181
2025-07-22 14:49:00.373,-0.0001663029812188,-3.177030268721099
2025-07-22 14:49:00.381,-0.0001431838257849,-2.667521041610354
2025-07-22 14:49:00.388,-0.000121583378204,-2.159465587309663
2025-07-22 14:49:00.396,-0.0001014606929451,-1.658714849883747
2025-07-22 14:49:00.404,-8.273882891015658e-05,-1.1704758609482122
2025-07-22 14:49:00.412,-6.531017212130696e-05,-0.6991624079652738
2025-07-22 14:49:00.420,-4.904271803363907e-05,-0.2482718964663211
2025-07-22 14:49:00.427,-3.3787207128094936e-05,0.1797086125596518
2025-07-22 14:49:00.435,-1.938489934886839e-05,0.583364800991331
2025-07-22 14:49:00.443,-5.675639952752264e-06,0.9623842266829268
2025-07-22 14:49:00.451,7.494224728820604e-06,1.3175512689153794
2025-07-22 14:49:00.459,2.0264556285722613e-05,1.6507078131376252
2025-07-22 14:49:00.467,3.275520776859297e-05,1.9646804901009352
2025-07-22 14:49:00.474,4.506124524679763e-05,2.2631761696361683
2025-07-22 14:49:00.482,5.724983645116551e-05,2.550648246213677
2025-07-22 14:49:00.490,6.935889561023686e-05,2.832137003862347
2025-07-22 14:49:00.498,8.1397455987229e-05,3.113087991831451
2025-07-22 14:49:00.506,9.334763749688696e-05,3.3991528808645874
2025-07-22 14:49:00.513,0.0001051679782867,3.695977719463221
2025-07-22 14:49:00.521,0.0001167978242888,4.008983890736588
2025-07-22 14:49:00.529,0.0001281624415243,4.343147399075056
2025-07-22 14:49:00.537,0.0001391785332747,4.702782395957868
2025-07-22 14:49:00.545,0.0001497598862496,5.091335074424617
2025-07-22 14:49:00.552,0.0001598229107084,5.511194196752197
2025-07-22 14:49:00.560,0.0001692918681574,5.9635245359136135
2025-07-22 14:49:00.568,0.0001781035962014,6.448129372515585
2025-07-22 14:49:00.576,0.0001862115435552,6.963347861534192
2025-07-22 14:49:00.584,0.0001935889297046,7.505992540189778
2025-07-22 14:49:00.592,0.0002002308670927,8.0713314734874
2025-07-22 14:49:00.599,0.0002061553423531,8.653118524423062
2025-07-22 14:49:00.607,0.0002114030331024,9.243674001577531
2025-07-22 14:49:00.615,0.0002160360136541,9.83401649859966
2025-07-22 14:49:00.623,0.0002201354654252,10.41404512806248
2025-07-22 14:49:00.631,0.0002237985547058,10.9727696055897
2025-07-22 14:49:00.638,0.0002271346713302,11.498583808568023
2025-07-22 14:49:00.646,0.000230261244695,11.979576579187004
2025-07-22 14:49:00.654,0.000233299381599,12.403871738896036
2025-07-22 14:49:00.662,0.0002363695934302,12.75998761494367
2025-07-22 14:49:00.670,0.0002395878621502,13.037204936869443
2025-07-22 14:49:00.677,0.0002430622151901,13.225930827164524
2025-07-22 14:49:00.685,0.0002468898647415,13.31804586772096
2025-07-22 14:49:00.693,0.0002511548669129,13.307220949369333
2025-07-22 14:49:00.701,0.0002559262070361,13.189190874176646
2025-07-22 14:49:00.709,0.0002612562303947,12.961972531837471
2025-07-22 14:49:00.717,0.0002671794021129,12.626016941690848
2025-07-22 14:49:00.724,0.0002737114603585,12.184286538417958
2025-07-22 14:49:00.732,0.0002808490741563,11.642251738099317
2025-07-22 14:49:00.740,0.0002885701057526,11.007803956159451
2025-07-22 14:49:00.748,0.0002968345301563,10.291085711976306
2025-07-22 14:49:00.756,0.000305586026238,9.504242058540568
2025-07-22 14:49:00.763,0.0003147542464616,8.661101108462088
2025-07-22 14:49:00.771,0.0003242577743313,7.776794673077671
2025-07-22 14:49:00.779,0.0003340077452098,6.867332784890259
2025-07-22 14:49:00.787,0.0003439120151605,5.949147961211416
2025-07-22 14:49:00.795,0.0003538796396069,5.038626361542895
2025-07-22 14:49:00.802,0.0003638253187921,4.151643423844631
2025-07-22 14:49:00.810,0.0003736734166478,3.3031211295139995
2025-07-22 14:49:00.818,0.0003833611770934,2.506622799023277
2025-07-22 14:49:00.826,0.0003928408465528,1.773999369326394
2025-07-22 14:49:00.834,0.0004020805493612,1.1150986029050858
2025-07-22 14:49:00.842,0.0004110639165006,0.5375458032594138
2025-07-22 14:49:00.849,0.0004197885869969,0.0466015380584427
2025-07-22 14:49:00.857,0.0004282637587824,-0.3549012467047976
2025-07-22 14:49:00.865,0.0004365069832647,-0.6665413719685718
2025-07-22 14:49:00.873,0.000444540419249,-0.8902183220687754
2025-07-22 14:49:00.881,0.0004523868082338,-1.029991939381904
2025-07-22 14:49:00.888,0.0004600654820146,-1.09186115292534
2025-07-22 14:49:00.896,0.0004675887195415,-1.083491736314616
2025-07-22 14:49:00.904,0.0004749587102714,-1.0139043805358028
2025-07-22 14:49:00.912,0.0004821652809675,-0.8931351731144632
2025-07-22 14:49:00.920,0.0004891844513633,-0.7318809076769583
2025-07-22 14:49:00.927,0.0004959778355793,-0.5411415352772323
2025-07-22 14:49:00.935,0.0005024929022616,-0.3318715510003797
2025-07-22 14:49:00.943,0.0005086641160247,-0.1146512314296742
2025-07-22 14:49:00.951,0.0005144149596837,0.1006125523659789
2025-07-22 14:49:00.959,0.0005196607588104,0.3049476775536709
2025-07-22 14:49:00.967,0.000524312122941,0.4905336701418889
2025-07-22 14:49:00.974,0.0005282787309267,0.6508693993014433
2025-07-22 14:49:00.982,0.0005314731558277,0.7808887417402559
2025-07-22 14:49:00.990,0.0005338144505272,0.8770233753995247
2025-07-22 14:49:00.998,0.0005352312772103,0.9372138063591272
2025-07-22 14:49:01.006,0.0005356644358469,0.960871541461086
2025-07-22 14:49:01.013,0.0005350687171191,0.9487968915636428
2025-07-22 14:49:01.021,0.0005334140720652,0.903058147082392
2025-07-22 14:49:01.029,0.0005306861509252,0.8268387658385575
2025-07-22 14:49:01.037,0.0005268863144278,0.7242597471339587
2025-07-22 14:49:01.045,0.0005220312530685,0.6001845564499773
2025-07-22 14:49:01.052,0.000516152340902,0.460013851799065
2025-07-22 14:49:01.060,0.0005092947884245,0.3094768979403061
2025-07-22 14:49:01.068,0.000501516572103,0.1544259975954775
2025-07-22 14:49:01.076,0.0004928870559402,0.0006395788670328
2025-07-22 14:49:01.084,0.0004834852174092,-0.1463611898311326
2025-07-22 14:49:01.092,0.0004733974471899,-0.2814781839837819
2025-07-22 14:49:01.099,0.0004627149770941,-0.400181222889702
2025-07-22 14:49:01.107,0.0004515310553178,-0.4986295589394851
2025-07-22 14:49:01.115,0.0004399380081014,-0.5737681439991671
2025-07-22 14:49:01.123,0.0004280243229197,-0.6233975322237584
2025-07-22 14:49:01.131,0.0004158718951906,-0.6462169121207407
2025-07-22 14:49:01.138,0.0004035535981577,-0.6418403592857851
2025-07-22 14:49:01.146,0.0003911313293145,-0.6107869655503521
2025-07-22 14:49:01.154,0.0003786546355192,-0.5544460295489487
2025-07-22 14:49:01.162,0.0003661599473459,-0.4750189871742095
2025-07-22 14:49:01.170,0.0003536704075754,-0.3754402185376734
2025-07-22 14:49:01.177,0.0003411962815258,-0.2592792941918866
2025-07-22 14:49:01.185,0.0003287359663823,-0.1306276223928693
2025-07-22 14:49:01.193,0.0003162776271626,0.0060271690333087
2025-07-22 14:49:01.201,0.0003038014546692,0.1459354505632203
2025-07-22 14:49:01.209,0.0002912824874819,0.2842244760497825
2025-07-22 14:49:01.217,0.0002786939013478,0.4160378329285582
2025-07-22 14:49:01.224,0.000266010646129,0.5366713132332525
2025-07-22 14:49:01.232,0.0002532132690012,0.6417011670260371
2025-07-22 14:49:01.240,0.0002402916828758,0.7271009634113494
2025-07-22 14:49:01.248,0.0002272485466214,0.7893437055909932
2025-07-22 14:49:01.256,0.0002141018675418,0.8254864202051644
2025-07-22 14:49:01.263,0.000200886451479,0.8332351578739764
2025-07-22 14:49:01.271,0.0001876539211855,0.8109891818619134
2025-07-22 14:49:01.279,0.0001744711861004,0.7578640468229777
2025-07-22 14:49:01.287,0.0001614174378918,0.673694218498921
2025-07-22 14:49:01.295,0.0001485799134995,0.5590167800118642
2025-07-22 14:49:01.302,0.0001360487803233,0.4150385301812712
2025-07-22 14:49:01.310,0.0001239115637767,0.2435893363407404
2025-07-22 14:49:01.318,0.0001122475660339,0.0470649155016513
2025-07-22 14:49:01.326,0.0001011227019339,-0.1716377301740163
2025-07-22 14:49:01.334,9.058509252621476e-05,-0.4091891905322382
2025-07-22 14:49:01.342,8.066163541079981e-05,-0.661898203460966
2025-07-22 14:49:01.349,7.135566291228717e-05,-0.925781802384505
2025-07-22 14:49:01.357,6.264573792369327e-05,-1.1966335877724543
2025-07-22 14:49:01.365,5.448562380424909e-05,-1.4700892738146425
2025-07-22 14:49:01.373,4.68054669663206e-05,-1.741689216845885
2025-07-22 14:49:01.381,3.95142014253715e-05,-2.006938084634222
2025-07-22 14:49:01.388,3.2503100300761014e-05,-2.261362155905029
2025-07-22 14:49:01.396,2.565028447741389e-05,-2.500564940628526
2025-07-22 14:49:01.404,1.882590187901098e-05,-2.720281883584233
2025-07-22 14:49:01.412,1.1897647030838557e-05,-2.916434863040434
2025-07-22 14:49:01.420,4.736310144742635e-06,-3.085187038409634
2025-07-22 14:49:01.428,-2.7788835791132483e-06,-3.2229983597456533
2025-07-22 14:49:01.435,-1.0755296342599488e-05,-3.3266817570628198
2025-07-22 14:49:01.443,-1.928235978154128e-05,-3.393459705379871
2025-07-22 14:49:01.451,-2.842761915071745e-05,-3.421020529112352
2025-07-22 14:49:01.459,-3.823348233427721e-05,-3.407573471831169
2025-07-22 14:49:01.467,-4.8714846491547465e-05,-3.351901212956673
2025-07-22 14:49:01.474,-5.9857771020827024e-05,-3.2534081649863023
2025-07-22 14:49:01.482,-7.161933661997158e-05,-3.1121625510513304
2025-07-22 14:49:01.490,-8.39287901491688e-05,-2.9289299779108173
2025-07-22 14:49:01.498,-9.66900133478934e-05,-2.705196031740739
2025-07-22 14:49:01.506,-0.0001097852590144,-2.44317538360537
2025-07-22 14:49:01.513,-0.000123079996901,-2.145805038821576
2025-07-22 14:49:01.521,-0.0001364286425664,-1.8167197219201583
2025-07-22 14:49:01.529,-0.0001496809065123,-1.4602079586419563
2025-07-22 14:49:01.537,-0.000162688465282,-1.081148180753189
2025-07-22 14:49:01.545,-0.0001753116028633,-0.6849251007679749
2025-07-22 14:49:01.553,-0.00018742542343,-0.2773276231939267
2025-07-22 14:49:01.560,-0.0001989252417356,0.1355694013044812
2025-07-22 14:49:01.568,-0.0002097308390306,0.5475363024811339
2025-07-22 14:49:01.576,-0.0002197894056965,0.9523285122463228
2025-07-22 14:49:01.584,-0.0002290771278091,1.343830625641247
2025-07-22 14:49:01.592,-0.0002375994776114,1.7161996651818183
2025-07-22 14:49:01.599,-0.0002453903239703,2.0640026376188847
2025-07-22 14:49:01.607,-0.0002525099881945,2.382343776610822
2025-07-22 14:49:01.615,-0.0002590423445402,2.6669773905151173
2025-07-22 14:49:01.623,-0.0002650910291353,2.914402905527551
2025-07-22 14:49:01.631,-0.0002707748036395,3.121939436109137
2025-07-22 14:49:01.638,-0.0002762221330183,3.2877779687529016
2025-07-22 14:49:01.646,-0.0002815650815723,3.4110099760787294
2025-07-22 14:49:01.654,-0.0002869327076773,3.4916319716860085
2025-07-22 14:49:01.662,-0.0002924442342235,3.5305261719219665
2025-07-22 14:49:01.670,-0.00029820236153,3.529418053081589
2025-07-22 14:49:01.678,-0.0003042871472091,3.4908121839180226
2025-07-22 14:49:01.685,-0.0003107508916918,3.4179082731288477
2025-07-22 14:49:01.693,-0.0003176144370558,3.3144998977333437
2025-07-22 14:49:01.701,-0.000324865211662,3.184858867601601
2025-07-22 14:49:01.709,-0.0003324572366249,3.033608626401521
2025-07-22 14:49:01.717,-0.0003403131564326,2.8655904750944305
2025-07-22 14:49:01.724,-0.0003483281722057,2.685726706962192
2025-07-22 14:49:01.732,-0.0003563755601834,2.498884931081596
2025-07-22 14:49:01.740,-0.0003643132898234,2.3097478985389213
2025-07-22 14:49:01.748,-0.0003719911673319,2.122692999857686
2025-07-22 14:49:01.756,-0.0003792579478527,1.9416852509059637
2025-07-22 14:49:01.763,-0.0003859679600104,1.7701870240671311
2025-07-22 14:49:01.771,-0.0003919869214243,1.611087033916662
2025-07-22 14:49:01.779,-0.0003971967566596,1.4666502041642806
2025-07-22 14:49:01.787,-0.0004014993448116,1.3384891015338454
2025-07-22 14:49:01.795,-0.0004048192182091,1.227556707512556
2025-07-22 14:49:01.803,-0.0004071053048432,1.1341594853109722
2025-07-22 14:49:01.810,-0.0004083318544043,1.0579890381529071
2025-07-22 14:49:01.818,-0.0004084987114954,0.9981701693835792
2025-07-22 14:49:01.826,-0.0004076311009017,0.9533228433865496
2025-07-22 14:49:01.834,-0.0004057790707359,0.9216353906780722
2025-07-22 14:49:01.842,-0.0004030167026217,0.900946274147068
2025-07-22 14:49:01.849,-0.0003994411471712,0.8888318054635767
2025-07-22 14:49:01.857,-0.0003951714817143,0.882697335884606
2025-07-22 14:49:01.865,-0.0003903473197204,0.8798696044848677
2025-07-22 14:49:01.873,-0.0003851270336145,0.8776880706196938
2025-07-22 14:49:01.881,-0.0003796854004459,0.8735931567170874
2025-07-22 14:49:01.888,-0.0003742104777035,0.8652093691098078
2025-07-22 14:49:01.896,-0.0003688996002978,0.8504212553410467
2025-07-22 14:49:01.904,-0.0003639545478218,0.8274401226704515
2025-07-22 14:49:01.912,-0.0003595760905401,0.7948594269745668
2025-07-22 14:49:01.920,-0.0003559582097979,0.7516967959729484
2025-07-22 14:49:01.928,-0.000353282291443,0.6974208269577916
2025-07-22 14:49:01.935,-0.0003517115441045,0.6319611346530354
2025-07-22 14:49:01.943,-0.000351385830851,0.555700632723726
2025-07-22 14:49:01.951,-0.0003524170384,0.4694496970160991
2025-07-22 14:49:01.959,-0.000354885056387,0.3744026386683627
2025-07-22 14:49:01.967,-0.0003588344229227,0.2720777536541903
2025-07-22 14:49:01.974,-0.0003642717248081,0.1642430491154395
2025-07-22 14:49:01.982,-0.000371163896497,0.0528305151956551
2025-07-22 14:49:01.990,-0.0003794375925643,-0.0601575385575913
2025-07-22 14:49:01.998,-0.000388979789041,-0.1727460719809154
2025-07-22 14:49:02.006,-0.0003996397121555,-0.2830845160917805
2025-07-22 14:49:02.013,-0.0004112321209814,-0.3895391818642046
2025-07-22 14:49:02.021,-0.0004235418946663,-0.490776590001522
2025-07-22 14:49:02.029,-0.000436329798844,-0.5858337628827054
2025-07-22 14:49:02.037,-0.0004493392315732,-0.6741720389679469
2025-07-22 14:49:02.045,-0.0004623036789361,-0.7557116600718581
2025-07-22 14:49:02.053,-0.0004749545482328,-0.8308452141289148
2025-07-22 14:49:02.060,-0.0004870290046907,-0.9004289507937031
2025-07-22 14:49:02.068,-0.000498277438878,-0.9657519760746246
2025-07-22 14:49:02.076,-0.0005084702502833,-1.028484323493705
2025-07-22 14:49:02.084,-0.0005174037238994,-1.090605842654957
2025-07-22 14:49:02.092,-0.000524904853556,-1.1543186948657098
2025-07-22 14:49:02.099,-0.0005308350042901,-1.2219469577696678
2025-07-22 14:49:02.107,-0.0005350923199002,-1.295827382350672
2025-07-22 14:49:02.115,-0.0005376127940335,-1.3781956931587
2025-07-22 14:49:02.123,-0.0005383699456215,-1.4710729683471606
2025-07-22 14:49:02.131,-0.00053737307576,-1.5761565879753123
2025-07-22 14:49:02.138,-0.0005346641347044,-1.6947200179530488
2025-07-22 14:49:02.146,-0.0005303132954607,-1.8275253328196737
2025-07-22 14:49:02.154,-0.0005244134147862,-1.9747519075155893
2025-07-22 14:49:02.162,-0.0005170736612001,-2.1359441605609897
2025-07-22 14:49:02.170,-0.0005084126903066,-2.3099806384678083
2025-07-22 14:49:02.178,-0.0004985518163501,-2.4950661162523704
2025-07-22 14:49:02.185,-0.0004876086211013,-2.6887477645789386
2025-07-22 14:49:02.193,-0.0004756913460918,-2.887955802318624
2025-07-22 14:49:02.201,-0.0004628942811279,-3.089068404296847
2025-07-22 14:49:02.209,-0.0004492942559623,-3.287999947972486
2025-07-22 14:49:02.217,-0.0004349482779936,-3.480310936816262
2025-07-22 14:49:02.224,-0.0004198923061485,-3.661337117612353
2025-07-22 14:49:02.232,-0.0004041410913752,-3.8263344206174814
2025-07-22 14:49:02.240,-0.0003876889634918,-3.970635432213441
2025-07-22 14:49:02.248,-0.0003705114262766,-4.089812224704595
2025-07-22 14:49:02.256,-0.0003525674471718,-4.1798396014779735
2025-07-22 14:49:02.263,-0.0003338023847857,-4.237252258084474
2025-07-22 14:49:02.271,-0.0003141515525111,-4.259289093600402
2025-07-22 14:49:02.279,-0.0002935444231267,-4.244017994278783
2025-07-22 14:49:02.287,-0.0002719094150373,-4.190434886246561
2025-07-22 14:49:02.295,-0.000249179092027,-4.098531717163353
2025-07-22 14:49:02.303,-0.0002252955058582,-3.969329249205214
2025-07-22 14:49:02.310,-0.0002002153524465,-3.8048720703357306
2025-07-22 14:49:02.318,-0.0001739146126803,-3.608184974122667
2025-07-22 14:49:02.326,-0.0001463924097226,-3.3831917133610188
2025-07-22 14:49:02.334,-0.0001176739237421,-3.134598976962826
2025-07-22 14:49:02.342,-8.78123274826265e-05,-2.867750148504507
2025-07-22 14:49:02.349,-5.688979182971823e-05,-2.5884548661756046
2025-07-22 14:49:02.357,-2.501762563151951e-05,-2.302801528591944
2025-07-22 14:49:02.365,7.664438597893325e-06,-2.0169606204839443
2025-07-22 14:49:02.373,4.098988535669181e-05,-1.7369870406269132
2025-07-22 14:49:02.381,7.476811029143278e-05,-1.468629504206512
2025-07-22 14:49:02.388,0.0001087882614741,-1.2171545869017453
2025-07-22 14:49:02.396,0.0001428241866526,-0.9871921164416156
2025-07-22 14:49:02.404,0.000176640258435,-0.7826074506267352
2025-07-22 14:49:02.412,0.000209997684963,-0.6064047772730947
2025-07-22 14:49:02.420,0.0002426608212394,-0.46066401804913
2025-07-22 14:49:02.428,0.0002744029904884,-0.3465123141505268
2025-07-22 14:49:02.435,0.0003050114060071,-0.2641295188668883
2025-07-22 14:49:02.443,0.0003342909394348,-0.2127857125782463
2025-07-22 14:49:02.451,0.0003620666718547,-0.1909075615529354
2025-07-22 14:49:02.459,0.0003881853362379,-0.1961694080397863
2025-07-22 14:49:02.467,0.0004125158756398,-0.2256043224333034
2025-07-22 14:49:02.474,0.0004349493885733,-0.2757299615985487
2025-07-22 14:49:02.482,0.0004553987191168,-0.3426839374550385
2025-07-22 14:49:02.490,0.0004737978996098,-0.4223634756107354
2025-07-22 14:49:02.498,0.0004901015963274,-0.5105644016608504
2025-07-22 14:49:02.506,0.0005042846570458,-0.6031148990512094
2025-07-22 14:49:02.513,0.0005163418176693,-0.6960000058103475
2025-07-22 14:49:02.521,0.000526287596434,-0.7854734307439987
2025-07-22 14:49:02.529,0.0005341563817438,-0.8681539486438433
2025-07-22 14:49:02.537,0.0005400026833024,-0.9411043543737406
2025-07-22 14:49:02.545,0.0005439014560742,-1.001891690309345
2025-07-22 14:49:02.553,0.0005459483399178,-1.0486281803155246
2025-07-22 14:49:02.560,0.0005462596117332,-1.0799929755165345
2025-07-22 14:49:02.568,0.0005449716351032,-1.095235415887039
2025-07-22 14:49:02.576,0.0005422396171255,-1.094161018222009
2025-07-22 14:49:02.584,0.0005382355444356,-1.0771018053460395
2025-07-22 14:49:02.592,0.0005331452600891,-1.044872892648237
2025-07-22 14:49:02.599,0.0005271647340526,-0.9987174545143712
2025-07-22 14:49:02.607,0.0005204956480387,-0.9402423215804862
2025-07-22 14:49:02.615,0.0005133404512235,-0.8713465319428997
2025-07-22 14:49:02.623,0.0005058970552285,-0.7941451976566236
2025-07-22 14:49:02.631,0.0004983533481963,-0.7108910671677127
2025-07-22 14:49:02.638,0.0004908817421764,-0.6238961668281037
2025-07-22 14:49:02.646,0.0004836340230965,-0.5354558786303898
2025-07-22 14:49:02.654,0.0004767368140849,-0.4477777361050855
2025-07-22 14:49:02.662,0.000470287945436,-0.3629170731431922
2025-07-22 14:49:02.670,0.0004643539274804,-0.2827214243340175
2025-07-22 14:49:02.678,0.0004589685803472,-0.2087852474943969
2025-07-22 14:49:02.685,0.0004541327604045,-0.1424161345587448
2025-07-22 14:49:02.693,0.0004498150863359,-0.084613224272622
2025-07-22 14:49:02.701,0.0004459535960539,-0.0360580623219962
2025-07-22 14:49:02.709,0.0004424583131991,0.0028822971194628
2025-07-22 14:49:02.717,0.0004392147336936,0.0321405649209768
2025-07-22 14:49:02.724,0.0004360882454146,0.0519238362815965
2025-07-22 14:49:02.732,0.0004329294651792,0.0626788218901483
2025-07-22 14:49:02.740,0.0004295804175146,0.0650492035750236
2025-07-22 14:49:02.748,0.000425881392737,0.0598268409090884
2025-07-22 14:49:02.756,0.0004216782222692,0.047898750019886
2025-07-22 14:49:02.763,0.0004168296317515,0.030191955587912
2025-07-22 14:49:02.771,0.000411214314821,0.0076184747749215
2025-07-22 14:49:02.779,0.000404737405636,-0.0189771877886722
2025-07-22 14:49:02.787,0.000397336058953,-0.0488655923043986
2025-07-22 14:49:02.795,0.0003889838370944,-0.0814725398419325
2025-07-22 14:49:02.803,0.0003796935911683,-0.1164095691899382
2025-07-22 14:49:02.810,0.0003695185686011,-0.1534927106785808
2025-07-22 14:49:02.818,0.0003585515888205,-0.1927477958540268
2025-07-22 14:49:02.826,0.0003469222675139,-0.2344011029230939
2025-07-22 14:49:02.834,0.0003347924031919,-0.2788547050541318
2025-07-22 14:49:02.842,0.0003223497534149,-0.3266465645992561
2025-07-22 14:49:02.849,0.0003098005180077,-0.3783961574124058
2025-07-22 14:49:02.857,0.0002973609112406,-0.4347371870713021
2025-07-22 14:49:02.865,0.0002852482433516,-0.4962397238669731
2025-07-22 14:49:02.873,0.0002736719436602,-0.5633248423971424
2025-07-22 14:49:02.881,0.00026282494325,-0.6361755011777182
2025-07-22 14:49:02.888,0.0002528757957815,-0.7146479760065264
2025-07-22 14:49:02.896,0.000243961853659,-0.798188593042036
2025-07-22 14:49:02.904,0.0002361837453308,-0.8857607730884304
2025-07-22 14:49:02.912,0.0002296013412395,-0.9757874604485502
2025-07-22 14:49:02.920,0.0002242313651843,-1.0661138343797314
2025-07-22 14:49:02.928,0.0002200467818684,-1.153994758606635
2025-07-22 14:49:02.935,0.0002169780259634,-1.2361106925457208
2025-07-22 14:49:02.943,0.000214916022865,-1.3086147603165958
2025-07-22 14:49:02.951,0.0002137168333953,-1.3672123655077058
2025-07-22 14:49:02.959,0.0002132076925374,-1.4072731902748006
2025-07-22 14:49:02.967,0.0002131942070177,-1.4239736885088643
2025-07-22 14:49:02.974,0.0002134684623088,-1.4124663570620128
2025-07-22 14:49:02.982,0.0002138177092542,-1.3680702484262006
2025-07-22 14:49:02.990,0.0002140331794905,-1.2864754914938998
2025-07-22 14:49:02.998,0.0002139185014956,-1.1639531426606085
2025-07-22 14:49:03.006,0.000213297212468,-0.997560625823331
2025-07-22 14:49:03.013,0.000212018973825,-0.7853324514459118
2025-07-22 14:49:03.021,0.0002099642527711,-0.5264459169853375
2025-07-22 14:49:03.029,0.0002070473904758,-0.2213521249630922
2025-07-22 14:49:03.037,0.0002032181134082,0.1281360989039922
2025-07-22 14:49:03.045,0.0001984616322392,0.5188060061172908
2025-07-22 14:49:03.053,0.0001927974981466,0.9460608119012996
2025-07-22 14:49:03.060,0.0001862773732766,1.403991463112893
2025-07-22 14:49:03.068,0.0001789818670996,1.8855033393218956
2025-07-22 14:49:03.076,0.0001710166087188,2.3824941843026672
2025-07-22 14:49:03.084,0.0001625077339507,2.8860769636166004
2025-07-22 14:49:03.092,0.0001535969325566,3.386839054282882
2025-07-22 14:49:03.099,0.0001444361413606,3.875127336485501
2025-07-22 14:49:03.107,0.0001351819309331,4.341347486344216
2025-07-22 14:49:03.115,0.0001259896426827,4.776265134120617
2025-07-22 14:49:03.123,0.0001170073774403,5.171296578895271
2025-07-22 14:49:03.131,0.0001083699941082,5.518777415885304
2025-07-22 14:49:03.138,0.0001001933365092,5.81219866879154
2025-07-22 14:49:03.146,9.25689648815959e-05,6.0464017245334505
2025-07-22 14:49:03.154,8.555972196461367e-05,6.21772541645132
2025-07-22 14:49:03.162,7.919650058141091e-05,6.324100857746738
2025-07-22 14:49:03.170,7.347657565364151e-05,6.365091950125819
2025-07-22 14:49:03.178,6.836379564684573e-05,6.341881750096266
2025-07-22 14:49:03.185,6.379079855524101e-05,6.257206950777946
2025-07-22 14:49:03.193,5.966325110753218e-05,6.115244542812008
2025-07-22 14:49:03.201,5.586592719532406e-05,5.921456203222875
2025-07-22 14:49:03.209,5.227024730641341e-05,5.682397110572539
2025-07-22 14:49:03.217,4.874271333248921e-05,5.405496708787971
2025-07-22 14:49:03.224,4.515354502356918e-05,5.098819464157762
2025-07-22 14:49:03.232,4.138480614490337e-05,4.770813906300277
2025-07-22 14:49:03.240,3.733739960440816e-05,4.430058237256023
2025-07-22 14:49:03.248,3.293646327570097e-05,4.085010552765832
2025-07-22 14:49:03.256,2.813485528608652e-05,3.74377126579456
2025-07-22 14:49:03.263,2.2914550345912432e-05,3.4138646761943945
2025-07-22 14:49:03.271,1.7285895197234227e-05,3.102045814861072
2025-07-22 14:49:03.279,1.1284832564945082e-05,2.8141377275755177
2025-07-22 14:49:03.287,4.968406376418882e-06,2.5549032749018523
2025-07-22 14:49:03.295,-1.5909448800400457e-06,2.327954336992054
2025-07-22 14:49:03.303,-8.311687277867058e-06,2.1357000609790826
2025-07-22 14:49:03.310,-1.5109468010473116e-05,1.9793345142386412
2025-07-22 14:49:03.318,-2.190285286708245e-05,1.858862849061967
2025-07-22 14:49:03.326,-2.861815044952109e-05,1.773163879045099
2025-07-22 14:49:03.334,-3.51930963528356e-05,1.7200858470857086
2025-07-22 14:49:03.342,-4.1579305458315945e-05,1.6965711597270816
2025-07-22 14:49:03.349,-4.774351586566199e-05,1.698805000727958
2025-07-22 14:49:03.357,-5.3667739273407424e-05,1.722382041782594
2025-07-22 14:49:03.365,-5.934849625597792e-05,1.7624849588568048
2025-07-22 14:49:03.373,-6.479534841009994e-05,1.81406815406
2025-07-22 14:49:03.381,-7.002894140508368e-05,1.872039990651131
2025-07-22 14:49:03.388,-7.507874499543543e-05,1.9314369892756675
2025-07-22 14:49:03.396,-7.998062866927859e-05,1.987583821645393
2025-07-22 14:49:03.404,-8.47743691009643e-05,2.036233579423367
2025-07-22 14:49:03.412,-8.950117194229403e-05,2.0736836805058774
2025-07-22 14:49:03.420,-9.420130572061349e-05,2.096863871549529
2025-07-22 14:49:03.428,-9.891196572007982e-05,2.1033940450428825
2025-07-22 14:49:03.435,-0.0001036654864265,2.091610948191217
2025-07-22 14:49:03.443,-0.0001084879934453,2.0605642484269464
2025-07-22 14:49:03.451,-0.0001133985380758,2.009983763897489
2025-07-22 14:49:03.459,-0.0001184087136224,1.94022089763546
2025-07-22 14:49:03.467,-0.0001235227355127,1.8521683687896464
2025-07-22 14:49:03.474,-0.0001287379770005,1.7471631600110582
2025-07-22 14:49:03.482,-0.0001340459644337,1.6268781560623078
2025-07-22 14:49:03.490,-0.00013943382645,1.4932082097828645
2025-07-22 14:49:03.498,-0.0001448861495799,1.3481563301707828
2025-07-22 14:49:03.506,-0.0001503871191968,1.1937253556759118
2025-07-22 14:49:03.513,-0.0001559227328684,1.0318198870791704
2025-07-22 14:49:03.521,-0.0001614827981785,0.8641624611647087
2025-07-22 14:49:03.529,-0.0001670624167407,0.6922270154892517
2025-07-22 14:49:03.537,-0.0001726627329716,0.5171916991558494
2025-07-22 14:49:03.545,-0.0001782908639856,0.3399120952472123
2025-07-22 14:49:03.553,-0.0001839590744117,0.1609149965332516
2025-07-22 14:49:03.560,-0.0001896833783741,-0.0195879416908201
2025-07-22 14:49:03.568,-0.0001954818239455,-0.201668039148357
2025-07-22 14:49:03.576,-0.0002013727381514,-0.3856308511572265
2025-07-22 14:49:03.584,-0.0002073731816439,-0.5719532393184845
2025-07-22 14:49:03.592,-0.0002134977835447,-0.7612090061977258
2025-07-22 14:49:03.599,-0.0002197580123633,-0.9539861505069684
2025-07-22 14:49:03.607,-0.0002261618244373,-1.1507990572651157
2025-07-22 14:49:03.615,-0.0002327135661004,-1.3519991632553665
2025-07-22 14:49:03.623,-0.0002394140141228,-1.5576878327971737
2025-07-22 14:49:03.631,-0.000246260496869,-1.767635326481922
2025-07-22 14:49:03.638,-0.0002532470973745,-1.981209812144276
2025-07-22 14:49:03.646,-0.0002603649634611,-2.1973203075040586
2025-07-22 14:49:03.654,-0.0002676027275564,-2.414377211518278
2025-07-22 14:49:03.662,-0.0002749469798848,-2.6302736402484
2025-07-22 14:49:03.670,-0.0002823826772189,-2.842390115799807
2025-07-22 14:49:03.678,-0.0002898933526368,-3.0476242730734264
2025-07-22 14:49:03.685,-0.0002974610424669,-3.24244618669112
2025-07-22 14:49:03.693,-0.0003050659394511,-3.4229787405919
2025-07-22 14:49:03.701,-0.0003126858663636,-3.5851012402663787
2025-07-22 14:49:03.709,-0.0003202957054676,-3.724573282132829
2025-07-22 14:49:03.717,-0.0003278669043328,-3.837174822604684
2025-07-22 14:49:03.724,-0.0003353671174426,-3.91885749483626
2025-07-22 14:49:03.732,-0.0003427599700139,-3.9659015469648455
2025-07-22 14:49:03.740,-0.0003500048933377,-3.975072342479821
2025-07-22 14:49:03.748,-0.0003570570033688,-3.943770176494934
2025-07-22 14:49:03.756,-0.0003638670520514,-3.870167221072189
2025-07-22 14:49:03.763,-0.0003703815256598,-3.753325717109121
2025-07-22 14:49:03.771,-0.0003765429631191,-3.5932920739852983
2025-07-22 14:49:03.779,-0.0003822905194479,-3.3911623048791686
2025-07-22 14:49:03.787,-0.0003875607374948,-3.149115186700362
2025-07-22 14:49:03.795,-0.0003922884626046,-2.870410652997561
2025-07-22 14:49:03.803,-0.0003964078633248,-2.559352169202332
2025-07-22 14:49:03.810,-0.0003998535826119,-2.221213164563091
2025-07-22 14:49:03.818,-0.0004025620917176,-1.8621289608898937
2025-07-22 14:49:03.826,-0.0004044733282471,-1.4889569939754823
2025-07-22 14:49:03.834,-0.0004055326800584,-1.1091094132489858
2025-07-22 14:49:03.842,-0.0004056933414281,-0.7303633091828964
2025-07-22 14:49:03.849,-0.0004049190072051,-0.3606547942087224
2025-07-22 14:49:03.857,-0.0004031867739237,-0.0078638930381703
2025-07-22 14:49:03.865,-0.0004004900107191,0.3204023632839453
2025-07-22 14:49:03.873,-0.0003968408891933,0.6170211256615279
2025-07-22 14:49:03.881,-0.0003922722331629,0.8755518906360138
2025-07-22 14:49:03.888,-0.0003868383649352,1.0904148548567263
2025-07-22 14:49:03.896,-0.0003806146991628,1.2570434819002738
2025-07-22 14:49:03.904,-0.0003736959777818,1.37200634193923
2025-07-22 14:49:03.912,-0.0003661932210378,1.4330944905218157
2025-07-22 14:49:03.920,-0.0003582296384626,1.43937195438429
2025-07-22 14:49:03.928,-0.0003499358616248,1.3911882247226433
2025-07-22 14:49:03.935,-0.0003414449121906,1.290152969216077
2025-07-22 14:49:03.943,-0.0003328873027306,1.1390744227478942
2025-07-22 14:49:03.951,-0.0003243865942946,0.941864069223288
2025-07-22 14:49:03.959,-0.0003160556295558,0.7034112524593129
2025-07-22 14:49:03.967,-0.000307993551367,0.4294322269696182
2025-07-22 14:49:03.974,-0.0003002836172454,0.1262988605816592
2025-07-22 14:49:03.982,-0.0002929917352999,-0.1991472826366259
2025-07-22 14:49:03.990,-0.0002861655885789,-0.5397894262989067
2025-07-22 14:49:03.998,-0.0002798341970558,-0.8884324495034016
2025-07-22 14:49:04.006,-0.0002740077891695,-1.2379960169662387
2025-07-22 14:49:04.013,-0.0002686779031004,-1.5816980977740758
2025-07-22 14:49:04.021,-0.0002638176991756,-1.913223427321023
2025-07-22 14:49:04.029,-0.0002593825339517,-2.22687206827938
2025-07-22 14:49:04.037,-0.0002553109102225,-2.517683989338926
2025-07-22 14:49:04.045,-0.0002515259475624,-2.781536485924613
2025-07-22 14:49:04.053,-0.000247937491757,-3.015212285907353
2025-07-22 14:49:04.060,-0.0002444449002611,-3.216437275996687
2025-07-22 14:49:04.068,-0.0002409404377763,-3.38388790341462
2025-07-22 14:49:04.076,-0.0002373131398254,-3.517169399931699
2025-07-22 14:49:04.084,-0.0002334529777712,-3.616766988552166
2025-07-22 14:49:04.092,-0.0002292551652369,-3.6839731197580994
2025-07-22 14:49:04.099,-0.0002246244468178,-3.720794506670203
2025-07-22 14:49:04.107,-0.000219479195237,-3.729843260926356
2025-07-22 14:49:04.115,-0.0002137551261612,-3.714216760337247
2025-07-22 14:49:04.123,-0.000207408429657,-3.677371004769197
2025-07-22 14:49:04.131,-0.0002004181144315,-3.6229921485989207
2025-07-22 14:49:04.138,-0.0001927873677855,-3.554870655050319
2025-07-22 14:49:04.146,-0.0001845437526484,-3.4767821224500555
2025-07-22 14:49:04.154,-0.0001757381013797,-3.3923783086520576
2025-07-22 14:49:04.162,-0.0001664420464109,-3.305091253081508
2025-07-22 14:49:04.170,-0.0001567442610938,-3.2180526964681007
2025-07-22 14:49:04.178,-0.0001467456416848,-3.1340302626590693
2025-07-22 14:49:04.185,-0.0001365537923948,-3.0553811343901973
2025-07-22 14:49:04.193,-0.0001262772429271,-2.984023264374729
2025-07-22 14:49:04.201,-0.0001160198199818,-2.9214235490026765
2025-07-22 14:49:04.209,-0.0001058755211077,-2.868601880134707
2025-07-22 14:49:04.217,-9.59241363202975e-05,-2.8261495941727155
2025-07-22 14:49:04.224,-8.622777932028928e-05,-2.794260556207521
2025-07-22 14:49:04.232,-7.682845136497055e-05,-2.7727729372925864
2025-07-22 14:49:04.240,-6.774674486484835e-05,-2.761219640292227
2025-07-22 14:49:04.248,-5.898175638475935e-05,-2.758885271250932
2025-07-22 14:49:04.256,-5.051219923358194e-05,-2.7648675032850063
2025-07-22 14:49:04.263,-4.2298607413247406e-05,-2.778140609171083
2025-07-22 14:49:04.271,-3.4286452062085035e-05,-2.797618830868363
2025-07-22 14:49:04.279,-2.640997319419887e-05,-2.8222171096546247
2025-07-22 14:49:04.287,-1.859654055363601e-05,-2.850906537646729
2025-07-22 14:49:04.295,-1.0771352667953237e-05,-2.882761745847119
2025-07-22 14:49:04.303,-2.8622411493998254e-06,-2.9169973665087725
2025-07-22 14:49:04.310,5.195709665212122e-06,-2.952990760629673
2025-07-22 14:49:04.318,1.345604358004106e-05,-2.9902884487960675
2025-07-22 14:49:04.326,2.1957600855528547e-05,-3.028594176128109
2025-07-22 14:49:04.334,3.0722199195823046e-05,-3.0677373016626306
2025-07-22 14:49:04.342,3.975349418325889e-05,-3.1076212145901096
2025-07-22 14:49:04.349,4.903713240825358e-05,-3.1481526954527004
2025-07-22 14:49:04.357,5.854222911388304e-05,-3.189154484159888
2025-07-22 14:49:04.365,6.822407404697149e-05,-3.2302646952158627
2025-07-22 14:49:04.373,7.802782131357453e-05,-3.270828031353889
2025-07-22 14:49:04.381,8.789280191969874e-05,-3.309784885621332
2025-07-22 14:49:04.388,9.77570461852714e-05,-3.3455652895520718
2025-07-22 14:49:04.396,0.0001075616205556,-3.375995174406402
2025-07-22 14:49:04.404,0.0001172544474738,-3.398222498880884
2025-07-22 14:49:04.412,0.0001267933610457,-3.408670428337261
2025-07-22 14:49:04.420,0.0001361482424198,-3.4030239341620283
2025-07-22 14:49:04.428,0.0001453021739772,-3.3762549600049656
2025-07-22 14:49:04.435,0.0001542516457634,-3.322689742819519
2025-07-22 14:49:04.443,0.0001630059363967,-3.236120061371563
2025-07-22 14:49:04.451,0.0001715858629418,-3.1099581933911558
2025-07-22 14:49:04.459,0.0001800221249149,-2.9374332681788484
2025-07-22 14:49:04.467,0.0001883534429377,-2.7118245726219867
2025-07-22 14:49:04.474,0.0001966246382826,-2.426725275781126
2025-07-22 14:49:04.482,0.0002048847618927,-2.07632805869343
2025-07-22 14:49:04.490,0.0002131853831003,-1.6557223578443243
2025-07-22 14:49:04.498,0.0002215791679477,-1.161191444508795
2025-07-22 14:49:04.506,0.0002301188698717,-0.5904964645774671
2025-07-22 14:49:04.514,0.0002388567987722,0.0568660438596118
2025-07-22 14:49:04.521,0.0002478447527201,0.7794466544401523
2025-07-22 14:49:04.529,0.0002571343363927,1.5736784183513626
2025-07-22 14:49:04.537,0.0002667775747232,2.433776549451537
2025-07-22 14:49:04.545,0.0002768277380794,3.351711782781875
2025-07-22 14:49:04.553,0.0002873402817752,4.317263999261928
2025-07-22 14:49:04.560,0.0002983737450243,5.318159407002546
2025-07-22 14:49:04.568,0.0003099903770478,6.340290889115754
2025-07-22 14:49:04.576,0.0003222562090054,7.368017268439613
2025-07-22 14:49:04.584,0.0003352403037337,8.384533423794743
2025-07-22 14:49:04.592,0.0003490129998027,9.372299647314096
2025-07-22 14:49:04.599,0.0003636431087482,10.31351557027232
2025-07-22 14:49:04.607,0.0003791941860539,11.190621588089204
2025-07-22 14:49:04.615,0.0003957201253101,11.98680912354814
2025-07-22 14:49:04.623,0.000413260392636,12.686520365965889
2025-07-22 14:49:04.631,0.0004318352427367,13.27591833924132
2025-07-22 14:49:04.639,0.0004514412711726,13.743309257542672
2025-07-22 14:49:04.646,0.0004720476579024,14.079501056829882
2025-07-22 14:49:04.654,0.000493593409406,14.2780846402557
2025-07-22 14:49:04.662,0.00051598579151,14.335627606856606
2025-07-22 14:49:04.670,0.0005390999977662,14.25177387463805
2025-07-22 14:49:04.678,0.0005627799895389,14.029246467055277
2025-07-22 14:49:04.685,0.0005868404202256,13.673754602675704
2025-07-22 14:49:04.693,0.000611069595331,13.193809914986396
2025-07-22 14:49:04.701,0.0006352334526364,12.600459959022912
2025-07-22 14:49:04.709,0.0006590805241872,11.906949994669858
2025-07-22 14:49:04.717,0.0006823477768969,11.128326274919878
2025-07-22 14:49:04.724,0.0007047671650152,10.280995654199964
2025-07-22 14:49:04.732,0.000726072690004,9.382257248840272
2025-07-22 14:49:04.740,0.0007460077411347,8.44982214572388
2025-07-22 14:49:04.748,0.0007643324629237,7.501336813932421
2025-07-22 14:49:04.756,0.0007808308646281,6.553924999808881
2025-07-22 14:49:04.764,0.0007953173769466,5.623761563457776
2025-07-22 14:49:04.771,0.0008076425942585,4.725690030851697
2025-07-22 14:49:04.779,0.0008176980154892,3.872893673605912
2025-07-22 14:49:04.787,0.0008254196807437,3.0766277713492567
2025-07-22 14:49:04.795,0.0008307906471564,2.3460184452772475
2025-07-22 14:49:04.803,0.0008338422334027,1.6879311596173772
2025-07-22 14:49:04.810,0.0008346539134527,1.1069097444101563
2025-07-22 14:49:04.818,0.0008333517061433,0.6051846583805685
2025-07-22 14:49:04.826,0.0008301049241762,0.1827472307278505
2025-07-22 14:49:04.834,0.0008251212256702,-0.1625151703207111
2025-07-22 14:49:04.842,0.0008186400428232,-0.4346296697443423
2025-07-22 14:49:04.849,0.0008109246101052,-0.6393020840818378
2025-07-22 14:49:04.857,0.0008022529293548,-0.7836438328167561
2025-07-22 14:49:04.865,0.0007929080656189,-0.8758714193218996
2025-07-22 14:49:04.873,0.0007831681858008,-0.924988861761494
2025-07-22 14:49:04.881,0.0007732967664757,-0.9404636804541222
2025-07-22 14:49:04.889,0.0007635334074541,-0.9319069663527968
2025-07-22 14:49:04.896,0.0007540856592011,-0.9087676574618724
2025-07-22 14:49:04.904,0.0007451221844887,-0.8800504318663854
2025-07-22 14:49:04.912,0.0007367674528937,-0.8540655912434919
2025-07-22 14:49:04.920,0.0007290980598926,-0.8382179760333591
2025-07-22 14:49:04.928,0.0007221407037663,-0.8388403633743985
2025-07-22 14:49:04.935,0.0007158718436973,-0.8610750140422264
2025-07-22 14:49:04.943,0.0007102190687314,-0.9088051333555066
2025-07-22 14:49:04.951,0.0007050641817515,-0.9846360799393052
2025-07-22 14:49:04.959,0.000700247921289,-1.0899242838476284
2025-07-22 14:49:04.967,0.0006955761307016,-1.2248501047674187
2025-07-22 14:49:04.974,0.0006908270868755,-1.3885293408801922
2025-07-22 14:49:04.982,0.0006857596520522,-1.5791568397704083
2025-07-22 14:49:04.990,0.0006801219129466,-1.794174697182876
2025-07-22 14:49:04.998,0.0006736599904485,-2.0304568757392225
2025-07-22 14:49:05.006,0.0006661267034713,-2.2845017401306125
2025-07-22 14:49:05.014,0.0006572897497643,-2.5526239845308734
2025-07-22 14:49:05.021,0.0006469390611955,-2.831137713608736
2025-07-22 14:49:05.029,0.0006348930244043,-3.116523019896836
2025-07-22 14:49:05.037,0.0006210033161385,-3.405569262775209
2025-07-22 14:49:05.045,0.0006051581733842,-3.695489375016651
2025-07-22 14:49:05.053,0.0005872840130939,-3.984000867303288
2025-07-22 14:49:05.060,0.0005673454424925,-4.269370722756418
2025-07-22 14:49:05.068,0.0005453438325761,-4.550423015062992
2025-07-22 14:49:05.076,0.0005213147171922,-4.8265097804832
2025-07-22 14:49:05.084,0.0004953243034553,-5.097447356741935
2025-07-22 14:49:05.092,0.0004674653580783,-5.363421999184901
2025-07-22 14:49:05.099,0.0004378527065695,-5.624870026518305
2025-07-22 14:49:05.107,0.0004066185603322,-5.882338971559809
2025-07-22 14:49:05.115,0.0003739078594725,-6.136337163338815
2025-07-22 14:49:05.123,0.0003398737804166,-6.38717980158138
2025-07-22 14:49:05.131,0.0003046735094891,-6.634839868723222
2025-07-22 14:49:05.139,0.0002684643287971,-6.878812137622888
2025-07-22 14:49:05.146,0.0002314000113368,-7.117998072321013
2025-07-22 14:49:05.154,0.0001936275030626,-7.350618599344756
2025-07-22 14:49:05.162,0.0001552838928637,-7.574160579384596
2025-07-22 14:49:05.170,0.0001164937131786,-7.785361381549645
2025-07-22 14:49:05.178,7.736662852192013e-05,-7.980234318497934
2025-07-22 14:49:05.185,3.799553276445282e-05,-8.154135913996702
2025-07-22 14:49:05.193,-1.5449877442626391e-06,-8.30187411898483
2025-07-22 14:49:05.201,-4.119991178789785e-05,-8.417854736888474
2025-07-22 14:49:05.209,-8.093483989253499e-05,-8.496261528256507
2025-07-22 14:49:05.217,-0.0001207368690012,-8.53126380247749
2025-07-22 14:49:05.224,-0.0001606152282493,-8.517243834796208
2025-07-22 14:49:05.232,-0.0002006015753862,-8.449035233551013
2025-07-22 14:49:05.240,-0.0002407498678328,-8.3221624861441
2025-07-22 14:49:05.248,-0.0002811357723533,-8.133071388479896
2025-07-22 14:49:05.256,-0.0003218556163513,-7.879339958766355
2025-07-22 14:49:05.264,-0.0003630248804114,-7.559859786571428
2025-07-22 14:49:05.271,-0.0004047761870023,-7.174978587435017
2025-07-22 14:49:05.279,-0.0004472566877966,-6.726596016278499
2025-07-22 14:49:05.287,-0.0004906247403205,-6.218206511085558
2025-07-22 14:49:05.295,-0.0005350458176494,-5.65488503961419
2025-07-22 14:49:05.303,-0.0005806876885113,-5.043214025163957
2025-07-22 14:49:05.310,-0.0006277149908484,-4.3911523189120745
2025-07-22 14:49:05.318,-0.0006762833642219,-3.707849724572526
2025-07-22 14:49:05.326,-0.0007265332942856,-3.003413111587836
2025-07-22 14:49:05.334,-0.0007785837662581,-2.2886324252290944
2025-07-22 14:49:05.342,-0.0008325257585367,-1.574676783087253
2025-07-22 14:49:05.349,-0.0008884155801832,-0.8727722331007091
2025-07-22 14:49:05.357,-0.0009462680904252,-0.193873570752055
2025-07-22 14:49:05.365,-0.0010060499099218,0.451657155835899
2025-07-22 14:49:05.373,-0.0010676727950333,1.054353177238813
2025-07-22 14:49:05.381,-0.0011309873734469,1.605915195940797
2025-07-22 14:49:05.389,-0.0011957774515685,2.099443255517222
2025-07-22 14:49:05.396,-0.0012617551436788,2.5296200949485903
2025-07-22 14:49:05.404,-0.0013285571603286,2.8928399018510764
2025-07-22 14:49:05.412,-0.0013957427017107,3.1872786853116866
2025-07-22 14:49:05.420,-0.001462793480131,3.412904884246247
2025-07-22 14:49:05.428,-0.0015291164077098,3.5714311940042647
2025-07-22 14:49:05.435,-0.0015940494184075,3.666210818741208
2025-07-22 14:49:05.443,-0.0016568707493028,3.702083338312247
2025-07-22 14:49:05.451,-0.0017168117997107,3.6851770376777937
2025-07-22 14:49:05.459,-0.001773073448957,3.622675838358406
2025-07-22 14:49:05.467,-0.0018248454785532,3.522559883760332
2025-07-22 14:49:05.474,-0.0018713285322184,3.3933293758929857
2025-07-22 14:49:05.482,-0.0019117578679215,3.2437214620715484
2025-07-22 14:49:05.490,-0.0019454280198309,3.08242984717338
2025-07-22 14:49:05.498,-0.0019717173959615,2.9178363769595377
2025-07-22 14:49:05.506,-0.0019901117835535,2.757763119379616
2025-07-22 14:49:05.514,-0.0020002257272464,2.609252490314375
2025-07-22 14:49:05.521,-0.0020018208057012,2.4783817659268723
2025-07-22 14:49:05.529,-0.0019948199634036,2.37011694289892
2025-07-22 14:49:05.537,-0.0019793172278135,2.288209401784885
2025-07-22 14:49:05.545,-0.0019555823157641,2.235137249936259
2025-07-22 14:49:05.553,-0.001924059778603,2.212091621920964
2025-07-22 14:49:05.560,-0.0018853624569045,2.219006650542596
2025-07-22 14:49:05.568,-0.001840259142035,2.2546303425388685
2025-07-22 14:49:05.576,-0.0017896565024827,2.3166322482018766
2025-07-22 14:49:05.584,-0.0017345755420371,2.40174264678012
2025-07-22 14:49:05.592,-0.0016761231167221,2.50591701670831
2025-07-22 14:49:05.599,-0.0016154593357254,2.6245188524356227
2025-07-22 14:49:05.607,-0.0015537619725309,2.7525134535264395
2025-07-22 14:49:05.615,-0.0014921892640752,2.884665165323278
2025-07-22 14:49:05.623,-0.0014318426393854,3.015730700317504
2025-07-22 14:49:05.631,-0.0013737309823043,3.140641606835708
2025-07-22 14:49:05.639,-0.0013187379932743,3.2546696543288016
2025-07-22 14:49:05.646,-0.0012675940726345,3.3535698400713545
2025-07-22 14:49:05.654,-0.0012208539078695,3.4336968508043526
2025-07-22 14:49:05.662,-0.0011788806173358,3.492092087369236
2025-07-22 14:49:05.670,-0.0011418369010395,3.5265397230171724
2025-07-22 14:49:05.678,-0.001109683219069,3.5355916490351795
2025-07-22 14:49:05.685,-0.0010821826193109,3.51856249158544
2025-07-22 14:49:05.693,-0.0010589115190586,3.4754970908314946
2025-07-22 14:49:05.701,-0.0010392755480773,3.4071138582483083
2025-07-22 14:49:05.709,-0.0010225294993668,3.31472822840068
2025-07-22 14:49:05.717,-0.0010078004819451,3.200160973175256
2025-07-22 14:49:05.724,-0.0009941134732676,3.0656364395593663
2025-07-22 14:49:05.732,-0.0009804185850475,2.9136758088619104
2025-07-22 14:49:05.740,-0.0009656194580959,2.74699027179116
2025-07-22 14:49:05.748,-0.0009486022590281,2.56837860123628
2025-07-22 14:49:05.756,-0.0009282647482895,2.380633025748117
2025-07-22 14:49:05.764,-0.0009035448499208,2.186456607244444
2025-07-22 14:49:05.771,-0.0008734481259419,1.9883945459254715
2025-07-22 14:49:05.779,-0.0008370735673513,1.7887810042717245
2025-07-22 14:49:05.787,-0.0007936371422143,1.5897021871001766
2025-07-22 14:49:05.795,-0.000742492549521,1.3929755674512805
2025-07-22 14:49:05.803,-0.0006831485989307,1.2001443473674818
2025-07-22 14:49:05.810,-0.0006152826027105,1.0124855292913673
2025-07-22 14:49:05.818,-0.0005387491826359,0.8310293840762064
2025-07-22 14:49:05.826,-0.0004535840027295,0.6565876633519551
2025-07-22 14:49:05.834,-0.000360002154189,0.4897876347617401
2025-07-22 14:49:05.842,-0.0002583912341487,0.3311089242335379
2025-07-22 14:49:05.849,-0.0001492995393587,0.180920225514298
2025-07-22 14:49:05.857,-3.342017837786343e-05,0.0395131727833451
2025-07-22 14:49:05.865,8.842777183382991e-05,-0.0928689472863976
2025-07-22 14:49:05.873,0.0002153197256788,-0.21600946153106
2025-07-22 14:49:05.881,0.0003462462652954,-0.3297047680024023
2025-07-22 14:49:05.889,0.000480132768578,-0.4337595358629599
2025-07-22 14:49:05.896,0.0006158570641619,-0.5279905227906803
2025-07-22 14:49:05.904,0.0007522646827229,-0.6122382477410597
2025-07-22 14:49:05.912,0.0008881818197721,-0.6863852006194534
2025-07-22 14:49:05.920,0.0010224266101601,-0.7503788269287148
2025-07-22 14:49:05.928,0.0011538196506448,-0.8042572151496405
2025-07-22 14:49:05.935,0.0012811948451303,-0.8481752491789297
2025-07-22 14:49:05.943,0.0014034115729881,-0.8824289695560011
2025-07-22 14:49:05.951,0.0015193689080449,-0.9074760060359048
2025-07-22 14:49:05.959,0.0016280221909738,-0.923950183536224
2025-07-22 14:49:05.967,0.001728401758612,-0.932668746456248
2025-07-22 14:49:05.974,0.0018196331497324,-0.9346310767306624
2025-07-22 14:49:05.982,0.0019009577183168,-0.9310082780416726
2025-07-22 14:49:05.990,0.0019717523474729,-0.9231235321699665
2025-07-22 14:49:05.998,0.0020315468878062,-0.9124236664938284
2025-07-22 14:49:06.006,0.0020800380317391,-0.9004428682897253
2025-07-22 14:49:06.014,0.0021170985603775,-0.8887599126165489
2025-07-22 14:49:06.021,0.002142781233406,-0.8789506142283681
2025-07-22 14:49:06.029,0.0021573169772373,-0.8725374549426634
2025-07-22 14:49:06.037,0.0021611073900177,-0.8709384695268778
2025-07-22 14:49:06.045,0.0021547118888295,-0.8754174994147746
2025-07-22 14:49:06.053,0.0021388300870327,-0.8870378578150694
2025-07-22 14:49:06.060,0.0021142802204084,-0.9066213089021512
2025-07-22 14:49:06.068,0.0020819746183547,-0.9347140600881948
2025-07-22 14:49:06.076,0.0020428933028688,-0.9715612042738742
2025-07-22 14:49:06.084,0.0019980567774633,-1.0170907307449517
2025-07-22 14:49:06.092,0.0019484989713635,-1.0709078590579926
2025-07-22 14:49:06.099,0.0018952411882317,-1.1323000618551962
2025-07-22 14:49:06.107,0.0018392678067831,-1.2002527589823924
2025-07-22 14:49:06.115,0.0017815043888309,-1.273475312162016
2025-07-22 14:49:06.123,0.001722798754509,-1.3504366391725935
2025-07-22 14:49:06.131,0.0016639054809222,-1.4294094930395282
2025-07-22 14:49:06.139,0.0016054741711899,-1.5085221956109114
2025-07-22 14:49:06.146,0.0015480417203406,-1.5858163576613016
2025-07-22 14:49:06.154,0.0014920286555248,-1.6593088564885172
2025-07-22 14:49:06.162,0.0014377394417533,-1.7270560926227132
2025-07-22 14:49:06.170,0.0013853664487035,-1.7872183357294578
2025-07-22 14:49:06.178,0.0013349971196713,-1.8381218211139976
2025-07-22 14:49:06.185,0.0012866237964689,-1.8783161900677825
2025-07-22 14:49:06.193,0.0012401556215475,-1.906624889792865
2025-07-22 14:49:06.201,0.0011954319382036,-1.9221862692634544
2025-07-22 14:49:06.209,0.0011522366291408,-1.924483336350244
2025-07-22 14:49:06.217,0.0011103128682591,-1.9133604919179408
2025-07-22 14:49:06.224,0.001069377807123,-1.8890260372682617
2025-07-22 14:49:06.232,0.0010291367728376,-1.852039857369727
2025-07-22 14:49:06.240,0.0009892966148703,-1.803286389962622
2025-07-22 14:49:06.248,0.0009495779017357,-1.743933758966034
2025-07-22 14:49:06.256,0.0009097257318021,-1.6753807277086057
2025-07-22 14:49:06.264,0.000869518983573,-1.5991938553200638
2025-07-22 14:49:06.271,0.0008287778878853,-1.5170378568972642
2025-07-22 14:49:06.279,0.0007873698563045,-1.4306026149371485
2025-07-22 14:49:06.287,0.0007452135457933,-1.3415305168407128
2025-07-22 14:49:06.295,0.0007022811791731,-1.251347773853474
2025-07-22 14:49:06.303,0.0006585991740778,-1.1614031124314097
2025-07-22 14:49:06.310,0.0006142471604603,-1.0728167495973655
2025-07-22 14:49:06.318,0.0005693554889623,-0.9864419200166092
2025-07-22 14:49:06.326,0.0005241013504982,-0.9028404754183648
2025-07-22 14:49:06.334,0.0004787036422093,-0.822273288126236
2025-07-22 14:49:06.342,0.0004334167275109,-0.744705414176411
2025-07-22 14:49:06.349,0.0003885232491601,-0.6698252518556448
2025-07-22 14:49:06.357,0.0003443261648483,-0.5970763027722745
2025-07-22 14:49:06.365,0.000301140185234,-0.5256996302719937
2025-07-22 14:49:06.373,0.0002592828047736,-0.4547847299513758
2025-07-22 14:49:06.381,0.0002190651260185,-0.3833262836006648
2025-07-22 14:49:06.389,0.0001807826877342,-0.3102841534492255
2025-07-22 14:49:06.396,0.0001447065154143,-0.2346439700643529
2025-07-22 14:49:06.404,0.000111074618348,-0.1554757512733204
2025-07-22 14:49:06.412,8.008415891605756e-05,-0.0719881396780266
2025-07-22 14:49:06.420,5.188451560656026e-05,0.0164239509844883
2025-07-22 14:49:06.428,2.657144959010403e-05,0.1101402402966951
2025-07-22 14:49:06.435,4.182563804030956e-06,0.2092861972580438
2025-07-22 14:49:06.443,-1.53057866906187e-05,0.3137156774323333
2025-07-22 14:49:06.451,-3.198000558680124e-05,0.4230059858412667
2025-07-22 14:49:06.459,-4.598907283456835e-05,0.5364658192791683
2025-07-22 14:49:06.467,-5.754253815686531e-05,0.6531560593777082
2025-07-22 14:49:06.474,-6.690654153299795e-05,0.7719228935994225
2025-07-22 14:49:06.482,-7.439774005532895e-05,0.891442254577042
2025-07-22 14:49:06.490,-8.037512053575452e-05,1.010274104598514
2025-07-22 14:49:06.498,-8.522983463269089e-05,1.1269246650521831
2025-07-22 14:49:06.506,-8.937338171442947e-05,1.2399143149802914
2025-07-22 14:49:06.514,-9.322465782133996e-05,1.3478485747902116
2025-07-22 14:49:06.521,-9.719654689400748e-05,1.4494893640356703
2025-07-22 14:49:06.529,-0.0001016828022502,1.5438235825561075
2025-07-22 14:49:06.537,-0.0001070459269214,1.6301260142654896
2025-07-22 14:49:06.545,-0.0001136066348626,1.7080135980545554
2025-07-22 14:49:06.553,-0.000121635310663,1.7774882648928394
2025-07-22 14:49:06.560,-0.0001313457204795,1.8389658227154468
2025-07-22 14:49:06.568,-0.0001428910770699,1.893288791083304
2025-07-22 14:49:06.576,-0.0001563624318369,1.9417216371503996
2025-07-22 14:49:06.584,-0.0001717892587822,1.985927514076644
2025-07-22 14:49:06.592,-0.0001891420102567,2.027926308682064
2025-07-22 14:49:06.599,-0.0002083363624421,2.070034517371663
2025-07-22 14:49:06.607,-0.0002292388288046,2.114788146447761
2025-07-22 14:49:06.615,-0.0002516734007688,2.164850452321456
2025-07-22 14:49:06.623,-0.0002754288743993,2.222906895317447
2025-07-22 14:49:06.631,-0.0003002665373053,2.291550181501436
2025-07-22 14:49:06.639,-0.0003259279183415,2.3731587095509634
2025-07-22 14:49:06.646,-0.0003521423408201,2.469772115760842
2025-07-22 14:49:06.654,-0.0003786340646887,2.582967907649562
2025-07-22 14:49:06.662,-0.0004051288513822,2.713743385072018
2025-07-22 14:49:06.670,-0.0004313598339182,2.8624071622129987
2025-07-22 14:49:06.678,-0.0004570726216931,3.0284846231145583
2025-07-22 14:49:06.685,-0.0004820296121275,3.2106415651103144
2025-07-22 14:49:06.693,-0.0005060135180409,3.4066301007676314
2025-07-22 14:49:06.701,-0.0005288301491039,3.61326058593286
2025-07-22 14:49:06.709,-0.0005503105071345,3.826402902947083
2025-07-22 14:49:06.717,-0.0005703122680842,4.041019838091893
2025-07-22 14:49:06.724,-0.0005887207284823,4.251234536045357
2025-07-22 14:49:06.732,-0.0006054492915325,4.450433079818714
2025-07-22 14:49:06.740,-0.0006204395590128,4.631402129973847
2025-07-22 14:49:06.748,-0.0006336610810135,4.786500277869901
2025-07-22 14:49:06.756,-0.0006451107980062,4.907860363013223
2025-07-22 14:49:06.764,-0.0006548121905997,4.987618531696388
2025-07-22 14:49:06.771,-0.0006628141335544,5.018164339724714
2025-07-22 14:49:06.779,-0.0006691894341283,4.992404795246288
2025-07-22 14:49:06.787,-0.00067403302249,4.904033969540859
2025-07-22 14:49:06.795,-0.0006774597554564,4.74779874913192
2025-07-22 14:49:06.803,-0.0006796017956433,4.519750539374713
2025-07-22 14:49:06.810,-0.0006806055373869,4.217472332486016
2025-07-22 14:49:06.818,-0.0006806280692456,3.840270588153359
2025-07-22 14:49:06.826,-0.0006798331908236,3.389321895850082
2025-07-22 14:49:06.834,-0.0006783870388911,2.8677654301529567
2025-07-22 14:49:06.842,-0.0006764534220129,2.280733783813939
2025-07-22 14:49:06.849,-0.0006741890032609,1.635316844443902
2025-07-22 14:49:06.857,-0.0006717384847978,0.9404559057010936
2025-07-22 14:49:06.865,-0.0006692299228685,0.2067680702588779
2025-07-22 14:49:06.873,-0.0006667702608096,-0.5536959225227908
2025-07-22 14:49:06.881,-0.0006644411580769,-1.327754178202117
2025-07-22 14:49:06.889,-0.0006622952377951,-2.10144714939228
2025-07-22 14:49:06.896,-0.0006603529570425,-2.860430139405763
2025-07-22 14:49:06.904,-0.0006586003881824,-3.5903905383656896
2025-07-22 14:49:06.912,-0.000656988249316,-4.2774739280627605
2025-07-22 14:49:06.920,-0.0006554325099029,-4.90870239074086
2025-07-22 14:49:06.928,-0.0006538168229786,-5.472368429395154
2025-07-22 14:49:06.935,-0.000651996920823,-5.958388862406856
2025-07-22 14:49:06.943,-0.0006498069740373,-6.358604831355473
2025-07-22 14:49:06.951,-0.0006470677553841,-6.667016533818013
2025-07-22 14:49:06.959,-0.000643596274282,-6.879944295358687
2025-07-22 14:49:06.967,-0.0006392163758665,-6.996110936421264
2025-07-22 14:49:06.974,-0.0006337696473321,-7.016643873452386
2025-07-22 14:49:06.982,-0.000627125859158,-6.944998824507472
2025-07-22 14:49:06.990,-0.0006191921269352,-6.786810182081075
2025-07-22 14:49:06.998,-0.0006099200505648,-6.549675903597535
2025-07-22 14:49:07.006,-0.0005993102683676,-6.242887019483167
2025-07-22 14:49:07.014,-0.0005874141113255,-5.877113482146087
2025-07-22 14:49:07.021,-0.0005743323089221,-5.464059041722798
2025-07-22 14:49:07.029,-0.0005602109405293,-5.016098154094153
2025-07-22 14:49:07.037,-0.0005452350133796,-4.545907665518381
2025-07-22 14:49:07.045,-0.0005296201747065,-4.066105268880928
2025-07-22 14:49:07.053,-0.0005136031497112,-3.5889055983584406
2025-07-22 14:49:07.060,-0.0004974315498321,-3.12580343619532
2025-07-22 14:49:07.068,-0.0004813537033193,-2.6872919548272405
2025-07-22 14:49:07.076,-0.0004656091014231,-2.282622301176837
2025-07-22 14:49:07.084,-0.0004504199308589,-1.9196092167036976
2025-07-22 14:49:07.092,-0.0004359840036446,-1.604485821922076
2025-07-22 14:49:07.099,-0.0004224692269396,-1.341809200755657
2025-07-22 14:49:07.107,-0.0004100095931589,-1.1344170045519075
2025-07-22 14:49:07.115,-0.0003987025207525,-0.9834339562295628
2025-07-22 14:49:07.123,-0.0003886072443777,-0.8883258719405721
2025-07-22 14:49:07.131,-0.0003797438544902,-0.846997638309025
2025-07-22 14:49:07.139,-0.0003720925552797,-0.8559305049067228
2025-07-22 14:49:07.146,-0.0003655927898661,-0.9103531009223248
2025-07-22 14:49:07.154,-0.0003601420795126,-1.0044397955457989
2025-07-22 14:49:07.162,-0.0003555946748873,-1.131529428077745
2025-07-22 14:49:07.170,-0.0003517603215863,-1.2843570659296628
2025-07-22 14:49:07.178,-0.0003484035444394,-1.4552913271376318
2025-07-22 14:49:07.185,-0.0003452438828157,-1.636569937625085
2025-07-22 14:49:07.193,-0.000341957516744,-1.8205265770310075
2025-07-22 14:49:07.201,-0.0003381807192611,-1.999802679394972
2025-07-22 14:49:07.209,-0.0003335155186117,-2.1675386596277666
2025-07-22 14:49:07.217,-0.0003275378342547,-2.317539985191592
2025-07-22 14:49:07.224,-0.0003198081794566,-2.4444145526239383
2025-07-22 14:49:07.232,-0.0003098848272907,-2.543678912240925
2025-07-22 14:49:07.240,-0.0002973391327263,-2.611831970715601
2025-07-22 14:49:07.248,-0.0002817725003951,-2.646395856080628
2025-07-22 14:49:07.256,-0.0002628342936687,-2.6459246242382006
2025-07-22 14:49:07.264,-0.0002402398058963,-2.6099823960316035
2025-07-22 14:49:07.271,-0.0002137872772163,-2.539093318017493
2025-07-22 14:49:07.279,-0.0001833728707883,-2.43466641797335
2025-07-22 14:49:07.287,-0.000149002550952,-2.298898959079887
2025-07-22 14:49:07.295,-0.0001107999437344,-2.134662271062959
2025-07-22 14:49:07.303,-6.900949524808283e-05,-1.945374248766735
2025-07-22 14:49:07.310,-2.3994541048803803e-05,-1.7348627673092682
2025-07-22 14:49:07.318,2.3769792104393703e-05,-1.5072241875621828
2025-07-22 14:49:07.326,7.370864374675383e-05,-1.2666809430795316
2025-07-22 14:49:07.334,0.00012516395535,-1.0174419405634083
2025-07-22 14:49:07.342,0.0001774147368463,-0.7635692006023453
2025-07-22 14:49:07.349,0.0002297000794349,-0.508853838032473
2025-07-22 14:49:07.357,0.0002812437500277,-0.2567041477591912
2025-07-22 14:49:07.365,0.0003312791024029,-0.0100482307514862
2025-07-22 14:49:07.373,0.0003790730466737,0.2287467308603482
2025-07-22 14:49:07.381,0.0004239479448742,0.457936762302789
2025-07-22 14:49:07.389,0.0004653005183619,0.6764434824892054
2025-07-22 14:49:07.396,0.0005026171109108,0.8838754496672162
2025-07-22 14:49:07.404,0.0005354849109561,1.0805276693871564
2025-07-22 14:49:07.412,0.0005635989806178,1.2673588336289872
2025-07-22 14:49:07.420,0.0005867651621664,1.4459462601656412
2025-07-22 14:49:07.428,0.0006048991301539,1.6184189448574116
2025-07-22 14:49:07.435,0.0006180220183858,1.7873696341200214
2025-07-22 14:49:07.443,0.0006262531542792,1.955747373890452
2025-07-22 14:49:07.451,0.0006298004683433,2.1267325902109606
2025-07-22 14:49:07.459,0.0006289491395114,2.3035973895131905
2025-07-22 14:49:07.467,0.0006240490298277,2.4895544088558963
2025-07-22 14:49:07.474,0.000615501460309,2.687598166421882
2025-07-22 14:49:07.482,0.0006037458529658,2.900343426459013
2025-07-22 14:49:07.490,0.0005892466963364,3.1298655679603598
2025-07-22 14:49:07.498,0.0005724812013562,3.377548305161921
2025-07-22 14:49:07.506,0.0005539279207976,3.64394432950142
2025-07-22 14:49:07.514,0.0005340565119899,3.9286545120304384
2025-07-22 14:49:07.521,0.0005133187348845,4.230231209898044
2025-07-22 14:49:07.529,0.0004921407138493,4.546110945406288
2025-07-22 14:49:07.537,0.0004709164555048,4.87258125124528
2025-07-22 14:49:07.545,0.0004500025858444,5.204785779585584
2025-07-22 14:49:07.553,0.0004297142362757,5.536770841319327
2025-07-22 14:49:07.560,0.0004103219860284,5.861575373749404
2025-07-22 14:49:07.568,0.0003920497792856,6.171364944559048
2025-07-22 14:49:07.576,0.0003750737865017,6.457608816631927
2025-07-22 14:49:07.584,0.0003595222580525,6.711297368571585
2025-07-22 14:49:07.592,0.0003454764878945,6.923195352842181
2025-07-22 14:49:07.600,0.0003329730157039,7.084124655068047
2025-07-22 14:49:07.607,0.0003220071233048,7.1852684827643785
2025-07-22 14:49:07.615,0.0003125375489996,7.218487354863467
2025-07-22 14:49:07.623,0.0003044922006608,7.17663598055551
2025-07-22 14:49:07.631,0.000297774531482,7.0538691961576205
2025-07-22 14:49:07.639,0.0002922701654682,6.84592464947283
2025-07-22 14:49:07.646,0.0002878533262392,6.550369946084788
2025-07-22 14:49:07.654,0.0002843926326659,6.1668025477517965
2025-07-22 14:49:07.662,0.0002817558769646,5.696991863705965
2025-07-22 14:49:07.670,0.000279813492535,5.144954698243238
2025-07-22 14:49:07.678,0.0002784405461729,4.516957478470572
2025-07-22 14:49:07.685,0.0002775172456823,3.82144141575373
2025-07-22 14:49:07.693,0.0002769281236314,3.068869846949505
2025-07-22 14:49:07.701,0.0002765602119006,2.271500313459858
2025-07-22 14:49:07.709,0.0002763006296291,1.4430872943855435
2025-07-22 14:49:07.717,0.0002760340554302,0.5985247260007314
2025-07-22 14:49:07.725,0.0002756405415684,-0.2465596740160521
2025-07-22 14:49:07.732,0.0002749940536827,-1.0762438740319242
2025-07-22 14:49:07.740,0.0002739619971575,-1.8747686436440945
2025-07-22 14:49:07.748,0.0002724058493496,-2.626995185025789
2025-07-22 14:49:07.756,0.0002701828836681,-3.318845980512976
2025-07-22 14:49:07.764,0.0002671488617405,-3.9377122260189696
2025-07-22 14:49:07.771,0.0002631614894012,-4.472812691757226
2025-07-22 14:49:07.779,0.0002580843842494,-4.915491035797134
2025-07-22 14:49:07.787,0.0002517912892011,-5.2594413541862925
2025-07-22 14:49:07.795,0.0002441702888648,-5.50085491045641
2025-07-22 14:49:07.803,0.0002351278419965,-5.638484355191759
2025-07-22 14:49:07.810,0.000224592522773,-5.673625132000732
2025-07-22 14:49:07.818,0.0002125184415192,-5.610016998516515
2025-07-22 14:49:07.826,0.0001988883657614,-5.453671529855022
2025-07-22 14:49:07.834,0.0001837165748131,-5.212634010550448
2025-07-22 14:49:07.842,0.0001670514566081,-4.89669018287045
2025-07-22 14:49:07.850,0.0001489777967314,-4.517029854832014
2025-07-22 14:49:07.857,0.00012961863024,-4.085880356127071
2025-07-22 14:49:07.865,0.0001091364544408,-3.616123265365292
2025-07-22 14:49:07.873,8.773355279886386e-05,-3.120907739794956
2025-07-22 14:49:07.881,6.565114879538304e-05,-2.613273197952624
2025-07-22 14:49:07.889,4.316708540436396e-05,-2.1057930900382296
2025-07-22 14:49:07.896,2.059173631667397e-05,-1.6102501089428378
2025-07-22 14:49:07.904,-1.7380556997385317e-06,-1.137351530760866
2025-07-22 14:49:07.912,-2.3467040356930035e-05,-0.6964915207224845
2025-07-22 14:49:07.920,-4.4231433562615806e-05,-0.2955652893659167
2025-07-22 14:49:07.928,-6.367023737912451e-05,0.0591619877123954
2025-07-22 14:49:07.935,-8.143753750999887e-05,0.363130499520944
2025-07-22 14:49:07.943,-9.721526470985378e-05,0.6135062139731208
2025-07-22 14:49:07.951,-0.0001107258759717,0.809148876271247
2025-07-22 14:49:07.959,-0.000121744366252,0.9505315522395444
2025-07-22 14:49:07.967,-0.0001301089650337,1.0396169052440285
2025-07-22 14:49:07.975,-0.0001357298393533,1.079696374827215
2025-07-22 14:49:07.982,-0.000138595165481,1.0751991571041324
2025-07-22 14:49:07.990,-0.0001387740695903,1.0314783832508485
2025-07-22 14:49:07.998,-0.0001364161489427,0.9545821692453568
2025-07-22 14:49:08.006,-0.00013174751948,0.8510172813266845
2025-07-22 14:49:08.014,-0.0001250635556519,0.7275130367544445
2025-07-22 14:49:08.021,-0.0001167186778995,0.5907927441032867
2025-07-22 14:49:08.029,-0.0001071136972796,0.4473594853681827
2025-07-22 14:49:08.037,-9.668134274023958e-05,0.3033023581947249
2025-07-22 14:49:08.045,-8.587067296899104e-05,0.1641284399719293
2025-07-22 14:49:08.053,-7.513111091639903e-05,0.0346247237221653
2025-07-22 14:49:08.060,-6.489683523614943e-05,-0.0812468654995525
2025-07-22 14:49:08.068,-5.557222000982549e-05,-0.1804195027305398
2025-07-22 14:49:08.076,-4.751893398223599e-05,-0.2607559681388417
2025-07-22 14:49:08.084,-4.104519558809031e-05,-0.3210483576500122
2025-07-22 14:49:08.092,-3.639753342622689e-05,-0.3609850021345386
2025-07-22 14:49:08.100,-3.375522892349902e-05,-0.3810877725293828
2025-07-22 14:49:08.107,-3.32274344149536e-05,-0.3826239634884794
2025-07-22 14:49:08.115,-3.485280100688001e-05,-0.3674977427845056
2025-07-22 14:49:08.123,-3.860135532775244e-05,-0.3381266796737254
2025-07-22 14:49:08.131,-4.437833482127976e-05,-0.2973090979705229
2025-07-22 14:49:08.139,-5.20296898540744e-05,-0.2480879405937838
2025-07-22 14:49:08.146,-6.134896187459126e-05,-0.1936165066485713
2025-07-22 14:49:08.154,-7.208526030764565e-05,-0.137030868659906
2025-07-22 14:49:08.162,-8.395209506433135e-05,-0.0813330424050226
2025-07-22 14:49:08.170,-9.663685821028196e-05,-0.0292881172225336
2025-07-22 14:49:08.178,-0.0001098107628979,0.0166623788746846
2025-07-22 14:49:08.185,-0.0001231390281547,0.0544695418789008
2025-07-22 14:49:08.193,-0.000136291044021,0.0825281216703563
2025-07-22 14:49:08.201,-0.0001489501754995,0.0997098199119904
2025-07-22 14:49:08.209,-0.000160822800893,0.1053797593733497
2025-07-22 14:49:08.217,-0.000171646178417,0.0993974452701407
2025-07-22 14:49:08.225,-0.000181194817828,0.0821037654907293
2025-07-22 14:49:08.232,-0.0001892851761555,0.0542956269328922
2025-07-22 14:49:08.240,-0.000195778648726,0.0171897296077696
2025-07-22 14:49:08.248,-0.0002005829516998,-0.027623219764324
2025-07-22 14:49:08.256,-0.0002036520759258,-0.0782328048467446
2025-07-22 14:49:08.264,-0.0002049850311797,-0.1324709022644162
2025-07-22 14:49:08.271,-0.0002046235953277,-0.1879807652618145
2025-07-22 14:49:08.279,-0.0002026492385292,-0.2422926369267092
2025-07-22 14:49:08.287,-0.0001991793233937,-0.2929052794887017
2025-07-22 14:49:08.295,-0.0001943626235883,-0.3373726001471855
2025-07-22 14:49:08.303,-0.0001883741956346,-0.3733942120339329
2025-07-22 14:49:08.310,-0.000181409685184,-0.3989083165196571
2025-07-22 14:49:08.318,-0.0001736792122462,-0.41218476997615
2025-07-22 14:49:08.326,-0.0001654010260524,-0.4119156539663882
2025-07-22 14:49:08.334,-0.0001567951406641,-0.3973001563653607
2025-07-22 14:49:08.342,-0.0001480771555725,-0.3681201453897174
2025-07-22 14:49:08.350,-0.0001394524403952,-0.3248025300016279
2025-07-22 14:49:08.357,-0.0001311108450761,-0.2684643968552819
2025-07-22 14:49:08.365,-0.0001232221004733,-0.2009370378153255
2025-07-22 14:49:08.373,-0.0001159320838576,-0.1247653619970628
2025-07-22 14:49:08.381,-0.0001093601175973,-0.0431798325361712
2025-07-22 14:49:08.389,-0.0001035974368777,0.0399610284058681
2025-07-22 14:49:08.396,-9.8706902330741e-05,0.1202583900549727
2025-07-22 14:49:08.404,-9.472394707604528e-05,0.1928906250902281
2025-07-22 14:49:08.412,-9.165863860994368e-05,0.2527586481782887
2025-07-22 14:49:08.420,-8.949861848629571e-05,0.294655651556358
2025-07-22 14:49:08.428,-8.821259097052791e-05,0.3134563373809015
2025-07-22 14:49:08.435,-8.775400389503717e-05,0.304319377536261
2025-07-22 14:49:08.443,-8.806460239483477e-05,0.262895644099052
2025-07-22 14:49:08.451,-8.907760085959019e-05,0.1855338260994015
2025-07-22 14:49:08.459,-9.072028423566314e-05,0.0694744543938674
2025-07-22 14:49:08.467,-9.291592658333968e-05,-0.0869768366707915
2025-07-22 14:49:08.475,-9.558501047200808e-05,-0.2843057181927642
2025-07-22 14:49:08.482,-9.864582667176364e-05,-0.521683396203293
2025-07-22 14:49:08.490,-0.000102014604526,-0.7969055565341481
2025-07-22 14:49:08.498,-0.0001056053566117,-1.1063812039375016
2025-07-22 14:49:08.506,-0.0001093296152973,-1.4451744768225427
2025-07-22 14:49:08.514,-0.0001130962033687,-1.8071001543561864
2025-07-22 14:49:08.521,-0.0001168111383011,-2.1848710769307385
2025-07-22 14:49:08.529,-0.0001203777360809,-2.5702932178696005
2025-07-22 14:49:08.537,-0.000123696945452,-2.954501816463552
2025-07-22 14:49:08.545,-0.0001266678952752,-3.328229946236998
2025-07-22 14:49:08.553,-0.0001291886008892,-3.6820992694474497
2025-07-22 14:49:08.560,-0.0001311567871466,-4.006921614728887
2025-07-22 14:49:08.568,-0.0001324708441361,-4.293999469626169
2025-07-22 14:49:08.576,-0.0001330309985973,-4.535413526425748
2025-07-22 14:49:08.584,-0.0001327408263803,-4.7242860447073625
2025-07-22 14:49:08.592,-0.0001315092362267,-4.855009945692919
2025-07-22 14:49:08.600,-0.0001292530211531,-4.923435142359004
2025-07-22 14:49:08.607,-0.0001259000024798,-4.927005519297911
2025-07-22 14:49:08.615,-0.0001213926879049,-4.864842082283832
2025-07-22 14:49:08.623,-0.0001156922432929,-4.737769980008065
2025-07-22 14:49:08.631,-0.000108782466183,-4.5482892545694815
2025-07-22 14:49:08.639,-0.0001006733770019,-4.300491217273168
2025-07-22 14:49:08.646,-9.14040251594435e-05,-3.9999242069529752
2025-07-22 14:49:08.654,-8.104414357783492e-05,-3.653414122934373
2025-07-22 14:49:08.662,-6.969437675882642e-05,-3.2688465022366766
2025-07-22 14:49:08.670,-5.7484942464458506e-05,-2.8549180106214056
2025-07-22 14:49:08.678,-4.457273749924176e-05,-2.420866029189547
2025-07-22 14:49:08.685,-3.1137036963119994e-05,-1.976185539092037
2025-07-22 14:49:08.693,-1.737405011545405e-05,-1.5303427372806606
2025-07-22 14:49:08.701,-3.4906799919221604e-06,-1.0924947591995569
2025-07-22 14:49:08.709,1.0302113981494394e-05,-0.6712245447207716
2025-07-22 14:49:08.717,2.3795932148100575e-05,-0.2742992670787831
2025-07-22 14:49:08.725,3.679112575874529e-05,0.0915401415384198
2025-07-22 14:49:08.732,4.9102206543821846e-05,0.4207519754748572
2025-07-22 14:49:08.740,6.056219674724191e-05,0.7091242290444729
2025-07-22 14:49:08.748,7.10257491937548e-05,0.9538590872389804
2025-07-22 14:49:08.756,8.037099867195848e-05,1.1536096377354637
2025-07-22 14:49:08.764,8.8500248155626e-05,1.308468731201927
2025-07-22 14:49:08.771,9.53397192559048e-05,1.4199116075992384
2025-07-22 14:49:08.779,0.0001008386779868,1.490695486492616
2025-07-22 14:49:08.787,0.0001049682729892,1.5247207225455406
2025-07-22 14:49:08.795,0.0001077203942191,1.5268593033740632
2025-07-22 14:49:08.803,0.000109106778275,1.5027573836524903
2025-07-22 14:49:08.810,0.0001091584662224,1.4586191910623802
2025-07-22 14:49:08.818,0.0001079255912737,1.4009800039408635
2025-07-22 14:49:08.826,0.000105477365902,1.3364759942417916
2025-07-22 14:49:08.834,0.0001019020660198,1.271618566929799
2025-07-22 14:49:08.842,9.730677932022107e-05,1.2125804303002896
2025-07-22 14:49:08.850,9.181669812665232e-05,1.1650000306116757
2025-07-22 14:49:08.857,8.557379322571477e-05,1.1338102129596423
2025-07-22 14:49:08.865,7.873479344093055e-05,1.1230960632494682
2025-07-22 14:49:08.873,7.14684911627949e-05,1.135985875120432
2025-07-22 14:49:08.881,6.39524697131507e-05,1.1745780960007886
2025-07-22 14:49:08.889,5.6369392616996574e-05,1.2399059558917578
2025-07-22 14:49:08.896,4.8903006731757095e-05,1.3319402837221643
2025-07-22 14:49:08.904,4.1733990963736845e-05,1.4496297813058685
2025-07-22 14:49:08.912,3.503574100249006e-05,1.5909767721035168
2025-07-22 14:49:08.920,2.8970144382635292e-05,1.753145203925673
2025-07-22 14:49:08.928,2.3683393450840576e-05,1.932596514463908
2025-07-22 14:49:08.935,1.930191468948725e-05,2.125247934353037
2025-07-22 14:49:08.943,1.5928551602912612e-05,2.326646973998505
2025-07-22 14:49:08.951,1.3639199348596452e-05,2.5321552747346936
2025-07-22 14:49:08.959,1.248012491288718e-05,2.73713473682452
2025-07-22 14:49:08.967,1.2466204724494571e-05,2.937128873340255
2025-07-22 14:49:08.975,1.3580271033453722e-05,3.128032660023095
2025-07-22 14:49:08.982,1.5773679370559086e-05,3.3062447187639146
2025-07-22 14:49:08.990,1.896810329316763e-05,3.468796442910835
2025-07-22 14:49:08.998,2.305845640051597e-05,3.6134536057207134
2025-07-22 14:49:09.006,2.7916760635410548e-05,3.7387870530707783
2025-07-22 14:49:09.014,3.339673563175231e-05,3.844210234551803
2025-07-22 14:49:09.021,3.933887671727064e-05,3.929982539666231
2025-07-22 14:49:09.029,4.557580851650334e-05,3.9971786427754954
2025-07-22 14:49:09.037,5.193772410591348e-05,4.047625283863699
2025-07-22 14:49:09.045,5.825773014157134e-05,4.083808080888288
2025-07-22 14:49:09.053,6.43769284799709e-05,4.1087520383365845
2025-07-22 14:49:09.060,7.014909672623806e-05,4.125880338429486
2025-07-22 14:49:09.068,7.544488103966815e-05,4.138856732563095
2025-07-22 14:49:09.076,8.015545990000548e-05,4.151417358365566
2025-07-22 14:49:09.084,8.41956549123944e-05,4.167198076087007
2025-07-22 14:49:09.092,8.750644427411935e-05,4.1895634488040265
2025-07-22 14:49:09.100,9.005678593128618e-05,4.221443301152008
2025-07-22 14:49:09.107,9.184460790890193e-05,4.265182408341316
2025-07-22 14:49:09.115,9.28967985363622e-05,4.322408323802839
2025-07-22 14:49:09.123,9.32680411865792e-05,4.393921684646855
2025-07-22 14:49:09.131,9.30383891076021e-05,4.479612574671475
2025-07-22 14:49:09.139,9.230956526298766e-05,4.578405710830635
2025-07-22 14:49:09.146,9.120009600183244e-05,4.688236385431203
2025-07-22 14:49:09.154,8.983953086864642e-05,4.806058273195187
2025-07-22 14:49:09.162,8.836212691080893e-05,4.927883423733227
2025-07-22 14:49:09.170,8.690043488697364e-05,5.0488540214738045
2025-07-22 14:49:09.178,8.557919238532462e-05,5.163344809842642
2025-07-22 14:49:09.185,8.450982939966559e-05,5.2650944328067615
2025-07-22 14:49:09.193,8.378577485295644e-05,5.347363321280898
2025-07-22 14:49:09.201,8.347865478532148e-05,5.403115116978123
2025-07-22 14:49:09.209,8.363540920222269e-05,5.425217960084409
2025-07-22 14:49:09.217,8.427632840888657e-05,5.406661260609968
2025-07-22 14:49:09.225,8.53940196885021e-05,5.340782835229618
2025-07-22 14:49:09.232,8.695335042497431e-05,5.221500550154674
2025-07-22 14:49:09.240,8.889244917839544e-05,5.043541910697054
2025-07-22 14:49:09.248,9.112485506876642e-05,4.802664433725958
2025-07-22 14:49:09.256,9.354287703560772e-05,4.495859188940845
2025-07-22 14:49:09.264,9.602215827770217e-05,4.121529662684956
2025-07-22 14:49:09.271,9.842733911471744e-05,3.679638151612005
2025-07-22 14:49:09.279,0.0001006185865871,3.171812295886256
2025-07-22 14:49:09.287,0.0001024586399534,2.601405159650741
2025-07-22 14:49:09.295,0.0001038199348686,1.97350348186378
2025-07-22 14:49:09.303,0.0001045913284508,1.294880343063362
2025-07-22 14:49:09.310,0.0001046839560963,0.5738904786334196
2025-07-22 14:49:09.318,0.0001040358090164,-0.1796912594153169
2025-07-22 14:49:09.326,0.000102614727673,-0.9548853353394344
2025-07-22 14:49:09.334,0.0001004196560011,-1.7397713895571787
2025-07-22 14:49:09.342,9.748017870006817e-05,-2.5217926406793096
2025-07-22 14:49:09.350,9.385453101488296e-05,-3.288090786768613
2025-07-22 14:49:09.357,8.962637682503461e-05,-4.025859628752356
2025-07-22 14:49:09.365,8.490067106827979e-05,-4.722704469391239
2025-07-22 14:49:09.373,7.979887990046615e-05,-5.366993832304008
2025-07-22 14:49:09.381,7.4453774894172e-05,-5.948190236539764
2025-07-22 14:49:09.389,6.90039817290492e-05,-6.45714763359967
2025-07-22 14:49:09.396,6.358846273604827e-05,-6.8863645940361575
2025-07-22 14:49:09.404,5.834114685069739e-05,-7.230184308883977
2025-07-22 14:49:09.412,5.33859775135624e-05,-7.4849348114294045
2025-07-22 14:49:09.420,4.883269404450036e-05,-7.649005380540765
2025-07-22 14:49:09.428,4.477364742740218e-05,-7.722857714313957
2025-07-22 14:49:09.435,4.128185453492899e-05,-7.708973033064333
2025-07-22 14:49:09.443,3.841034138842458e-05,-7.61173867446465
2025-07-22 14:49:09.451,3.619266668761039e-05,-7.437279889917318
2025-07-22 14:49:09.459,3.464438928893266e-05,-7.193244363491468
2025-07-22 14:49:09.467,3.376516289160247e-05,-6.8885483902588405
2025-07-22 14:49:09.475,3.3541111692113264e-05,-6.533094625595484
2025-07-22 14:49:09.482,3.394716247174213e-05,-6.137471832414929
2025-07-22 14:49:09.490,3.494907828464789e-05,-5.712647120455888
2025-07-22 14:49:09.498,3.650504355889369e-05,-5.269660830048071
2025-07-22 14:49:09.506,3.856676271389172e-05,-4.8193335215428
2025-07-22 14:49:09.514,4.108012522109089e-05,-4.3719935565620025
2025-07-22 14:49:09.521,4.398554581709056e-05,-3.937232559122748
2025-07-22 14:49:09.529,4.7218106909157e-05,-3.523694677493002
2025-07-22 14:49:09.537,5.0707610162323296e-05,-3.138904085277572
2025-07-22 14:49:09.545,5.4378596157589e-05,-2.789133622550989
2025-07-22 14:49:09.553,5.815034093505413e-05,-2.4793159485963594
2025-07-22 14:49:09.560,6.193681073238418e-05,-2.212997117186445
2025-07-22 14:49:09.568,6.56465619940788e-05,-1.9923311447259773
2025-07-22 14:49:09.576,6.918261407129715e-05,-1.8181129641396168
2025-07-22 14:49:09.584,7.244239370350505e-05,-1.689846179907467
2025-07-22 14:49:09.592,7.531793916616718e-05,-1.6058412883239637
2025-07-22 14:49:09.600,7.769662187885377e-05,-1.5633395088285331
2025-07-22 14:49:09.607,7.946264601691887e-05,-1.5586570712003405
2025-07-22 14:49:09.615,8.049949936118884e-05,-1.587344687824271
2025-07-22 14:49:09.623,8.069337741531553e-05,-1.6443569749407425
2025-07-22 14:49:09.631,7.993743919125261e-05,-1.724226741758695
2025-07-22 14:49:09.639,7.81366160627095e-05,-1.8212393191115683
2025-07-22 14:49:09.646,7.521260175251995e-05,-1.929602434005389
2025-07-22 14:49:09.654,7.110860764883416e-05,-2.043607541124293
2025-07-22 14:49:09.662,6.57934757366621e-05,-2.157778987463466
2025-07-22 14:49:09.670,5.926480223110186e-05,-2.2670079031053607
2025-07-22 14:49:09.678,5.155083582263096e-05,-2.366668270362399
2025-07-22 14:49:09.685,4.271106110459592e-05,-2.4527132120942365
2025-07-22 14:49:09.693,3.2835523659513084e-05,-2.5217501400345674
2025-07-22 14:49:09.701,2.204304892796921e-05,-2.571093994939291
2025-07-22 14:49:09.709,1.0478527578039664e-05,-2.5987983740792284
2025-07-22 14:49:09.717,-1.6905907831736912e-06,-2.6036648669870743
2025-07-22 14:49:09.725,-1.4278487841528344e-05,-2.5852314067010123
2025-07-22 14:49:09.732,-2.7085746883021225e-05,-2.543740899394045
2025-07-22 14:49:09.740,-3.990457000481329e-05,-2.480091829794276
2025-07-22 14:49:09.748,-5.2524268033448566e-05,-2.395772952737457
2025-07-22 14:49:09.756,-6.4736821594869e-05,-2.2927845564427973
2025-07-22 14:49:09.764,-7.634230857622633e-05,-2.173549093972982
2025-07-22 14:49:09.771,-8.71540142307859e-05,-2.0408141998707503
2025-07-22 14:49:09.779,-9.700308479168187e-05,-1.897551222981044
2025-07-22 14:49:09.787,-0.0001057426426496,-1.7468524100477896
2025-07-22 14:49:09.795,-0.0001132513250045,-1.5918297734373386
2025-07-22 14:49:09.803,-0.0001194362165054,-1.435518481264547
2025-07-22 14:49:09.810,-0.0001242351205386,-1.2807873330022297
2025-07-22 14:49:09.818,-0.0001276180769581,-1.1302585446307931
2025-07-22 14:49:09.826,-0.000129588013456,-0.9862386835994208
2025-07-22 14:49:09.834,-0.0001301804255666,-0.8506621848866601
2025-07-22 14:49:09.842,-0.0001294620178569,-0.7250484611163165
2025-07-22 14:49:09.850,-0.0001275283064244,-0.6104732013950174
2025-07-22 14:49:09.857,-0.0001245002697415,-0.5075540385903927
2025-07-22 14:49:09.865,-0.000120520215052,-0.4164503531508678
2025-07-22 14:49:09.873,-0.0001157470766453,-0.336876574323658
2025-07-22 14:49:09.881,-0.0001103513701538,-0.2681279432877389
2025-07-22 14:49:09.889,-0.0001045099945069,-0.2091173310558177
2025-07-22 14:49:09.896,-9.84010140047396e-05,-0.1584213761613827
2025-07-22 14:49:09.904,-9.21985028044085e-05,-0.1143339446122488
2025-07-22 14:49:09.912,-8.606753937138817e-05,-0.0749247391117585
2025-07-22 14:49:09.920,-8.015951226111343e-05,-0.0381008159283696
2025-07-22 14:49:09.928,-7.460799263093415e-05,-0.0016688201077459
2025-07-22 14:49:09.935,-6.952547097420565e-05,0.0366040725145084
2025-07-22 14:49:09.943,-6.500121274094262e-05,0.0789322220370259
2025-07-22 14:49:09.951,-6.110038188518543e-05,0.1274579217166758
2025-07-22 14:49:09.959,-5.786446009014051e-05,0.1842029909786261
2025-07-22 14:49:09.967,-5.531288866046798e-05,0.2510259580347033
2025-07-22 14:49:09.975,-5.344578584949669e-05,0.3295847924278869
2025-07-22 14:49:09.982,-5.224753338161212e-05,0.4213048006062521
2025-07-22 14:49:09.990,-5.169098162025521e-05,0.5273510725695446
2025-07-22 14:49:09.998,-5.174199871461768e-05,0.6486047834687207
2025-07-22 14:49:10.006,-5.236407208660926e-05,0.7856427104749346
2025-07-22 14:49:10.014,-5.352264763600104e-05,0.938719504317937
2025-07-22 14:49:10.021,-5.5188886077684046e-05,1.1077525257618444
2025-07-22 14:49:10.029,-5.734256244372572e-05,1.2923093819601654
2025-07-22 14:49:10.037,-5.997393027478616e-05,1.4915986353699122
2025-07-22 14:49:10.045,-6.308447677766801e-05,1.7044644680639742
2025-07-22 14:49:10.053,-6.668657425723706e-05,1.9293863289938495
2025-07-22 14:49:10.060,-7.08020736831108e-05,2.1644847385727406
2025-07-22 14:49:10.068,-7.545989662229839e-05,2.407534449130009
2025-07-22 14:49:10.076,-8.069269257032142e-05,2.655986047170136
2025-07-22 14:49:10.084,-8.653267537255567e-05,2.906996833698658
2025-07-22 14:49:10.092,-9.300683474569667e-05,3.1574714465643168
2025-07-22 14:49:10.100,-0.0001001317977866,3.404112219531896
2025-07-22 14:49:10.107,-0.0001079086646916,3.643478739012375
2025-07-22 14:49:10.115,-0.0001163181733549,3.8720554977029535
2025-07-22 14:49:10.123,-0.0001253165686468,4.086325996521418
2025-07-22 14:49:10.131,-0.00013483254771,4.282851159508406
2025-07-22 14:49:10.139,-0.0001447656005897,4.458349549856064
2025-07-22 14:49:10.146,-0.0001549859586574,4.6097766509077855
2025-07-22 14:49:10.154,-0.0001653362142871,4.734400429995602
2025-07-22 14:49:10.162,-0.0001756345211288,4.829870539950559
2025-07-22 14:49:10.170,-0.0001856791754359,4.894278813949298
2025-07-22 14:49:10.178,-0.0001952543411274,4.926209133772993
2025-07-22 14:49:10.185,-0.0002041366924244,4.924775246601959
2025-07-22 14:49:10.193,-0.0002121027613573,4.889645617385876
2025-07-22 14:49:10.201,-0.0002189367614346,4.821054888469751
2025-07-22 14:49:10.209,-0.0002244386122519,4.719801946832846
2025-07-22 14:49:10.217,-0.000228431836096,4.587234959187609
2025-07-22 14:49:10.225,-0.0002307709638277,4.4252240261317946
2025-07-22 14:49:10.232,-0.0002313480856269,4.236122336854309
2025-07-22 14:49:10.240,-0.000230098214027,4.022716887695313
2025-07-22 14:49:10.248,-0.00022700319252,3.7881699728841536
2025-07-22 14:49:10.256,-0.0002220939725634,3.535952773904942
2025-07-22 14:49:10.264,-0.0002154511694066,3.269772474615229
2025-07-22 14:49:10.271,-0.0002072038706146,2.993494422890844
2025-07-22 14:49:10.279,-0.0001975267104998,2.711060956471654
2025-07-22 14:49:10.287,-0.0001866352609553,2.42640861673631
2025-07-22 14:49:10.295,-0.000174779848141,2.143385585447956
2025-07-22 14:49:10.303,-0.0001622379850397,1.86567128013749
2025-07-22 14:49:10.310,-0.0001493056881993,1.5967001097608116
2025-07-22 14:49:10.318,-0.0001362879989138,1.3395914002789766
2025-07-22 14:49:10.326,-0.0001234890458891,1.0970874348662163
2025-07-22 14:49:10.334,-0.0001112019765705,0.8715014108213315
2025-07-22 14:49:10.342,-9.969907148036366e-05,0.6646768970498055
2025-07-22 14:49:10.350,-8.922236353256596e-05,0.4779600870546094
2025-07-22 14:49:10.357,-7.997511170451306e-05,0.3121857902026009
2025-07-22 14:49:10.365,-7.211450106187224e-05,0.1676777014175692
2025-07-22 14:49:10.373,-6.574593406895879e-05,0.0442630543781162
2025-07-22 14:49:10.381,-6.091923191839969e-05,-0.0586986861870347
2025-07-22 14:49:10.389,-5.762698723997812e-05,-0.1422738892730947
2025-07-22 14:49:10.396,-5.580522289342328e-05,-0.2079008247793113
2025-07-22 14:49:10.404,-5.533642951278743e-05,-0.2573254222630934
2025-07-22 14:49:10.412,-5.605495649504806e-05,-0.2925288392899301
2025-07-22 14:49:10.420,-5.7754584253835256e-05,-0.3156493485249426
2025-07-22 14:49:10.428,-6.019792274158337e-05,-0.3289013726948171
2025-07-22 14:49:10.435,-6.312712582912427e-05,-0.334494710552368
2025-07-22 14:49:10.443,-6.627533109161064e-05,-0.3345570770004025
2025-07-22 14:49:10.451,-6.937821842192024e-05,-0.3310630094046858
2025-07-22 14:49:10.459,-7.218508594771008e-05,-0.3257719657021493
2025-07-22 14:49:10.467,-7.446884609693711e-05,-0.3201780685561435
2025-07-22 14:49:10.475,-7.603436934412635e-05,-0.3154734578002358
2025-07-22 14:49:10.482,-7.672469170410974e-05,-0.3125266355804414
2025-07-22 14:49:10.490,-7.642477481479892e-05,-0.3118765642315234
2025-07-22 14:49:10.498,-7.506273645177259e-05,-0.3137426416237369
2025-07-22 14:49:10.506,-7.260870186914731e-05,-0.3180500574615552
2025-07-22 14:49:10.514,-6.907162282549423e-05,-0.3244694391781318
2025-07-22 14:49:10.521,-6.449455447365534e-05,-0.3324691320935767
2025-07-22 14:49:10.529,-5.894896514644922e-05,-0.3413779310034321
2025-07-22 14:49:10.537,-5.252867883161713e-05,-0.350455603675923
2025-07-22 14:49:10.545,-4.5344015226779525e-05,-0.3589681441694206
2025-07-22 14:49:10.553,-3.7516600118689895e-05,-0.3662643912408064
2025-07-22 14:49:10.561,-2.9175175380192703e-05,-0.3718504652659238
2025-07-22 14:49:10.568,-2.045255888375573e-05,-0.3754584278478151
2025-07-22 14:49:10.576,-1.148371999194734e-05,-0.3771056548197701
2025-07-22 14:49:10.584,-2.4047775653134146e-06,-0.3771416338148853
2025-07-22 14:49:10.592,6.6473895590352815e-06,-0.3762792485834764
2025-07-22 14:49:10.600,1.5535300518349073e-05,-0.3756080901957284
2025-07-22 14:49:10.607,2.4121200166899665e-05,-0.376587936023792
2025-07-22 14:49:10.615,3.226792730545962e-05,-0.3810212541992016
2025-07-22 14:49:10.623,3.984061509688595e-05,-0.3910044109764017
2025-07-22 14:49:10.631,4.670938941419153e-05,-0.4088581587886577
2025-07-22 14:49:10.639,5.275306439667128e-05,-0.4370389329045777
2025-07-22 14:49:10.646,5.786364695434964e-05,-0.4780334481277553
2025-07-22 14:49:10.654,6.195129164948861e-05,-0.5342400238982075
2025-07-22 14:49:10.662,6.494924673990707e-05,-0.6078409317611815
2025-07-22 14:49:10.670,6.681833002662709e-05,-0.7006708028146039
2025-07-22 14:49:10.678,6.755054599693621e-05,-0.814086699996021
2025-07-22 14:49:10.686,6.717155629672618e-05,-0.9488457991729355
2025-07-22 14:49:10.693,6.574181031332099e-05,-1.104996693015287
2025-07-22 14:49:10.701,6.335621805859189e-05,-1.281790108961379
2025-07-22 14:49:10.709,6.014231047438016e-05,-1.4776143139903195
2025-07-22 14:49:10.717,5.625690477743525e-05,-1.6899596815503817
2025-07-22 14:49:10.725,5.188138477700159e-05,-1.9154158572776787
2025-07-22 14:49:10.732,4.721579509848175e-05,-2.1497037370217584
2025-07-22 14:49:10.740,4.247199775074232e-05,-2.387743133525967
2025-07-22 14:49:10.748,3.786614713937301e-05,-2.6237556273011218
2025-07-22 14:49:10.756,3.361074186726924e-05,-2.851400729460049
2025-07-22 14:49:10.764,2.990653178494055e-05,-3.063942167781561
2025-07-22 14:49:10.771,2.693458325715824e-05,-3.2544398678489834
2025-07-22 14:49:10.779,2.4848822098800144e-05,-3.415962061213656
2025-07-22 14:49:10.787,2.376939403548463e-05,-3.5418109368636888
2025-07-22 14:49:10.795,2.377721502548845e-05,-3.625754390959604
2025-07-22 14:49:10.803,2.4910103149324725e-05,-3.6622557617146687
2025-07-22 14:49:10.811,2.716084388331901e-05,-3.646693010295159
2025-07-22 14:49:10.818,3.0477418441053237e-05,-3.575558678672057
2025-07-22 14:49:10.826,3.476544603397011e-05,-3.446632169951953
2025-07-22 14:49:10.834,3.9892705767595066e-05,-3.25911648736575
2025-07-22 14:49:10.842,4.569545007145106e-05,-3.0137325425442856
2025-07-22 14:49:10.850,5.198611440848001e-05,-2.7127654850614147
2025-07-22 14:49:10.857,5.8561971491446415e-05,-2.3600591735554817
2025-07-22 14:49:10.865,6.521427137337373e-05,-1.9609568429150293
2025-07-22 14:49:10.873,7.17374408815144e-05,-1.5221881436565932
2025-07-22 14:49:10.881,7.793796371953761e-05,-1.051704949290775
2025-07-22 14:49:10.889,8.364260924711033e-05,-0.5584705478529804
2025-07-22 14:49:10.896,8.870573297839986e-05,-0.0522089479451349
2025-07-22 14:49:10.904,9.301544638867596e-05,0.456877078554171
2025-07-22 14:49:10.912,9.649852262646796e-05,0.9584090414775566
2025-07-22 14:49:10.920,9.912393061851676e-05,1.4421455751804713
2025-07-22 14:49:10.928,0.0001009048745491,1.89829318852154
2025-07-22 14:49:10.936,0.0001018991964593,2.3178029860808924
2025-07-22 14:49:10.943,0.0001022080098097,2.692641942876881
2025-07-22 14:49:10.951,0.0001019724837788,3.0160283710178346
2025-07-22 14:49:10.959,0.0001013687929387,3.282622754712301
2025-07-22 14:49:10.967,0.0001006013809101,3.488667066430303
2025-07-22 14:49:10.975,9.989484435280628e-05,3.632067905790811
2025-07-22 14:49:10.982,9.948488762810752e-05,3.712421203248349
2025-07-22 14:49:10.990,9.960887830233044e-05,3.730978677514039
2025-07-22 14:49:10.998,0.0001004965238715,3.690558608406917
2025-07-22 14:49:11.006,0.0001023611137923,3.5954056771119927
2025-07-22 14:49:11.014,0.0001053916745034,3.451006542010636
2025-07-22 14:49:11.021,0.0001097462942276,3.263869387820106
2025-07-22 14:49:11.029,0.0001155467814429,3.0412768555000493
2025-07-22 14:49:11.037,0.0001228747165987,2.7910224966117334
2025-07-22 14:49:11.045,0.0001317688642489,2.5211411867311124
2025-07-22 14:49:11.053,0.0001422238695621,2.239643787027765
2025-07-22 14:49:11.061,0.000154190170263,1.954265781632288
2025-07-22 14:49:11.068,0.0001675750822619,1.6722386660251474
2025-07-22 14:49:11.076,0.0001822450514346,1.4000915556706917
2025-07-22 14:49:11.084,0.0001980291048454,1.1434888862816162
2025-07-22 14:49:11.092,0.0002147235539401,0.9071082748268172
2025-07-22 14:49:11.100,0.0002320979611987,0.6945607066613025
2025-07-22 14:49:11.107,0.0002499022816095,0.5083533158298592
2025-07-22 14:49:11.115,0.0002678749689361,0.3498932349665252
2025-07-22 14:49:11.123,0.0002857517281128,0.2195293998081649
2025-07-22 14:49:11.131,0.0003032745135216,0.1166278753769916
2025-07-22 14:49:11.139,0.0003202003222534,0.0396752760849744
2025-07-22 14:49:11.146,0.0003363093131812,-0.013595798643003
2025-07-22 14:49:11.154,0.000351411797411,-0.0460657040353718
2025-07-22 14:49:11.162,0.0003653536932527,-0.0610774561076681
2025-07-22 14:49:11.170,0.0003780201182278,-0.0622833230405957
2025-07-22 14:49:11.178,0.0003893368999438,-0.0534939223537374
2025-07-22 14:49:11.186,0.0003992699241908,-0.0385347721632612
2025-07-22 14:49:11.193,0.0004078223988136,-0.0211144540692344
2025-07-22 14:49:11.201,0.0004150302897976,-0.0047076942547295
2025-07-22 14:49:11.209,0.0004209563651518,0.0075441840586477
2025-07-22 14:49:11.217,0.0004256834248269,0.0129137884849738
2025-07-22 14:49:11.225,0.0004293073515357,0.0091482363200301
2025-07-22 14:49:11.232,0.0004319305642058,-0.005490530078242
2025-07-22 14:49:11.240,0.0004336563186605,-0.0322054924300806
2025-07-22 14:49:11.248,0.0004345841304302,-0.0716637401739038
2025-07-22 14:49:11.256,0.0004348064317662,-0.1240140824240448
2025-07-22 14:49:11.264,0.0004344064366957,-0.1889217335179591
2025-07-22 14:49:11.271,0.0004334570811877,-0.2656183743725179
2025-07-22 14:49:11.279,0.0004320208340798,-0.3529655415453069
2025-07-22 14:49:11.287,0.0004301501408285,-0.4495289391037589
2025-07-22 14:49:11.295,0.0004278882674073,-0.5536609209896626
2025-07-22 14:49:11.303,0.0004252703536986,-0.6635880809179188
2025-07-22 14:49:11.311,0.0004223245529012,-0.7775006446057047
2025-07-22 14:49:11.318,0.0004190732002531,-0.893640214338392
2025-07-22 14:49:11.326,0.0004155339952565,-1.0103823918266386
2025-07-22 14:49:11.334,0.0004117211948594,-1.126310918517546
2025-07-22 14:49:11.342,0.0004076468212159,-1.240280231235839
2025-07-22 14:49:11.350,0.0004033218993197,-1.3514637339047375
2025-07-22 14:49:11.357,0.0003987577433772,-1.4593856228888822
2025-07-22 14:49:11.365,0.0003939672847704,-1.5639347572073123
2025-07-22 14:49:11.373,0.0003889663796919,-1.665359812483394
2025-07-22 14:49:11.381,0.0003837749757115,-1.764245766728368
2025-07-22 14:49:11.389,0.000378417978555,-1.8614725905023928
2025-07-22 14:49:11.396,0.0003729256543432,-1.9581577954772311
2025-07-22 14:49:11.404,0.0003673334302283,-2.0555851767070523
2025-07-22 14:49:11.412,0.0003616810166438,-2.155122623457292
2025-07-22 14:49:11.420,0.0003560108632411,-2.2581322525171523
2025-07-22 14:49:11.428,0.0003503660647521,-2.365876339146679
2025-07-22 14:49:11.436,0.0003447879255673,-2.4794226023067787
2025-07-22 14:49:11.443,0.0003393134445451,-2.599552369673361
2025-07-22 14:49:11.451,0.0003339729823444,-2.726675034406929
2025-07-22 14:49:11.459,0.0003287883218898,-2.8607520476789534
2025-07-22 14:49:11.467,0.0003237712298556,-3.001233488457939
2025-07-22 14:49:11.475,0.0003189224879758,-3.147010021923558
2025-07-22 14:49:11.482,0.0003142312279835,-3.296382791690695
2025-07-22 14:49:11.490,0.0003096743312124,-3.4470534679412963
2025-07-22 14:49:11.498,0.0003052156893417,-3.596136268846938
2025-07-22 14:49:11.506,0.0003008052562314,-3.740193267133605
2025-07-22 14:49:11.514,0.0002963779781163,-3.875293677735359
2025-07-22 14:49:11.521,0.000291852795577,-3.99709709510198
2025-07-22 14:49:11.529,0.0002871319495606,-4.100959815944059
2025-07-22 14:49:11.537,0.0002821008175586,-4.182062459432162
2025-07-22 14:49:11.545,0.0002766284642363,-4.235556107366872
2025-07-22 14:49:11.553,0.0002705690127136,-4.256723170497085
2025-07-22 14:49:11.561,0.0002637638551135,-4.241148198110992
2025-07-22 14:49:11.568,0.000256044670627,-4.184892952755113
2025-07-22 14:49:11.576,0.0002472372206212,-4.084669341349599
2025-07-22 14:49:11.584,0.0002371659069702,-3.938003294972473
2025-07-22 14:49:11.592,0.0002256590653299,-3.7433824798014994
2025-07-22 14:49:11.600,0.000212554902042,-3.500380844919683
2025-07-22 14:49:11.607,0.000197707884022,-3.2097534932273697
2025-07-22 14:49:11.615,0.0001809952904242,-2.8734962004215188
2025-07-22 14:49:11.623,0.000162323581462,-2.494865081462228
2025-07-22 14:49:11.631,0.0001416342526346,-2.078353371841215
2025-07-22 14:49:11.639,0.0001189088865935,-1.6296239942570423
2025-07-22 14:49:11.646,9.41731521944312e-05,-1.1553984478873474
2025-07-22 14:49:11.654,6.749953591393602e-05,-0.6633044987687264
2025-07-22 14:49:11.662,3.900863654069034e-05,-0.1616870584499685
2025-07-22 14:49:11.670,8.86889535813427e-06,0.3406116066437437
2025-07-22 14:49:11.678,-2.2705340073735597e-05,0.8344947094209063
2025-07-22 14:49:11.686,-5.545749432452791e-05,1.310868081871992
2025-07-22 14:49:11.693,-8.909421207041385e-05,1.7609022089774895
2025-07-22 14:49:11.701,-0.0001232925226073,2.1762895433770715
2025-07-22 14:49:11.709,-0.0001577085553002,2.5494877517081687
2025-07-22 14:49:11.717,-0.0001919875003106,2.873940233790792
2025-07-22 14:49:11.725,-0.0002257743572667,3.144266303616357
2025-07-22 14:49:11.732,-0.0002587248891513,3.3564147400807123
2025-07-22 14:49:11.740,-0.0002905161500349,3.5077759123642727
2025-07-22 14:49:11.748,-0.0003208560086052,3.597249271576044
2025-07-22 14:49:11.756,-0.0003494912210923,3.625264603362037
2025-07-22 14:49:11.764,-0.0003762137682099,3.593757000494745
2025-07-22 14:49:11.771,-0.0004008653245836,3.506097001493771
2025-07-22 14:49:11.779,-0.0004233398610649,3.366978726196361
2025-07-22 14:49:11.787,-0.0004435844865462,3.182270105133503
2025-07-22 14:49:11.795,-0.0004615987154025,2.958830428406968
2025-07-22 14:49:11.803,-0.0004774323996601,2.704301403472113
2025-07-22 14:49:11.811,-0.0004911825926062,2.426878671280976
2025-07-22 14:49:11.818,-0.0005029896149195,2.135071244834374
2025-07-22 14:49:11.826,-0.0005130325783672,1.837456569443873
2025-07-22 14:49:11.834,-0.000521524589157,1.5424388481991138
2025-07-22 14:49:11.842,-0.000528707807041,1.2580179521410468
2025-07-22 14:49:11.850,-0.0005348484814199,0.9915756958578908
2025-07-22 14:49:11.857,-0.0005402320262295,0.749685565359656
2025-07-22 14:49:11.865,-0.0005451581355048,0.5379511784257036
2025-07-22 14:49:11.873,-0.0005499358867766,0.360877858098696
2025-07-22 14:49:11.881,-0.0005548787431377,0.2217807128863148
2025-07-22 14:49:11.889,-0.0005602993706024,0.1227315397443055
2025-07-22 14:49:11.896,-0.0005665042489484,0.0645456919013322
2025-07-22 14:49:11.904,-0.0005737881470156,0.0468087823554767
2025-07-22 14:49:11.912,-0.000582428608629,0.0679417430048224
2025-07-22 14:49:11.920,-0.0005926806272406,0.1253013738555487
2025-07-22 14:49:11.928,-0.0006047716875025,0.2153121676778881
2025-07-22 14:49:11.936,-0.000618897340792,0.3336239690373851
2025-07-22 14:49:11.943,-0.0006352174684196,0.4752890091394412
2025-07-22 14:49:11.951,-0.000653853371715,0.6349511223280817
2025-07-22 14:49:11.959,-0.0006748858113503,0.8070395468429454
2025-07-22 14:49:11.967,-0.0006983540979321,0.985959665930563
