Timestamp,GSR_Filtered,PPG_Filtered,FMS,Condition
2025-07-22 14:55:44.217,0.0001784795950026,24.221789807966356,3.0,NB
2025-07-22 14:55:44.225,0.0001728144018941,23.728987120114947,3.0,NB
2025-07-22 14:55:44.233,0.0001685419454967,23.32293757739219,3.0,NB
2025-07-22 14:55:44.240,0.0001656277567894,22.990143480549776,3.0,NB
2025-07-22 14:55:44.248,0.0001639878156529,22.71281842182304,3.0,NB
2025-07-22 14:55:44.256,0.0001634938141029,22.46891241792545,3.0,NB
2025-07-22 14:55:44.264,0.0001639798754528,22.23230024036221,3.0,NB
2025-07-22 14:55:44.272,0.0001652503578323,21.9731464614455,3.0,NB
2025-07-22 14:55:44.280,0.0001670883501024,21.65845471936112,3.0,NB
2025-07-22 14:55:44.287,0.0001692644707956,21.25280175696352,3.0,NB
2025-07-22 14:55:44.295,0.0001715456051236,20.71924909066436,3.0,NB
2025-07-22 14:55:44.303,0.0001737032580956,20.02041695574164,3.0,NB
2025-07-22 14:55:44.311,0.0001755212516724,19.11969674466932,3.0,NB
2025-07-22 14:55:44.319,0.0001768025276572,17.982569843881034,3.0,NB
2025-07-22 14:55:44.326,0.000177374821871,16.577992953637768,3.0,NB
2025-07-22 14:55:44.334,0.0001770949725256,14.879803038336473,3.0,NB
2025-07-22 14:55:44.342,0.0001758516633988,12.8680894026105,3.0,NB
2025-07-22 14:55:44.350,0.000173566503166,10.53047641992666,3.0,NB
2025-07-22 14:55:44.358,0.0001701934907731,7.863258534406277,3.0,NB
2025-07-22 14:55:44.365,0.0001657170862714,4.872329656463708,3.0,NB
2025-07-22 14:55:44.373,0.0001601492711396,1.5738522637182235,3.0,NB
2025-07-22 14:55:44.381,0.0001535261029997,-2.005382401775584,3.0,NB
2025-07-22 14:55:44.389,0.0001459042981601,-5.827942610638822,3.0,NB
2025-07-22 14:55:44.397,0.0001373582891596,-9.846120577499718,3.0,NB
2025-07-22 14:55:44.405,0.0001279780307725,-14.00268630859527,3.0,NB
2025-07-22 14:55:44.412,0.000117867621699,-18.23202774704309,3.0,NB
2025-07-22 14:55:44.420,0.0001071446215632,-22.461656541687365,3.0,NB
2025-07-22 14:55:44.428,9.593981441565078e-05,-26.61404099814673,3.0,NB
2025-07-22 14:55:44.436,8.439712098495633e-05,-30.60871085629818,3.0,NB
2025-07-22 14:55:44.444,7.267337222810724e-05,-34.3645635547758,3.0,NB
2025-07-22 14:55:44.451,6.093768102946053e-05,-37.80228958835187,3.0,NB
2025-07-22 14:55:44.459,4.937016420995977e-05,-40.84682627094036,3.0,NB
2025-07-22 14:55:44.467,3.815978649522293e-05,-43.42974528261532,3.0,NB
2025-07-22 14:55:44.475,2.7501142921659885e-05,-45.49148011674957,3.0,NB
2025-07-22 14:55:44.483,1.759007510607981e-05,-46.983304958611534,3.0,NB
2025-07-22 14:55:44.490,8.618129111968568e-06,-47.86898631911267,3.0,NB
2025-07-22 14:55:44.498,7.660028788835631e-07,-48.12604233772981,3.0,NB
2025-07-22 14:55:44.506,-5.803715507794243e-06,-47.74656124823407,3.0,NB
2025-07-22 14:55:44.514,-1.09540796671798e-05,-46.7375490981313,3.0,NB
2025-07-22 14:55:44.522,-1.4581055607652771e-05,-45.12079637176115,3.0,NB
2025-07-22 14:55:44.530,-1.661996716006161e-05,-42.93227263058196,3.0,NB
2025-07-22 14:55:44.537,-1.7050580966427185e-05,-40.22107667058963,3.0,NB
2025-07-22 14:55:44.545,-1.590038664308705e-05,-37.04798616087,3.0,NB
2025-07-22 14:55:44.553,-1.3245768866265298e-05,-33.48366460010524,3.0,NB
2025-07-22 14:55:44.561,-9.210931648608596e-06,-29.606594236573457,3.0,NB
2025-07-22 14:55:44.569,-3.9645939879874655e-06,-25.500811069359077,3.0,NB
2025-07-22 14:55:44.576,2.2853833767902347e-06,-21.2535221066271,3.0,NB
2025-07-22 14:55:44.584,9.299163139650586e-06,-16.952685804192758,3.0,NB
2025-07-22 14:55:44.592,1.681352026775036e-05,-12.68463430253375,3.0,NB
2025-07-22 14:55:44.600,2.455142275450194e-05,-8.531811096739897,3.0,NB
2025-07-22 14:55:44.608,3.2232138007159485e-05,-4.570690553155124,3.0,NB
2025-07-22 14:55:44.615,3.958139349844463e-05,-0.8699366936275464,3.0,NB
2025-07-22 14:55:44.623,4.63411444360653e-05,2.5111516371021936,3.0,NB
2025-07-22 14:55:44.631,5.227855367529102e-05,5.523873282694548,3.0,NB
2025-07-22 14:55:44.639,5.719386678827894e-05,8.13101066081613,3.0,NB
2025-07-22 14:55:44.647,6.092695630650508e-05,10.307356424019927,3.0,NB
2025-07-22 14:55:44.655,6.336238873116074e-05,12.03987972603356,3.0,NB
2025-07-22 14:55:44.662,6.443291181557183e-05,13.327541771759604,3.0,NB
2025-07-22 14:55:44.670,6.412126978441947e-05,14.180780335337085,3.0,NB
2025-07-22 14:55:44.678,6.246026329217598e-05,14.620691872321595,3.0,NB
2025-07-22 14:55:44.686,5.953101520546315e-05,14.677947540122425,3.0,NB
2025-07-22 14:55:44.694,5.54594850781572e-05,14.39148571773254,3.0,NB
2025-07-22 14:55:44.701,5.041135960892176e-05,13.807028360765305,3.0,NB
2025-07-22 14:55:44.709,4.4585508157478215e-05,12.975471664635489,3.0,NB
2025-07-22 14:55:44.717,3.820624442479728e-05,11.951203011099912,3.0,NB
2025-07-22 14:55:44.725,3.1514690728295514e-05,10.790396065055448,3.0,NB
2025-07-22 14:55:44.733,2.475958494255067e-05,9.549334239295984,3.0,NB
2025-07-22 14:55:44.740,1.8187890524719592e-05,8.282809667544775,3.0,NB
2025-07-22 14:55:44.748,1.2035580421424608e-05,7.042640475181114,3.0,NB
2025-07-22 14:55:44.756,6.518976114681904e-06,5.876343706185335,3.0,NB
2025-07-22 14:55:44.764,1.827012353602532e-06,4.825994977107644,3.0,NB
2025-07-22 14:55:44.772,-1.8852659754437183e-06,3.927299024582462,3.0,NB
2025-07-22 14:55:44.780,-4.501775717646464e-06,3.2088880388869074,3.0,NB
2025-07-22 14:55:44.787,-5.948927224515856e-06,2.6918572787579897,3.0,NB
2025-07-22 14:55:44.795,-6.197542262714636e-06,2.389540182147578,3.0,NB
2025-07-22 14:55:44.803,-5.263099851686464e-06,2.307518249635468,3.0,NB
2025-07-22 14:55:44.811,-3.2043056822308216e-06,2.443854584565715,3.0,NB
2025-07-22 14:55:44.819,-1.2008050263598418e-07,2.789534298017911,3.0,NB
2025-07-22 14:55:44.826,3.854828018613835e-06,3.329090161523066,3.0,NB
2025-07-22 14:55:44.834,8.555320624845757e-06,4.0413880086535015,3.0,NB
2025-07-22 14:55:44.842,1.3792172538221857e-05,4.900543496329509,3.0,NB
2025-07-22 14:55:44.850,1.935866673706732e-05,5.876939938726606,3.0,NB
2025-07-22 14:55:44.858,2.503732337631195e-05,6.938315973969663,3.0,NB
2025-07-22 14:55:44.865,3.060648285029537e-05,8.050891725475696,3.0,NB
2025-07-22 14:55:44.873,3.5846592024343024e-05,9.180502752185344,3.0,NB
2025-07-22 14:55:44.881,4.054613237131833e-05,10.293712305600474,3.0,NB
2025-07-22 14:55:44.889,4.4507187618234567e-05,11.358874091331009,3.0,NB
2025-07-22 14:55:44.897,4.75506655732601e-05,12.347119756969835,3.0,NB
2025-07-22 14:55:44.905,4.952116421145696e-05,13.233247620156938,3.0,NB
2025-07-22 14:55:44.912,5.0291409456239446e-05,13.99649166758168,3.0,NB
2025-07-22 14:55:44.920,4.976611458210192e-05,14.621152573789118,3.0,NB
2025-07-22 14:55:44.928,4.788506874817053e-05,15.097075389340183,3.0,NB
2025-07-22 14:55:44.936,4.4625292242609785e-05,15.419961611441405,3.0,NB
2025-07-22 14:55:44.944,4.0002176387303805e-05,15.591506559362204,3.0,NB
2025-07-22 14:55:44.951,3.4069590430729456e-05,15.61935632473681,3.0,NB
2025-07-22 14:55:44.959,2.691894984890412e-05,15.516882061687657,3.0,NB
2025-07-22 14:55:44.967,1.867723599664589e-05,15.302773045415906,3.0,NB
2025-07-22 14:55:44.975,9.50399350212136e-06,15.00045378375621,3.0,NB
2025-07-22 14:55:44.983,-4.125902693483323e-07,14.63733452110814,3.0,NB
2025-07-22 14:55:44.990,-1.0860358032888076e-05,14.24390870351758,3.0,NB
2025-07-22 14:55:44.998,-2.1608441916264376e-05,13.852715315626805,3.0,NB
2025-07-22 14:55:45.006,-3.241299011849786e-05,13.497188360145715,3.0,NB
2025-07-22 14:55:45.014,-4.302328797368766e-05,13.210420011886765,3.0,NB
2025-07-22 14:55:45.022,-5.3188211085193744e-05,13.023868013292526,3.0,NB
2025-07-22 14:55:45.030,-6.266291215932276e-05,12.96604155174294,3.0,NB
2025-07-22 14:55:45.037,-7.12155711902282e-05,13.0612030273144,3.0,NB
2025-07-22 14:55:45.045,-7.863396587943292e-05,13.32812562967041,3.0,NB
2025-07-22 14:55:45.053,-8.473159411128081e-05,13.778948332176542,3.0,NB
2025-07-22 14:55:45.061,-8.935312712662201e-05,14.418170611946032,3.0,NB
2025-07-22 14:55:45.069,-9.237906687673166e-05,15.241828747170262,3.0,NB
2025-07-22 14:55:45.076,-9.37295756584265e-05,16.2368937671107,3.0,NB
2025-07-22 14:55:45.084,-9.33675055293566e-05,17.380927897264375,3.0,NB
2025-07-22 14:55:45.092,-9.13006668691164e-05,18.64203155214117,3.0,NB
2025-07-22 14:55:45.100,-8.758334084514352e-05,19.979106531567854,3.0,NB
2025-07-22 14:55:45.108,-8.231697218036952e-05,21.342453083064584,3.0,NB
2025-07-22 14:55:45.115,-7.564990360427687e-05,22.67470897505705,3.0,NB
2025-07-22 14:55:45.123,-6.777596072565159e-05,23.91212782439827,3.0,NB
2025-07-22 14:55:45.131,-5.893167933282787e-05,24.986181856342714,3.0,NB
2025-07-22 14:55:45.139,-4.939198868400428e-05,25.82546135450342,3.0,NB
2025-07-22 14:55:45.147,-3.946422504279371e-05,26.35782968590679,3.0,NB
2025-07-22 14:55:45.155,-2.9480440649662665e-05,26.512779458289696,3.0,NB
2025-07-22 14:55:45.162,-1.9788079403405737e-05,26.223922664077435,3.0,NB
2025-07-22 14:55:45.170,-1.073921698197325e-05,25.43153623878566,3.0,NB
2025-07-22 14:55:45.178,-2.6787303208789023e-06,24.08507500836986,3.0,NB
2025-07-22 14:55:45.186,4.068048132597513e-06,22.145557232000307,3.0,NB
2025-07-22 14:55:45.194,9.207497908651865e-06,19.587724548945367,3.0,NB
2025-07-22 14:55:45.201,1.2488993283923497e-05,16.40187871940913,3.0,NB
2025-07-22 14:55:45.209,1.3714707023348528e-05,12.595302582589747,3.0,NB
2025-07-22 14:55:45.217,1.2747508802196737e-05,8.193182415249801,3.0,NB
2025-07-22 14:55:45.225,9.51667521047368e-06,3.238963378529759,3.0,NB
2025-07-22 14:55:45.233,4.021209661463477e-06,-2.20591128861726,3.0,NB
2025-07-22 14:55:45.241,-3.669388707543523e-06,-8.062903822626664,3.0,NB
2025-07-22 14:55:45.248,-1.3417020569872156e-05,-14.237928892708435,3.0,NB
2025-07-22 14:55:45.256,-2.501957134963471e-05,-20.623516962833552,3.0,NB
2025-07-22 14:55:45.264,-3.821807118782183e-05,-27.10153897323992,3.0,NB
2025-07-22 14:55:45.272,-5.270613699059489e-05,-33.54641028369751,3.0,NB
2025-07-22 14:55:45.280,-6.814122366045195e-05,-39.82866754173198,3.0,NB
2025-07-22 14:55:45.287,-8.415708961860381e-05,-45.81879205136833,3.0,NB
2025-07-22 14:55:45.295,-0.0001003768638483,-51.39113861791555,3.0,NB
2025-07-22 14:55:45.303,-0.0001164261768729,-56.42782072232742,3.0,NB
2025-07-22 14:55:45.311,-0.0001319459153098,-60.82240183477308,3.0,NB
2025-07-22 14:55:45.319,-0.0001466042076464,-64.48324886542429,3.0,NB
2025-07-22 14:55:45.326,-0.0001601072439555,-67.3364168658377,3.0,NB
2025-07-22 14:55:45.334,-0.0001722085319051,-69.32795340388492,3.0,NB
2025-07-22 14:55:45.342,-0.0001827162404461,-70.42553544702831,3.0,NB
2025-07-22 14:55:45.350,-0.0001914983691121,-70.61937974215863,3.0,NB
2025-07-22 14:55:45.358,-0.0001984855692462,-69.92239804654095,3.0,NB
2025-07-22 14:55:45.366,-0.000203671522665,-68.36959955092914,3.0,NB
2025-07-22 14:55:45.373,-0.0002071108656549,-66.01677288824936,3.0,NB
2025-07-22 14:55:45.381,-0.000208914739325,-62.938507819313934,3.0,NB
2025-07-22 14:55:45.389,-0.0002092441502725,-59.2256408260992,3.0,NB
2025-07-22 14:55:45.397,-0.0002083014368867,-54.98222849189671,3.0,NB
2025-07-22 14:55:45.405,-0.0002063202448272,-50.32216707848456,3.0,NB
2025-07-22 14:55:45.412,-0.000203554493889,-45.36558580085428,3.0,NB
2025-07-22 14:55:45.420,-0.0002002668453263,-40.23514490936344,3.0,NB
2025-07-22 14:55:45.428,-0.0001967171542107,-35.05236802224981,3.0,NB
2025-07-22 14:55:45.436,-0.0001931513387279,-29.934131620645104,3.0,NB
2025-07-22 14:55:45.444,-0.000189791044526,-24.989423807205085,3.0,NB
2025-07-22 14:55:45.451,-0.0001868244393373,-20.316470052390866,3.0,NB
2025-07-22 14:55:45.459,-0.0001843984424983,-16.000306506072715,3.0,NB
2025-07-22 14:55:45.467,-0.0001826126761785,-12.110862367411055,3.0,NB
2025-07-22 14:55:45.475,-0.0001815154099842,-8.701592608497858,3.0,NB
2025-07-22 14:55:45.483,-0.000181101732939,-5.808681828671448,3.0,NB
2025-07-22 14:55:45.491,-0.0001813141037238,-3.4508199111461897,3.0,NB
2025-07-22 14:55:45.498,-0.0001820452948024,-1.6295311186452486,3.0,NB
2025-07-22 14:55:45.506,-0.0001831435717987,-0.3300208670180416,3.0,NB
2025-07-22 14:55:45.514,-0.0001844197737145,0.477510871901934,3.0,NB
2025-07-22 14:55:45.522,-0.0001856558329586,0.836153386873101,3.0,NB
2025-07-22 14:55:45.530,-0.0001866142229419,0.8002401428088348,3.0,NB
2025-07-22 14:55:45.537,-0.000187047824929,0.4330557540639168,3.0,NB
2025-07-22 14:55:45.545,-0.0001867097299183,-0.1956199819623981,3.0,NB
2025-07-22 14:55:45.553,-0.0001853625327284,-1.012044967063326,3.0,NB
2025-07-22 14:55:45.561,-0.0001827867571835,-1.941040474099625,3.0,NB
2025-07-22 14:55:45.569,-0.0001787881707661,-2.9084301079836403,3.0,NB
2025-07-22 14:55:45.576,-0.0001732038649487,-3.843319630399103,3.0,NB
2025-07-22 14:55:45.584,-0.0001659070676387,-4.680154382535707,3.0,NB
2025-07-22 14:55:45.592,-0.0001568107278926,-5.360501844523699,3.0,NB
2025-07-22 14:55:45.600,-0.0001458699806148,-5.834518827119763,3.0,NB
2025-07-22 14:55:45.608,-0.0001330836450295,-6.0620753836863255,3.0,NB
2025-07-22 14:55:45.616,-0.0001184949159943,-6.0135202476253085,3.0,NB
2025-07-22 14:55:45.623,-0.0001021913735269,-5.670084964488283,3.0,NB
2025-07-22 14:55:45.631,-8.430438602026951e-05,-5.023935473117806,3.0,NB
2025-07-22 14:55:45.639,-6.50079350515816e-05,-4.077890332864138,3.0,NB
2025-07-22 14:55:45.647,-4.4516836719374856e-05,-2.8448338026815336,3.0,NB
2025-07-22 14:55:45.655,-2.308426689945224e-05,-1.3468593440687844,3.0,NB
2025-07-22 14:55:45.662,-9.98442723053494e-07,0.3858152761233079,3.0,NB
2025-07-22 14:55:45.670,2.1421690593655253e-05,2.316116296232392,3.0,NB
2025-07-22 14:55:45.678,4.383186980563537e-05,4.401518627658619,3.0,NB
2025-07-22 14:55:45.686,6.586905881006954e-05,6.595539371167256,3.0,NB
2025-07-22 14:55:45.694,8.715911850871781e-05,8.849273653855557,3.0,NB
2025-07-22 14:55:45.701,0.000107325558733,11.11292845648215,3.0,NB
2025-07-22 14:55:45.709,0.0001259992836899,13.337313282713817,3.0,NB
2025-07-22 14:55:45.717,0.0001428291388571,15.475250458404632,3.0,NB
2025-07-22 14:55:45.725,0.0001574928892681,17.482872324511362,3.0,NB
2025-07-22 14:55:45.733,0.0001697080485231,19.32077740688612,3.0,NB
2025-07-22 14:55:45.741,0.0001792418222116,20.955022637898622,3.0,NB
2025-07-22 14:55:45.748,0.0001859194131317,22.35793371872359,3.0,NB
2025-07-22 14:55:45.756,0.0001896300846132,23.508720623048685,3.0,NB
2025-07-22 14:55:45.764,0.0001903306359429,24.393889962391366,3.0,NB
2025-07-22 14:55:45.772,0.0001880462127093,25.00745040718361,3.0,NB
2025-07-22 14:55:45.780,0.000182868591232,25.350911566245017,3.0,NB
2025-07-22 14:55:45.787,0.0001749522356423,25.43308067403136,3.0,NB
2025-07-22 14:55:45.795,0.0001645085377849,25.269665137812083,3.0,NB
2025-07-22 14:55:45.803,0.000151798700397,24.88269247592116,3.0,NB
2025-07-22 14:55:45.811,0.0001371257032257,24.29976244580736,3.0,NB
2025-07-22 14:55:45.819,0.0001208257266761,23.553149216463844,3.0,NB
2025-07-22 14:55:45.826,0.0001032593393724,22.67877427190967,3.0,NB
2025-07-22 14:55:45.834,8.480269946502235e-05,21.715073321074566,3.0,NB
2025-07-22 14:55:45.842,6.583896576024133e-05,20.701782812513688,3.0,NB
2025-07-22 14:55:45.850,4.675005926042089e-05,19.67867368766197,3.0,NB
2025-07-22 14:55:45.858,2.7908861695078235e-05,18.684261728314965,3.0,NB
2025-07-22 14:55:45.866,9.671887895304028e-06,17.7545252282552,3.0,NB
2025-07-22 14:55:45.873,-7.627564616234675e-06,16.921661701070487,3.0,NB
2025-07-22 14:55:45.881,-2.368577868274359e-05,16.21291587552593,3.0,NB
2025-07-22 14:55:45.889,-3.823442539639656e-05,15.649511272596294,3.0,NB
2025-07-22 14:55:45.897,-5.104566618637317e-05,15.245717149282823,3.0,NB
2025-07-22 14:55:45.905,-6.193633884780008e-05,15.008081477858148,3.0,NB
2025-07-22 14:55:45.912,-7.077100894947375e-05,14.93485884742868,3.0,NB
2025-07-22 14:55:45.920,-7.746370183831708e-05,15.015659663162388,3.0,NB
2025-07-22 14:55:45.928,-8.197819244005117e-05,15.231343701023878,3.0,NB
2025-07-22 14:55:45.936,-8.432682337941007e-05,15.554176866064235,3.0,NB
2025-07-22 14:55:45.944,-8.456793568733864e-05,15.948264815968448,3.0,NB
2025-07-22 14:55:45.951,-8.280209125700439e-05,16.370270887246303,3.0,NB
2025-07-22 14:55:45.959,-7.916731835711176e-05,16.770418483634305,3.0,NB
2025-07-22 14:55:45.967,-7.383363437148347e-05,17.09376980396578,3.0,NB
2025-07-22 14:55:45.975,-6.699710633899957e-05,17.28176362405463,3.0,NB
2025-07-22 14:55:45.983,-5.887368870000254e-05,17.273985007205912,3.0,NB
2025-07-22 14:55:45.991,-4.969302188620981e-05,17.010129583744202,3.0,NB
2025-07-22 14:55:45.998,-3.969231160341822e-05,16.432114771653925,3.0,NB
2025-07-22 14:55:46.006,-2.9110382983082535e-05,15.48628043965772,3.0,NB
2025-07-22 14:55:46.014,-1.8182031315372855e-05,14.125612534965,3.0,NB
2025-07-22 14:55:46.022,-7.132827649474293e-06,12.311915653140709,3.0,NB
2025-07-22 14:55:46.030,3.825476276416503e-06,10.017854986011772,3.0,NB
2025-07-22 14:55:46.037,1.4498870852579536e-05,7.228785111401757,3.0,NB
2025-07-22 14:55:46.045,2.4714347145952705e-05,3.9442832157924768,3.0,NB
2025-07-22 14:55:46.053,3.432253443998445e-05,0.1793080228093168,3.0,NB
2025-07-22 14:55:46.061,4.3199727571622624e-05,-4.035086731301971,3.0,NB
2025-07-22 14:55:46.069,5.12492458236596e-05,-8.651543827113047,3.0,NB
2025-07-22 14:55:46.076,5.840202962688602e-05,-13.60674308618991,3.0,NB
2025-07-22 14:55:46.084,6.461641906463848e-05,-18.82231572258579,3.0,NB
2025-07-22 14:55:46.092,6.98771329395314e-05,-24.20633525349849,3.0,NB
2025-07-22 14:55:46.100,7.419352025069705e-05,-29.65536358708633,3.0,NB
2025-07-22 14:55:46.108,7.759717831182572e-05,-35.0570059485535,3.0,NB
2025-07-22 14:55:46.116,8.013905625061793e-05,-40.29290385207433,3.0,NB
2025-07-22 14:55:46.123,8.188620897916371e-05,-45.24207281023904,3.0,NB
2025-07-22 14:55:46.131,8.291841303967987e-05,-49.78447230682222,3.0,NB
2025-07-22 14:55:46.139,8.332485726476188e-05,-53.804681012794745,3.0,NB
2025-07-22 14:55:46.147,8.320105596160619e-05,-57.195541314270095,3.0,NB
2025-07-22 14:55:46.155,8.264602636163775e-05,-59.86163461565438,3.0,NB
2025-07-22 14:55:46.162,8.17596756380934e-05,-61.7224528558693,3.0,NB
2025-07-22 14:55:46.170,8.064029104936232e-05,-62.71514209090558,3.0,NB
2025-07-22 14:55:46.178,7.938202379013639e-05,-62.796710317074975,3.0,NB
2025-07-22 14:55:46.186,7.807228227699421e-05,-61.94561305119922,3.0,NB
2025-07-22 14:55:46.194,7.678898044830788e-05,-60.162655380724594,3.0,NB
2025-07-22 14:55:46.201,7.559762035124097e-05,-57.47117688888378,3.0,NB
2025-07-22 14:55:46.209,7.454824588826498e-05,-53.916514593517576,3.0,NB
2025-07-22 14:55:46.217,7.367239540319919e-05,-49.564767365469145,3.0,NB
2025-07-22 14:55:46.225,7.298027855651472e-05,-44.50091186401632,3.0,NB
2025-07-22 14:55:46.233,7.245846151420595e-05,-38.82634366551943,3.0,NB
2025-07-22 14:55:46.241,7.206834672177243e-05,-32.65593701773185,3.0,NB
2025-07-22 14:55:46.248,7.174571313969992e-05,-26.114731838316484,3.0,NB
2025-07-22 14:55:46.256,7.140157580989991e-05,-19.334366781086462,3.0,NB
2025-07-22 14:55:46.264,7.092461495527903e-05,-12.44938228283122,3.0,NB
2025-07-22 14:55:46.272,7.018537011344566e-05,-5.593517603275959,3.0,NB
2025-07-22 14:55:46.280,6.904227418683787e-05,1.1038786692316216,3.0,NB
2025-07-22 14:55:46.287,6.734943096706148e-05,7.521213832604994,3.0,NB
2025-07-22 14:55:46.295,6.496584632247373e-05,13.54769333336568,3.0,NB
2025-07-22 14:55:46.303,6.17656359017978e-05,19.085956314942827,3.0,NB
2025-07-22 14:55:46.311,5.764858064366173e-05,24.05423762413566,3.0,NB
2025-07-22 14:55:46.319,5.255031429455007e-05,28.388007651860143,3.0,NB
2025-07-22 14:55:46.326,4.6451409998886e-05,32.04106013839989,3.0,NB
2025-07-22 14:55:46.334,3.9384664652450896e-05,34.98603671949532,3.0,NB
2025-07-22 14:55:46.342,3.14399472373324e-05,37.21439495140289,3.0,NB
2025-07-22 14:55:46.350,2.276609457822213e-05,38.73584334309803,3.0,NB
2025-07-22 14:55:46.358,1.356952194816084e-05,39.57728213757852,3.0,NB
2025-07-22 14:55:46.366,4.109460250343581e-06,39.78130188557735,3.0,NB
2025-07-22 14:55:46.373,-5.310001900214185e-06,39.40430296135023,3.0,NB
2025-07-22 14:55:46.381,-1.4350657584543151e-05,38.514307847550064,3.0,NB
2025-07-22 14:55:46.389,-2.2653116397454742e-05,37.18854408865647,3.0,NB
2025-07-22 14:55:46.397,-2.985123264396445e-05,35.510879181260314,3.0,NB
2025-07-22 14:55:46.405,-3.558725586453035e-05,33.56918932889014,3.0,NB
2025-07-22 14:55:46.412,-3.952692579437015e-05,31.45274202970099,3.0,NB
2025-07-22 14:55:46.420,-4.137380107542609e-05,29.249668067429884,3.0,NB
2025-07-22 14:55:46.428,-4.088222624025217e-05,27.044591898460634,3.0,NB
2025-07-22 14:55:46.436,-3.786845627364616e-05,24.916480996789737,3.0,NB
2025-07-22 14:55:46.444,-3.2219539307090154e-05,22.936764813927407,3.0,NB
2025-07-22 14:55:46.451,-2.3899605350929668e-05,21.167763049209825,3.0,NB
2025-07-22 14:55:46.459,-1.2953254740587902e-05,19.661451345196564,3.0,NB
2025-07-22 14:55:46.467,4.941684646045566e-07,18.45858076636548,3.0,NB
2025-07-22 14:55:46.475,1.623947249254297e-05,17.58815592102062,3.0,NB
2025-07-22 14:55:46.483,3.400753348416632e-05,17.067265748880406,3.0,NB
2025-07-22 14:55:46.491,5.345988262637875e-05,16.90125116695678,3.0,NB
2025-07-22 14:55:46.498,7.420546079165415e-05,17.084185215192946,3.0,NB
2025-07-22 14:55:46.506,9.5812937341346e-05,17.599634257046027,3.0,NB
2025-07-22 14:55:46.514,0.0001178239496072,18.421663269579582,3.0,NB
2025-07-22 14:55:46.522,0.0001397666379252,19.516044325064897,3.0,NB
2025-07-22 14:55:46.530,0.0001611689240036,20.841624978531907,3.0,NB
2025-07-22 14:55:46.537,0.0001815710943438,22.351812338758087,3.0,NB
2025-07-22 14:55:46.545,0.0002005373779376,23.996128977627595,3.0,NB
2025-07-22 14:55:46.553,0.0002176663195781,25.721798351415075,3.0,NB
2025-07-22 14:55:46.561,0.0002325998337137,27.47531986247727,3.0,NB
2025-07-22 14:55:46.569,0.0002450308771012,29.203996856687574,3.0,NB
2025-07-22 14:55:46.576,0.0002547097014976,30.857384507658544,3.0,NB
2025-07-22 14:55:46.584,0.0002614486498961,32.38862848464158,3.0,NB
2025-07-22 14:55:46.592,0.0002651254586452,33.7556693756017,3.0,NB
2025-07-22 14:55:46.600,0.0002656850262491,34.92229191395765,3.0,NB
2025-07-22 14:55:46.608,0.0002631395980748,35.85900203603958,3.0,NB
2025-07-22 14:55:46.616,0.0002575673000844,36.54371859623244,3.0,NB
2025-07-22 14:55:46.623,0.0002491089594563,36.96227013008717,3.0,NB
2025-07-22 14:55:46.631,0.000237963192017,37.10869035076919,3.0,NB
2025-07-22 14:55:46.639,0.0002243798048088,36.985309089930446,3.0,NB
2025-07-22 14:55:46.647,0.000208651636647,36.6026381816887,3.0,NB
2025-07-22 14:55:46.655,0.0001911050390959,35.97905439698696,3.0,NB
2025-07-22 14:55:46.662,0.0001720892963716,35.140284042104284,3.0,NB
2025-07-22 14:55:46.670,0.000151965384638,34.11869632505403,3.0,NB
2025-07-22 14:55:46.678,0.0001310945416899,32.95241515461421,3.0,NB
2025-07-22 14:55:46.686,0.0001098271351943,31.684261750625907,3.0,NB
2025-07-22 14:55:46.694,8.849230338677277e-05,30.360543377583245,3.0,NB
2025-07-22 14:55:46.701,6.73888319595601e-05,29.029706709970924,3.0,NB
2025-07-22 14:55:46.709,4.677772549723825e-05,27.74087781311175,3.0,NB
2025-07-22 14:55:46.717,2.6876895358947853e-05,26.542314461681517,3.0,NB
2025-07-22 14:55:46.725,7.858288073527782e-06,25.479800466740343,3.0,NB
2025-07-22 14:55:46.733,-1.0152378375816392e-05,24.59501574530493,3.0,NB
2025-07-22 14:55:46.741,-2.7073292952994623e-05,23.92391990023574,3.0,NB
2025-07-22 14:55:46.748,-4.2861862196685096e-05,23.49519088762125,3.0,NB
2025-07-22 14:55:46.756,-5.750805365654236e-05,23.32876369062817,3.0,NB
2025-07-22 14:55:46.764,-7.102633712428096e-05,23.434516512933868,3.0,NB
2025-07-22 14:55:46.772,-8.344692015501601e-05,23.81115355342448,3.0,NB
2025-07-22 14:55:46.780,-9.480704512979107e-05,24.44533363016956,3.0,NB
2025-07-22 14:55:46.787,-0.0001051431009142,25.31109250516701,3.0,NB
2025-07-22 14:55:46.795,-0.0001144841963936,26.369603470415317,3.0,NB
2025-07-22 14:55:46.803,-0.0001228476602693,27.56931538539863,3.0,NB
2025-07-22 14:55:46.811,-0.0001302367113749,28.84649977045694,3.0,NB
2025-07-22 14:55:46.819,-0.0001366403405003,30.126228716066954,3.0,NB
2025-07-22 14:55:46.826,-0.000142035288776,31.323793329367064,3.0,NB
2025-07-22 14:55:46.834,-0.0001463898837387,32.34655839150952,3.0,NB
2025-07-22 14:55:46.842,-0.0001496693727254,33.096233160172254,3.0,NB
2025-07-22 14:55:46.850,-0.0001518422788573,33.47152127953362,3.0,NB
2025-07-22 14:55:46.858,-0.0001528872363237,33.37109515539272,3.0,NB
2025-07-22 14:55:46.866,-0.0001527997631297,32.69682264573344,3.0,NB
2025-07-22 14:55:46.873,-0.0001515984788286,31.35715734148669,3.0,NB
2025-07-22 14:55:46.881,-0.0001493303271529,29.27058897174009,3.0,NB
2025-07-22 14:55:46.889,-0.0001460743970186,26.3690384899647,3.0,NB
2025-07-22 14:55:46.897,-0.0001419439714912,22.60107408590728,3.0,NB
2025-07-22 14:55:46.905,-0.000137086517228,17.93482054406975,3.0,NB
2025-07-22 14:55:46.912,-0.0001316814781048,12.360435712593633,3.0,NB
2025-07-22 14:55:46.920,-0.0001259359294658,5.892034821214072,3.0,NB
2025-07-22 14:55:46.928,-0.0001200783325698,-1.431043818461249,3.0,NB
2025-07-22 14:55:46.936,-0.00011435076439,-9.543719717784125,3.0,NB
2025-07-22 14:55:46.944,-0.0001090000707871,-18.355462018338223,3.0,NB
2025-07-22 14:55:46.951,-0.000104268399507,-27.751428396607363,3.0,NB
2025-07-22 14:55:46.959,-0.0001003835252636,-37.59445583151168,3.0,NB
2025-07-22 14:55:46.967,-9.754931692882425e-05,-47.72787456416941,3.0,NB
2025-07-22 14:55:46.975,-9.593666441192428e-05,-57.97908263307729,3.0,NB
2025-07-22 14:55:46.983,-9.567520363336002e-05,-68.16378551434919,3.0,NB
2025-07-22 14:55:46.991,-9.684622755720406e-05,-78.09077526104684,3.0,NB
2025-07-22 14:55:46.998,-9.947720069592204e-05,-87.56709767436172,3.0,NB
2025-07-22 14:55:47.006,-0.0001035382684601,-96.40343584897762,3.0,NB
2025-07-22 14:55:47.014,-0.0001089410604283,-104.41952506754316,3.0,NB
2025-07-22 14:55:47.022,-0.0001155399391636,-111.44940830783987,3.0,NB
2025-07-22 14:55:47.030,-0.0001231356794812,-117.34634402504408,3.0,NB
2025-07-22 14:55:47.037,-0.00013148142666,-121.98718841749228,3.0,NB
2025-07-22 14:55:47.045,-0.0001402907016913,-125.27609268435846,3.0,NB
2025-07-22 14:55:47.053,-0.0001492471754147,-127.14738102849608,3.0,NB
2025-07-22 14:55:47.061,-0.0001580158772802,-127.56750616731514,3.0,NB
2025-07-22 14:55:47.069,-0.0001662554179579,-126.53601441130168,3.0,NB
2025-07-22 14:55:47.076,-0.0001736307115152,-124.08549027048852,3.0,NB
2025-07-22 14:55:47.084,-0.000179825629342,-120.28048926597538,3.0,NB
2025-07-22 14:55:47.092,-0.0001845550292347,-115.21550536627176,3.0,NB
2025-07-22 14:55:47.100,-0.0001875756580124,-109.01205454246092,3.0,NB
2025-07-22 14:55:47.108,-0.0001886954879004,-101.81498683370008,3.0,NB
2025-07-22 14:55:47.116,-0.0001877811051649,-93.7881647935589,3.0,NB
2025-07-22 14:55:47.123,-0.0001847628369725,-85.10966533692299,3.0,NB
2025-07-22 14:55:47.131,-0.0001796373872584,-75.96667428298379,3.0,NB
2025-07-22 14:55:47.139,-0.0001724678540873,-66.5502481183763,3.0,NB
2025-07-22 14:55:47.147,-0.0001633811203768,-57.05011585251557,3.0,NB
2025-07-22 14:55:47.155,-0.0001525627454953,-47.64968576415831,3.0,NB
2025-07-22 14:55:47.162,-0.0001402496318313,-38.52140804482608,3.0,NB
2025-07-22 14:55:47.170,-0.0001267208855651,-29.82262572256145,3.0,NB
2025-07-22 14:55:47.178,-0.0001122873991936,-21.69202382942648,3.0,NB
2025-07-22 14:55:47.186,-9.728070758290427e-05,-14.246761672353037,3.0,NB
2025-07-22 14:55:47.194,-8.20415991468687e-05,-7.580346418143003,3.0,NB
2025-07-22 14:55:47.201,-6.690884900262393e-05,-1.7612791153940504,3.0,NB
2025-07-22 14:55:47.209,-5.220835381773857e-05,3.167522230229056,3.0,NB
2025-07-22 14:55:47.217,-3.824292500140008e-05,7.188542940457205,3.0,NB
2025-07-22 14:55:47.225,-2.5283017697679875e-05,10.308778528045844,3.0,NB
2025-07-22 14:55:47.233,-1.3558690937869684e-05,12.558191349087872,3.0,NB
2025-07-22 14:55:47.241,-3.253075206567857e-06,13.9875969798556,3.0,NB
2025-07-22 14:55:47.248,5.502442703912338e-06,14.666073405539908,3.0,NB
2025-07-22 14:55:47.256,1.2631210592590007e-05,14.67799550475063,3.0,NB
2025-07-22 14:55:47.264,1.8112475347251685e-05,14.119802902505535,3.0,NB
2025-07-22 14:55:47.272,2.198077969013994e-05,13.096611116142682,3.0,NB
2025-07-22 14:55:47.280,2.432365350305621e-05,11.718774217941524,3.0,NB
2025-07-22 14:55:47.287,2.5277654702680167e-05,10.098502271367416,3.0,NB
2025-07-22 14:55:47.295,2.50228557425152e-05,8.346628936418877,3.0,NB
2025-07-22 14:55:47.303,2.377596200677445e-05,6.569614321369927,3.0,NB
2025-07-22 14:55:47.311,2.178232926798164e-05,4.866855864096434,3.0,NB
2025-07-22 14:55:47.319,1.9307172165303437e-05,3.3283662583211737,3.0,NB
2025-07-22 14:55:47.326,1.6626229818411703e-05,2.032862708555784,3.0,NB
2025-07-22 14:55:47.334,1.401611140778253e-05,1.0462966146090054,3.0,NB
2025-07-22 14:55:47.342,1.1744517359100366e-05,0.4208376602728435,3.0,NB
2025-07-22 14:55:47.350,1.006054670379992e-05,0.1943116986170231,3.0,NB
2025-07-22 14:55:47.358,9.185359499473184e-06,0.3900782311159858,3.0,NB
2025-07-22 14:55:47.366,9.303538034456864e-06,1.0173210469964478,3.0,NB
2025-07-22 14:55:47.373,1.0555554015908072e-05,2.0717150250225864,3.0,NB
2025-07-22 14:55:47.381,1.3031779700737628e-05,3.536423430743846,3.0,NB
2025-07-22 14:55:47.389,1.6768452011545875e-05,5.383373427259172,3.0,NB
2025-07-22 14:55:47.397,2.174589648058499e-05,7.574753049499557,3.0,NB
2025-07-22 14:55:47.405,2.788916873758601e-05,10.064670595773404,3.0,NB
2025-07-22 14:55:47.412,3.507112267926285e-05,12.800917219227786,3.0,NB
2025-07-22 14:55:47.420,4.311779262590384e-05,15.726775333566284,3.0,NB
2025-07-22 14:55:47.428,5.18158743054732e-05,18.78281908288717,3.0,NB
2025-07-22 14:55:47.436,6.092199512384134e-05,21.90865829707879,3.0,NB
2025-07-22 14:55:47.444,7.017339087691742e-05,25.044583740160352,3.0,NB
2025-07-22 14:55:47.451,7.929956793378583e-05,28.13307869917975,3.0,NB
2025-07-22 14:55:47.459,8.803450430098462e-05,31.120169672717505,3.0,NB
2025-07-22 14:55:47.467,9.612889414478512e-05,33.95659671622122,3.0,NB
2025-07-22 14:55:47.475,0.0001033618713732,36.59879152724872,3.0,NB
2025-07-22 14:55:47.483,0.0001095515972944,39.00965829560377,3.0,NB
2025-07-22 14:55:47.491,0.0001145640986459,41.15915844723843,3.0,NB
2025-07-22 14:55:47.498,0.0001183198079024,43.02470548245421,3.0,NB
2025-07-22 14:55:47.506,0.000120797386761,44.59138001714292,3.0,NB
2025-07-22 14:55:47.514,0.0001220345916948,45.85197781857271,3.0,NB
2025-07-22 14:55:47.522,0.000122126131952,46.806905096538514,3.0,NB
2025-07-22 14:55:47.530,0.0001212186346696,47.46393565209174,3.0,NB
2025-07-22 14:55:47.537,0.0001195029634345,47.83784385268623,3.0,NB
2025-07-22 14:55:47.545,0.0001172042688366,47.94992600489485,3.0,NB
2025-07-22 14:55:47.553,0.000114570300599,47.82742078810738,3.0,NB
2025-07-22 14:55:47.561,0.0001118586524306,47.50283727666957,3.0,NB
2025-07-22 14:55:47.569,0.0001093236948902,47.01319700479317,3.0,NB
2025-07-22 14:55:47.576,0.0001072039450891,46.39919479946733,3.0,NB
2025-07-22 14:55:47.584,0.0001057105240043,45.70428197559741,3.0,NB
2025-07-22 14:55:47.592,0.000105017198735,44.97367516553199,3.0,NB
2025-07-22 14:55:47.600,0.0001052523506165,44.25329469385416,3.0,NB
2025-07-22 14:55:47.608,0.0001064930881785,43.588638087106695,3.0,NB
2025-07-22 14:55:47.616,0.0001087616493867,43.02359702490153,3.0,NB
2025-07-22 14:55:47.623,0.0001120242017042,42.59922970670874,3.0,NB
2025-07-22 14:55:47.631,0.0001161921179746,42.3525050579992,3.0,NB
2025-07-22 14:55:47.639,0.0001211257343857,42.31504018646947,3.0,NB
2025-07-22 14:55:47.647,0.0001266404615464,42.51185772067697,3.0,NB
2025-07-22 14:55:47.655,0.0001325149468722,42.96019477864125,3.0,NB
2025-07-22 14:55:47.662,0.0001385008262463,43.668399966410014,3.0,NB
2025-07-22 14:55:47.670,0.0001443334923932,44.63495864017217,3.0,NB
2025-07-22 14:55:47.678,0.0001497432608957,45.84768933336448,3.0,NB
2025-07-22 14:55:47.686,0.0001544663348941,47.283155423066056,3.0,NB
2025-07-22 14:55:47.694,0.0001582550534251,48.90633548937733,3.0,NB
2025-07-22 14:55:47.701,0.0001608870415715,50.67059315882631,3.0,NB
2025-07-22 14:55:47.709,0.0001621730260024,52.51798234068909,3.0,NB
2025-07-22 14:55:47.717,0.0001619631869361,54.37991657612303,3.0,NB
2025-07-22 14:55:47.725,0.0001601519615416,56.178221741288674,3.0,NB
2025-07-22 14:55:47.733,0.0001566812170849,57.82657971080237,3.0,NB
2025-07-22 14:55:47.741,0.0001515417221287,59.23235705842656,3.0,NB
2025-07-22 14:55:47.748,0.000144772893435,60.29879784386526,3.0,NB
2025-07-22 14:55:47.756,0.0001364608852359,60.92754353567388,3.0,NB
2025-07-22 14:55:47.764,0.0001267351841107,61.02142679827492,3.0,NB
2025-07-22 14:55:47.772,0.0001157639297686,60.48746997411241,3.0,NB
2025-07-22 14:55:47.780,0.000103748176724,59.24000444085549,3.0,NB
2025-07-22 14:55:47.787,9.091526911231748e-05,57.20381447177884,3.0,NB
2025-07-22 14:55:47.795,7.751146969132728e-05,54.31719961018248,3.0,NB
2025-07-22 14:55:47.803,6.379399805710357e-05,50.53484364628912,3.0,NB
2025-07-22 14:55:47.811,5.002269294208399e-05,45.83037668715127,3.0,NB
2025-07-22 14:55:47.819,3.645158686601984e-05,40.19851998391641,3.0,NB
2025-07-22 14:55:47.826,2.3320720542439083e-05,33.65671134518468,3.0,NB
2025-07-22 14:55:47.834,1.0848505244353886e-05,26.2461220759644,3.0,NB
2025-07-22 14:55:47.842,-7.751128301416554e-07,18.031994116590177,3.0,NB
2025-07-22 14:55:47.850,-1.1394475769803496e-05,9.103247823152117,3.0,NB
2025-07-22 14:55:47.858,-2.0892825411637486e-05,-0.42866420151504,3.0,NB
2025-07-22 14:55:47.866,-2.919550418897752e-05,-10.431654676946682,3.0,NB
2025-07-22 14:55:47.873,-3.6271581693462094e-05,-20.75561991772516,3.0,NB
2025-07-22 14:55:47.881,-4.213383627310134e-05,-31.235720195600248,3.0,NB
2025-07-22 14:55:47.889,-4.683714723483617e-05,-41.69623712313052,3.0,NB
2025-07-22 14:55:47.897,-5.047546417790384e-05,-51.95489916356055,3.0,NB
2025-07-22 14:55:47.905,-5.317758072270825e-05,-61.827546205665605,3.0,NB
2025-07-22 14:55:47.912,-5.510194015091767e-05,-71.13298850496375,3.0,NB
2025-07-22 14:55:47.920,-5.643065172480258e-05,-79.6979048594978,3.0,NB
2025-07-22 14:55:47.928,-5.736283470821956e-05,-87.36162013098658,3.0,NB
2025-07-22 14:55:47.936,-5.810738168220721e-05,-93.98060340117658,3.0,NB
2025-07-22 14:55:47.944,-5.887526853854358e-05,-99.4325352095061,3.0,NB
2025-07-22 14:55:47.951,-5.987161228129705e-05,-103.619805262371,3.0,NB
2025-07-22 14:55:47.959,-6.12877416920503e-05,-106.47232031027592,3.0,NB
2025-07-22 14:55:47.967,-6.329356697721998e-05,-107.94952489814536,3.0,NB
2025-07-22 14:55:47.975,-6.603051195096958e-05,-108.04156453477654,3.0,NB
2025-07-22 14:55:47.983,-6.960523764843265e-05,-106.76955045273708,3.0,NB
2025-07-22 14:55:47.991,-7.40843842196039e-05,-104.18491636319162,3.0,NB
2025-07-22 14:55:47.998,-7.949060076495417e-05,-100.36788919507984,3.0,NB
2025-07-22 14:55:48.006,-8.580017374124562e-05,-95.42512646487992,3.0,NB
2025-07-22 14:55:48.014,-9.294254218680598e-05,-89.4866014110341,3.0,NB
2025-07-22 14:55:48.022,-0.0001008018918428,-82.70184220989259,3.0,NB
2025-07-22 14:55:48.030,-0.0001092208864858,-75.23565249597192,3.0,NB
2025-07-22 14:55:48.037,-0.0001180064496758,-67.26345627752106,3.0,NB
2025-07-22 14:55:48.045,-0.0001269373560105,-58.96642064935157,3.0,NB
2025-07-22 14:55:48.053,-0.0001357732437005,-50.52651419482435,3.0,NB
2025-07-22 14:55:48.061,-0.000144264560074,-42.12165762936533,3.0,NB
2025-07-22 14:55:48.069,-0.0001521629225799,-33.92111630276297,3.0,NB
2025-07-22 14:55:48.076,-0.0001592313978143,-26.081272099181746,3.0,NB
2025-07-22 14:55:48.084,-0.00016525422531,-18.741895691451194,3.0,NB
2025-07-22 14:55:48.092,-0.0001700455196328,-12.023019808201203,3.0,NB
2025-07-22 14:55:48.100,-0.0001734564955252,-6.022491055673782,3.0,NB
2025-07-22 14:55:48.108,-0.0001753808212748,-0.8142528641085568,3.0,NB
2025-07-22 14:55:48.116,-0.0001757578373573,3.552613709059007,3.0,NB
2025-07-22 14:55:48.123,-0.0001745735549278,7.054090314904792,3.0,NB
2025-07-22 14:55:48.131,-0.000171859521817,9.690686479453444,3.0,NB
2025-07-22 14:55:48.139,-0.0001676897755409,11.48621612437903,3.0,NB
2025-07-22 14:55:48.147,-0.0001621761810995,12.485952219372756,3.0,NB
2025-07-22 14:55:48.155,-0.0001554624835417,12.754243444194229,3.0,NB
2025-07-22 14:55:48.162,-0.0001477174136048,12.371690254734531,3.0,NB
2025-07-22 14:55:48.170,-0.0001391271855713,11.431987390459524,3.0,NB
2025-07-22 14:55:48.178,-0.0001298877101991,10.038545480843691,3.0,NB
2025-07-22 14:55:48.186,-0.0001201968013025,8.301005995429703,3.0,NB
2025-07-22 14:55:48.194,-0.0001102466079428,6.331761461888567,3.0,NB
2025-07-22 14:55:48.201,-0.0001002164936844,4.242586904117108,3.0,NB
2025-07-22 14:55:48.209,-9.026660927904586e-05,2.1414792027571723,3.0,NB
2025-07-22 14:55:48.217,-8.053242893174844e-05,0.1297890339790777,3.0,NB
2025-07-22 14:55:48.225,-7.11205110479033e-05,-1.700284235107548,3.0,NB
2025-07-22 14:55:48.233,-6.210569227344506e-05,-3.267780197384219,3.0,NB
2025-07-22 14:55:48.241,-5.352983826490486e-05,-4.50460992943078,3.0,NB
2025-07-22 14:55:48.248,-4.540218120206319e-05,-5.356712812351345,3.0,NB
2025-07-22 14:55:48.256,-3.770119800259138e-05,-5.78473380247103,3.0,NB
2025-07-22 14:55:48.264,-3.0377926385349823e-05,-5.764233070080036,3.0,NB
2025-07-22 14:55:48.272,-2.336055831745079e-05,-5.285454203722028,3.0,NB
2025-07-22 14:55:48.280,-1.656008013571025e-05,-4.352689532811219,3.0,NB
2025-07-22 14:55:48.287,-9.87666054092136e-06,-2.9832912141078625,3.0,NB
2025-07-22 14:55:48.295,-3.20644634685819e-06,-1.2063843313110452,3.0,NB
2025-07-22 14:55:48.303,3.5515778967562046e-06,0.9386567373950656,3.0,NB
2025-07-22 14:55:48.311,1.048897833530534e-05,3.4039050166067466,3.0,NB
2025-07-22 14:55:48.319,1.768176367489892e-05,6.134687098343911,3.0,NB
2025-07-22 14:55:48.327,2.518498769228865e-05,9.07143752258004,3.0,NB
2025-07-22 14:55:48.334,3.302826708318133e-05,12.151544456782515,3.0,NB
2025-07-22 14:55:48.342,4.121245222622537e-05,15.311135728051552,3.0,NB
2025-07-22 14:55:48.350,4.970769610762288e-05,18.48676146818132,3.0,NB
2025-07-22 14:55:48.358,5.845310394709561e-05,21.616937650006577,3.0,NB
2025-07-22 14:55:48.366,6.735802737787826e-05,24.64352319540973,3.0,NB
2025-07-22 14:55:48.373,7.630493977468264e-05,27.51291171389391,3.0,NB
2025-07-22 14:55:48.381,8.515372824189688e-05,30.177026917091585,3.0,NB
2025-07-22 14:55:48.389,9.374716740366246e-05,32.594118034137885,3.0,NB
2025-07-22 14:55:48.397,0.0001019172828277,34.72935787658471,3.0,NB
2025-07-22 14:55:48.405,0.0001094922546111,36.55525139671067,3.0,NB
2025-07-22 14:55:48.412,0.0001163034675999,38.05186655859002,3.0,NB
2025-07-22 14:55:48.420,0.0001221923002264,39.20690208413639,3.0,NB
2025-07-22 14:55:48.428,0.0001270162485181,40.01560819798497,3.0,NB
2025-07-22 14:55:48.436,0.0001306540011178,40.480576972911656,3.0,NB
2025-07-22 14:55:48.444,0.0001330091512038,40.61141840141786,3.0,NB
2025-07-22 14:55:48.452,0.0001340123766587,40.42433704840504,3.0,NB
2025-07-22 14:55:48.459,0.0001336220992436,39.94162226505684,3.0,NB
2025-07-22 14:55:48.467,0.0001318237831399,39.191062685679945,3.0,NB
2025-07-22 14:55:48.475,0.0001286281311713,38.20529332983482,3.0,NB
2025-07-22 14:55:48.483,0.0001240684927517,37.02108134143842,3.0,NB
2025-07-22 14:55:48.491,0.0001181978172645,35.67855445266694,3.0,NB
2025-07-22 14:55:48.498,0.000111085472676,34.220374869731415,3.0,NB
2025-07-22 14:55:48.506,0.0001028142054002,32.69086059831368,3.0,NB
2025-07-22 14:55:48.514,9.347744675450264e-05,31.135056360843656,3.0,NB
2025-07-22 14:55:48.522,8.317708741688606e-05,29.597757252864422,3.0,NB
2025-07-22 14:55:48.530,7.202177107955765e-05,28.122490138725947,3.0,NB
2025-07-22 14:55:48.537,6.01257185150528e-05,26.75046044791201,3.0,NB
2025-07-22 14:55:48.545,4.7608072730722834e-05,25.51947540266157,3.0,NB
2025-07-22 14:55:48.553,3.459273333887049e-05,24.462858632840263,3.0,NB
2025-07-22 14:55:48.561,2.120861527814793e-05,23.608375414321117,3.0,NB
2025-07-22 14:55:48.569,7.590225232026476e-06,22.977192163111766,3.0,NB
2025-07-22 14:55:48.577,-6.121599558212963e-06,22.58289806264453,3.0,NB
2025-07-22 14:55:48.584,-1.9778988973855357e-05,22.43062051219052,3.0,NB
2025-07-22 14:55:48.592,-3.322658690376184e-05,22.516269167953958,3.0,NB
2025-07-22 14:55:48.600,-4.6301531979990207e-05,22.8259454131968,3.0,NB
2025-07-22 14:55:48.608,-5.8834008912346135e-05,23.33555485821601,3.0,NB
2025-07-22 14:55:48.616,-7.064847531227354e-05,24.010659675536367,3.0,NB
2025-07-22 14:55:48.623,-8.156565585419332e-05,24.806604996755024,3.0,NB
2025-07-22 14:55:48.631,-9.140536611383362e-05,25.668949065788038,3.0,NB
2025-07-22 14:55:48.639,-9.999016092034702e-05,26.53422026604156,3.0,NB
2025-07-22 14:55:48.647,-0.0001071497140542,27.33101552216965,3.0,NB
2025-07-22 14:55:48.655,-0.0001127257542177,27.981444040722565,3.0,NB
2025-07-22 14:55:48.662,-0.0001165773264624,28.40290813772406,3.0,NB
2025-07-22 14:55:48.670,-0.0001185861363275,28.510199360765323,3.0,NB
2025-07-22 14:55:48.678,-0.0001186617592215,28.21787371292692,3.0,NB
2025-07-22 14:55:48.686,-0.0001167465230232,27.442855089136422,3.0,NB
2025-07-22 14:55:48.694,-0.0001128198752707,26.10720169227676,3.0,NB
2025-07-22 14:55:48.702,-0.0001069020423246,24.14095692590432,3.0,NB
2025-07-22 14:55:48.709,-9.905679165611544e-05,21.48499482846633,3.0,NB
2025-07-22 14:55:48.717,-8.939311703804849e-05,18.093761298018045,3.0,NB
2025-07-22 14:55:48.725,-7.806568181543699e-05,13.937806897883098,3.0,NB
2025-07-22 14:55:48.733,-6.52738841990259e-05,9.006005577881018,3.0,NB
2025-07-22 14:55:48.741,-5.12594388866382e-05,3.3073566798264364,3.0,NB
2025-07-22 14:55:48.748,-3.630238941703299e-05,-3.127724606257347,3.0,NB
2025-07-22 14:55:48.756,-2.071549974408864e-05,-10.246710586178333,3.0,NB
2025-07-22 14:55:48.764,-4.83705814556854e-06,-17.974923338735053,3.0,NB
2025-07-22 14:55:48.772,1.097774127474853e-05,-26.216199921724943,3.0,NB
2025-07-22 14:55:48.780,2.636653389521979e-05,-34.85428010806473,3.0,NB
2025-07-22 14:55:48.787,4.097021771556072e-05,-43.75490957059335,3.0,NB
2025-07-22 14:55:48.795,5.4443593956445456e-05,-52.7686235892734,3.0,NB
2025-07-22 14:55:48.803,6.646569950324357e-05,-61.73414857274988,3.0,NB
2025-07-22 14:55:48.811,7.674933775923069e-05,-70.48233223093902,3.0,NB
2025-07-22 14:55:48.819,8.504938407641224e-05,-78.84048934497902,3.0,NB
2025-07-22 14:55:48.827,9.116955601151098e-05,-86.63702990775724,3.0,NB
2025-07-22 14:55:48.834,9.496748325513089e-05,-93.70622096468274,3.0,NB
2025-07-22 14:55:48.842,9.635805132341316e-05,-99.89292359748036,3.0,NB
2025-07-22 14:55:48.850,9.531507862450132e-05,-105.05714276431088,3.0,NB
2025-07-22 14:55:48.858,9.187139505176768e-05,-109.07823047478476,3.0,NB
2025-07-22 14:55:48.866,8.611734723213556e-05,-111.8585920848398,3.0,NB
2025-07-22 14:55:48.873,7.819771124956782e-05,-113.3267610862431,3.0,NB
2025-07-22 14:55:48.881,6.830698540990514e-05,-113.43972907670778,3.0,NB
2025-07-22 14:55:48.889,5.668307816312434e-05,-112.18444377586222,3.0,NB
2025-07-22 14:55:48.897,4.359950092714003e-05,-109.57841788590804,3.0,NB
2025-07-22 14:55:48.905,2.9356309940862277e-05,-105.66942396628106,3.0,NB
2025-07-22 14:55:48.912,1.427018014022357e-05,-100.53428385643473,3.0,NB
2025-07-22 14:55:48.920,-1.3359113974609207e-06,-94.27679406049,3.0,NB
2025-07-22 14:55:48.928,-1.714288937824676e-05,-87.02485947011637,3.0,NB
2025-07-22 14:55:48.936,-3.2845190645211845e-05,-78.92693553811876,3.0,NB
2025-07-22 14:55:48.944,-4.815933404368036e-05,-70.14790239922002,3.0,NB
2025-07-22 14:55:48.952,-6.283104728196608e-05,-60.86451257356735,3.0,NB
2025-07-22 14:55:48.959,-7.664063578408636e-05,-51.26056615975462,3.0,NB
2025-07-22 14:55:48.967,-8.940642765790989e-05,-41.52197349735903,3.0,NB
2025-07-22 14:55:48.975,-0.0001009863122221,-31.83186511782308,3.0,NB
2025-07-22 14:55:48.983,-0.0001112775558157,-22.36590264851932,3.0,NB
2025-07-22 14:55:48.991,-0.0001202151904807,-13.287932682218589,3.0,NB
2025-07-22 14:55:48.998,-0.0001277693145557,-4.746109184972441,3.0,NB
2025-07-22 14:55:49.006,-0.0001339416193,3.1304103302590987,3.0,NB
2025-07-22 14:55:49.014,-0.0001387613764579,10.23411290020508,3.0,NB
2025-07-22 14:55:49.022,-0.0001422810254375,16.4810656516456,3.0,NB
2025-07-22 14:55:49.030,-0.0001445714363252,21.81210791523442,3.0,NB
2025-07-22 14:55:49.037,-0.000145716922959,26.19329478784869,3.0,NB
2025-07-22 14:55:49.045,-0.0001458101189897,29.615611593587825,3.0,NB
2025-07-22 14:55:49.053,-0.0001449468732186,32.09400125209823,3.0,NB
2025-07-22 14:55:49.061,-0.0001432213565207,33.665766405378136,3.0,NB
2025-07-22 14:55:49.069,-0.0001407216041092,34.388424746640005,3.0,NB
2025-07-22 14:55:49.077,-0.0001375257286879,34.33710897396786,3.0,NB
2025-07-22 14:55:49.084,-0.0001336990095129,33.60161195810841,3.0,NB
2025-07-22 14:55:49.092,-0.0001292919927761,32.28318301861851,3.0,NB
2025-07-22 14:55:49.100,-0.0001243396557477,30.49118273194932,3.0,NB
2025-07-22 14:55:49.108,-0.0001188616152673,28.339701656100143,3.0,NB
2025-07-22 14:55:49.116,-0.0001128633130319,25.94424306208945,3.0,NB
2025-07-22 14:55:49.123,-0.0001063380794097,23.41856161384596,3.0,NB
2025-07-22 14:55:49.131,-9.926994262015366e-05,20.8717394045646,3.0,NB
2025-07-22 14:55:49.139,-9.163699940807488e-05,18.40556835355549,3.0,NB
2025-07-22 14:55:49.147,-8.341511189914429e-05,16.112294229893156,3.0,NB
2025-07-22 14:55:49.155,-7.458166810169442e-05,14.07276303891718,3.0,NB
2025-07-22 14:55:49.162,-6.511915168542709e-05,12.354995717570633,3.0,NB
2025-07-22 14:55:49.170,-5.501831034984734e-05,11.013202544858562,3.0,NB
2025-07-22 14:55:49.178,-4.4280790186701854e-05,10.087234851933854,3.0,NB
2025-07-22 14:55:49.186,-3.292120382319068e-05,9.602458916135282,3.0,NB
2025-07-22 14:55:49.194,-2.0968695253166697e-05,9.570025671304055,3.0,NB
2025-07-22 14:55:49.202,-8.468128418145307e-06,9.987500311067896,3.0,NB
2025-07-22 14:55:49.209,4.518951723510024e-06,10.839808177893744,3.0,NB
2025-07-22 14:55:49.217,1.791345948596337e-05,12.100447626397806,3.0,NB
2025-07-22 14:55:49.225,3.161794930620554e-05,13.732916866824848,3.0,NB
2025-07-22 14:55:49.233,4.551587977559137e-05,15.692300110429963,3.0,NB
2025-07-22 14:55:49.241,5.94711290627178e-05,17.926958562842806,3.0,NB
2025-07-22 14:55:49.248,7.332803983861598e-05,20.380273785396508,3.0,NB
2025-07-22 14:55:49.256,8.6912315781513e-05,22.992394440519192,3.0,NB
2025-07-22 14:55:49.264,0.0001000330448603,25.701942170959484,3.0,NB
2025-07-22 14:55:49.272,0.0001124860110414,28.44763801304648,3.0,NB
2025-07-22 14:55:49.280,0.0001240583237661,31.16981697867145,3.0,NB
2025-07-22 14:55:49.287,0.0001345342711241,33.811804935182074,3.0,NB
2025-07-22 14:55:49.295,0.0001437021829754,36.32113836574952,3.0,NB
2025-07-22 14:55:49.303,0.000151361967703,38.65061373750898,3.0,NB
2025-07-22 14:55:49.311,0.0001573328870707,40.75915881798405,3.0,NB
2025-07-22 14:55:49.319,0.0001614610981519,42.61252319202838,3.0,NB
2025-07-22 14:55:49.327,0.0001636265235823,44.18378932676504,3.0,NB
2025-07-22 14:55:49.334,0.0001637486840389,45.45370875055183,3.0,NB
2025-07-22 14:55:49.342,0.0001617912290895,46.41087025117073,3.0,NB
2025-07-22 14:55:49.350,0.0001577650341593,47.05170851424812,3.0,NB
2025-07-22 14:55:49.358,0.0001517298554128,47.38036242099621,3.0,NB
2025-07-22 14:55:49.366,0.0001437945916225,47.40839244225413,3.0,NB
2025-07-22 14:55:49.373,0.0001341161815986,47.1543663569891,3.0,NB
2025-07-22 14:55:49.381,0.0001228971278072,46.6433220489346,3.0,NB
2025-07-22 14:55:49.389,0.0001103816505021,45.906115559320895,3.0,NB
2025-07-22 14:55:49.397,9.685054555728972e-05,44.978662059388,3.0,NB
2025-07-22 14:55:49.405,8.261488587904065e-05,43.90107710704329,3.0,NB
2025-07-22 14:55:49.412,6.800872632474498e-05,42.71672560431925,3.0,NB
2025-07-22 14:55:49.420,5.338095944866592e-05,41.47118639006092,3.0,NB
2025-07-22 14:55:49.428,3.908646836265199e-05,40.21114147111759,3.0,NB
2025-07-22 14:55:49.436,2.547675744071805e-05,38.983200567146135,3.0,NB
2025-07-22 14:55:49.444,1.2890299495301006e-05,37.83267393212188,3.0,NB
2025-07-22 14:55:49.452,1.642894663905623e-06,36.80230928805006,3.0,NB
2025-07-22 14:55:49.459,-7.981620566454188e-06,35.931012079205004,3.0,NB
2025-07-22 14:55:49.467,-1.5739948322345828e-05,35.25257198762764,3.0,NB
2025-07-22 14:55:49.475,-2.1436814516240512e-05,34.79442254658393,3.0,NB
2025-07-22 14:55:49.483,-2.493100559666864e-05,34.57646450602149,3.0,NB
2025-07-22 14:55:49.491,-2.6139644366787872e-05,34.60998706940313,3.0,NB
2025-07-22 14:55:49.498,-2.504048306358621e-05,34.89672394731204,3.0,NB
2025-07-22 14:55:49.506,-2.1672118213462014e-05,35.428083071452875,3.0,NB
2025-07-22 14:55:49.514,-1.6132154340160607e-05,36.18458950091063,3.0,NB
2025-07-22 14:55:49.522,-8.573437921733031e-06,37.13558026436869,3.0,NB
2025-07-22 14:55:49.530,8.014385080318547e-07,38.23918738500282,3.0,NB
2025-07-22 14:55:49.537,1.1747088215663994e-05,39.44264095286096,3.0,NB
2025-07-22 14:55:49.545,2.3983407748828517e-05,40.682917738853085,3.0,NB
2025-07-22 14:55:49.553,3.72044218765124e-05,41.88775246033012,3.0,NB
2025-07-22 14:55:49.561,5.108752609564144e-05,42.97701847186461,3.0,NB
2025-07-22 14:55:49.569,6.530274846801671e-05,43.86447252743776,3.0,NB
2025-07-22 14:55:49.577,7.952166769725552e-05,44.45984462158535,3.0,NB
2025-07-22 14:55:49.584,9.342569563481022e-05,44.67123918078416,3.0,NB
2025-07-22 14:55:49.592,0.0001067135468131,44.407798593274286,3.0,NB
2025-07-22 14:55:49.600,0.0001191078121015,43.5825649103445,3.0,NB
2025-07-22 14:55:49.608,0.0001303605809308,42.11546129533549,3.0,NB
2025-07-22 14:55:49.616,0.0001402580294079,39.93630226528149,3.0,NB
2025-07-22 14:55:49.623,0.000148623856053,36.98773179959694,3.0,NB
2025-07-22 14:55:49.631,0.0001553214381259,33.22798176932926,3.0,NB
2025-07-22 14:55:49.639,0.0001602546129021,28.63334055583603,3.0,NB
2025-07-22 14:55:49.647,0.0001633670604415,23.200223712204817,3.0,NB
2025-07-22 14:55:49.655,0.0001646403667843,16.946745405878932,3.0,NB
2025-07-22 14:55:49.662,0.0001640909544846,9.913701253218882,3.0,NB
2025-07-22 14:55:49.670,0.0001617661544726,2.164889825323354,3.0,NB
2025-07-22 14:55:49.678,0.0001577397483815,-6.213278908064483,3.0,NB
2025-07-22 14:55:49.686,0.0001521073318941,-15.112915370283895,3.0,NB
2025-07-22 14:55:49.694,0.0001449818285707,-24.406522425368607,3.0,NB
2025-07-22 14:55:49.702,0.0001364894110975,-33.949579110552,3.0,NB
2025-07-22 14:55:49.709,0.0001267659785353,-43.58377872627291,3.0,NB
2025-07-22 14:55:49.717,0.000115954243307,-53.14083635697323,3.0,NB
2025-07-22 14:55:49.725,0.0001042014489053,-62.44675575906276,3.0,NB
2025-07-22 14:55:49.733,9.165776259529147e-05,-71.32642410295293,3.0,NB
2025-07-22 14:55:49.741,7.847540789338199e-05,-79.60838637872375,3.0,NB
2025-07-22 14:55:49.748,6.48085734704888e-05,-87.1296402585099,3.0,NB
2025-07-22 14:55:49.756,5.0814063016872656e-05,-93.740287498086,3.0,NB
2025-07-22 14:55:49.764,3.665255869111308e-05,-99.30787991821111,3.0,NB
2025-07-22 14:55:49.772,2.249027251335137e-05,-103.72130668305512,3.0,NB
2025-07-22 14:55:49.780,8.50067074111575e-06,-106.89408470686256,3.0,NB
2025-07-22 14:55:49.787,-5.134097825786212e-06,-108.7669349606099,3.0,NB
2025-07-22 14:55:49.795,-1.8222442356482413e-05,-109.3095533078646,3.0,NB
2025-07-22 14:55:49.803,-3.0563578136180793e-05,-108.52151411273888,3.0,NB
2025-07-22 14:55:49.811,-4.194907197288991e-05,-106.43227688336964,3.0,NB
2025-07-22 14:55:49.819,-5.216591180372076e-05,-103.10029917806688,3.0,NB
2025-07-22 14:55:49.827,-6.100123082946143e-05,-98.61129141649415,3.0,NB
2025-07-22 14:55:49.834,-6.824866854831037e-05,-93.07567967693994,3.0,NB
2025-07-22 14:55:49.842,-7.37161592517205e-05,-86.62536974480373,3.0,NB
2025-07-22 14:55:49.850,-7.723474159200395e-05,-79.40992854772489,3.0,NB
2025-07-22 14:55:49.858,-7.866783457814601e-05,-71.59231687157066,3.0,NB
2025-07-22 14:55:49.866,-7.792035535900005e-05,-63.34431937845767,3.0,NB
2025-07-22 14:55:49.873,-7.494704544119125e-05,-54.8418241998176,3.0,NB
2025-07-22 14:55:49.881,-6.975939102542675e-05,-46.26010477975612,3.0,NB
2025-07-22 14:55:49.889,-6.243056178254745e-05,-37.76925147389658,3.0,NB
2025-07-22 14:55:49.897,-5.309786490553507e-05,-29.52989016391967,3.0,NB
2025-07-22 14:55:49.905,-4.196232609833711e-05,-21.689310500234743,3.0,NB
2025-07-22 14:55:49.912,-2.9285165203211555e-05,-14.37810813200358,3.0,NB
2025-07-22 14:55:49.920,-1.538112885201447e-05,-7.707424301332012,3.0,NB
2025-07-22 14:55:49.928,-6.088620041078524e-07,-1.7668433798044785,3.0,NB
2025-07-22 14:55:49.936,1.4641285111318372e-05,3.3770147779035984,3.0,NB
2025-07-22 14:55:49.944,2.99614364217505e-05,7.681194519934488,3.0,NB
2025-07-22 14:55:49.952,4.4941643118115086e-05,11.126405923496373,3.0,NB
2025-07-22 14:55:49.959,5.918581546433875e-05,13.716359388694594,3.0,NB
2025-07-22 14:55:49.967,7.232731017808505e-05,15.47648380804665,3.0,NB
2025-07-22 14:55:49.975,8.404337684080614e-05,16.452095445703222,3.0,NB
2025-07-22 14:55:49.983,9.406774575419748e-05,16.706098250183096,3.0,NB
2025-07-22 14:55:49.991,0.0001022007591965,16.316306624529044,3.0,NB
2025-07-22 14:55:49.998,0.0001083165840891,15.372488552770482,3.0,NB
2025-07-22 14:55:50.006,0.0001123671790731,13.973230403165248,3.0,NB
2025-07-22 14:55:50.014,0.0001143828318805,12.22272476921598,3.0,NB
2025-07-22 14:55:50.022,0.0001144692459186,10.227579539206596,3.0,NB
2025-07-22 14:55:50.030,0.0001128013222182,8.093740268561046,3.0,NB
2025-07-22 14:55:50.037,0.0001096139366137,5.923609216893019,3.0,NB
2025-07-22 14:55:50.045,0.0001051901625962,3.81343352635024,3.0,NB
2025-07-22 14:55:50.053,9.984753816354802e-05,1.851022441473008,3.0,NB
2025-07-22 14:55:50.061,9.392307972199962e-05,0.1138397266923533,3.0,NB
2025-07-22 14:55:50.069,8.775777162893614e-05,-1.3324969298242832,3.0,NB
2025-07-22 14:55:50.077,8.168122155506567e-05,-2.4352921869208237,3.0,NB
2025-07-22 14:55:50.084,7.599711423454723e-05,-3.1554216767927925,3.0,NB
2025-07-22 14:55:50.092,7.097004468406875e-05,-3.4675627987747144,3.0,NB
2025-07-22 14:55:50.100,6.681425690100981e-05,-3.360029340894988,3.0,NB
2025-07-22 14:55:50.108,6.368473545793013e-05,-2.8342418351715497,3.0,NB
2025-07-22 14:55:50.116,6.167099524252629e-05,-1.9038739543593235,3.0,NB
2025-07-22 14:55:50.123,6.07938038845267e-05,-0.5937216642687119,3.0,NB
2025-07-22 14:55:50.131,6.10049541600848e-05,1.061653798544139,3.0,NB
2025-07-22 14:55:50.139,6.219006723678373e-05,3.019455714330596,3.0,NB
2025-07-22 14:55:50.147,6.41742481400771e-05,5.230300589858302,3.0,NB
2025-07-22 14:55:50.155,6.673024720837194e-05,7.639933247127411,3.0,NB
2025-07-22 14:55:50.162,6.958864046193832e-05,10.190958558463466,3.0,NB
2025-07-22 14:55:50.170,7.244947487101096e-05,12.824544155088208,3.0,NB
2025-07-22 14:55:50.178,7.49948468124738e-05,15.48205345943916,3.0,NB
2025-07-22 14:55:50.186,7.69019456934596e-05,18.10657408113675,3.0,NB
2025-07-22 14:55:50.194,7.785613780862292e-05,20.64431267769644,3.0,NB
2025-07-22 14:55:50.202,7.756367610747074e-05,23.045833535726043,3.0,NB
2025-07-22 14:55:50.209,7.576362374791789e-05,25.267124128318176,3.0,NB
2025-07-22 14:55:50.217,7.223858339349325e-05,27.270476538759382,3.0,NB
2025-07-22 14:55:50.225,6.682382951446673e-05,29.02517873894993,3.0,NB
2025-07-22 14:55:50.233,5.941447162400792e-05,30.50801414866719,3.0,NB
2025-07-22 14:55:50.241,4.99703673686486e-05,31.703571609616557,3.0,NB
2025-07-22 14:55:50.248,3.851864473641918e-05,32.604370875538855,3.0,NB
2025-07-22 14:55:50.256,2.515382094274136e-05,33.2108109886507,3.0,NB
2025-07-22 14:55:50.264,1.0035575675811682e-05,33.5309505646166,3.0,NB
2025-07-22 14:55:50.272,-6.615738542069704e-06,33.58013014809296,3.0,NB
2025-07-22 14:55:50.280,-2.4525740335551405e-05,33.38044754594327,3.0,NB
2025-07-22 14:55:50.287,-4.337465016596258e-05,32.96009751959447,3.0,NB
2025-07-22 14:55:50.295,-6.280764752000964e-05,32.35258755095508,3.0,NB
2025-07-22 14:55:50.303,-8.244659903601319e-05,31.595841720193583,3.0,NB
2025-07-22 14:55:50.311,-0.000101902741583,30.73120517750804,3.0,NB
2025-07-22 14:55:50.319,-0.0001207898814623,29.802362370145584,3.0,NB
2025-07-22 14:55:50.327,-0.0001387376499356,28.854183192660045,3.0,NB
2025-07-22 14:55:50.334,-0.0001554043140046,27.93151262704037,3.0,NB
2025-07-22 14:55:50.342,-0.0001704885963793,27.07792126290933,3.0,NB
2025-07-22 14:55:50.350,-0.000183739935376,26.3344363323776,3.0,NB
2025-07-22 14:55:50.358,-0.000194966634488,25.738275508246293,3.0,NB
2025-07-22 14:55:50.366,-0.0002040414383908,25.321608587547097,3.0,NB
2025-07-22 14:55:50.373,-0.0002109042395027,25.11037513723224,3.0,NB
2025-07-22 14:55:50.381,-0.0002155618390924,25.123188976271013,3.0,NB
2025-07-22 14:55:50.389,-0.0002180849086158,25.37036272737957,3.0,NB
2025-07-22 14:55:50.397,-0.000218602482837,25.853087293748768,3.0,NB
2025-07-22 14:55:50.405,-0.0002172944512492,26.562801712093265,3.0,NB
2025-07-22 14:55:50.412,-0.0002143825948564,27.480788147560062,3.0,NB
2025-07-22 14:55:50.420,-0.0002101207414632,28.57802462480626,3.0,NB
2025-07-22 14:55:50.428,-0.0002047845875882,29.81532428974996,3.0,NB
2025-07-22 14:55:50.436,-0.0001986616719775,31.14378448871456,3.0,NB
2025-07-22 14:55:50.444,-0.0001920419098567,32.50556172357213,3.0,NB
2025-07-22 14:55:50.452,-0.0001852090257926,33.834979653597955,3.0,NB
2025-07-22 14:55:50.459,-0.0001784331388339,35.059966909078774,3.0,NB
2025-07-22 14:55:50.467,-0.0001719646260305,36.103809791790894,3.0,NB
2025-07-22 14:55:50.475,-0.0001660292342819,36.88719229572413,3.0,NB
2025-07-22 14:55:50.483,-0.0001608242901437,37.330482718305866,3.0,NB
2025-07-22 14:55:50.491,-0.0001565158208457,37.3562129660701,3.0,NB
2025-07-22 14:55:50.498,-0.0001532364351,36.89168408075415,3.0,NB
2025-07-22 14:55:50.506,-0.0001510838732338,35.87162017153606,3.0,NB
2025-07-22 14:55:50.514,-0.0001501201869554,34.24078352211816,3.0,NB
2025-07-22 14:55:50.522,-0.0001503715353075,31.95645683671971,3.0,NB
2025-07-22 14:55:50.530,-0.000151828583016,28.99069504883869,3.0,NB
2025-07-22 14:55:50.537,-0.0001544474691602,25.332249412583145,3.0,NB
2025-07-22 14:55:50.545,-0.0001581513002501,20.98807117212622,3.0,NB
2025-07-22 14:55:50.553,-0.0001628321345297,15.984311221398354,3.0,NB
2025-07-22 14:55:50.561,-0.0001683534620316,10.366745847970115,3.0,NB
2025-07-22 14:55:50.569,-0.0001745532222258,4.200576652911216,3.0,NB
2025-07-22 14:55:50.577,-0.0001812474127902,-2.430425482173122,3.0,NB
2025-07-22 14:55:50.584,-0.0001882343195043,-9.425437756306955,3.0,NB
2025-07-22 14:55:50.592,-0.0001952993467519,-16.6687428382828,3.0,NB
2025-07-22 14:55:50.600,-0.0002022203746009,-24.032477637851425,3.0,NB
2025-07-22 14:55:50.608,-0.0002087735362196,-31.37989818729328,3.0,NB
2025-07-22 14:55:50.616,-0.0002147392993764,-38.56906090015168,3.0,NB
2025-07-22 14:55:50.623,-0.0002199087254284,-45.45679957436089,3.0,NB
2025-07-22 14:55:50.631,-0.0002240897479177,-51.90286141572545,3.0,NB
2025-07-22 14:55:50.639,-0.000227113262255,-57.77405507300798,3.0,NB
2025-07-22 14:55:50.647,-0.0002288387717643,-62.948259869945495,3.0,NB
2025-07-22 14:55:50.655,-0.000229159319122,-67.31814838623431,3.0,NB
2025-07-22 14:55:50.662,-0.0002280054478254,-70.7944841750542,3.0,NB
2025-07-22 14:55:50.670,-0.0002253479655626,-73.30887222275845,3.0,NB
2025-07-22 14:55:50.678,-0.0002211993079267,-74.81586093318708,3.0,NB
2025-07-22 14:55:50.686,-0.0002156133408095,-75.29431985787426,3.0,NB
2025-07-22 14:55:50.694,-0.000208683514755,-74.7480458003822,3.0,NB
2025-07-22 14:55:50.702,-0.0002005393938848,-73.20557989273462,3.0,NB
2025-07-22 14:55:50.709,-0.0001913417009703,-70.71924834862645,3.0,NB
2025-07-22 14:55:50.717,-0.0001812761236039,-67.36346848035953,3.0,NB
2025-07-22 14:55:50.725,-0.0001705462024748,-63.232387996375245,3.0,NB
2025-07-22 14:55:50.733,-0.0001593656687004,-58.436948531765374,3.0,NB
2025-07-22 14:55:50.741,-0.000147950612737,-53.10148298615793,3.0,NB
2025-07-22 14:55:50.748,-0.0001365118531508,-47.35996997803441,3.0,NB
2025-07-22 14:55:50.756,-0.0001252478308444,-41.35207725221722,3.0,NB
2025-07-22 14:55:50.764,-0.0001143382869252,-35.219129128197295,3.0,NB
2025-07-22 14:55:50.772,-0.0001039389027426,-29.100131211383086,3.0,NB
2025-07-22 14:55:50.780,-9.417701433563548e-05,-23.127978965163205,3.0,NB
2025-07-22 14:55:50.787,-8.514848543800578e-05,-17.425965877758202,3.0,NB
2025-07-22 14:55:50.795,-7.691583195606757e-05,-12.104692497866736,3.0,NB
2025-07-22 14:55:50.803,-6.95077025999454e-05,-7.259460289644078,3.0,NB
2025-07-22 14:55:50.811,-6.291978957775834e-05,-2.968214855413277,3.0,NB
2025-07-22 14:55:50.819,-5.711714710984555e-05,0.709917604857161,3.0,NB
2025-07-22 14:55:50.827,-5.203775755434328e-05,3.7354778984612937,3.0,NB
2025-07-22 14:55:50.834,-4.759705639091949e-05,6.088903726608478,3.0,NB
2025-07-22 14:55:50.842,-4.36930445142492e-05,7.770160051120907,3.0,NB
2025-07-22 14:55:50.850,-4.021159117829665e-05,8.797806582941872,3.0,NB
2025-07-22 14:55:50.858,-3.703156526839229e-05,9.207555425092062,3.0,NB
2025-07-22 14:55:50.866,-3.4029514662533926e-05,9.050385817160766,3.0,NB
2025-07-22 14:55:50.873,-3.108371533364827e-05,8.390294038849909,3.0,NB
2025-07-22 14:55:50.881,-2.807750668853625e-05,7.301764609962089,3.0,NB
2025-07-22 14:55:50.889,-2.49019040745835e-05,5.867053849578172,3.0,NB
2025-07-22 14:55:50.897,-2.145752914554964e-05,4.173378605466336,3.0,NB
2025-07-22 14:55:50.905,-1.7655922316094964e-05,2.310101613005648,3.0,NB
2025-07-22 14:55:50.912,-1.3420300051993756e-05,0.3660006630277106,3.0,NB
2025-07-22 14:55:50.920,-8.685803619703776e-06,-1.57329819271834,3.0,NB
2025-07-22 14:55:50.928,-3.399279166090139e-06,-3.427652459872864,3.0,NB
2025-07-22 14:55:50.936,2.4813447083277427e-06,-5.124440336693315,3.0,NB
2025-07-22 14:55:50.944,8.987958377041607e-06,-6.600256173521784,3.0,NB
2025-07-22 14:55:50.952,1.6143272205912756e-05,-7.802230949275631,3.0,NB
2025-07-22 14:55:50.959,2.3961718998296884e-05,-8.68895857290667,3.0,NB
2025-07-22 14:55:50.967,3.2450079894095865e-05,-9.231022820764936,3.0,NB
2025-07-22 14:55:50.975,4.1607681085050313e-05,-9.411133097829982,3.0,NB
2025-07-22 14:55:50.983,5.142602315359184e-05,-9.22388949711664,3.0,NB
2025-07-22 14:55:50.991,6.188774326922254e-05,-8.675208428725018,3.0,NB
2025-07-22 14:55:50.998,7.296490687862977e-05,-7.781449083115007,3.0,NB
2025-07-22 14:55:51.006,8.461675963021271e-05,-6.568287966488615,3.0,NB
2025-07-22 14:55:51.014,9.678719267819528e-05,-5.069393589973541,3.0,NB
2025-07-22 14:55:51.022,0.0001094022492264,-3.324956099669003,3.0,NB
2025-07-22 14:55:51.030,0.0001223680125048,-1.380127279741574,3.0,NB
2025-07-22 14:55:51.037,0.0001355691724824,0.7165749036356348,3.0,NB
2025-07-22 14:55:51.045,0.0001488684959919,2.9148460140200165,3.0,NB
2025-07-22 14:55:51.053,0.0001621073475048,5.164112319597661,3.0,NB
2025-07-22 14:55:51.061,0.0001751073376422,7.414944217130427,3.0,NB
2025-07-22 14:55:51.069,0.0001876731172888,9.620331149470555,3.0,NB
2025-07-22 14:55:51.077,0.0001995962885995,11.736790319326175,3.0,NB
2025-07-22 14:55:51.084,0.0002106603715272,13.72528889317706,3.0,NB
2025-07-22 14:55:51.092,0.0002206467450585,15.55196686299721,3.0,NB
2025-07-22 14:55:51.100,0.0002293414653177,17.188655056426736,3.0,NB
2025-07-22 14:55:51.108,0.0002365428179231,18.613189745199406,3.0,NB
2025-07-22 14:55:51.116,0.0002420693573987,19.809531705746032,3.0,NB
2025-07-22 14:55:51.123,0.0002457680365548,20.767703264674715,3.0,NB
2025-07-22 14:55:51.131,0.0002475219070895,21.483561667746702,3.0,NB
2025-07-22 14:55:51.139,0.0002472568439173,21.95843092711489,3.0,NB
2025-07-22 14:55:51.147,0.0002449468014304,22.19861705180664,3.0,NB
2025-07-22 14:55:51.155,0.0002406172029065,22.21483322103161,3.0,NB
2025-07-22 14:55:51.162,0.0002343461837043,22.02156203460699,3.0,NB
2025-07-22 14:55:51.170,0.0002262635756277,21.636381526214407,3.0,NB
2025-07-22 14:55:51.178,0.0002165477189049,21.079280245988848,3.0,NB
2025-07-22 14:55:51.186,0.0002054203562954,20.371984530453677,3.0,NB
2025-07-22 14:55:51.194,0.0001931399532867,19.537318218413667,3.0,NB
2025-07-22 14:55:51.202,0.0001799938113789,18.59861168608419,3.0,NB
2025-07-22 14:55:51.209,0.0001662893418002,17.579173312742356,3.0,NB
2025-07-22 14:55:51.217,0.0001523448694027,16.50183250659124,3.0,NB
2025-07-22 14:55:51.225,0.0001384803326667,15.388559385724896,3.0,NB
2025-07-22 14:55:51.233,0.0001250082239204,14.260162292226132,3.0,NB
2025-07-22 14:55:51.241,0.0001122250869381,13.136060684887402,3.0,NB
2025-07-22 14:55:51.248,0.0001004038712049,12.03412775736377,3.0,NB
2025-07-22 14:55:51.256,8.978741097694463e-05,10.97059448548042,3.0,NB
2025-07-22 14:55:51.264,8.058321753798583e-05,9.96000480911798,3.0,NB
2025-07-22 14:55:51.272,7.295964840582345e-05,9.015210359315406,3.0,NB
2025-07-22 14:55:51.280,6.704338691563324e-05,8.147392580145475,3.0,NB
2025-07-22 14:55:51.287,6.291806396512181e-05,7.366100266392819,3.0,NB
2025-07-22 14:55:51.295,6.06237943224168e-05,6.679291406905936,3.0,NB
2025-07-22 14:55:51.303,6.015738487023398e-05,6.093369723106656,3.0,NB
2025-07-22 14:55:51.311,6.147300021447717e-05,5.613208330511936,3.0,NB
2025-07-22 14:55:51.319,6.448313930191825e-05,5.242155415943639,3.0,NB
2025-07-22 14:55:51.327,6.905987901247982e-05,4.982019585288213,3.0,NB
2025-07-22 14:55:51.334,7.503646165770712e-05,4.833035452646776,3.0,NB
2025-07-22 14:55:51.342,8.220941378443635e-05,4.7938129543077705,3.0,NB
2025-07-22 14:55:51.350,9.03414533293934e-05,4.861276610325241,3.0,NB
2025-07-22 14:55:51.358,9.91654569307636e-05,5.0306033438321895,3.0,NB
2025-07-22 14:55:51.366,0.0001083897169458,5.295169324510264,3.0,NB
2025-07-22 14:55:51.373,0.0001177046186096,5.646517462707976,3.0,NB
2025-07-22 14:55:51.381,0.0001267907240454,6.074357511533716,3.0,NB
2025-07-22 14:55:51.389,0.0001353280903083,6.566610153200328,3.0,NB
2025-07-22 14:55:51.397,0.000143006501371,7.109504934388449,3.0,NB
2025-07-22 14:55:51.405,0.000149536173862,7.687739526379448,3.0,NB
2025-07-22 14:55:51.413,0.0001546584096241,8.284704644865862,3.0,NB
2025-07-22 14:55:51.420,0.0001581556184915,8.882775263480607,3.0,NB
2025-07-22 14:55:51.428,0.0001598601249306,9.463664736225804,3.0,NB
2025-07-22 14:55:51.436,0.0001596612041649,10.00883437732321,3.0,NB
2025-07-22 14:55:51.444,0.0001575098678358,10.499947208651903,3.0,NB
2025-07-22 14:55:51.452,0.000153421035678,10.91935123688001,3.0,NB
2025-07-22 14:55:51.459,0.0001474728864048,11.250574993465884,3.0,NB
2025-07-22 14:55:51.467,0.0001398033733676,11.478816338917976,3.0,NB
2025-07-22 14:55:51.475,0.0001306041029262,11.591404812695648,3.0,NB
2025-07-22 14:55:51.483,0.0001201119682584,11.578218147892349,3.0,NB
2025-07-22 14:55:51.491,0.0001085990584933,11.432034942518534,3.0,NB
2025-07-22 14:55:51.498,9.636139762360732e-05,11.148807797867294,3.0,NB
2025-07-22 14:55:51.506,8.370703346826871e-05,10.72784435232997,3.0,NB
2025-07-22 14:55:51.514,7.094394281495798e-05,10.171887366542444,3.0,NB
2025-07-22 14:55:51.522,5.836818083327554e-05,9.48708913671704,3.0,NB
2025-07-22 14:55:51.530,4.625269306437686e-05,8.682879798226532,3.0,NB
2025-07-22 14:55:51.538,3.483721935766498e-05,7.77173330354722,3.0,NB
2025-07-22 14:55:51.545,2.4319727684226422e-05,6.768838809722594,3.0,NB
2025-07-22 14:55:51.553,1.4849796412884948e-05,5.691688715953285,3.0,NB
2025-07-22 14:55:51.561,6.52430625045308e-06,4.559597515144352,3.0,NB
2025-07-22 14:55:51.569,-6.142916901386523e-07,3.39316786666152,3.0,NB
2025-07-22 14:55:51.577,-6.5769955204682726e-06,2.2137218051678254,3.0,NB
2025-07-22 14:55:51.584,-1.142457688713792e-05,1.0427157596161785,3.0,NB
2025-07-22 14:55:51.592,-1.5261376527001593e-05,-0.098841905687536,3.0,NB
2025-07-22 14:55:51.600,-1.8226867141494157e-05,-1.1909527415167067,3.0,NB
2025-07-22 14:55:51.608,-2.0485397683283268e-05,-2.215152578066159,3.0,NB
2025-07-22 14:55:51.616,-2.2214648504626126e-05,-3.154983223315741,3.0,NB
2025-07-22 14:55:51.623,-2.35934156185403e-05,-3.996398401225656,3.0,NB
2025-07-22 14:55:51.631,-2.478936832399727e-05,-4.728093213109096,3.0,NB
2025-07-22 14:55:51.639,-2.5947395679508544e-05,-5.341748992627983,3.0,NB
2025-07-22 14:55:51.647,-2.7179124115774443e-05,-5.832188154664936,3.0,NB
2025-07-22 14:55:51.655,-2.8554173238050127e-05,-6.197436453716992,3.0,NB
2025-07-22 14:55:51.663,-3.0093683878882507e-05,-6.438692912876987,3.0,NB
2025-07-22 14:55:51.670,-3.176655977589332e-05,-6.560210498881013,3.0,NB
2025-07-22 14:55:51.678,-3.348871416728434e-05,-6.569093331862564,3.0,NB
2025-07-22 14:55:51.686,-3.512544353724777e-05,-6.475018750872533,3.0,NB
2025-07-22 14:55:51.694,-3.649689844388176e-05,-6.289894820420166,3.0,NB
2025-07-22 14:55:51.702,-3.738649158678984e-05,-6.027465764918449,3.0,NB
2025-07-22 14:55:51.709,-3.755195658441178e-05,-5.702879259925071,3.0,NB
2025-07-22 14:55:51.717,-3.673862797566652e-05,-5.3322304029532726,3.0,NB
2025-07-22 14:55:51.725,-3.4694349978856615e-05,-4.932097469077523,3.0,NB
2025-07-22 14:55:51.733,-3.1185253893125125e-05,-4.5190842037991885,3.0,NB
2025-07-22 14:55:51.741,-2.601151056877498e-05,-4.10938243863491,3.0,NB
2025-07-22 14:55:51.748,-1.902211624768765e-05,-3.718367296301186,3.0,NB
2025-07-22 14:55:51.756,-1.0127832986503125e-05,-3.36023528124843,3.0,NB
2025-07-22 14:55:51.764,6.884446895905549e-07,-3.0476932574743016,3.0,NB
2025-07-22 14:55:51.772,1.3364436393089872e-05,-2.791703849425295,3.0,NB
2025-07-22 14:55:51.780,2.7754685029191225e-05,-2.601290317711947,3.0,NB
2025-07-22 14:55:51.788,4.3630401868616666e-05,-2.4834015999748105,3.0,NB
2025-07-22 14:55:51.795,6.068296435157686e-05,-2.4428360840023804,3.0,NB
2025-07-22 14:55:51.803,7.853094887997975e-05,-2.482220880876897,3.0,NB
2025-07-22 14:55:51.811,9.673046854447258e-05,-2.6020419451375374,3.0,NB
2025-07-22 14:55:51.819,0.0001147884871637,-2.800719369620198,3.0,NB
2025-07-22 14:55:51.827,0.0001321786745303,-3.074721557917114,3.0,NB
2025-07-22 14:55:51.834,0.000148359232546,-3.418711716869299,3.0,NB
2025-07-22 14:55:51.842,0.000162791963344,-3.8257201700961816,3.0,NB
2025-07-22 14:55:51.850,0.0001749617064718,-4.287336320492386,3.0,NB
2025-07-22 14:55:51.858,0.000184395193974,-4.793914635109013,3.0,NB
2025-07-22 14:55:51.866,0.0001906783963309,-5.3347897434413,3.0,NB
2025-07-22 14:55:51.873,0.000193471561271,-5.898496583879853,3.0,NB
2025-07-22 14:55:51.881,0.0001925213548238,-6.4729924529540845,3.0,NB
2025-07-22 14:55:51.889,0.0001876697609434,-7.045878752341298,3.0,NB
2025-07-22 14:55:51.897,0.0001788596348964,-7.604621130140404,3.0,NB
2025-07-22 14:55:51.905,0.0001661369845977,-8.136767517544211,3.0,NB
2025-07-22 14:55:51.913,0.0001496501484586,-8.630164218802445,3.0,NB
2025-07-22 14:55:51.920,0.0001296460723247,-9.07317068024327,3.0,NB
2025-07-22 14:55:51.928,0.000106463909463,-9.454873809916716,3.0,NB
2025-07-22 14:55:51.936,8.052620321942028e-05,-9.765302714166204,3.0,NB
2025-07-22 14:55:51.944,5.232795387467743e-05,-9.995644435674038,3.0,NB
2025-07-22 14:55:51.952,2.2423899307425304e-05,-10.138460700263703,3.0,NB
2025-07-22 14:55:51.959,-8.585653643678136e-06,-10.187904801257735,3.0,NB
2025-07-22 14:55:51.967,-4.007012068983461e-05,-10.139936587315294,3.0,NB
2025-07-22 14:55:51.975,-7.138475311107176e-05,-9.992532117279689,3.0,NB
2025-07-22 14:55:51.983,-0.0001018872977647,-9.745882974511124,3.0,NB
2025-07-22 14:55:51.991,-0.0001309549313468,-9.40257858506399,3.0,NB
2025-07-22 14:55:51.998,-0.0001580011510039,-8.967763268247584,3.0,NB
2025-07-22 14:55:52.006,-0.0001824922147277,-8.44925829067471,3.0,NB
2025-07-22 14:55:52.014,-0.0002039626279951,-7.857638036140592,3.0,NB
2025-07-22 14:55:52.022,-0.0002220291187349,-7.206248691542524,3.0,NB
2025-07-22 14:55:52.030,-0.0002364025581682,-6.511157727329946,3.0,NB
2025-07-22 14:55:52.038,-0.0002468973500803,-5.791023043167131,3.0,NB
2025-07-22 14:55:52.045,-0.0002534378829567,-5.06687204356023,3.0,NB
2025-07-22 14:55:52.053,-0.0002560616985635,-4.361783146446267,3.0,NB
2025-07-22 14:55:52.061,-0.0002549190990186,-3.70046530055106,3.0,NB
2025-07-22 14:55:52.069,-0.000250269028855,-3.108734928009959,3.0,NB
2025-07-22 14:55:52.077,-0.0002424712315911,-2.612894190671987,3.0,NB
2025-07-22 14:55:52.084,-0.0002319748552037,-2.2390194190949084,3.0,NB
2025-07-22 14:55:52.092,-0.0002193038417418,-2.0121737173524874,3.0,NB
2025-07-22 14:55:52.100,-0.0002050395851068,-1.95556291544722,3.0,NB
2025-07-22 14:55:52.108,-0.0001898014667285,-2.0896589275514463,3.0,NB
2025-07-22 14:55:52.116,-0.0001742259528512,-2.4313189323990474,3.0,NB
2025-07-22 14:55:52.123,-0.0001589449613323,-2.992932370452832,3.0,NB
2025-07-22 14:55:52.131,-0.0001445642173909,-3.7816303089702927,3.0,NB
2025-07-22 14:55:52.139,-0.00013164233874,-4.7985930344578565,3.0,NB
2025-07-22 14:55:52.147,-0.0001206714076285,-6.038491587452438,3.0,NB
2025-07-22 14:55:52.155,-0.0001120597782232,-7.489097182473366,3.0,NB
2025-07-22 14:55:52.163,-0.0001061178216517,-9.131088927542658,3.0,NB
2025-07-22 14:55:52.170,-0.0001030472257988,-10.938084911497112,3.0,NB
2025-07-22 14:55:52.178,-0.0001029343428539,-12.8769145930501,3.0,NB
2025-07-22 14:55:52.186,-0.0001057479157547,-14.90814164751425,3.0,NB
2025-07-22 14:55:52.194,-0.0001113413171442,-16.98683628605509,3.0,NB
2025-07-22 14:55:52.202,-0.0001194592060142,-19.06358498746544,3.0,NB
2025-07-22 14:55:52.209,-0.0001297482634696,-21.085714141558693,3.0,NB
2025-07-22 14:55:52.217,-0.0001417714474543,-22.998692967378933,3.0,NB
2025-07-22 14:55:52.225,-0.0001550250567113,-24.747670958099285,3.0,NB
2025-07-22 14:55:52.233,-0.0001689578414928,-26.279096722548477,3.0,NB
2025-07-22 14:55:52.241,-0.0001829914186934,-27.542359065740943,3.0,NB
2025-07-22 14:55:52.248,-0.0001965412934044,-28.491387960198743,3.0,NB
2025-07-22 14:55:52.256,-0.0002090378215062,-29.086152993958045,3.0,NB
2025-07-22 14:55:52.264,-0.0002199464570826,-29.294000000438377,3.0,NB
2025-07-22 14:55:52.272,-0.000228786622079,-29.09077270774949,3.0,NB
2025-07-22 14:55:52.280,-0.0002351485378196,-28.461675008864287,3.0,NB
2025-07-22 14:55:52.288,-0.0002387073949475,-27.40184030446861,3.0,NB
2025-07-22 14:55:52.295,-0.0002392343211055,-25.916586655527176,3.0,NB
2025-07-22 14:55:52.303,-0.0002366037344307,-24.021349497198845,3.0,NB
2025-07-22 14:55:52.311,-0.0002307968447278,-21.74129669741049,3.0,NB
2025-07-22 14:55:52.319,-0.000221901269366,-19.11064311967557,3.0,NB
2025-07-22 14:55:52.327,-0.0002101069301818,-16.171692983036447,3.0,NB
2025-07-22 14:55:52.334,-0.0001956985442595,-12.97364773389833,3.0,NB
2025-07-22 14:55:52.342,-0.0001790450918429,-9.571224524150582,3.0,NB
2025-07-22 14:55:52.350,-0.0001605866619511,-6.023135539765235,3.0,NB
2025-07-22 14:55:52.358,-0.0001408190897889,-2.390481295610848,3.0,NB
2025-07-22 14:55:52.366,-0.0001202768359467,1.26488831885016,3.0,NB
2025-07-22 14:55:52.373,-9.951460468739176e-05,4.8819928171916045,3.0,NB
2025-07-22 14:55:52.381,-7.908823707956191e-05,8.402270431960261,3.0,NB
2025-07-22 14:55:52.389,-5.953543519682286e-05,11.771013314299234,3.0,NB
2025-07-22 14:55:52.397,-4.135687659542484e-05,14.938649764523618,3.0,NB
2025-07-22 14:55:52.405,-2.4998274033165056e-05,17.861841290809057,3.0,NB
2025-07-22 14:55:52.413,-1.0833945005552284e-05,20.50436948509327,3.0,NB
2025-07-22 14:55:52.420,8.475091942698216e-07,22.83779516879305,3.0,NB
2025-07-22 14:55:52.428,9.854780408860613e-06,24.84187976621588,3.0,NB
2025-07-22 14:55:52.436,1.6102066970582477e-05,26.504766216550276,3.0,NB
2025-07-22 14:55:52.444,1.96133937734472e-05,27.822923769874954,3.0,NB
2025-07-22 14:55:52.452,2.0522661304174308e-05,28.80086758276676,3.0,NB
2025-07-22 14:55:52.459,1.906923686641418e-05,29.45067000267411,3.0,NB
2025-07-22 14:55:52.467,1.5589118353821497e-05,29.79128568566689,3.0,NB
2025-07-22 14:55:52.475,1.050193843216778e-05,29.847717119515945,3.0,NB
2025-07-22 14:55:52.483,4.294328185281701e-06,29.650050629453556,3.0,NB
2025-07-22 14:55:52.491,-2.4995931901972204e-06,29.23239545449125,3.0,NB
2025-07-22 14:55:52.498,-9.31963111875254e-06,28.631759948435192,3.0,NB
2025-07-22 14:55:52.506,-1.560174797150513e-05,27.88689935771351,3.0,NB
2025-07-22 14:55:52.514,-2.080003996079784e-05,27.037168964457848,3.0,NB
2025-07-22 14:55:52.522,-2.4407486836475947e-05,26.121414704401214,3.0,NB
2025-07-22 14:55:52.530,-2.597465214981713e-05,25.176930767155444,3.0,NB
2025-07-22 14:55:52.538,-2.5125670697515075e-05,24.23851029524295,3.0,NB
2025-07-22 14:55:52.545,-2.1571012656777702e-05,23.337611283294347,3.0,NB
2025-07-22 14:55:52.553,-1.5116656425351555e-05,22.501655327153056,3.0,NB
2025-07-22 14:55:52.561,-5.669434188498295e-06,21.753472183365314,3.0,NB
2025-07-22 14:55:52.569,6.761555269791645e-06,21.11089836894868,3.0,NB
2025-07-22 14:55:52.577,2.206742221392312e-05,20.5865334350878,3.0,NB
2025-07-22 14:55:52.584,4.004562458269925e-05,20.187653230329094,3.0,NB
2025-07-22 14:55:52.592,6.040935638267825e-05,19.91627553728812,3.0,NB
2025-07-22 14:55:52.600,8.279962636834131e-05,19.769369991800687,3.0,NB
2025-07-22 14:55:52.608,0.0001067993866571,19.739201205182937,3.0,NB
2025-07-22 14:55:52.616,0.0001319490415114,19.81379150734337,3.0,NB
2025-07-22 14:55:52.623,0.000157762665044,19.977487692792803,3.0,NB
2025-07-22 14:55:52.631,0.0001837442705132,20.211614560742014,3.0,NB
2025-07-22 14:55:52.639,0.0002094035004947,20.49519687111532,3.0,NB
2025-07-22 14:55:52.647,0.0002342701538931,20.805730562424063,3.0,NB
2025-07-22 14:55:52.655,0.0002579070511985,21.11998365765659,3.0,NB
2025-07-22 14:55:52.663,0.0002799208733675,21.414807173004885,3.0,NB
2025-07-22 14:55:52.670,0.0002999707650035,21.6679364880868,3.0,NB
2025-07-22 14:55:52.678,0.0003177746189055,21.85876398621542,3.0,NB
2025-07-22 14:55:52.686,0.0003331130323571,21.96906429592733,3.0,NB
2025-07-22 14:55:52.694,0.0003458309679461,21.9836541500802,3.0,NB
2025-07-22 14:55:52.702,0.000355837206476,21.89096973733152,3.0,NB
2025-07-22 14:55:52.709,0.0003631017701124,21.683545477169456,3.0,NB
2025-07-22 14:55:52.717,0.0003676515985732,21.35837943327707,3.0,NB
2025-07-22 14:55:52.725,0.0003695648332648,20.9171721195301,3.0,NB
2025-07-22 14:55:52.733,0.0003689640811207,20.36642727698434,3.0,NB
2025-07-22 14:55:52.741,0.0003660090066236,19.71740534542821,3.0,NB
2025-07-22 14:55:52.748,0.000360888561708,18.98592287045497,3.0,NB
2025-07-22 14:55:52.756,0.0003538131225476,18.19199403370484,3.0,NB
2025-07-22 14:55:52.764,0.0003450067649,17.359313912129313,3.0,NB
2025-07-22 14:55:52.772,0.0003346998789239,16.514586971433317,3.0,NB
2025-07-22 14:55:52.780,0.0003231223028785,15.686708651238892,3.0,NB
2025-07-22 14:55:52.788,0.0003104971448567,14.905812640261251,3.0,NB
2025-07-22 14:55:52.795,0.0002970354623286,14.20220146743412,3.0,NB
2025-07-22 14:55:52.803,0.0002829319715675,13.605183213039538,3.0,NB
2025-07-22 14:55:52.811,0.0002683619420247,13.14184230791079,3.0,NB
2025-07-22 14:55:52.819,0.0002534793804497,12.835777352955867,3.0,NB
2025-07-22 14:55:52.827,0.0002384165390996,12.70584344955152,3.0,NB
2025-07-22 14:55:52.834,0.0002232847086656,12.76494045467828,3.0,NB
2025-07-22 14:55:52.842,0.0002081761688072,13.018891613054391,3.0,NB
2025-07-22 14:55:52.850,0.0001931670571296,13.465458911988998,3.0,NB
2025-07-22 14:55:52.858,0.0001783208090698,14.093541998517331,3.0,NB
2025-07-22 14:55:52.866,0.000163691755759,14.88260635804145,3.0,NB
2025-07-22 14:55:52.873,0.00014932845619,15.802383479025927,3.0,NB
2025-07-22 14:55:52.881,0.0001352763822217,16.81288077088418,3.0,NB
2025-07-22 14:55:52.889,0.0001215796810849,17.864731986139013,3.0,NB
2025-07-22 14:55:52.897,0.0001082819154555,18.89990983821411,3.0,NB
2025-07-22 14:55:52.905,9.542588624450868e-05,19.852811519338328,3.0,NB
2025-07-22 14:55:52.913,8.3052801505062e-05,20.65171513091137,3.0,NB
2025-07-22 14:55:52.920,7.120111427503294e-05,21.220590967658627,3.0,NB
2025-07-22 14:55:52.928,5.990532303494032e-05,21.4812365724188,3.0,NB
2025-07-22 14:55:52.936,4.919495524168148e-05,21.35568901762724,3.0,NB
2025-07-22 14:55:52.944,3.9093871735166176e-05,20.76885257666952,3.0,NB
2025-07-22 14:55:52.952,2.961995143099393e-05,19.65126551004063,3.0,NB
2025-07-22 14:55:52.959,2.078514527879958e-05,17.941916863413635,3.0,NB
2025-07-22 14:55:52.967,1.259582764599914e-05,15.591013752697574,3.0,NB
2025-07-22 14:55:52.975,5.053323342721533e-06,12.562592385277458,3.0,NB
2025-07-22 14:55:52.983,-1.8455497067105696e-06,8.836862766747489,3.0,NB
2025-07-22 14:55:52.991,-8.108106535121485e-06,4.412178278465407,3.0,NB
2025-07-22 14:55:52.998,-1.3745775161633364e-05,-0.6934724840390873,3.0,NB
2025-07-22 14:55:53.006,-1.877457274844429e-05,-6.441542842949177,3.0,NB
2025-07-22 14:55:53.014,-2.3216122603958737e-05,-12.77264888063394,3.0,NB
2025-07-22 14:55:53.022,-2.709913219931686e-05,-19.6069874871523,3.0,NB
2025-07-22 14:55:53.030,-3.046115181545598e-05,-26.845479770652883,3.0,NB
2025-07-22 14:55:53.038,-3.335038430233198e-05,-34.37163952579381,3.0,NB
2025-07-22 14:55:53.045,-3.5827308387009046e-05,-42.05413610126552,3.0,NB
2025-07-22 14:55:53.053,-3.796589102013667e-05,-49.74999021354778,3.0,NB
2025-07-22 14:55:53.061,-3.985418904431796e-05,-57.30831161017974,3.0,NB
2025-07-22 14:55:53.069,-4.159417539373963e-05,-64.57446062041093,3.0,NB
2025-07-22 14:55:53.077,-4.3300669769265225e-05,-71.39449309851416,3.0,NB
2025-07-22 14:55:53.084,-4.509930759528354e-05,-77.61973143629172,3.0,NB
2025-07-22 14:55:53.092,-4.712354300141621e-05,-83.11129428616174,3.0,NB
2025-07-22 14:55:53.100,-4.951075015792466e-05,-87.74441511988782,3.0,NB
2025-07-22 14:55:53.108,-5.23975607377217e-05,-91.4123850483782,3.0,NB
2025-07-22 14:55:53.116,-5.591465144537896e-05,-94.02996828409609,3.0,NB
2025-07-22 14:55:53.123,-6.018127199854307e-05,-95.53615862707744,3.0,NB
2025-07-22 14:55:53.131,-6.529987633463348e-05,-95.89617137914352,3.0,NB
2025-07-22 14:55:53.139,-7.135127392263103e-05,-95.10259578680994,3.0,NB
2025-07-22 14:55:53.147,-7.839072055803076e-05,-93.1756668912396,3.0,NB
2025-07-22 14:55:53.155,-8.644528242085479e-05,-90.16265079999592,3.0,NB
2025-07-22 14:55:53.163,-9.551263594534068e-05,-86.1363721458441,3.0,NB
2025-07-22 14:55:53.170,-0.0001055612619492,-81.19294520750582,3.0,NB
2025-07-22 14:55:53.178,-0.000116531817567,-75.44879936896514,3.0,NB
2025-07-22 14:55:53.186,-0.0001283393619693,-69.03711408505974,3.0,NB
2025-07-22 14:55:53.194,-0.0001408760860721,-62.10379741551096,3.0,NB
2025-07-22 14:55:53.202,-0.0001540142443309,-54.803154942608174,3.0,NB
2025-07-22 14:55:53.209,-0.0001676090811955,-47.29340229521861,3.0,NB
2025-07-22 14:55:53.217,-0.0001815016572085,-39.73217467670984,3.0,NB
2025-07-22 14:55:53.225,-0.0001955215857369,-32.27218112600977,3.0,NB
2025-07-22 14:55:53.233,-0.0002094897638098,-25.057140340899775,3.0,NB
2025-07-22 14:55:53.241,-0.0002232212019476,-18.218119537803386,3.0,NB
2025-07-22 14:55:53.248,-0.0002365280404164,-11.870378902344962,3.0,NB
2025-07-22 14:55:53.256,-0.0002492228082604,-6.110802650489136,3.0,NB
2025-07-22 14:55:53.264,-0.0002611219479843,-1.0159745345613396,3.0,NB
2025-07-22 14:55:53.272,-0.0002720496027047,3.3590682706335637,3.0,NB
2025-07-22 14:55:53.280,-0.0002818416584846,6.981392696773642,3.0,NB
2025-07-22 14:55:53.288,-0.000290350035335,9.840051281611432,3.0,NB
2025-07-22 14:55:53.295,-0.0002974471780014,11.945321285860402,3.0,NB
2025-07-22 14:55:53.303,-0.0003030306017813,13.327353910009194,3.0,NB
2025-07-22 14:55:53.311,-0.0003070272529382,14.034302204583405,3.0,NB
2025-07-22 14:55:53.319,-0.0003093973984382,14.13000929986573,3.0,NB
2025-07-22 14:55:53.327,-0.0003101377641937,13.69134829956868,3.0,NB
2025-07-22 14:55:53.334,-0.0003092836752599,12.805311469113144,3.0,NB
2025-07-22 14:55:53.342,-0.0003069100096153,11.565949198646674,3.0,NB
2025-07-22 14:55:53.350,-0.0003031308558824,10.07125873666591,3.0,NB
2025-07-22 14:55:53.358,-0.0002980978604933,8.42011907147154,3.0,NB
2025-07-22 14:55:53.366,-0.0002919973517536,6.709361866550787,3.0,NB
2025-07-22 14:55:53.373,-0.0002850464026769,5.031059384655607,3.0,NB
2025-07-22 14:55:53.381,-0.0002774880030794,3.4700992794126044,3.0,NB
2025-07-22 14:55:53.389,-0.0002695854574065,2.1021034629213062,3.0,NB
2025-07-22 14:55:53.397,-0.0002616160492618,0.9917344790714896,3.0,NB
2025-07-22 14:55:53.405,-0.0002538639616538,0.1914184415871193,3.0,NB
2025-07-22 14:55:53.413,-0.0002466124492707,-0.2595008623934737,3.0,NB
2025-07-22 14:55:53.420,-0.0002401353408876,-0.3351761695299157,3.0,NB
2025-07-22 14:55:53.428,-0.0002346880809231,-0.0232519401265028,3.0,NB
2025-07-22 14:55:53.436,-0.0002304986471932,0.6755347225254933,3.0,NB
2025-07-22 14:55:53.444,-0.0002277587677964,1.748112248620344,3.0,NB
2025-07-22 14:55:53.452,-0.0002266158820631,3.170148028883163,3.0,NB
2025-07-22 14:55:53.459,-0.0002271662338543,4.907386581855603,3.0,NB
2025-07-22 14:55:53.467,-0.0002294493690094,6.917197387214631,3.0,NB
2025-07-22 14:55:53.475,-0.0002334441938738,9.150274862779533,3.0,NB
2025-07-22 14:55:53.483,-0.0002390666785774,11.55243255537725,3.0,NB
2025-07-22 14:55:53.491,-0.0002461692334376,14.066435096042683,3.0,NB
2025-07-22 14:55:53.498,-0.0002545417251228,16.633814623314976,3.0,NB
2025-07-22 14:55:53.506,-0.0002639140669915,19.19662294263182,3.0,NB
2025-07-22 14:55:53.514,-0.0002739603615767,21.69907636689741,3.0,NB
2025-07-22 14:55:53.522,-0.0002843046741236,24.089056647547903,3.0,NB
2025-07-22 14:55:53.530,-0.0002945286100229,26.319438316375063,3.0,NB
2025-07-22 14:55:53.538,-0.0003041809082184,28.34921978271072,3.0,NB
2025-07-22 14:55:53.545,-0.0003127892229939,30.144442367792195,3.0,NB
2025-07-22 14:55:53.553,-0.0003198741254616,31.678887858809063,3.0,NB
2025-07-22 14:55:53.561,-0.0003249651149059,32.934550940318616,3.0,NB
2025-07-22 14:55:53.569,-0.0003276181449181,33.90188788755074,3.0,NB
2025-07-22 14:55:53.577,-0.0003274339194612,34.579847130213444,3.0,NB
2025-07-22 14:55:53.584,-0.0003240760425693,34.97569072617698,3.0,NB
2025-07-22 14:55:53.592,-0.0003172880090832,35.10461848445452,3.0,NB
2025-07-22 14:55:53.600,-0.0003069079875346,34.98920854977451,3.0,NB
2025-07-22 14:55:53.608,-0.0002928803664581,34.658689838463935,3.0,NB
2025-07-22 14:55:53.616,-0.0002752631233518,34.148062943177365,3.0,NB
2025-07-22 14:55:53.623,-0.0002542302536676,33.497087149149294,3.0,NB
2025-07-22 14:55:53.631,-0.0002300687769895,32.74915216464195,3.0,NB
2025-07-22 14:55:53.639,-0.0002031701910226,31.950054182021457,3.0,NB
2025-07-22 14:55:53.647,-0.0001740166177605,31.146697045842384,3.0,NB
2025-07-22 14:55:53.655,-0.0001431622470717,30.385740670834608,3.0,NB
2025-07-22 14:55:53.663,-0.0001112110239183,29.71222044864822,3.0,NB
2025-07-22 14:55:53.670,-7.879182655377287e-05,29.168163186487835,3.0,NB
2025-07-22 14:55:53.678,-4.653259902633226e-05,28.791227064718136,3.0,NB
2025-07-22 14:55:53.686,-1.5034993884646162e-05,28.61339507035926,3.0,NB
2025-07-22 14:55:53.694,1.514896182003404e-05,28.659753205833177,3.0,NB
2025-07-22 14:55:53.702,4.353684054632768e-05,28.947386301942224,3.0,NB
2025-07-22 14:55:53.709,6.973138620301027e-05,29.48442527476855,3.0,NB
2025-07-22 14:55:53.717,9.343101150411805e-05,30.26927994589992,3.0,NB
2025-07-22 14:55:53.725,0.0001144349346494,31.29009088713257,3.0,NB
2025-07-22 14:55:53.733,0.0001326430291629,32.52443195857948,3.0,NB
2025-07-22 14:55:53.741,0.0001480507735006,33.93929210598958,3.0,NB
2025-07-22 14:55:53.748,0.0001607399438998,35.49136042689588,3.0,NB
2025-07-22 14:55:53.756,0.0001708658899199,37.12763241874177,3.0,NB
2025-07-22 14:55:53.764,0.000178642364408,38.78634767011653,3.0,NB
2025-07-22 14:55:53.772,0.0001843249474627,40.39826011471633,3.0,NB
2025-07-22 14:55:53.780,0.0001881941085499,41.88823148900263,3.0,NB
2025-07-22 14:55:53.788,0.0001905388952419,43.17712706181069,3.0,NB
2025-07-22 14:55:53.795,0.0001916421257009,44.183980371884346,3.0,NB
2025-07-22 14:55:53.803,0.0001917678026922,44.82838103746504,3.0,NB
2025-07-22 14:55:53.811,0.0001911512765579,45.03302718648167,3.0,NB
2025-07-22 14:55:53.819,0.0001899924921489,44.72637225887243,3.0,NB
2025-07-22 14:55:53.827,0.0001884524805489,43.845285472251405,3.0,NB
2025-07-22 14:55:53.834,0.0001866530855915,42.33763677549568,3.0,NB
2025-07-22 14:55:53.842,0.0001846797177198,40.16471131083405,3.0,NB
2025-07-22 14:55:53.850,0.0001825867103405,37.30335590780829,3.0,NB
2025-07-22 14:55:53.858,0.0001804046613935,33.7477615154603,3.0,NB
2025-07-22 14:55:53.866,0.0001781490129106,29.51079119057833,3.0,NB
2025-07-22 14:55:53.873,0.0001758290680941,24.624773563876616,3.0,NB
2025-07-22 14:55:53.881,0.0001734566723157,19.14169662664657,3.0,NB
2025-07-22 14:55:53.889,0.0001710538806777,13.132755958758132,3.0,NB
2025-07-22 14:55:53.897,0.0001686590727071,6.687234590538769,3.0,NB
2025-07-22 14:55:53.905,0.0001663311270254,-0.0892823105432134,3.0,NB
2025-07-22 14:55:53.913,0.0001641514208396,-7.077326950923163,3.0,NB
2025-07-22 14:55:53.920,0.0001622235645844,-14.146543423864465,3.0,NB
2025-07-22 14:55:53.928,0.0001606709167375,-21.15917087782915,3.0,NB
2025-07-22 14:55:53.936,0.0001596320439069,-27.97390446152101,3.0,NB
2025-07-22 14:55:53.944,0.0001592543933995,-34.450002745028506,3.0,NB
2025-07-22 14:55:53.952,0.0001596865268188,-40.451495322679285,3.0,NB
2025-07-22 14:55:53.959,0.0001610693231962,-45.85133577025308,3.0,NB
2025-07-22 14:55:53.967,0.0001635266067739,-50.53534371514889,3.0,NB
2025-07-22 14:55:53.975,0.0001671557074387,-54.40578570496227,3.0,NB
2025-07-22 14:55:53.983,0.0001720185317613,-57.384457589769845,3.0,NB
2025-07-22 14:55:53.991,0.0001781337835936,-59.41515058650768,3.0,NB
2025-07-22 14:55:53.998,0.0001854709763391,-60.46540800724791,3.0,NB
2025-07-22 14:55:54.006,0.0001939468000704,-60.52750845199969,3.0,NB
2025-07-22 14:55:54.014,0.0002034242599782,-59.6186425532881,3.0,NB
2025-07-22 14:55:54.022,0.0002137148130643,-57.78028250566516,3.0,NB
2025-07-22 14:55:54.030,0.0002245835124994,-55.07677504337762,3.0,NB
2025-07-22 14:55:54.038,0.000235756933224,-51.59321779427053,3.0,NB
2025-07-22 14:55:54.045,0.0002469334166807,-47.43270478805915,3.0,NB
2025-07-22 14:55:54.053,0.0002577949769936,-42.71304833391336,3.0,NB
2025-07-22 14:55:54.061,0.000268020107277,-37.56310079023244,3.0,NB
2025-07-22 14:55:54.069,0.0002772967390748,-32.11881051163361,3.0,NB
2025-07-22 14:55:54.077,0.000285334715058,-26.51915135268105,3.0,NB
2025-07-22 14:55:54.084,0.0002918772760274,-20.90206468098256,3.0,NB
2025-07-22 14:55:54.092,0.0002967111798645,-15.400547275168632,3.0,NB
2025-07-22 14:55:54.100,0.0002996751350617,-10.139008305912752,3.0,NB
2025-07-22 14:55:54.108,0.0003006662655879,-5.23000450677172,3.0,NB
2025-07-22 14:55:54.116,0.0002996443738865,-0.7714454166811544,3.0,NB
2025-07-22 14:55:54.123,0.0002966338584981,3.1556589525790804,3.0,NB
2025-07-22 14:55:54.131,0.0002917232587896,6.488856666432685,3.0,NB
2025-07-22 14:55:54.139,0.0002850625192058,9.185288932350115,3.0,NB
2025-07-22 14:55:54.147,0.0002768581765965,11.222093533732156,3.0,NB
2025-07-22 14:55:54.155,0.0002673667640633,12.59618925632616,3.0,NB
2025-07-22 14:55:54.163,0.0002568867718652,13.323473298768045,3.0,NB
2025-07-22 14:55:54.170,0.0002457494982068,13.437481092368037,3.0,NB
2025-07-22 14:55:54.178,0.0002343090857863,12.987573001202096,3.0,NB
2025-07-22 14:55:54.186,0.000222932022877,12.036724662230286,3.0,NB
2025-07-22 14:55:54.194,0.0002119864139415,10.659006978383642,3.0,NB
2025-07-22 14:55:54.202,0.0002018313701141,8.936847819611685,3.0,NB
2025-07-22 14:55:54.209,0.0001928068812472,6.958170252516805,3.0,NB
2025-07-22 14:55:54.217,0.0001852244645005,4.813501655007708,3.0,NB
2025-07-22 14:55:54.225,0.000179358750173,2.5931445309505774,3.0,NB
2025-07-22 14:55:54.233,0.0001754400365495,0.3844934698249906,3.0,NB
2025-07-22 14:55:54.241,0.0001736477942668,-1.7304261667399103,3.0,NB
2025-07-22 14:55:54.248,0.0001741051375237,-3.6771331929390394,3.0,NB
2025-07-22 14:55:54.256,0.0001768743671479,-5.390527087733737,3.0,NB
2025-07-22 14:55:54.264,0.000181953791263,-6.816347553130477,3.0,NB
2025-07-22 14:55:54.272,0.0001892761142484,-7.912232820508634,3.0,NB
2025-07-22 14:55:54.280,0.0001987087140857,-8.648366516156921,3.0,NB
2025-07-22 14:55:54.288,0.0002100560545008,-9.007716495505186,3.0,NB
2025-07-22 14:55:54.295,0.0002230642904946,-8.985881660244162,3.0,NB
2025-07-22 14:55:54.303,0.0002374278839628,-8.590573997656271,3.0,NB
2025-07-22 14:55:54.311,0.0002527978482261,-7.84077262153648,3.0,NB
2025-07-22 14:55:54.319,0.0002687911472495,-6.765594229477198,3.0,NB
2025-07-22 14:55:54.327,0.0002850007775551,-5.402929994632243,3.0,NB
2025-07-22 14:55:54.334,0.000301006112981,-3.797902447121407,3.0,NB
2025-07-22 14:55:54.342,0.0003163831590978,-2.0011974229237657,3.0,NB
2025-07-22 14:55:54.350,0.0003307144310075,-0.0673257933898982,3.0,NB
2025-07-22 14:55:54.358,0.0003435982314405,1.9471323740337805,3.0,NB
2025-07-22 14:55:54.366,0.0003546571638887,3.985252094328676,3.0,NB
2025-07-22 14:55:54.374,0.0003635457670122,5.991411756508513,3.0,NB
2025-07-22 14:55:54.381,0.0003699572015065,7.912826588883431,3.0,NB
2025-07-22 14:55:54.389,0.0003736289594302,9.700934623966166,3.0,NB
2025-07-22 14:55:54.397,0.0003743475997236,11.312608938831158,3.0,NB
2025-07-22 14:55:54.405,0.0003719525438279,12.711176408756726,3.0,NB
2025-07-22 14:55:54.413,0.0003663389922592,13.86722944517745,3.0,NB
2025-07-22 14:55:54.420,0.0003574600392203,14.75922299409036,3.0,NB
2025-07-22 14:55:54.428,0.0003453280479198,15.373854299649723,3.0,NB
2025-07-22 14:55:54.436,0.0003300152856221,15.706227494417767,3.0,NB
2025-07-22 14:55:54.444,0.0003116537123755,15.75980891678682,3.0,NB
2025-07-22 14:55:54.452,0.0002904337112589,15.546182177407518,3.0,NB
2025-07-22 14:55:54.459,0.0002666014943488,15.08461444375978,3.0,NB
2025-07-22 14:55:54.467,0.0002404549542573,14.401447269350472,3.0,NB
2025-07-22 14:55:54.475,0.0002123378503361,13.529326679253618,3.0,NB
2025-07-22 14:55:54.483,0.0001826323749885,12.506288279062533,3.0,NB
2025-07-22 14:55:54.491,0.0001517502892809,11.37471403382055,3.0,NB
2025-07-22 14:55:54.499,0.0001201229263088,10.180178217270546,3.0,NB
2025-07-22 14:55:54.506,8.819043257033197e-05,8.970200990349092,3.0,NB
2025-07-22 14:55:54.514,5.63906515285145e-05,7.792929229927393,3.0,NB
2025-07-22 14:55:54.522,2.514805995275775e-05,6.695765653913392,3.0,NB
2025-07-22 14:55:54.530,-5.136829693042059e-06,5.723968995720607,3.0,NB
2025-07-22 14:55:54.538,-3.4097176625505544e-05,4.919249950311272,3.0,NB
2025-07-22 14:55:54.545,-6.140820704316754e-05,4.318389790229016,3.0,NB
2025-07-22 14:55:54.553,-8.679392574097648e-05,3.9519108404325127,3.0,NB
2025-07-22 14:55:54.561,-0.0001100318712985,3.8428302700700505,3.0,NB
2025-07-22 14:55:54.569,-0.0001309557516171,4.005530727195654,3.0,NB
2025-07-22 14:55:54.577,-0.0001494558933744,4.444782988113256,3.0,NB
2025-07-22 14:55:54.584,-0.0001654775444183,5.154956766726445,3.0,NB
2025-07-22 14:55:54.592,-0.0001790172132434,6.11945586485265,3.0,NB
2025-07-22 14:55:54.600,-0.0001901174099089,7.310412674244646,3.0,NB
2025-07-22 14:55:54.608,-0.0001988603197965,8.688674416899739,3.0,NB
2025-07-22 14:55:54.616,-0.0002053610361918,10.204109230967228,3.0,NB
2025-07-22 14:55:54.624,-0.0002097609739934,11.796254147236368,3.0,NB
2025-07-22 14:55:54.631,-0.0002122220000146,13.395319118509846,3.0,NB
2025-07-22 14:55:54.639,-0.0002129216714682,14.923551622902576,3.0,NB
2025-07-22 14:55:54.647,-0.000212049789942,16.29695512607154,3.0,NB
2025-07-22 14:55:54.655,-0.0002098062648607,17.427342122227397,3.0,NB
2025-07-22 14:55:54.663,-0.0002064000585171,18.22468894428058,3.0,NB
2025-07-22 14:55:54.670,-0.0002020487959898,18.59974549895139,3.0,NB
2025-07-22 14:55:54.678,-0.0001969785210558,18.466839090200548,3.0,NB
2025-07-22 14:55:54.686,-0.0001914230908182,17.74679816843575,3.0,NB
2025-07-22 14:55:54.694,-0.0001856228045325,16.369909869684477,3.0,NB
2025-07-22 14:55:54.702,-0.0001798220070771,14.278815312076762,3.0,NB
2025-07-22 14:55:54.709,-0.0001742655570817,11.431239525368632,3.0,NB
2025-07-22 14:55:54.717,-0.0001691941872255,7.802449295957859,3.0,NB
2025-07-22 14:55:54.725,-0.0001648389030643,3.387332723720848,3.0,NB
2025-07-22 14:55:54.733,-0.0001614146625251,-1.7980006229731311,3.0,NB
2025-07-22 14:55:54.741,-0.0001591136471135,-7.715190129385876,3.0,NB
2025-07-22 14:55:54.749,-0.0001580984764909,-14.30324149670868,3.0,NB
2025-07-22 14:55:54.756,-0.0001584957378083,-21.478847976792505,3.0,NB
2025-07-22 14:55:54.764,-0.0001603902192986,-29.137448913508624,3.0,NB
2025-07-22 14:55:54.772,-0.0001638202649118,-37.15503229858285,3.0,NB
2025-07-22 14:55:54.780,-0.000168774677524,-45.39065918937639,3.0,NB
2025-07-22 14:55:54.788,-0.0001751915442932,-53.68965813509924,3.0,NB
2025-07-22 14:55:54.795,-0.0001829592175624,-61.88740863437504,3.0,NB
2025-07-22 14:55:54.803,-0.0001919194855113,-69.81360555914624,3.0,NB
2025-07-22 14:55:54.811,-0.0002018727672178,-77.29687284050165,3.0,NB
2025-07-22 14:55:54.819,-0.0002125850272748,-84.16957580967484,3.0,NB
2025-07-22 14:55:54.827,-0.0002237960528594,-90.27266851560071,3.0,NB
2025-07-22 14:55:54.834,-0.000235228748106,-95.46040593162304,3.0,NB
2025-07-22 14:55:54.842,-0.0002465991287726,-99.60475173041738,3.0,NB
2025-07-22 14:55:54.850,-0.0002576267092338,-102.59932039427824,3.0,NB
2025-07-22 14:55:54.858,-0.0002680449508247,-104.3627075956151,3.0,NB
2025-07-22 14:55:54.866,-0.0002776113856195,-104.84108440470482,3.0,NB
2025-07-22 14:55:54.874,-0.0002861169560704,-104.0099579834241,3.0,NB
2025-07-22 14:55:54.881,-0.0002933940541301,-101.87503273707904,3.0,NB
2025-07-22 14:55:54.889,-0.0002993227519296,-98.47213993817532,3.0,NB
2025-07-22 14:55:54.897,-0.0003038348133118,-93.86623900116209,3.0,NB
2025-07-22 14:55:54.905,-0.0003069152364815,-88.14952825250504,3.0,NB
2025-07-22 14:55:54.913,-0.0003086012543752,-81.43873566048116,3.0,NB
2025-07-22 14:55:54.920,-0.0003089788834848,-73.87168917600309,3.0,NB
2025-07-22 14:55:54.928,-0.0003081772693165,-65.603290922962,3.0,NB
2025-07-22 14:55:54.936,-0.0003063612347894,-56.80103856621911,3.0,NB
2025-07-22 14:55:54.944,-0.0003037225697185,-47.64025017550647,3.0,NB
2025-07-22 14:55:54.952,-0.0003004706561029,-38.29915549445222,3.0,NB
2025-07-22 14:55:54.959,-0.0002968229832487,-28.954016710316157,3.0,NB
2025-07-22 14:55:54.967,-0.0002929959940868,-19.77443587183764,3.0,NB
2025-07-22 14:55:54.975,-0.0002891965682237,-10.918994536410342,3.0,NB
2025-07-22 14:55:54.983,-0.0002856143278538,-2.531354769157457,3.0,NB
2025-07-22 14:55:54.991,-0.0002824148654706,5.263069845546722,3.0,NB
2025-07-22 14:55:54.999,-0.000279733940178,12.35978798595175,3.0,NB
2025-07-22 14:55:55.006,-0.0002776726735472,18.677189392054864,3.0,NB
2025-07-22 14:55:55.014,-0.0002762937878453,24.157755220023265,3.0,NB
2025-07-22 14:55:55.022,-0.0002756189527735,28.768512685805877,3.0,NB
2025-07-22 14:55:55.030,-0.0002756273377281,32.50075187235899,3.0,NB
2025-07-22 14:55:55.038,-0.0002762555055782,35.36904582870619,3.0,NB
2025-07-22 14:55:55.045,-0.0002773988035785,37.40963574886311,3.0,NB
2025-07-22 14:55:55.053,-0.0002789143609651,38.67826051394125,3.0,NB
2025-07-22 14:55:55.061,-0.0002806256797968,39.24752378723259,3.0,NB
2025-07-22 14:55:55.069,-0.0002823286544121,39.20390189865738,3.0,NB
2025-07-22 14:55:55.077,-0.0002837987465496,38.64450182465087,3.0,NB
2025-07-22 14:55:55.084,-0.0002847990131664,37.673680691833,3.0,NB
2025-07-22 14:55:55.092,-0.0002850887112494,36.3996365702476,3.0,NB
2025-07-22 14:55:55.100,-0.000284432241072,34.93107515613206,3.0,NB
2025-07-22 14:55:55.108,-0.0002826082019974,33.374048659697905,3.0,NB
2025-07-22 14:55:55.116,-0.000279418312713,31.82905227785053,3.0,NB
2025-07-22 14:55:55.124,-0.0002746958999814,30.3884505743943,3.0,NB
2025-07-22 14:55:55.131,-0.0002683136118707,29.13429148177213,3.0,NB
2025-07-22 14:55:55.139,-0.0002601899902417,28.136550068796573,3.0,NB
2025-07-22 14:55:55.147,-0.0002502945549563,27.451828272815288,3.0,NB
2025-07-22 14:55:55.155,-0.0002386511097654,27.12252103042897,3.0,NB
2025-07-22 14:55:55.163,-0.000225339076839,27.176444175115265,3.0,NB
2025-07-22 14:55:55.170,-0.0002104927919483,27.626905567029777,3.0,NB
2025-07-22 14:55:55.178,-0.0001942988183886,28.473188578835707,3.0,NB
2025-07-22 14:55:55.186,-0.00017699143936,29.701406601145013,3.0,NB
2025-07-22 14:55:55.194,-0.000158846554158,31.285678879082297,3.0,NB
2025-07-22 14:55:55.202,-0.0001401742309443,33.18957187725173,3.0,NB
2025-07-22 14:55:55.209,-0.000121310160356,35.36774653097022,3.0,NB
2025-07-22 14:55:55.217,-0.0001026062212786,37.76775012917273,3.0,NB
2025-07-22 14:55:55.225,-8.442033786594554e-05,40.33189206216096,3.0,NB
2025-07-22 14:55:55.233,-6.710580165956894e-05,42.99914505758912,3.0,NB
2025-07-22 14:55:55.241,-5.1000264683428407e-05,45.70701756702184,3.0,NB
2025-07-22 14:55:55.249,-3.64146772427113e-05,48.39334836346434,3.0,NB
2025-07-22 14:55:55.256,-2.3622542954216786e-05,50.99798086001929,3.0,NB
2025-07-22 14:55:55.264,-1.2849968798448782e-05,53.46428184753187,3.0,NB
2025-07-22 14:55:55.272,-4.267048476919337e-06,55.7404769616017,3.0,NB
2025-07-22 14:55:55.280,2.018907151936315e-06,57.78078292138939,3.0,NB
2025-07-22 14:55:55.288,5.967876910269649e-06,59.546324146591616,3.0,NB
2025-07-22 14:55:55.295,7.609084779239562e-06,61.00582849422461,3.0,NB
2025-07-22 14:55:55.303,7.040246926602302e-06,62.13610333659816,3.0,NB
2025-07-22 14:55:55.311,4.424099106008485e-06,62.922298837654,3.0,NB
2025-07-22 14:55:55.319,-1.7638686528214007e-08,63.35796993057612,3.0,NB
2025-07-22 14:55:55.327,-6.012538838062431e-06,63.44495205529944,3.0,NB
2025-07-22 14:55:55.334,-1.3247548277018423e-05,63.19306813133994,3.0,NB
2025-07-22 14:55:55.342,-2.138040039586428e-05,62.6196855277809,3.0,NB
2025-07-22 14:55:55.350,-3.005189115793001e-05,61.74914201982409,3.0,NB
2025-07-22 14:55:55.358,-3.889856751271973e-05,60.61205902573092,3.0,NB
2025-07-22 14:55:55.366,-4.756536992815951e-05,59.2445589940694,3.0,NB
2025-07-22 14:55:55.374,-5.57177629686155e-05,57.68740190207509,3.0,NB
2025-07-22 14:55:55.381,-6.305291212628747e-05,55.98505370567402,3.0,NB
2025-07-22 14:55:55.389,-6.93095220602409e-05,54.184697531619705,3.0,NB
2025-07-22 14:55:55.397,-7.42760033920561e-05,52.335196684272425,3.0,NB
2025-07-22 14:55:55.405,-7.779665996810152e-05,50.48601737245491,3.0,NB
2025-07-22 14:55:55.413,-7.977561080038245e-05,48.68611860455603,3.0,NB
2025-07-22 14:55:55.420,-8.017822390017258e-05,46.98281704630257,3.0,NB
2025-07-22 14:55:55.428,-7.902996367110413e-05,45.42063581675888,3.0,NB
2025-07-22 14:55:55.436,-7.641271735081539e-05,44.04014818813166,3.0,NB
2025-07-22 14:55:55.444,-7.245881966330362e-05,42.87682987099622,3.0,NB
2025-07-22 14:55:55.452,-6.734311038109955e-05,41.95993686670302,3.0,NB
2025-07-22 14:55:55.459,-6.127344767746425e-05,41.31142955460541,3.0,NB
2025-07-22 14:55:55.467,-5.448017096776542e-05,40.94496750883263,3.0,NB
2025-07-22 14:55:55.475,-4.72050463534885e-05,40.86500322940366,3.0,NB
2025-07-22 14:55:55.483,-3.9690224200640496e-05,41.06600622297438,3.0,NB
2025-07-22 14:55:55.491,-3.216770583263842e-05,41.5318513601377,3.0,NB
2025-07-22 14:55:55.499,-2.4849777607333243e-05,42.23540684459448,3.0,NB
2025-07-22 14:55:55.506,-1.7920827214996197e-05,43.13835714390877,3.0,NB
2025-07-22 14:55:55.514,-1.1530888905686908e-05,44.19129457743154,3.0,NB
2025-07-22 14:55:55.522,-5.791160238173605e-06,45.334109717773735,3.0,NB
2025-07-22 14:55:55.530,-7.716086154883721e-07,46.49670519844826,3.0,NB
2025-07-22 14:55:55.538,3.499334244390565e-06,47.60004988720828,3.0,NB
2025-07-22 14:55:55.545,7.033103100311668e-06,48.55758074848202,3.0,NB
2025-07-22 14:55:55.553,9.87757989451546e-06,49.276948269141286,3.0,NB
2025-07-22 14:55:55.561,1.2112248322432348e-05,49.662088378940695,3.0,NB
2025-07-22 14:55:55.569,1.3842295455436804e-05,49.61558980597432,3.0,NB
2025-07-22 14:55:55.577,1.5192011329233668e-05,49.04131132984798,3.0,NB
2025-07-22 14:55:55.584,1.629776864247474e-05,47.84718909037777,3.0,NB
2025-07-22 14:55:55.592,1.730079882533833e-05,45.94816070836711,3.0,NB
2025-07-22 14:55:55.600,1.8339953739365063e-05,43.26912124467571,3.0,NB
2025-07-22 14:55:55.608,1.9544665614080534e-05,39.74781672736093,3.0,NB
2025-07-22 14:55:55.616,2.102838121697532e-05,35.337574828247924,3.0,NB
2025-07-22 14:55:55.624,2.2882814789138305e-05,30.0097698855723,3.0,NB
2025-07-22 14:55:55.631,2.517338956935396e-05,23.75592130988739,3.0,NB
2025-07-22 14:55:55.639,2.7936195561182795e-05,16.58933072768093,3.0,NB
2025-07-22 14:55:55.647,3.117670362842086e-05,8.546174011492292,3.0,NB
2025-07-22 14:55:55.655,3.4870379639131245e-05,-0.3140206479374325,3.0,NB
2025-07-22 14:55:55.663,3.896523984004088e-05,-9.908558770325987,3.0,NB
2025-07-22 14:55:55.670,4.33862501746305e-05,-20.13245819880829,3.0,NB
2025-07-22 14:55:55.678,4.804129063803798e-05,-30.86002506939233,3.0,NB
2025-07-22 14:55:55.686,5.282823083161023e-05,-41.947107156659975,3.0,NB
2025-07-22 14:55:55.694,5.764255904522565e-05,-53.233979871833455,3.0,NB
2025-07-22 14:55:55.702,6.23849875813094e-05,-64.54879648580993,3.0,NB
2025-07-22 14:55:55.709,6.696848791007711e-05,-75.71151245199724,3.0,NB
2025-07-22 14:55:55.717,7.132426828161082e-05,-86.53817487471343,3.0,NB
2025-07-22 14:55:55.725,7.540630307245493e-05,-96.84545294035992,3.0,NB
2025-07-22 14:55:55.733,7.919416410427015e-05,-106.4552740807116,3.0,NB
2025-07-22 14:55:55.741,8.269406215074303e-05,-115.19942418766472,3.0,NB
2025-07-22 14:55:55.749,8.593813294920316e-05,-122.92396860044812,3.0,NB
2025-07-22 14:55:55.756,8.898206985595253e-05,-129.49335393688736,3.0,NB
2025-07-22 14:55:55.764,9.190123626957836e-05,-134.79405908447944,3.0,NB
2025-07-22 14:55:55.772,9.478543069701616e-05,-138.73767659350003,3.0,NB
2025-07-22 14:55:55.780,9.773255636327008e-05,-141.26332295192108,3.0,NB
2025-07-22 14:55:55.788,0.0001008415634615,-142.33929724118937,3.0,NB
2025-07-22 14:55:55.795,0.000104205150804,-141.96393179092766,3.0,NB
2025-07-22 14:55:55.803,0.000107902785033,-140.16560484437315,3.0,NB
2025-07-22 14:55:55.811,0.000111994592598,-137.0019129676829,3.0,NB
2025-07-22 14:55:55.819,0.000116516615258,-132.55802895091458,3.0,NB
2025-07-22 14:55:55.827,0.0001214778185717,-126.94429817945856,3.0,NB
2025-07-22 14:55:55.834,0.0001268591158495,-120.29315182931624,3.0,NB
2025-07-22 14:55:55.842,0.000132614522716,-112.75543773993608,3.0,NB
2025-07-22 14:55:55.850,0.0001386743957774,-104.4962885349989,3.0,NB
2025-07-22 14:55:55.858,0.0001449505377536,-95.69066074690704,3.0,NB
2025-07-22 14:55:55.866,0.0001513427858558,-86.51868781287865,3.0,NB
2025-07-22 14:55:55.874,0.0001577465697595,-77.16099354310128,3.0,NB
2025-07-22 14:55:55.881,0.000164060855457,-67.79411095734335,3.0,NB
2025-07-22 14:55:55.889,0.0001701958836194,-58.58614443561168,3.0,NB
2025-07-22 14:55:55.897,0.0001760801463194,-49.69280134961278,3.0,NB
2025-07-22 14:55:55.905,0.0001816661081196,-41.25390335193848,3.0,NB
2025-07-22 14:55:55.913,0.0001869342760118,-33.390468074613544,3.0,NB
2025-07-22 14:55:55.920,0.00019189536743,-26.202430016463857,3.0,NB
2025-07-22 14:55:55.928,0.0001965904891494,-19.767045834617416,3.0,NB
2025-07-22 14:55:55.936,0.0002010893813638,-14.138005076893489,3.0,NB
2025-07-22 14:55:55.944,0.0002054868963261,-9.345243557039916,3.0,NB
2025-07-22 14:55:55.952,0.0002098979907532,-5.395433979349672,3.0,NB
2025-07-22 14:55:55.959,0.0002144516109193,-2.273107853290629,3.0,NB
2025-07-22 14:55:55.967,0.0002192839018129,0.0576551487354745,3.0,NB
2025-07-22 14:55:55.975,0.0002245311543478,1.6510489605578078,3.0,NB
2025-07-22 14:55:55.983,0.0002303228411265,2.576963828702376,3.0,NB
2025-07-22 14:55:55.991,0.0002367750296442,2.9181073648784857,3.0,NB
2025-07-22 14:55:55.999,0.0002439844350374,2.7669252972854963,3.0,NB
2025-07-22 14:55:56.006,0.0002520233828915,2.222423685320598,3.0,NB
2025-07-22 14:55:56.014,0.0002609359640384,1.3869914815136697,3.0,NB
2025-07-22 14:55:56.022,0.0002707356304713,0.3633164851008642,3.0,NB
2025-07-22 14:55:56.030,0.0002814043815692,-0.748520665204226,3.0,NB
2025-07-22 14:55:56.038,0.000292893547787,-1.8537003210353649,3.0,NB
2025-07-22 14:55:56.045,0.0003051260442226,-2.865003489758877,3.0,NB
2025-07-22 14:55:56.053,0.000317999875062,-3.70478865745215,3.0,NB
2025-07-22 14:55:56.061,0.0003313926334758,-4.306571071397652,3.0,NB
2025-07-22 14:55:56.069,0.0003451667502008,-4.616183957181152,3.0,NB
2025-07-22 14:55:56.077,0.0003591752635198,-4.592515060339471,3.0,NB
2025-07-22 14:55:56.084,0.0003732678678258,-4.207825148164424,3.0,NB
2025-07-22 14:55:56.092,0.0003872969341022,-3.447667320099021,3.0,NB
2025-07-22 14:55:56.100,0.0004011231292327,-2.3104368368327868,3.0,NB
2025-07-22 14:55:56.108,0.0004146202528829,-0.8065904124851838,3.0,NB
2025-07-22 14:55:56.116,0.0004276789708051,1.04241870856042,3.0,NB
2025-07-22 14:55:56.124,0.0004402092155997,3.2054382176014893,3.0,NB
2025-07-22 14:55:56.131,0.0004521411259964,5.643091844890396,3.0,NB
2025-07-22 14:55:56.139,0.0004634245118318,8.309376084967742,3.0,NB
2025-07-22 14:55:56.147,0.0004740269701935,11.153323457571656,3.0,NB
2025-07-22 14:55:56.155,0.0004839309114935,14.120680013597362,3.0,NB
2025-07-22 14:55:56.163,0.0004931298343488,17.15554920852558,3.0,NB
2025-07-22 14:55:56.170,0.0005016241901075,20.201959983276684,3.0,NB
2025-07-22 14:55:56.178,0.0005094171251067,23.205323561717297,3.0,NB
2025-07-22 14:55:56.186,0.0005165103295136,26.113750722911732,3.0,NB
2025-07-22 14:55:56.194,0.0005229001895705,28.879208762032302,3.0,NB
2025-07-22 14:55:56.202,0.0005285744384205,31.458504661069952,3.0,NB
2025-07-22 14:55:56.209,0.0005335095085347,33.81408782820023,3.0,NB
2025-07-22 14:55:56.217,0.0005376687814377,35.914671863579656,3.0,NB
2025-07-22 14:55:56.225,0.0005410018983756,37.735679964892434,3.0,NB
2025-07-22 14:55:56.233,0.0005434452398938,39.25952266370163,3.0,NB
2025-07-22 14:55:56.241,0.0005449236049425,40.47571951869552,3.0,NB
2025-07-22 14:55:56.249,0.0005453530320099,41.38087818683642,3.0,NB
2025-07-22 14:55:56.256,0.000544644623782,41.97854501486493,3.0,NB
2025-07-22 14:55:56.264,0.0005427091675771,42.2789410648611,3.0,NB
2025-07-22 14:55:56.272,0.0005394622841469,42.298596478038526,3.0,NB
2025-07-22 14:55:56.280,0.0005348298028576,42.059894495182434,3.0,NB
2025-07-22 14:55:56.288,0.0005287530664938,41.59053451757035,3.0,NB
2025-07-22 14:55:56.295,0.0005211938915655,40.922921544823495,3.0,NB
2025-07-22 14:55:56.303,0.0005121389141967,40.0934873952744,3.0,NB
2025-07-22 14:55:56.311,0.0005016030399226,39.14194750911415,3.0,NB
2025-07-22 14:55:56.319,0.0004896317254754,38.11049603363252,3.0,NB
2025-07-22 14:55:56.327,0.0004763018821787,37.04294143626676,3.0,NB
2025-07-22 14:55:56.334,0.0004617213030176,35.98378518842941,3.0,NB
2025-07-22 14:55:56.342,0.0004460266450753,34.97724717271515,3.0,NB
2025-07-22 14:55:56.350,0.0004293800968217,34.066243406460195,3.0,NB
2025-07-22 14:55:56.358,0.0004119649006044,33.29132441889199,3.0,NB
2025-07-22 14:55:56.366,0.0003939799071622,32.68958609016224,3.0,NB
2025-07-22 14:55:56.374,0.0003756333558702,32.29356882471463,3.0,NB
2025-07-22 14:55:56.381,0.0003571361231034,32.13016539430168,3.0,NB
2025-07-22 14:55:56.389,0.0003386947391543,32.21956239379737,3.0,NB
2025-07-22 14:55:56.397,0.0003205044956633,32.57424470144087,3.0,NB
2025-07-22 14:55:56.405,0.000302742926872,33.198096285070044,3.0,NB
2025-07-22 14:55:56.413,0.0002855638730784,34.08563379446085,3.0,NB
2025-07-22 14:55:56.420,0.0002690922712246,35.22141128587229,3.0,NB
2025-07-22 14:55:56.428,0.0002534197979442,36.579634833455245,3.0,NB
2025-07-22 14:55:56.436,0.0002386015141444,38.12402444511893,3.0,NB
2025-07-22 14:55:56.444,0.0002246536939341,39.80795744104815,3.0,NB
2025-07-22 14:55:56.452,0.0002115530158793,41.57492217520534,3.0,NB
2025-07-22 14:55:56.459,0.0001992372266954,43.35930367176924,3.0,NB
2025-07-22 14:55:56.467,0.0001876072800037,45.08751348260154,3.0,NB
2025-07-22 14:55:56.475,0.0001765308533542,46.67946501087491,3.0,NB
2025-07-22 14:55:56.483,0.000165847088096,48.0503829511236,3.0,NB
2025-07-22 14:55:56.491,0.0001553723791713,49.112921736117045,3.0,NB
2025-07-22 14:55:56.499,0.0001449070351011,49.77955343308889,3.0,NB
2025-07-22 14:55:56.506,0.0001342425951731,49.96517097061858,3.0,NB
2025-07-22 14:55:56.514,0.000123169529421,49.58983855837722,3.0,NB
2025-07-22 14:55:56.522,0.0001114849944601,48.581608402451565,3.0,NB
2025-07-22 14:55:56.530,9.900029866243234e-05,46.87931207632104,3.0,NB
2025-07-22 14:55:56.538,8.55477308286917e-05,44.43522694713617,3.0,NB
2025-07-22 14:55:56.545,7.098641597071592e-05,41.21751360576838,3.0,NB
2025-07-22 14:55:56.553,5.520689457635442e-05,37.21231993786353,3.0,NB
2025-07-22 14:55:56.561,3.813419664034577e-05,32.42545177500545,3.0,NB
2025-07-22 14:55:56.569,1.9729296749704427e-05,26.883519238750917,3.0,NB
2025-07-22 14:55:56.577,-1.1032912501366505e-08,20.634481932608736,3.0,NB
2025-07-22 14:55:56.584,-2.1055836892445824e-05,13.7475347528963,3.0,NB
2025-07-22 14:55:56.592,-4.334283123497411e-05,6.312298686510877,3.0,NB
2025-07-22 14:55:56.600,-6.678220777508892e-05,-1.5626933263134877,3.0,NB
2025-07-22 14:55:56.608,-9.126106406351432e-05,-9.752197665199732,3.0,NB
2025-07-22 14:55:56.616,-0.0001166481334553,-18.117102184772797,3.0,NB
2025-07-22 14:55:56.624,-0.0001427985173718,-26.50783518865994,3.0,NB
2025-07-22 14:55:56.631,-0.000169558178332,-34.76824139770035,3.0,NB
2025-07-22 14:55:56.639,-0.0001967680339456,-42.739802716607045,3.0,NB
2025-07-22 14:55:56.647,-0.0002242675840636,-50.2660638314135,3.0,NB
2025-07-22 14:55:56.655,-0.000251898081158,-57.19711050082639,3.0,NB
2025-07-22 14:55:56.663,-0.0002795052923139,-63.39394256998267,3.0,NB
2025-07-22 14:55:56.670,-0.0003069418973869,-68.73258464262706,3.0,NB
2025-07-22 14:55:56.678,-0.000334069547125,-73.10778505243546,3.0,NB
2025-07-22 14:55:56.686,-0.0003607605917685,-76.4361679785011,3.0,NB
2025-07-22 14:55:56.694,-0.0003868994927601,-78.65872362524642,3.0,NB
2025-07-22 14:55:56.702,-0.0004123839421784,-79.74254640823223,3.0,NB
2025-07-22 14:55:56.709,-0.000437125715881,-79.68175987880599,3.0,NB
2025-07-22 14:55:56.717,-0.0004610512636677,-78.49759831665388,3.0,NB
2025-07-22 14:55:56.725,-0.0004841020180481,-76.23764704248406,3.0,NB
2025-07-22 14:55:56.733,-0.0005062344204626,-72.97427505406202,3.0,NB
2025-07-22 14:55:56.741,-0.0005274197192509,-68.80232314027852,3.0,NB
2025-07-22 14:55:56.749,-0.0005476436508791,-63.836136909602686,3.0,NB
2025-07-22 14:55:56.756,-0.0005669061433257,-58.2060561344053,3.0,NB
2025-07-22 14:55:56.764,-0.000585221167186,-52.05448867960029,3.0,NB
2025-07-22 14:55:56.772,-0.0006026168063754,-45.53170855462405,3.0,NB
2025-07-22 14:55:56.780,-0.0006191355315307,-38.79152308839272,3.0,NB
2025-07-22 14:55:56.788,-0.0006348345500359,-31.986953938751693,3.0,NB
2025-07-22 14:55:56.795,-0.0006497860055712,-25.26607092711944,3.0,NB
2025-07-22 14:55:56.803,-0.0006640767371036,-18.76810707381765,3.0,NB
2025-07-22 14:55:56.811,-0.0006778072961447,-12.619968415414755,3.0,NB
2025-07-22 14:55:56.819,-0.0006910899640409,-6.933234052887631,3.0,NB
2025-07-22 14:55:56.827,-0.000704045608146,-1.80172132203567,3.0,NB
2025-07-22 14:55:56.834,-0.0007167993552093,2.700331067385408,3.0,NB
2025-07-22 14:55:56.842,-0.0007294752141624,6.5194316951073565,3.0,NB
2025-07-22 14:55:56.850,-0.0007421899216328,9.62334900906228,3.0,NB
2025-07-22 14:55:56.858,-0.0007550463982154,12.000981248673954,3.0,NB
2025-07-22 14:55:56.866,-0.0007681272853543,13.661616805397609,3.0,NB
2025-07-22 14:55:56.874,-0.0007814890696726,14.633635615771224,3.0,NB
2025-07-22 14:55:56.881,-0.0007951572718062,14.962717127791922,3.0,NB
2025-07-22 14:55:56.889,-0.0008091230687647,14.709632473974889,3.0,NB
2025-07-22 14:55:56.897,-0.0008233415595773,13.947707520429285,3.0,NB
2025-07-22 14:55:56.905,-0.0008377317250768,12.760049324483418,3.0,NB
2025-07-22 14:55:56.913,-0.0008521780044077,11.23663119298658,3.0,NB
2025-07-22 14:55:56.920,-0.0008665333146301,9.471331046684645,3.0,NB
2025-07-22 14:55:56.928,-0.0008806232807067,7.559014314472736,3.0,NB
2025-07-22 14:55:56.936,-0.0008942514363466,5.592746353042471,3.0,NB
2025-07-22 14:55:56.944,-0.0009072051986522,3.661210748882152,3.0,NB
2025-07-22 14:55:56.952,-0.0009192624773485,1.8463992171869716,3.0,NB
2025-07-22 14:55:56.959,-0.0009301988052471,0.2216266241190669,3.0,NB
2025-07-22 14:55:56.967,-0.0009397948393888,-1.15008857878261,3.0,NB
2025-07-22 14:55:56.975,-0.0009478439926517,-2.217251987871259,3.0,NB
2025-07-22 14:55:56.983,-0.000954159863918,-2.940716209685903,3.0,NB
2025-07-22 14:55:56.991,-0.0009585830919697,-3.2940997151459976,3.0,NB
2025-07-22 14:55:56.999,-0.0009609872776184,-3.263814524680136,3.0,NB
2025-07-22 14:55:57.006,-0.0009612836822697,-2.8487267359627144,3.0,NB
2025-07-22 14:55:57.014,-0.00095942450476,-2.0594833791714096,3.0,NB
2025-07-22 14:55:57.022,-0.0009554046627859,-0.9175467518732492,3.0,NB
2025-07-22 14:55:57.030,-0.0009492621474853,0.5460168711283623,3.0,NB
2025-07-22 14:55:57.038,-0.0009410771318638,2.291943473266819,3.0,NB
2025-07-22 14:55:57.045,-0.0009309700491663,4.27431993201812,3.0,NB
2025-07-22 14:55:57.053,-0.0009190988177943,6.442222457880543,3.0,NB
2025-07-22 14:55:57.061,-0.0009056553153894,8.741393835327028,3.0,NB
2025-07-22 14:55:57.069,-0.0008908611330067,11.115911494789597,3.0,NB
2025-07-22 14:55:57.077,-0.0008749625878627,13.509802661835046,3.0,NB
2025-07-22 14:55:57.084,-0.0008582249462903,15.868567969148998,3.0,NB
2025-07-22 14:55:57.092,-0.0008409258107551,18.140580709711145,3.0,NB
2025-07-22 14:55:57.100,-0.0008233476582829,20.27833508902718,3.0,NB
2025-07-22 14:55:57.108,-0.0008057695831592,22.239523141762085,3.0,NB
2025-07-22 14:55:57.116,-0.0007884583935482,23.98792616974744,3.0,NB
2025-07-22 14:55:57.124,-0.0007716593358538,25.49411241153088,3.0,NB
2025-07-22 14:55:57.131,-0.0007555868571336,26.7359379714845,3.0,NB
2025-07-22 14:55:57.139,-0.000740415927597,27.698852655940595,3.0,NB
2025-07-22 14:55:57.147,-0.0007262744825919,28.37601617166752,3.0,NB
2025-07-22 14:55:57.155,-0.0007132374821623,28.768233091270037,3.0,NB
2025-07-22 14:55:57.163,-0.0007013229508381,28.883717105838866,3.0,NB
2025-07-22 14:55:57.170,-0.0006904902006722,28.73769645738697,3.0,NB
2025-07-22 14:55:57.178,-0.0006806402941924,28.351873213633908,3.0,NB
2025-07-22 14:55:57.186,-0.0006716186865467,27.753749393309512,3.0,NB
2025-07-22 14:55:57.194,-0.00066321990238,26.97583306971844,3.0,NB
2025-07-22 14:55:57.202,-0.0006551940530623,26.05473767439576,3.0,NB
2025-07-22 14:55:57.209,-0.0006472549745983,25.030187973913,3.0,NB
2025-07-22 14:55:57.217,-0.000639089743013,23.94394674887161,3.0,NB
2025-07-22 14:55:57.225,-0.000630369279503,22.838677167101352,3.0,NB
2025-07-22 14:55:57.233,-0.0006207596934699,21.75675726413897,3.0,NB
2025-07-22 14:55:57.241,-0.000609933951275,20.73906481844869,3.0,NB
2025-07-22 14:55:57.249,-0.0005975834195798,19.82375317490012,3.0,NB
2025-07-22 14:55:57.256,-0.0005834288136537,19.04504111444742,3.0,NB
2025-07-22 14:55:57.264,-0.0005672300851866,18.43204253351202,3.0,NB
2025-07-22 14:55:57.272,-0.0005487948257325,18.007664287456347,3.0,NB
2025-07-22 14:55:57.280,-0.000527984841767,17.787602839908757,3.0,NB
2025-07-22 14:55:57.288,-0.0005047206524633,17.7794720929098,3.0,NB
2025-07-22 14:55:57.295,-0.000478983758256,17.982095696766546,3.0,NB
2025-07-22 14:55:57.303,-0.0004508166398441,18.38499701134727,3.0,NB
2025-07-22 14:55:57.311,-0.0004203205826517,18.96811849725022,3.0,NB
2025-07-22 14:55:57.319,-0.0003876515566793,19.701799478166336,3.0,NB
2025-07-22 14:55:57.327,-0.0003530144707807,20.547036807281856,3.0,NB
2025-07-22 14:55:57.334,-0.0003166561410739,21.45604692819172,3.0,NB
2025-07-22 14:55:57.342,-0.0002788572908431,22.3731401605246,3.0,NB
2025-07-22 14:55:57.350,-0.0002399238817937,23.23590886661558,3.0,NB
2025-07-22 14:55:57.358,-0.0002001780884653,23.976720665755675,3.0,NB
2025-07-22 14:55:57.366,-0.0001599492497434,24.52449634770672,3.0,NB
2025-07-22 14:55:57.374,-0.0001195651208803,24.80673997597348,3.0,NB
2025-07-22 14:55:57.381,-7.934368539031773e-05,24.75177632043292,3.0,NB
2025-07-22 14:55:57.389,-3.9585694943148256e-05,24.29113874072693,3.0,NB
2025-07-22 14:55:57.397,-5.680350649195072e-07,23.362039529825594,3.0,NB
2025-07-22 14:55:57.405,3.746201079317471e-05,21.909845127694197,3.0,NB
2025-07-22 14:55:57.413,7.429152668172854e-05,19.89047114421358,3.0,NB
2025-07-22 14:55:57.420,0.000109745706836,17.272607385127447,3.0,NB
2025-07-22 14:55:57.428,0.0001436905853996,14.039681595990396,3.0,NB
2025-07-22 14:55:57.436,0.0001760348428158,10.191472872020183,3.0,NB
2025-07-22 14:55:57.444,0.000206730828571,5.745291934976811,3.0,NB
2025-07-22 14:55:57.452,0.0002357749285456,0.7366558854121643,3.0,NB
2025-07-22 14:55:57.460,0.000263207334,-4.7806004764000605,3.0,NB
2025-07-22 14:55:57.467,0.0002891111731711,-10.73481641825922,3.0,NB
2025-07-22 14:55:57.475,0.0003136108961639,-17.037618337423282,3.0,NB
2025-07-22 14:55:57.483,0.000336869786142,-23.58564846355728,3.0,NB
2025-07-22 14:55:57.491,0.0003590864856308,-30.262878301494386,3.0,NB
2025-07-22 14:55:57.499,0.0003804904425863,-36.94345045630403,3.0,NB
2025-07-22 14:55:57.506,0.0004013361973995,-43.49496812790064,3.0,NB
2025-07-22 14:55:57.514,0.0004218964838797,-49.7821296536378,3.0,NB
