Timestamp,GSR_Filtered,PPG_Filtered
2025-05-30 16:11:35.367,-4.4208844469859065e-05,0.9293119971966356
2025-05-30 16:11:35.375,-2.139454116753943e-05,1.0160064200030146
2025-05-30 16:11:35.383,4.656659470660688e-07,1.1108701725131476
2025-05-30 16:11:35.391,2.1014594440629643e-05,1.2114314890696865
2025-05-30 16:11:35.399,3.993481341408685e-05,1.3150409963781784
2025-05-30 16:11:35.406,5.69572542746748e-05,1.4189347483249082
2025-05-30 16:11:35.414,7.186872215673922e-05,1.5203001290674447
2025-05-30 16:11:35.422,8.451816161175235e-05,1.6163434015686728
2025-05-30 16:11:35.430,9.482150987685796e-05,1.7043576358823134
2025-05-30 16:11:35.438,0.0001027649166303,1.7817896627019565
2025-05-30 16:11:35.446,0.0001084060676814,1.846304570085888
2025-05-30 16:11:35.453,0.0001118733504172,1.8958461161076692
2025-05-30 16:11:35.461,0.0001133626343671,1.928691299016048
2025-05-30 16:11:35.469,0.0001131314997803,1.9434972472071717
2025-05-30 16:11:35.477,0.0001114908527516,1.9393386047318009
2025-05-30 16:11:35.485,0.000108794040676,1.915733730698487
2025-05-30 16:11:35.492,0.00010542379038,1.8726583231515688
2025-05-30 16:11:35.500,0.0001017774578855,1.8105455150290863
2025-05-30 16:11:35.508,9.825117652215746e-05,1.7302720429165832
2025-05-30 16:11:35.516,9.522356254676314e-05,1.6331307151531336
2025-05-30 16:11:35.524,9.303971708391907e-05,1.5207900559411087
2025-05-30 16:11:35.531,9.199631331939196e-05,1.3952426274084535
2025-05-30 16:11:35.539,9.232852911551016e-05,1.2587440839822666
2025-05-30 16:11:35.547,9.419949075422328e-05,1.113745449851233
2025-05-30 16:11:35.555,9.769278254210546e-05,0.9628213994187091
2025-05-30 16:11:35.563,0.0001028084597392,0.8085974464413654
2025-05-30 16:11:35.571,0.0001094628479972,0.653678906519323
2025-05-30 16:11:35.578,0.0001174922127182,0.5005842953157457
2025-05-30 16:11:35.586,0.0001266601750689,0.3516854767957601
2025-05-30 16:11:35.594,0.0001366685766221,0.209156409809579
2025-05-30 16:11:35.602,0.0001471713422856,0.0749317964316883
2025-05-30 16:11:35.610,0.0001577907220236,-0.0493236451227905
2025-05-30 16:11:35.617,0.000168135098582,-0.1622351359097645
2025-05-30 16:11:35.625,0.0001778173822023,-0.2627274086964928
2025-05-30 16:11:35.633,0.0001864729461407,-0.3500247522827464
2025-05-30 16:11:35.641,0.0001937761218842,-0.4236427555916448
2025-05-30 16:11:35.649,0.0001994544373159,-0.4833732434661298
2025-05-30 16:11:35.656,0.0002032999729573,-0.5292640423497245
2025-05-30 16:11:35.664,0.0002051773798324,-0.561595239595469
2025-05-30 16:11:35.672,0.0002050282533465,-0.580853509232647
2025-05-30 16:11:35.680,0.0002028717223223,-0.587705883801744
2025-05-30 16:11:35.688,0.0001988012897467,-0.5829740814320877
2025-05-30 16:11:35.696,0.0001929781226893,-0.5676101816015537
2025-05-30 16:11:35.703,0.0001856211323977,-0.5426741131751794
2025-05-30 16:11:35.711,0.0001769943455921,-0.509313099883404
2025-05-30 16:11:35.719,0.0001673922611171,-0.4687429229524048
2025-05-30 16:11:35.727,0.000157124083337,-0.4222306299297296
2025-05-30 16:11:35.735,0.0001464978659668,-0.3710781638156973
2025-05-30 16:11:35.742,0.0001358056281773,-0.3166063214738549
2025-05-30 16:11:35.750,0.0001253103942078,-0.2601384781136152
2025-05-30 16:11:35.758,0.0001152358855307,-0.2029836287464184
2025-05-30 16:11:35.766,0.0001057593160801,-0.1526544402959917
2025-05-30 16:11:35.774,9.700745809311895e-05,-0.1039184266853246
2025-05-30 16:11:35.781,8.905590059332219e-05,-0.0581578484954077
2025-05-30 16:11:35.789,8.193123664929136e-05,-0.0167123043640349
2025-05-30 16:11:35.797,7.561577321474465e-05,0.019150745162786
2025-05-30 16:11:35.805,7.00542278551323e-05,0.0482660490576203
2025-05-30 16:11:35.813,6.516177278384052e-05,0.0696003256059415
2025-05-30 16:11:35.821,6.083276758409004e-05,0.082280757443691
2025-05-30 16:11:35.828,5.694961959751077e-05,0.0856212676240014
2025-05-30 16:11:35.836,5.3391374779460495e-05,0.0791456537999058
2025-05-30 16:11:35.844,5.00417752762064e-05,0.0626067085775188
2025-05-30 16:11:35.852,4.679656378629722e-05,0.0360005155596106
2025-05-30 16:11:35.860,4.356978825548344e-05,-0.0004248171621392
2025-05-30 16:11:35.867,4.0298829880702047e-05,-0.0461666308391563
2025-05-30 16:11:35.875,3.694789154520257e-05,-0.10047191479569
2025-05-30 16:11:35.883,3.350974114620534e-05,-0.1623485813936826
2025-05-30 16:11:35.891,3.0005582264216075e-05,-0.2305839669480441
2025-05-30 16:11:35.899,2.6483021182367736e-05,-0.3037704795660765
2025-05-30 16:11:35.906,2.3012223052191903e-05,-0.3803380683378939
2025-05-30 16:11:35.914,1.968048747988338e-05,-0.4585929339527282
2025-05-30 16:11:35.922,1.6585594560790048e-05,-0.5367616491136823
2025-05-30 16:11:35.930,1.382836275157928e-05,-0.6130396170502134
2025-05-30 16:11:35.938,1.1504928349480802e-05,-0.6856425745542464
2025-05-30 16:11:35.946,9.699300324295865e-06,-0.7528596494938101
2025-05-30 16:11:35.953,8.476739238447098e-06,-0.8131063243358204
2025-05-30 16:11:35.961,7.8784417104479e-06,-0.8649755550760871
2025-05-30 16:11:35.969,7.91789876310521e-06,-0.9072852657331026
2025-05-30 16:11:35.977,8.579161866928346e-06,-0.9391204885474186
2025-05-30 16:11:35.985,9.817108166934391e-06,-0.9598685434077424
2025-05-30 16:11:35.992,1.15596519048355e-05,-0.9692458342975186
2025-05-30 16:11:36.000,1.3711706453048033e-05,-0.9673150733365874
2025-05-30 16:11:36.008,1.6160564671377e-05,-0.9544920157703324
2025-05-30 16:11:36.016,1.878224004311787e-05,-0.931541098446282
2025-05-30 16:11:36.024,2.1448210742910043e-05,-0.8995597202346953
2025-05-30 16:11:36.032,2.4031959297592304e-05,-0.859951285801563
2025-05-30 16:11:36.039,2.641472771193128e-05,-0.8143875479562666
2025-05-30 16:11:36.047,2.849001887722725e-05,-0.7647612105858046
2025-05-30 16:11:36.055,3.016655601838956e-05,-0.713130165433155
2025-05-30 16:11:36.063,3.136963369844447e-05,-0.6616551002673234
2025-05-30 16:11:36.071,3.2041014580494134e-05,-0.6125325074860323
2025-05-30 16:11:36.078,3.213770400876516e-05,-0.5679253239103395
2025-05-30 16:11:36.086,3.1630040851334346e-05,-0.5298935343695578
2025-05-30 16:11:36.094,3.0499565016047415e-05,-0.5003270684343842
2025-05-30 16:11:36.102,2.8737067721842575e-05,-0.480883213815647
2025-05-30 16:11:36.110,2.634112716041754e-05,-0.4729305761572773
2025-05-30 16:11:36.117,2.3317306917578477e-05,-0.4775013578064938
2025-05-30 16:11:36.125,1.967806244038676e-05,-0.4952534317661261
2025-05-30 16:11:36.133,1.544327060600236e-05,-0.5264433663108707
2025-05-30 16:11:36.141,1.0641184141225184e-05,-0.5709112174686339
2025-05-30 16:11:36.149,5.309543698167915e-06,-0.6280775562969518
2025-05-30 16:11:36.157,-5.034184202214505e-07,-0.6969528433725287
2025-05-30 16:11:36.164,-6.738278852363165e-06,-0.7761589123138668
2025-05-30 16:11:36.172,-1.3324119955724591e-05,-0.8639619844131998
2025-05-30 16:11:36.180,-2.0178625549360384e-05,-0.9583163143741472
2025-05-30 16:11:36.188,-2.720853977581773e-05,-1.0569172699521332
2025-05-30 16:11:36.196,-3.4310467668535424e-05,-1.157262381758606
2025-05-30 16:11:36.203,-4.137203966322536e-05,-1.2567186668121368
2025-05-30 16:11:36.211,-4.8273508612164975e-05,-1.352594333104248
2025-05-30 16:11:36.219,-5.488987513113366e-05,-1.4422128170833428
2025-05-30 16:11:36.227,-6.109362117617932e-05,-1.5229869984759383
2025-05-30 16:11:36.235,-6.675805998510431e-05,-1.5924913846576958
2025-05-30 16:11:36.242,-7.176120835156569e-05,-1.6485300671363217
2025-05-30 16:11:36.250,-7.599000412704523e-05,-1.689198333895272
2025-05-30 16:11:36.258,-7.934465400924028e-05,-1.7129359817854612
2025-05-30 16:11:36.266,-8.17428928551761e-05,-1.7185706168988122
2025-05-30 16:11:36.274,-8.312394547047365e-05,-1.7053495534341456
2025-05-30 16:11:36.282,-8.345199564758712e-05,-1.6729593107678755
2025-05-30 16:11:36.289,-8.271898390112253e-05,-1.6215321485561478
2025-05-30 16:11:36.297,-8.094657532070555e-05,-1.5516395533412706
2025-05-30 16:11:36.305,-7.818716270013287e-05,-1.464273076282147
2025-05-30 16:11:36.313,-7.452379804805917e-05,-1.360813393825226
2025-05-30 16:11:36.321,-7.006897810078582e-05,-1.242988891941502
2025-05-30 16:11:36.328,-6.496224676474547e-05,-1.1128254340853094
2025-05-30 16:11:36.336,-5.936661954667232e-05,-0.9725892464059568
2025-05-30 16:11:36.344,-5.3463881774928064e-05,-0.8247250321347371
2025-05-30 16:11:36.352,-4.744886328687004e-05,-0.6717915045766396
2025-05-30 16:11:36.360,-4.152284645391954e-05,-0.516396500375655
2025-05-30 16:11:36.367,-3.588632080824886e-05,-0.3611337030738547
2025-05-30 16:11:36.375,-3.073135466045559e-05,-0.2085227823136315
2025-05-30 16:11:36.383,-2.6233910174547456e-05,-0.0609544560253414
2025-05-30 16:11:36.391,-2.2546481324106684e-05,0.0793583624425035
2025-05-30 16:11:36.399,-1.979148005410746e-05,0.2104225331245147
2025-05-30 16:11:36.407,-1.80558210180553e-05,0.3304993251110005
2025-05-30 16:11:36.414,-1.7387126580284192e-05,0.4381315826880918
2025-05-30 16:11:36.422,-1.779185700696863e-05,0.5321635458004605
2025-05-30 16:11:36.430,-1.9235478617564944e-05,0.6117536493302461
2025-05-30 16:11:36.438,-2.1644589108920224e-05,0.6763807618842399
2025-05-30 16:11:36.446,-2.4910796594766875e-05,0.7258443923502641
2025-05-30 16:11:36.453,-2.8896099978937827e-05,0.7602593921233486
2025-05-30 16:11:36.461,-3.343948788486962e-05,0.7800456236107723
2025-05-30 16:11:36.469,-3.836441712486372e-05,0.7859129732229667
2025-05-30 16:11:36.477,-4.348676179619992e-05,0.778841986493082
2025-05-30 16:11:36.485,-4.862278609875336e-05,0.7600603181896548
2025-05-30 16:11:36.492,-5.359671141487037e-05,0.7310151373848263
2025-05-30 16:11:36.500,-5.824750704601728e-05,0.6933416155800113
2025-05-30 16:11:36.508,-6.243461085195172e-05,0.6488276604948247
2025-05-30 16:11:36.516,-6.60423685051414e-05,0.5993751411859382
2025-05-30 16:11:36.524,-6.898306399773684e-05,0.5469579800910942
2025-05-30 16:11:36.532,-7.119849709001401e-05,0.493577659077433
2025-05-30 16:11:36.539,-7.266014346448932e-05,0.4412168906254933
2025-05-30 16:11:36.547,-7.336800858544283e-05,0.3917924271960358
2025-05-30 16:11:36.555,-7.334835503837426e-05,0.3471081992517129
2025-05-30 16:11:36.563,-7.265054242885562e-05,0.3088101569277877
2025-05-30 16:11:36.571,-7.134325791271654e-05,0.2783443129675583
2025-05-30 16:11:36.578,-6.951041256157758e-05,0.2569195220335848
2025-05-30 16:11:36.586,-6.724692211143814e-05,0.2454764704819013
2025-05-30 16:11:36.594,-6.465450598012238e-05,0.2446641884131606
2025-05-30 16:11:36.602,-6.183757524633749e-05,0.2548251394371808
2025-05-30 16:11:36.610,-5.889926427059025e-05,0.2759896096241679
2025-05-30 16:11:36.617,-5.593767974887681e-05,0.307879730557453
2025-05-30 16:11:36.625,-5.3042473513255086e-05,0.3499230622309385
2025-05-30 16:11:36.633,-5.029188032593813e-05,0.4012752588348368
2025-05-30 16:11:36.641,-4.775039450690392e-05,0.4608509677003291
2025-05-30 16:11:36.649,-4.546727816582725e-05,0.5273617864007402
2025-05-30 16:11:36.657,-4.347607511941111e-05,0.5993598395632376
2025-05-30 16:11:36.664,-4.179522563440712e-05,0.6752853470184509
2025-05-30 16:11:36.672,-4.042974195198598e-05,0.7535164449509563
2025-05-30 16:11:36.680,-3.937375016619781e-05,0.8324194914668241
2025-05-30 16:11:36.688,-3.861358126076172e-05,0.9103981332631476
2025-05-30 16:11:36.696,-3.8131039594362577e-05,0.9859395260743448
2025-05-30 16:11:36.703,-3.790649406834048e-05,1.0576562820938422
2025-05-30 16:11:36.711,-3.792150179385968e-05,1.1243229517238804
2025-05-30 16:11:36.719,-3.816076079073586e-05,1.1849061186111545
2025-05-30 16:11:36.727,-3.861328389213521e-05,1.238587478076964
2025-05-30 16:11:36.735,-3.927278367434598e-05,1.2847795643496138
2025-05-30 16:11:36.742,-4.01373444527042e-05,1.3231340798368854
2025-05-30 16:11:36.750,-4.120850785777288e-05,1.353543050425564
2025-05-30 16:11:36.758,-4.248989842903e-05,1.3761332747979689
2025-05-30 16:11:36.766,-4.398548794808573e-05,1.3912547426817687
2025-05-30 16:11:36.774,-4.5697588576950734e-05,1.3994638560597688
2025-05-30 16:11:36.782,-4.762469838335138e-05,1.4015023882084976
2025-05-30 16:11:36.789,-4.975938412742153e-05,1.3982731503319
2025-05-30 16:11:36.797,-5.208644990312005e-05,1.3908133043632065
2025-05-30 16:11:36.805,-5.4581682432187554e-05,1.3802661734793065
2025-05-30 16:11:36.813,-5.721144989349298e-05,1.3678522757921094
2025-05-30 16:11:36.821,-5.9933326992167125e-05,1.3548401571646722
2025-05-30 16:11:36.828,-6.269773774080132e-05,1.3425174375432127
2025-05-30 16:11:36.836,-6.545042386842467e-05,1.3321623228581645
2025-05-30 16:11:36.844,-6.813543574798602e-05,1.3250156872021015
2025-05-30 16:11:36.852,-7.069831782588519e-05,1.3222537168478632
2025-05-30 16:11:36.860,-7.308918821773967e-05,1.324961045660649
2025-05-30 16:11:36.867,-7.526546025528844e-05,1.3341043103795551
2025-05-30 16:11:36.875,-7.719400909611249e-05,1.3505061158181817
2025-05-30 16:11:36.883,-7.885264547206825e-05,1.374819519451362
2025-05-30 16:11:36.891,-8.023081932959523e-05,1.4075033121113931
2025-05-30 16:11:36.899,-8.132953663334237e-05,1.4487985712542082
2025-05-30 16:11:36.907,-8.216053117286593e-05,1.4987071732811947
2025-05-30 16:11:36.914,-8.274478814523165e-05,1.556973142423883
2025-05-30 16:11:36.922,-8.311056602595481e-05,1.6230678536493388
2025-05-30 16:11:36.930,-8.329110637405961e-05,1.6961801690620326
2025-05-30 16:11:36.938,-8.3322254868281e-05,1.7752125561860002
2025-05-30 16:11:36.946,-8.324023028266534e-05,1.858784110357597
2025-05-30 16:11:36.953,-8.307974979844819e-05,1.945241191217588
2025-05-30 16:11:36.961,-8.287263716304517e-05,2.03267610167724
2025-05-30 16:11:36.969,-8.264693064469912e-05,2.1189539086505738
2025-05-30 16:11:36.977,-8.242642014886549e-05,2.2017471536020343
2025-05-30 16:11:36.985,-8.223050324112098e-05,2.278577855089776
2025-05-30 16:11:36.992,-8.207424647778649e-05,2.3468658927816204
2025-05-30 16:11:37.000,-8.196855015646833e-05,2.4039826067014984
2025-05-30 16:11:37.008,-8.192033096408077e-05,2.447308262154542
2025-05-30 16:11:37.016,-8.193265560799393e-05,2.4742919265127323
2025-05-30 16:11:37.024,-8.200477853355133e-05,2.482512279773724
2025-05-30 16:11:37.032,-8.21320574029934e-05,2.469737932020199
2025-05-30 16:11:37.039,-8.230574028393516e-05,2.433985932303317
2025-05-30 16:11:37.047,-8.251263764391132e-05,2.3735772955814234
2025-05-30 16:11:37.055,-8.273470949550912e-05,2.287188510390652
2025-05-30 16:11:37.063,-8.294861268164403e-05,2.173898089650101
2025-05-30 16:11:37.071,-8.312526472404523e-05,2.0332272757315994
2025-05-30 16:11:37.078,-8.322948838471396e-05,1.8651740090343536
2025-05-30 16:11:37.086,-8.321980474490903e-05,1.6702392285876857
2025-05-30 16:11:37.094,-8.304844196854447e-05,1.44944451475145
2025-05-30 16:11:37.102,-8.266162192203262e-05,1.2043400350741769
2025-05-30 16:11:37.110,-8.200017756955605e-05,0.9370017432884435
2025-05-30 16:11:37.117,-8.100054081821843e-05,0.650016834968022
2025-05-30 16:11:37.125,-7.959612368573544e-05,0.3464566043586194
2025-05-30 16:11:37.133,-7.771909590117775e-05,0.0298360904037276
2025-05-30 16:11:37.141,-7.53025400765258e-05,-0.2959397507151144
2025-05-30 16:11:37.149,-7.228294229104627e-05,-0.6266431639330697
2025-05-30 16:11:37.157,-6.860295231682202e-05,-0.957803301871672
2025-05-30 16:11:37.164,-6.421432487892216e-05,-1.2847972503223335
2025-05-30 16:11:37.172,-5.908093244512391e-05,-1.602950519987258
2025-05-30 16:11:37.180,-5.318172225997435e-05,-1.9076445802796769
2025-05-30 16:11:37.188,-4.651347684293935e-05,-2.1944284816103647
2025-05-30 16:11:37.196,-3.909322906762348e-05,-2.45913116145455
2025-05-30 16:11:37.203,-3.096018122985301e-05,-2.697970695784579
2025-05-30 16:11:37.211,-2.2176983044401685e-05,-2.90765657537752
2025-05-30 16:11:37.219,-1.283023692958186e-05,-3.085481079801379
2025-05-30 16:11:37.227,-3.0301206449507915e-06,-3.229396004213072
2025-05-30 16:11:37.235,7.090952550201554e-06,-3.3380713703571843
2025-05-30 16:11:37.242,1.738067776720657e-05,-3.4109333171820517
2025-05-30 16:11:37.250,2.767020204484628e-05,-3.448179098018077
2025-05-30 16:11:37.258,3.777841069444959e-05,-3.4507679771939275
2025-05-30 16:11:37.266,4.751704164335248e-05,-3.420387778189646
2025-05-30 16:11:37.274,5.6696451465034255e-05,-3.3593978422640056
2025-05-30 16:11:37.282,6.513179369682541e-05,-3.2707501621119763
2025-05-30 16:11:37.289,7.264930940683995e-05,-3.15789140994288
2025-05-30 16:11:37.297,7.909238412779586e-05,-3.0246494368987458
2025-05-30 16:11:37.305,8.432701932299573e-05,-2.8751085395390628
2025-05-30 16:11:37.313,8.824642434603148e-05,-2.713478330958689
2025-05-30 16:11:37.321,9.077455367405353e-05,-2.5439613813433595
2025-05-30 16:11:37.328,9.18685582816618e-05,-2.370624872741098
2025-05-30 16:11:37.336,9.152023982127204e-05,-2.19728132954898
2025-05-30 16:11:37.344,8.975665630904018e-05,-2.027383048889273
2025-05-30 16:11:37.352,8.66400260900603e-05,-1.863934195238215
2025-05-30 16:11:37.360,8.226703758555825e-05,-1.7094236850024
2025-05-30 16:11:37.367,7.676762173112148e-05,-1.5657810166191082
2025-05-30 16:11:37.375,7.0303195477646e-05,-1.4343561492462855
2025-05-30 16:11:37.383,6.306434332021867e-05,-1.3159234498500445
2025-05-30 16:11:37.391,5.526787261427718e-05,-1.210708668052917
2025-05-30 16:11:37.399,4.715316000000702e-05,-1.11843691255016
2025-05-30 16:11:37.407,3.8977702541393255e-05,-1.0383987390315508
2025-05-30 16:11:37.414,3.101179945201271e-05,-0.9695307562183898
2025-05-30 16:11:37.422,2.3532319013798977e-05,-0.9105066421543718
2025-05-30 16:11:37.430,1.6815550173612574e-05,-0.8598341524144658
2025-05-30 16:11:37.438,1.1129198170989833e-05,-0.815953597149965
2025-05-30 16:11:37.446,6.723656433344102e-06,-0.7773333566643268
2025-05-30 16:11:37.453,3.822770113498052e-06,-0.7425582818984169
2025-05-30 16:11:37.461,2.614396563871735e-06,-0.7104072696661459
2025-05-30 16:11:37.469,3.241160646111425e-06,-0.6799168914835967
2025-05-30 16:11:37.477,5.791891845034921e-06,-0.650428663715399
2025-05-30 16:11:37.485,1.029430106191892e-05,-0.6216183462154014
2025-05-30 16:11:37.492,1.670948197698881e-05,-0.5935065142886002
2025-05-30 16:11:37.500,2.492878707299536e-05,-0.5664505281575014
2025-05-30 16:11:37.508,3.477354193303059e-05,-0.5411188827102614
2025-05-30 16:11:37.516,4.599793673772135e-05,-0.5184497114390093
2025-05-30 16:11:37.524,5.829525161489702e-05,-0.4995958991099066
2025-05-30 16:11:37.532,7.130731221009386e-05,-0.4858597975592316
2025-05-30 16:11:37.539,8.463677481306453e-05,-0.4786209231247841
2025-05-30 16:11:37.547,9.786159673022712e-05,-0.4792602374805544
2025-05-30 16:11:37.555,0.000110550918194,-0.489084673894527
2025-05-30 16:11:37.563,0.0001222815588924,-0.5092554676769815
2025-05-30 16:11:37.571,0.0001326543711507,-0.540723586862313
2025-05-30 16:11:37.578,0.0001413097585867,-0.5841751469957811
2025-05-30 16:11:37.586,0.0001479417501795,-0.6399891475542977
2025-05-30 16:11:37.594,0.0001523101115947,-0.7082092076554428
2025-05-30 16:11:37.602,0.0001542500766255,-0.7885302333397145
2025-05-30 16:11:37.610,0.0001536793902953,-0.8803001553826633
2025-05-30 16:11:37.617,0.0001506024686727,-0.9825360817521068
2025-05-30 16:11:37.625,0.0001451115879413,-1.0939534640673914
2025-05-30 16:11:37.633,0.0001373850950484,-1.213006235023282
2025-05-30 16:11:37.641,0.0001276826719787,-1.3379353820423483
2025-05-30 16:11:37.649,0.0001163377103636,-1.4668231186748142
2025-05-30 16:11:37.657,0.0001037469110184,-1.597649717387544
2025-05-30 16:11:37.664,9.035733808894293e-05,-1.7283501700027208
2025-05-30 16:11:37.672,7.665131381300996e-05,-1.8568681194756107
2025-05-30 16:11:37.680,6.312970316341188e-05,-1.9812049198027832
2025-05-30 16:11:37.688,5.0294271071441216e-05,-2.0994621829778124
2025-05-30 16:11:37.696,3.862987038644069e-05,-2.20987671283711
2025-05-30 16:11:37.703,2.8587233961424266e-05,-2.310847257132452
2025-05-30 16:11:37.711,2.0567119687537467e-05,-2.400952993442022
2025-05-30 16:11:37.719,1.4906505939005224e-05,-2.478964079863942
2025-05-30 16:11:37.727,1.1867443956225588e-05,-2.543844939493831
2025-05-30 16:11:37.735,1.1629023073328946e-05,-2.594751205867242
2025-05-30 16:11:37.742,1.4282697098017018e-05,-2.6310214335956967
2025-05-30 16:11:37.750,1.9830984399389767e-05,-2.652164775974212
2025-05-30 16:11:37.758,2.818932969577912e-05,-2.6578458561771634
2025-05-30 16:11:37.766,3.919074902389551e-05,-2.6478680210914933
2025-05-30 16:11:37.774,5.2592818745930896e-05,-2.622156076855812
2025-05-30 16:11:37.782,6.808662438445547e-05,-2.580739471382374
2025-05-30 16:11:37.789,8.530739429267485e-05,-2.523736721996942
2025-05-30 16:11:37.797,0.0001038466078285,-2.451341701723021
2025-05-30 16:11:37.805,0.0001232653285,-2.363812215815264
2025-05-30 16:11:37.813,0.0001431083911185,-2.261461139633877
2025-05-30 16:11:37.821,0.0001629189457383,-2.1446502617978425
2025-05-30 16:11:37.828,0.0001822528017095,-2.013786885763503
2025-05-30 16:11:37.836,0.000200692036896,-1.86932318187431
2025-05-30 16:11:37.844,0.0002178574030523,-1.7117582341362587
2025-05-30 16:11:37.852,0.0002334191337217,-1.5416426686140263
2025-05-30 16:11:37.860,0.0002471058356824,-1.359585661934298
2025-05-30 16:11:37.867,0.0002587112158959,-1.1662639982413796
2025-05-30 16:11:37.875,0.0002680984704921,-0.9624326756948106
2025-05-30 16:11:37.883,0.0002752022628347,-0.7489363759596513
2025-05-30 16:11:37.891,0.0002800283445977,-0.5267209255296501
2025-05-30 16:11:37.899,0.0002826509795032,-0.2968437241380648
2025-05-30 16:11:37.907,0.0002832083575803,-0.0604820232677165
2025-05-30 16:11:37.914,0.0002818961404772,0.1810620682376242
2025-05-30 16:11:37.922,0.0002789592270436,0.4263608840844783
2025-05-30 16:11:37.930,0.000274681846275,0.6738656589574968
2025-05-30 16:11:37.938,0.0002693761835245,0.9219167484264194
2025-05-30 16:11:37.946,0.0002633698900144,1.1687599157098767
2025-05-30 16:11:37.953,0.0002569929789858,1.4125686678507328
2025-05-30 16:11:37.961,0.0002505647471136,1.6514722966911954
2025-05-30 16:11:37.969,0.000244381438668,1.883588967230272
2025-05-30 16:11:37.977,0.0002387053441573,2.107062911738932
2025-05-30 16:11:37.985,0.0002337558745383,2.320104541816233
2025-05-30 16:11:37.992,0.0002297029158264,2.5210320905397534
2025-05-30 16:11:38.000,0.0002266625315166,2.7083132532107044
2025-05-30 16:11:38.008,0.0002246949175547,2.8806052191038414
2025-05-30 16:11:38.016,0.0002238044425325,3.0367914862429277
2025-05-30 16:11:38.024,0.0002239415811497,3.176013928965617
2025-05-30 16:11:38.032,0.0002250065267543,3.297698740761368
2025-05-30 16:11:38.039,0.0002268542460979,3.401575094563277
2025-05-30 16:11:38.047,0.0002293007396726,3.48768563571043
2025-05-30 16:11:38.055,0.0002321303004348,3.556388229092323
2025-05-30 16:11:38.063,0.0002351035985214,3.608348698560349
2025-05-30 16:11:38.071,0.0002379664342326,3.644524605327626
2025-05-30 16:11:38.078,0.0002404589927987,3.6661404041894823
2025-05-30 16:11:38.086,0.0002423254050546,3.674654590769627
2025-05-30 16:11:38.094,0.0002433233557632,3.671719710044272
2025-05-30 16:11:38.102,0.0002432333785063,3.6591363345386942
2025-05-30 16:11:38.110,0.0002418673695973,3.6388023365312336
2025-05-30 16:11:38.117,0.0002390758164825,3.6126589684312536
2025-05-30 16:11:38.125,0.0002347533150122,3.5826354229838886
2025-05-30 16:11:38.133,0.0002288421204026,3.550593658994801
2025-05-30 16:11:38.141,0.0002213336671332,3.518275334612847
2025-05-30 16:11:38.149,0.0002122681427543,3.4872526767244985
2025-05-30 16:11:38.157,0.0002017322945687,3.458885024933851
2025-05-30 16:11:38.164,0.0001898557044651,3.434282620294977
2025-05-30 16:11:38.172,0.0001768057988035,3.414278965694681
2025-05-30 16:11:38.180,0.0001627818565964,3.399412776030419
2025-05-30 16:11:38.188,0.0001480082308868,3.38992017822801
2025-05-30 16:11:38.196,0.0001327269314629,3.3857374335558434
2025-05-30 16:11:38.203,0.0001171896813341,3.386514056204048
2025-05-30 16:11:38.211,0.0001016495799696,3.3916358075014275
2025-05-30 16:11:38.219,8.635257011812495e-05,3.400256667373597
2025-05-30 16:11:38.227,7.152898728946832e-05,3.4113385380416874
2025-05-30 16:11:38.235,5.7385549054024346e-05,3.423697135934722
2025-05-30 16:11:38.242,4.409818750870581e-05,3.4360522924229246
2025-05-30 16:11:38.250,3.180611734728768e-05,3.4470807253936897
2025-05-30 16:11:38.258,2.0607463358274307e-05,3.4554692714436963
2025-05-30 16:11:38.266,1.0556668915902192e-05,3.459966588457361
2025-05-30 16:11:38.274,1.663796196706336e-06,3.459431450744341
2025-05-30 16:11:38.282,-6.104278396212531e-06,3.452875954877826
2025-05-30 16:11:38.289,-1.2820870050881985e-05,3.439502215252022
2025-05-30 16:11:38.297,-1.859487990338633e-05,3.4187314294299846
2025-05-30 16:11:38.305,-2.356484554585257e-05,3.390224509861097
2025-05-30 16:11:38.313,-2.789198391259829e-05,3.353893790270714
2025-05-30 16:11:38.321,-3.175261714247629e-05,3.3099056080930764
2025-05-30 16:11:38.328,-3.5330401748445365e-05,3.2586738317752544
2025-05-30 16:11:38.336,-3.880876538979376e-05,3.2008446430876774
2025-05-30 16:11:38.344,-4.236388218669089e-05,3.137273103696219
2025-05-30 16:11:38.352,-4.615841295781816e-05,3.0689922377459338
2025-05-30 16:11:38.360,-5.0336150771753935e-05,2.9971755531100515
2025-05-30 16:11:38.367,-5.501767076610767e-05,2.9230941073162198
2025-05-30 16:11:38.375,-6.029707451284869e-05,2.848069402081769
2025-05-30 16:11:38.383,-6.623992023624997e-05,2.773423559752025
2025-05-30 16:11:38.391,-7.28824205480467e-05,2.700428385103352
2025-05-30 16:11:38.399,-8.023194570248954e-05,2.630255031559164
2025-05-30 16:11:38.407,-8.826878033278118e-05,2.563926057319613
2025-05-30 16:11:38.414,-9.694897038962588e-05,2.5022716635668907
2025-05-30 16:11:38.422,-0.0001062080133441,2.445891846078152
2025-05-30 16:11:38.430,-0.0001159651136502,2.3951260565681283
2025-05-30 16:11:38.438,-0.0001261277342841,2.3500317566071605
2025-05-30 16:11:38.446,-0.0001365962016649,2.3103729585848174
2025-05-30 16:11:38.453,-0.0001472681540475,2.2756194998059227
2025-05-30 16:11:38.461,-0.0001580426593049,2.2449574092877977
2025-05-30 16:11:38.469,-0.0001688238652984,2.2173103223573927
2025-05-30 16:11:38.477,-0.000179524083336,2.1913714895866683
2025-05-30 16:11:38.485,-0.0001900662412401,2.1656455231376546
2025-05-30 16:11:38.492,-0.0002003856761917,2.138498633180977
2025-05-30 16:11:38.500,-0.0002104312678965,2.108215738572834
2025-05-30 16:11:38.508,-0.0002201659390402,2.07306250103614
2025-05-30 16:11:38.516,-0.0002295665720086,2.031350047446606
2025-05-30 16:11:38.524,-0.0002386234081834,1.9814999327656395
2025-05-30 16:11:38.532,-0.0002473390087253,1.9221067797839575
2025-05-30 16:11:38.539,-0.0002557268637393,1.8519960270965368
2025-05-30 16:11:38.547,-0.0002638097403418,1.770274327884712
2025-05-30 16:11:38.555,-0.0002716178598236,1.6763703638909029
2025-05-30 16:11:38.563,-0.0002791869902991,1.5700641615143391
2025-05-30 16:11:38.571,-0.0002865565345319,1.4515034077495468
2025-05-30 16:11:38.578,-0.0002937676836179,1.3212057472582814
2025-05-30 16:11:38.586,-0.0003008616965232,1.1800465802570563
2025-05-30 16:11:38.594,-0.0003078783537164,1.0292324559475636
2025-05-30 16:11:38.602,-0.0003148546208941,0.8702607512455155
2025-05-30 16:11:38.610,-0.0003218235466081,0.7048669232163975
2025-05-30 16:11:38.617,-0.0003288134059271,0.5349612056264493
2025-05-30 16:11:38.625,-0.0003358470915248,0.3625571576208752
2025-05-30 16:11:38.633,-0.000342941744077,0.1896949320032623
2025-05-30 16:11:38.641,-0.0003501086058269,0.0183624772876612
2025-05-30 16:11:38.649,-0.000357353074788,-0.1495819095515649
2025-05-30 16:11:38.657,-0.0003646749323664,-0.3124822277801259
2025-05-30 16:11:38.664,-0.0003720687142025,-0.4689493063788936
2025-05-30 16:11:38.672,-0.0003795241926811,-0.6179142301492416
2025-05-30 16:11:38.680,-0.0003870269397054,-0.7586681192063872
2025-05-30 16:11:38.688,-0.0003945589398075,-0.8908862934365805
2025-05-30 16:11:38.696,-0.0004020992262419,-1.0146355117222732
2025-05-30 16:11:38.703,-0.0004096245161587,-1.130363699470874
2025-05-30 16:11:38.711,-0.0004171098250061,-1.238872344414688
2025-05-30 16:11:38.719,-0.0004245290447238,-1.3412725227910756
2025-05-30 16:11:38.727,-0.0004318554747957,-1.4389262865946324
2025-05-30 16:11:38.735,-0.0004390622996151,-1.5333758686090564
2025-05-30 16:11:38.742,-0.0004461230096466,-1.6262638155362223
2025-05-30 16:11:38.750,-0.000453011767394,-1.7192477063144946
2025-05-30 16:11:38.758,-0.0004597037220376,-1.8139135127278008
2025-05-30 16:11:38.766,-0.0004661752787073,-1.911691873839743
2025-05-30 16:11:38.774,-0.0004724043296361,-2.0137815571348257
2025-05-30 16:11:38.782,-0.0004783704548915,-2.1210841560969858
2025-05-30 16:11:38.789,-0.0004840551000218,-2.2341536288891835
2025-05-30 16:11:38.797,-0.0004894417368658,-2.353163629976392
2025-05-30 16:11:38.805,-0.0004945160120417,-2.4778947525906205
2025-05-30 16:11:38.813,-0.000499265885408,-2.60774282482242
2025-05-30 16:11:38.821,-0.0005036817582144,-2.74174833635322
2025-05-30 16:11:38.828,-0.0005077565879356,-2.8786459727374933
2025-05-30 16:11:38.836,-0.0005114859840699,-3.0169321581389656
2025-05-30 16:11:38.844,-0.0005148682767003,-3.1549475130891653
2025-05-30 16:11:38.852,-0.0005179045475324,-3.290970273544232
2025-05-30 16:11:38.860,-0.0005205986116192,-3.423316034269352
2025-05-30 16:11:38.867,-0.0005229569372088,-3.5504387081135507
2025-05-30 16:11:38.875,-0.0005249884912376,-3.671027366062656
2025-05-30 16:11:38.883,-0.0005267044990111,-3.784093674671369
2025-05-30 16:11:38.891,-0.0005281181086385,-3.889045001879893
2025-05-30 16:11:38.899,-0.0005292439537929,-3.9857389188849153
2025-05-30 16:11:38.907,-0.0005300976123275,-4.0745157523726565
2025-05-30 16:11:38.914,-0.0005306949630812,-4.156206979247874
2025-05-30 16:11:38.922,-0.0005310514487087,-4.23211852986258
2025-05-30 16:11:38.930,-0.000531181258376,-4.303989391807636
2025-05-30 16:11:38.938,-0.0005310964504236,-4.3739271980822965
2025-05-30 16:11:38.946,-0.0005308060413445,-4.444323660284087
2025-05-30 16:11:38.953,-0.0005303150933304,-4.517753704020882
2025-05-30 16:11:38.961,-0.000529623837889,-4.596862934591516
2025-05-30 16:11:38.969,-0.0005287268772687,-4.684248579530246
2025-05-30 16:11:38.977,-0.0005276125083266,-4.78233931028393
2025-05-30 16:11:38.985,-0.0005262622147044,-4.893279340744909
2025-05-30 16:11:38.993,-0.0005246503724582,-5.01882194855442
2025-05-30 16:11:39.000,-0.0005227442113851,-5.160237086398236
2025-05-30 16:11:39.008,-0.0005205040690194,-5.318237071201919
2025-05-30 16:11:39.016,-0.0005178839665432,-5.492923492729587
2025-05-30 16:11:39.024,-0.0005148325256667,-5.683757513359474
2025-05-30 16:11:39.032,-0.0005112942329626,-5.88955469125046
2025-05-30 16:11:39.039,-0.00050721104341,-6.108504406632749
2025-05-30 16:11:39.047,-0.0005025242983048,-6.338212958171971
2025-05-30 16:11:39.055,-0.0004971769146848,-6.575768468075273
2025-05-30 16:11:39.063,-0.0004911157845029,-6.817824927673959
2025-05-30 16:11:39.071,-0.0004842943026249,-7.0607020568701735
2025-05-30 16:11:39.078,-0.0004766749240406,-7.300497154797925
2025-05-30 16:11:39.086,-0.0004682316332472,-7.533204783916751
2025-05-30 16:11:39.094,-0.0004589521934386,-7.754839943057106
2025-05-30 16:11:39.102,-0.0004488400307576,-7.961560330939668
2025-05-30 16:11:39.110,-0.0004379156002774,-8.149783368205412
2025-05-30 16:11:39.118,-0.0004262170763704,-8.316293826767742
2025-05-30 16:11:39.125,-0.0004138002113855,-8.458338208551405
2025-05-30 16:11:39.133,-0.0004007372136864,-8.5737024225294
2025-05-30 16:11:39.141,-0.0003871145111315,-8.660769833656127
2025-05-30 16:11:39.149,-0.0003730292989396,-8.718557405898608
2025-05-30 16:11:39.157,-0.0003585848421757,-8.746728435505245
2025-05-30 16:11:39.164,-0.0003438846237708,-8.745581257562495
2025-05-30 16:11:39.172,-0.0003290255722041,-8.716014277804653
2025-05-30 16:11:39.180,-0.0003140907181003,-8.659468685775606
2025-05-30 16:11:39.188,-0.0002991416890465,-8.577851188559418
2025-05-30 16:11:39.196,-0.0002842114676269,-8.473440005709556
2025-05-30 16:11:39.203,-0.0002692978292882,-8.348778125322175
2025-05-30 16:11:39.211,-0.0002543578537545,-8.206558386004225
2025-05-30 16:11:39.219,-0.0002393038680229,-8.049505284088855
2025-05-30 16:11:39.227,-0.0002240011308342,-7.880258495492439
2025-05-30 16:11:39.235,-0.0002082675085735,-7.701262952531684
2025-05-30 16:11:39.243,-0.0001918753217604,-7.514669948722038
2025-05-30 16:11:39.250,-0.0001745554609748,-7.322253192000696
2025-05-30 16:11:39.258,-0.0001560037829372,-7.125343030141766
2025-05-30 16:11:39.266,-0.0001358897036375,-6.9247812737697005
2025-05-30 16:11:39.274,-0.0001138668084072,-6.720898178832711
2025-05-30 16:11:39.282,-8.958520158813172e-05,-6.513512251233227
2025-05-30 16:11:39.289,-6.270522423217995e-05,-6.301952628719035
2025-05-30 16:11:39.297,-3.291208069119472e-05,-6.085102907183511
2025-05-30 16:11:39.305,6.916216806978467e-08,-5.861464437934483
2025-05-30 16:11:39.313,3.645880207816256e-05,-5.629236354639115
2025-05-30 16:11:39.321,7.640859805745307e-05,-5.386408917449298
2025-05-30 16:11:39.328,0.0001199894019463,-5.130866212228738
2025-05-30 16:11:39.336,0.0001671809862966,-4.860493840897592
2025-05-30 16:11:39.344,0.0002178646974435,-4.5732870081669095
2025-05-30 16:11:39.352,0.0002718194985734,-4.267454367190564
2025-05-30 16:11:39.360,0.0003287218706261,-3.9415131409849806
2025-05-30 16:11:39.368,0.0003881499083346,-3.5943713897823426
2025-05-30 16:11:39.375,0.0004495917851715,-3.225393840027055
2025-05-30 16:11:39.383,0.0005124585663105,-2.8344484097927567
2025-05-30 16:11:39.391,0.000576101127836,-2.4219314275393904
2025-05-30 16:11:39.399,0.000639830707805,-1.9887705087280576
2025-05-30 16:11:39.407,0.0007029423988687,-1.5364050864566563
2025-05-30 16:11:39.414,0.0007647407232187,-1.0667456413476948
2025-05-30 16:11:39.422,0.0008245663216592,-0.5821136880372256
2025-05-30 16:11:39.430,0.0008818227334309,-0.0851654918353093
2025-05-30 16:11:39.438,0.000936002223457,0.421196743958648
2025-05-30 16:11:39.446,0.0009867096085173,0.9339219006297058
2025-05-30 16:11:39.453,0.0010336830447498,1.4499104895816226
2025-05-30 16:11:39.461,0.0010768107919298,1.9661138926967865
2025-05-30 16:11:39.469,0.0011161430808837,2.4796275636104745
2025-05-30 16:11:39.477,0.0011518983657924,2.9877737856658992
2025-05-30 16:11:39.485,0.0011844634221079,3.488170133792756
2025-05-30 16:11:39.493,0.0012143869433674,3.9787805332137633
2025-05-30 16:11:39.500,0.0012423664942093,4.457946708837096
2025-05-30 16:11:39.508,0.0012692288914424,4.924398827295796
2025-05-30 16:11:39.516,0.0012959043084888,5.377245193256308
2025-05-30 16:11:39.524,0.0013233946284663,5.815941914361449
2025-05-30 16:11:39.532,0.0013527368025226,6.240244439790638
2025-05-30 16:11:39.539,0.0013849621885264,6.650143757334591
2025-05-30 16:11:39.547,0.0014210530245694,7.045790761685445
2025-05-30 16:11:39.555,0.0014618973139499,7.427412849835999
2025-05-30 16:11:39.563,0.0015082434819469,7.7952271383939875
2025-05-30 16:11:39.571,0.0015606562494214,8.149354827532262
2025-05-30 16:11:39.578,0.0016194752612623,8.489741164247652
2025-05-30 16:11:39.586,0.0016847780670741,8.816085196077509
2025-05-30 16:11:39.594,0.0017563490353322,9.127783069988087
2025-05-30 16:11:39.602,0.0018336556973208,9.423888038825336
2025-05-30 16:11:39.610,0.001915833902852,9.70308961717874
2025-05-30 16:11:39.618,0.0020016830428688,9.963713515564082
2025-05-30 16:11:39.625,0.0020896724258209,10.203743114161346
2025-05-30 16:11:39.633,0.0021779596301857,10.420862348534737
2025-05-30 16:11:39.641,0.0022644212518344,10.61251899910006
2025-05-30 16:11:39.649,0.0023466959373863,10.776006532475526
2025-05-30 16:11:39.657,0.0024222390247179,10.908561866854548
2025-05-30 16:11:39.664,0.0024883875841697,11.007475754781614
2025-05-30 16:11:39.672,0.0025424341954943,11.07021191858605
2025-05-30 16:11:39.680,0.0025817073890133,11.094530650716544
2025-05-30 16:11:39.688,0.0026036563118902,11.07861231148095
2025-05-30 16:11:39.696,0.002605936860355,11.021176026446907
2025-05-30 16:11:39.703,0.002586496266171,10.921588910196888
2025-05-30 16:11:39.711,0.0025436529634132,10.779961324556927
2025-05-30 16:11:39.719,0.002476168512837,10.597224016833811
2025-05-30 16:11:39.727,0.0023833084481028,10.37518347417874
2025-05-30 16:11:39.735,0.002264889151421,10.11655246894805
2025-05-30 16:11:39.743,0.0021213082816557,9.824953545653836
2025-05-30 16:11:39.750,0.0019535568674966,9.504894090738484
2025-05-30 16:11:39.758,0.0017632119162103,9.16171259772992
2025-05-30 16:11:39.766,0.0015524092214757,8.801496748088484
2025-05-30 16:11:39.774,0.0013237969235003,8.43097492174093
2025-05-30 16:11:39.782,0.0010804712334564,8.057383678954958
2025-05-30 16:11:39.789,0.000825896535055,7.688314569997045
2025-05-30 16:11:39.797,0.0005638127663436,7.331544296950483
2025-05-30 16:11:39.805,0.0002981335275628,6.994852756854791
2025-05-30 16:11:39.813,3.283874339589644e-05,6.685833836440071
2025-05-30 16:11:39.821,-0.0002281340811496,6.411704015798729
2025-05-30 16:11:39.828,-0.0004809959556421,6.179113888651188
2025-05-30 16:11:39.836,-0.0007222059902071,5.993967645553642
2025-05-30 16:11:39.844,-0.0009485610132455,5.8612554217473125
2025-05-30 16:11:39.852,-0.0011572723252087,5.784903203736496
2025-05-30 16:11:39.860,-0.0013460273529387,5.767644721759797
2025-05-30 16:11:39.868,-0.0015130346599019,5.8109194164202975
2025-05-30 16:11:39.875,-0.0016570514488322,5.914800134506907
2025-05-30 16:11:39.883,-0.0017773933510372,6.077953655631502
2025-05-30 16:11:39.891,-0.0018739269287051,6.297636453765781
2025-05-30 16:11:39.899,-0.0019470459153425,6.569727242025192
2025-05-30 16:11:39.907,-0.0019976327567808,6.888796839487648
2025-05-30 16:11:39.914,-0.0020270074441786,7.248214760557289
2025-05-30 16:11:39.922,-0.0020368659176301,7.640290700732467
2025-05-30 16:11:39.930,-0.0020292104789977,8.05644782593548
2025-05-30 16:11:39.938,-0.0020062747388791,8.487423519327292
2025-05-30 16:11:39.946,-0.0019704456761171,8.923492059335864
2025-05-30 16:11:39.953,-0.00192418540281,9.354702659446367
2025-05-30 16:11:39.961,-0.0018699551647712,9.771125456607278
2025-05-30 16:11:39.969,-0.0018101439295556,10.163097447196591
2025-05-30 16:11:39.977,-0.0017470036146744,10.521460087455193
2025-05-30 16:11:39.985,-0.0016825926275751,10.837780342975526
2025-05-30 16:11:39.993,-0.0016187289908897,11.10454742038874
2025-05-30 16:11:40.000,-0.001556953950806,11.315338250086
2025-05-30 16:11:40.008,-0.0014985066133906,11.464945983392138
2025-05-30 16:11:40.016,-0.0014443098121486,11.549467259643045
2025-05-30 16:11:40.024,-0.001394967077998,11.566345705880687
2025-05-30 16:11:40.032,-0.0013507702644135,11.514370965708778
2025-05-30 16:11:40.039,-0.0013117170801056,11.393634426103413
2025-05-30 16:11:40.047,-0.0012775375023217,11.205444634314864
2025-05-30 16:11:40.055,-0.0012477277878226,10.952207085964645
2025-05-30 16:11:40.063,-0.0012215905673127,10.637274540075085
2025-05-30 16:11:40.071,-0.0011982793054623,10.264775204042762
2025-05-30 16:11:40.078,-0.0011768452452484,9.83942696463263
2025-05-30 16:11:40.086,-0.0011562848656637,9.366346263307626
2025-05-30 16:11:40.094,-0.0011355859111157,8.850860190482408
2025-05-30 16:11:40.102,-0.0011137702185829,8.298329900667351
2025-05-30 16:11:40.110,-0.0010899318451787,7.7139925599756065
2025-05-30 16:11:40.118,-0.0010632693293177,7.102827787688633
2025-05-30 16:11:40.125,-0.0010331112608282,6.469453023568685
2025-05-30 16:11:40.133,-0.0009989346689404,5.818050537207623
2025-05-30 16:11:40.141,-0.0009603760532272,5.152326999255248
2025-05-30 16:11:40.149,-0.0009172351757193,4.475504760890519
2025-05-30 16:11:40.157,-0.0008694719985472,3.7903423327200327
2025-05-30 16:11:40.164,-0.0008171973880374,3.0991801022844374
2025-05-30 16:11:40.172,-0.0007606584119182,2.404006156678432
2025-05-30 16:11:40.180,-0.0007002192309234,1.7065362477588033
2025-05-30 16:11:40.188,-0.0006363387301773,1.0083014943575623
2025-05-30 16:11:40.196,-0.0005695461487713,0.3107373697801784
2025-05-30 16:11:40.203,-0.0005004160379948,-0.3847321471080453
2025-05-30 16:11:40.211,-0.0004295438793265,-1.0766207161468853
2025-05-30 16:11:40.219,-0.0003575235808046,-1.7633205945481365
2025-05-30 16:11:40.227,-0.0002849278307505,-2.443061776311222
2025-05-30 16:11:40.235,-0.0002122919645472,-3.1138913883717705
2025-05-30 16:11:40.243,-0.0001401016732364,-3.773674075543571
2025-05-30 16:11:40.250,-6.878461181531409e-05,-4.420112792625614
2025-05-30 16:11:40.258,1.2942400098261805e-06,-5.050788213218156
2025-05-30 16:11:40.266,6.983375765018339e-05,-5.663213923537494
2025-05-30 16:11:40.274,0.0001365947562745,-6.25490374567454
2025-05-30 16:11:40.282,0.0002013953371228,-6.8234469611873045
2025-05-30 16:11:40.289,0.0002641038160738,-7.36658689442215
2025-05-30 16:11:40.297,0.0003246295520992,-7.882298256970069
2025-05-30 16:11:40.305,0.0003829120341628,-8.368858826665535
2025-05-30 16:11:40.313,0.0004389086364298,-8.824911404033964
2025-05-30 16:11:40.321,0.0004925814842455,-9.249512519266556
2025-05-30 16:11:40.328,0.0005438838863488,-9.642165017162654
2025-05-30 16:11:40.336,0.000592746804734,-10.002832395131316
2025-05-30 16:11:40.344,0.0006390658762792,-10.331933587789155
2025-05-30 16:11:40.352,0.0006826895678838,-10.630317764121484
2025-05-30 16:11:40.360,0.0007234091054624,-10.89921961186684
2025-05-30 16:11:40.368,0.0007609508214997,-11.140196505161894
2025-05-30 16:11:40.375,0.0007949714954565,-11.355049856102443
2025-05-30 16:11:40.383,0.0008250571487332,-11.545733805766622
2025-05-30 16:11:40.391,0.0008507256629361,-11.714255179206718
2025-05-30 16:11:40.399,0.0008714335339453,-11.86256927068574
2025-05-30 16:11:40.407,0.0008865869989131,-11.992476494305343
2025-05-30 16:11:40.414,0.0008955576158112,-12.105525187203291
2025-05-30 16:11:40.422,0.0008977021329017,-12.202925853920226
2025-05-30 16:11:40.430,0.0008923862036115,-12.285481871895392
2025-05-30 16:11:40.438,0.0008790112247707,-12.353541133229855
2025-05-30 16:11:40.446,0.000857043328115,-12.406972283212465
2025-05-30 16:11:40.453,0.0008260433514665,-12.44516815268174
2025-05-30 16:11:40.461,0.0007856964682423,-12.467077707116063
2025-05-30 16:11:40.469,0.0007358400638395,-12.471266405406777
2025-05-30 16:11:40.477,0.0006764884044859,-12.456003346623383
2025-05-30 16:11:40.485,0.0006078526451983,-12.419372069046265
2025-05-30 16:11:40.493,0.0005303547989095,-12.359400446468612
2025-05-30 16:11:40.500,0.0004446344815667,-12.274203895347746
2025-05-30 16:11:40.508,0.0003515475613404,-12.162135144924816
2025-05-30 16:11:40.516,0.0002521562355709,-12.021933197260417
2025-05-30 16:11:40.524,0.000147710501594,-11.85286386406426
2025-05-30 16:11:40.532,3.9621459345546746e-05,-11.654844438004307
2025-05-30 16:11:40.539,-7.057263830588517e-05,-11.428545631588047
2025-05-30 16:11:40.547,-0.0001812462311098,-11.17546485505162
2025-05-30 16:11:40.555,-0.0002907304971776,-10.897966137122436
2025-05-30 16:11:40.563,-0.0003973597184386,-10.599283437942947
2025-05-30 16:11:40.571,-0.0004995180509399,-10.283485680543258
2025-05-30 16:11:40.578,-0.0005956848431214,-9.955403459380868
2025-05-30 16:11:40.586,-0.0006844767494554,-9.620519000958229
2025-05-30 16:11:40.594,-0.0007646850390463,-9.28482249016011
2025-05-30 16:11:40.602,-0.0008353067108892,-8.954639286290842
2025-05-30 16:11:40.610,-0.0008955682869299,-8.636433797009468
2025-05-30 16:11:40.618,-0.0009449414484094,-8.336596828199424
2025-05-30 16:11:40.625,-0.000983150024083,-8.061224059686653
2025-05-30 16:11:40.633,-0.0010101682424299,-7.815893887878388
2025-05-30 16:11:40.641,-0.0010262105983421,-7.605453203395856
2025-05-30 16:11:40.649,-0.0010317141104093,-7.433819710522657
2025-05-30 16:11:40.657,-0.0010273141221241,-7.303809121687524
2025-05-30 16:11:40.664,-0.0010138151063267,-7.216994952709447
2025-05-30 16:11:40.672,-0.000992158134807,-7.173607691052625
2025-05-30 16:11:40.680,-0.0009633867335335,-7.172478817246644
2025-05-30 16:11:40.688,-0.0009286127448394,-7.21103356220286
2025-05-30 16:11:40.696,-0.0008889835975359,-7.285334437207149
2025-05-30 16:11:40.703,-0.0008456521066837,-7.390175551854428
2025-05-30 16:11:40.711,-0.0007997496349545,-7.519225621579271
2025-05-30 16:11:40.719,-0.0007523631650671,-7.665215451610549
2025-05-30 16:11:40.727,-0.0007045165526615,-7.820163663303478
2025-05-30 16:11:40.735,-0.0006571559512862,-7.975632597798448
2025-05-30 16:11:40.743,-0.0006111391605397,-8.123004785201125
2025-05-30 16:11:40.750,-0.0005672284981789,-8.25376919670961
2025-05-30 16:11:40.758,-0.0005260867536571,-8.35980578776687
2025-05-30 16:11:40.766,-0.000488275798811,-8.433656661913753
2025-05-30 16:11:40.774,-0.0004542574419279,-8.4687725784483
2025-05-30 16:11:40.782,-0.0004243960788406,-8.459724495710025
2025-05-30 16:11:40.789,-0.0003989626387312,-8.402371350124954
2025-05-30 16:11:40.797,-0.0003781392877349,-8.293977247406975
2025-05-30 16:11:40.805,-0.0003620243710217,-8.133273584564156
2025-05-30 16:11:40.813,-0.0003506371513413,-7.920464204702581
2025-05-30 16:11:40.821,-0.0003439220328694,-7.657174370263257
2025-05-30 16:11:40.828,-0.0003417521239529,-7.346346973784612
2025-05-30 16:11:40.836,-0.0003439321506031,-6.992091836804764
2025-05-30 16:11:40.844,-0.000350200840968,-6.59949603680501
2025-05-30 16:11:40.852,-0.0003602329604326,-6.17440483403112
2025-05-30 16:11:40.860,-0.000373641239114,-5.723183864362153
2025-05-30 16:11:40.868,-0.000389978528775,-5.252473779175423
2025-05-30 16:11:40.875,-0.000408740612249,-4.768948442647063
2025-05-30 16:11:40.883,-0.0004293701023188,-4.279087166843308
2025-05-30 16:11:40.891,-0.0004512617973051,-3.788970328607296
2025-05-30 16:11:40.899,-0.0004737697418004,-3.3041061486668246
2025-05-30 16:11:40.907,-0.0004962161063729,-2.8292945245174184
2025-05-30 16:11:40.914,-0.0005179018644282,-2.368531712014416
2025-05-30 16:11:40.922,-0.00053811911329,-1.9249574684745443
2025-05-30 16:11:40.930,-0.0005561647641934,-1.5008441203664402
2025-05-30 16:11:40.938,-0.0005713552168749,-1.097625011640236
2025-05-30 16:11:40.946,-0.0005830415435957,-0.7159580265688096
2025-05-30 16:11:40.953,-0.0005906246396714,-0.3558184537430817
2025-05-30 16:11:40.961,-0.0005935697577756,-0.0166144330402637
2025-05-30 16:11:40.969,-0.0005914198361044,0.3026823628060339
2025-05-30 16:11:40.977,-0.0005838070601971,0.6033983243274073
2025-05-30 16:11:40.985,-0.0005704621684345,0.8870190714348294
2025-05-30 16:11:40.993,-0.000551221123177,1.155056939205785
2025-05-30 16:11:41.000,-0.0005260289135696,1.4089307324968403
2025-05-30 16:11:41.008,-0.000494940402422,1.649862699834837
2025-05-30 16:11:41.016,-0.0004581182438181,1.8787965355786684
2025-05-30 16:11:41.024,-0.0004158279814083,2.096338990395814
2025-05-30 16:11:41.032,-0.000368430529493,2.3027264097244737
2025-05-30 16:11:41.039,-0.000316372364725,2.4978162820454544
2025-05-30 16:11:41.047,-0.0002601738931129,2.6811027124768385
2025-05-30 16:11:41.055,-0.0002004165621762,2.8517536856335166
2025-05-30 16:11:41.063,-0.0001377293307951,3.0086670829308866
2025-05-30 16:11:41.071,-7.277508001506153e-05,3.1505417074878648
2025-05-30 16:11:41.078,-6.23745233785918e-06,3.27595907274942
2025-05-30 16:11:41.086,6.119154614613596e-05,3.383471446075363
2025-05-30 16:11:41.094,0.0001288230385071,3.47169160706304
2025-05-30 16:11:41.102,0.0001959819095648,3.539379968553568
2025-05-30 16:11:41.110,0.0002620167498309,3.58552509312533
2025-05-30 16:11:41.118,0.0003263093116047,3.609414191619277
2025-05-30 16:11:41.125,0.0003882836087422,3.610690880374656
2025-05-30 16:11:41.133,0.0004474146577822,3.589398261945387
2025-05-30 16:11:41.141,0.000503236713077,3.5460062370880143
2025-05-30 16:11:41.149,0.0005553507336747,3.4814228092767614
2025-05-30 16:11:41.157,0.0006034307513042,3.3969899626331483
2025-05-30 16:11:41.164,0.0006472287922761,3.294465436407242
2025-05-30 16:11:41.172,0.0006865780372329,3.1759923439313247
2025-05-30 16:11:41.180,0.0007213939612708,3.044059059504954
2025-05-30 16:11:41.188,0.000751673270373,2.901452102456833
2025-05-30 16:11:41.196,0.0007774905531254,2.751204873996408
2025-05-30 16:11:41.203,0.0007989927115877,2.596545048962122
2025-05-30 16:11:41.211,0.0008163913969385,2.4408431991425505
2025-05-30 16:11:41.219,0.0008299538072635,2.287564843758158
2025-05-30 16:11:41.227,0.0008399922738207,2.1402276103375586
2025-05-30 16:11:41.235,0.0008468530604396,2.00236457792953
2025-05-30 16:11:41.243,0.0008509047425153,1.877494204824417
2025-05-30 16:11:41.250,0.0008525264559856,1.7690965632669675
2025-05-30 16:11:41.258,0.0008520962646776,1.6805949687010595
2025-05-30 16:11:41.266,0.0008499799138161,1.6153415557645046
2025-05-30 16:11:41.274,0.0008465202972566,1.5766049630589942
2025-05-30 16:11:41.282,0.0008420280202342,1.5675580716880853
2025-05-30 16:11:41.289,0.0008367734549346,1.5912637081885117
2025-05-30 16:11:41.297,0.0008309806519814,1.6506563668262333
2025-05-30 16:11:41.305,0.0008248233872102,1.7485183155226836
2025-05-30 16:11:41.313,0.000818423494855,1.8874488983232605
2025-05-30 16:11:41.321,0.0008118514816419,2.069826395787121
2025-05-30 16:11:41.328,0.0008051292677812,2.297762403970462
2025-05-30 16:11:41.336,0.0007982348013703,2.5730492934732325
2025-05-30 16:11:41.344,0.0007911082470831,2.8971018699165514
2025-05-30 16:11:41.352,0.0007836594235715,3.270894843596518
2025-05-30 16:11:41.360,0.0007757761344814,3.694898107210201
2025-05-30 16:11:41.368,0.0007673330192346,4.169012107303868
2025-05-30 16:11:41.375,0.0007582005537668,4.692505781312749
2025-05-30 16:11:41.383,0.000748253843685,5.2639596309326615
2025-05-30 16:11:41.391,0.0007373808533069,5.88121652936608
2025-05-30 16:11:41.399,0.0007254897046031,6.541342826056424
2025-05-30 16:11:41.407,0.0007125146828179,7.240602222937908
2025-05-30 16:11:41.414,0.0006984206262742,7.9744447484449985
2025-05-30 16:11:41.422,0.0006832054664696,8.737512937267823
2025-05-30 16:11:41.430,0.0006669008179417,9.523667013728216
2025-05-30 16:11:41.438,0.0006495706810407,10.326030451162104
2025-05-30 16:11:41.446,0.0006313084698568,11.137056724048843
2025-05-30 16:11:41.453,0.0006122326499357,11.94861738621482
2025-05-30 16:11:41.461,0.0005924812523515,12.752110818969111
2025-05-30 16:11:41.469,0.0005722054833976,13.538590135850551
2025-05-30 16:11:41.477,0.0005515626428772,14.298907856739824
2025-05-30 16:11:41.485,0.000530708610249,15.02387413269765
2025-05-30 16:11:41.493,0.0005097902220084,15.704424574582465
2025-05-30 16:11:41.500,0.0004889379132189,16.331793164839123
2025-05-30 16:11:41.508,0.0004682590183849,16.89768534791674
2025-05-30 16:11:41.516,0.0004478321197129,17.39444621989667
2025-05-30 16:11:41.524,0.000427702794547,17.815218780623415
2025-05-30 16:11:41.532,0.0004078810511385,18.15408747036335
2025-05-30 16:11:41.539,0.0003883406645729,18.40620267185271
2025-05-30 16:11:41.547,0.0003690205560181,18.56788248606481
2025-05-30 16:11:41.555,0.0003498283131951,18.6366888455265
2025-05-30 16:11:41.563,0.0003306459060721,18.611475871935948
2025-05-30 16:11:41.571,0.0003113375643188,18.492409279208164
2025-05-30 16:11:41.578,0.0002917596316453,18.280956536821726
2025-05-30 16:11:41.586,0.0002717720148148,17.979848411580036
2025-05-30 16:11:41.594,0.0002512506316661,17.593013370535026
2025-05-30 16:11:41.602,0.0002301000621194,17.125487125941486
2025-05-30 16:11:41.610,0.0002082654609847,16.583300304005135
2025-05-30 16:11:41.618,0.0001857427533415,15.973347790320116
2025-05-30 16:11:41.625,0.0001625862278187,15.303243719952995
2025-05-30 16:11:41.633,0.0001389128456039,14.581166328397948
2025-05-30 16:11:41.641,0.0001149028422886,13.815696967744648
2025-05-30 16:11:41.649,9.079647567695592e-05,13.0156575373631
2025-05-30 16:11:41.657,6.688704608323545e-05,12.189950398769904
2025-05-30 16:11:41.664,4.351057527410804e-05,11.34740455588441
2025-05-30 16:11:41.672,2.103275713646379e-05,10.49663149775808
2025-05-30 16:11:41.680,-1.6605020323139093e-07,9.645893632553165
2025-05-30 16:11:41.688,-1.970697332080989e-05,8.802987699287028
2025-05-30 16:11:41.696,-3.722914822874521e-05,7.975144938894981
2025-05-30 16:11:41.703,-5.240593719839033e-05,7.168949156222441
2025-05-30 16:11:41.711,-6.496019546293138e-05,6.390273138734193
2025-05-30 16:11:41.719,-7.467794657870686e-05,5.644233255668541
2025-05-30 16:11:41.727,-8.141984281494147e-05,4.935161486503272
2025-05-30 16:11:41.735,-8.512986686727762e-05,4.266593659001138
2025-05-30 16:11:41.743,-8.58408620071644e-05,3.641272342554225
2025-05-30 16:11:41.750,-8.367661398993146e-05,3.0611626521217947
2025-05-30 16:11:41.758,-7.885032541692558e-05,2.527479159828053
2025-05-30 16:11:41.766,-7.165943426675137e-05,2.040722154665925
2025-05-30 16:11:41.774,-6.24768539087821e-05,1.600721598838342
2025-05-30 16:11:41.782,-5.1738860980508e-05,1.2066872726079234
2025-05-30 16:11:41.789,-3.993002964335538e-05,0.857263761557784
2025-05-30 16:11:41.797,-2.756580095751109e-05,0.5505891129207149
2025-05-30 16:11:41.805,-1.5173468429086917e-05,0.2843561650045786
2025-05-30 16:11:41.813,-3.2725172426460317e-06,0.0558757290319965
2025-05-30 16:11:41.821,7.644675079650275e-06,-0.1378590303815605
2025-05-30 16:11:41.828,1.7130810011697582e-05,-0.3001075183152478
2025-05-30 16:11:41.836,2.479947354436856e-05,-0.4343163140882649
2025-05-30 16:11:41.844,3.033810544819988e-05,-0.5440537569822526
2025-05-30 16:11:41.852,3.3517631118809467e-05,-0.6329448014699213
2025-05-30 16:11:41.860,3.419841123397478e-05,-0.7046064988618981
2025-05-30 16:11:41.868,3.233230564267767e-05,-0.7625846109610073
2025-05-30 16:11:41.875,2.796078244074513e-05,-0.810292077933938
2025-05-30 16:11:41.883,2.120915319292265e-05,-0.8509503251976122
2025-05-30 16:11:41.891,1.2277202405614736e-05,-0.8875346710156929
2025-05-30 16:11:41.899,1.4266994306100228e-06,-0.922725347446002
2025-05-30 16:11:41.907,-1.1033502614988193e-05,-0.9588658298221934
2025-05-30 16:11:41.914,-2.4763913445853543e-05,-0.9979302486593176
2025-05-30 16:11:41.922,-3.9411456183951934e-05,-1.0415016098754188
2025-05-30 16:11:41.930,-5.462619668691402e-05,-1.0907623643540552
2025-05-30 16:11:41.938,-7.007690748786191e-05,-1.1464985466659352
2025-05-30 16:11:41.946,-8.546474068237803e-05,-1.2091182554664612
2025-05-30 16:11:41.954,-0.0001005344248916,-1.2786846951491713
2025-05-30 16:11:41.961,-0.0001150825574225,-1.354963369969309
2025-05-30 16:11:41.969,-0.0001289627284625,-1.4374823545592852
2025-05-30 16:11:41.977,-0.0001420873842312,-1.525603897181712
2025-05-30 16:11:41.985,-0.0001544265053039,-1.6186049831065497
2025-05-30 16:11:41.993,-0.0001660033399219,-1.7157639329730137
2025-05-30 16:11:42.000,-0.0001768875837896,-1.816449667558529
2025-05-30 16:11:42.008,-0.0001871865236946,-1.920209958873347
2025-05-30 16:11:42.016,-0.0001970347378016,-2.026854821737118
2025-05-30 16:11:42.024,-0.0002065829560048,-2.136531190760301
2025-05-30 16:11:42.032,-0.0002159866509784,-2.249785185990415
2025-05-30 16:11:42.039,-0.0002253948921415,-2.367608603221925
2025-05-30 16:11:42.047,-0.0002349399539325,-2.4914667671811865
2025-05-30 16:11:42.055,-0.0002447281018848,-2.623305538597969
2025-05-30 16:11:42.063,-0.0002548318886279,-2.765536042086573
2025-05-30 16:11:42.071,-0.0002652842138226,-2.920996551161042
2025-05-30 16:11:42.079,-0.0002760743503106,-3.09289189836847
2025-05-30 16:11:42.086,-0.0002871460797667,-3.2847117350165247
2025-05-30 16:11:42.094,-0.0002983979813712,-3.500129900008276
2025-05-30 16:11:42.102,-0.0003096857916184,-3.742888019709392
2025-05-30 16:11:42.110,-0.0003208266494259,-4.016667202234856
2025-05-30 16:11:42.118,-0.0003316049833795,-4.324952269940126
2025-05-30 16:11:42.125,-0.000341779775028,-4.670893362636271
2025-05-30 16:11:42.133,-0.0003510929221529,-5.0571699206712974
2025-05-30 16:11:42.141,-0.00035927841861,-5.485862013612177
2025-05-30 16:11:42.149,-0.0003660720607472,-5.958333723125121
2025-05-30 16:11:42.157,-0.0003712213846038,-6.475132837070444
2025-05-30 16:11:42.164,-0.0003744955335199,-7.035910496556592
2025-05-30 16:11:42.172,-0.0003756947531697,-7.639363700142565
2025-05-30 16:11:42.180,-0.0003746592114934,-8.283202756581785
2025-05-30 16:11:42.188,-0.0003712768458599,-8.96414493155579
2025-05-30 16:11:42.196,-0.0003654899506105,-9.677934683280236
2025-05-30 16:11:42.204,-0.0003573002365391,-10.419390041896918
2025-05-30 16:11:42.211,-0.0003467721215119,-11.182473867733425
2025-05-30 16:11:42.219,-0.0003340340498299,-11.960387936792504
2025-05-30 16:11:42.227,-0.0003192776883763,-12.745687070396054
2025-05-30 16:11:42.235,-0.0003027549109864,-13.530409881399224
2025-05-30 16:11:42.243,-0.0002847725592579,-14.306222189550889
2025-05-30 16:11:42.250,-0.0002656850580334,-15.064568803080778
2025-05-30 16:11:42.258,-0.0002458850645689,-15.796829207597382
2025-05-30 16:11:42.266,-0.0002257924306707,-16.49447276615994
2025-05-30 16:11:42.274,-0.0002058418338533,-17.149209308188137
2025-05-30 16:11:42.282,-0.0001864694724553,-17.753131434097764
2025-05-30 16:11:42.289,-0.000168099243022,-18.29884543515785
2025-05-30 16:11:42.297,-0.0001511288696394,-18.779588369900647
2025-05-30 16:11:42.305,-0.0001359165435789,-19.189329501748414
2025-05-30 16:11:42.313,-0.0001227687094691,-19.52285494779692
2025-05-30 16:11:42.321,-0.0001119296398833,-19.775834983559022
2025-05-30 16:11:42.329,-0.0001035733600343,-19.944873968371247
2025-05-30 16:11:42.336,-9.779835280569552e-05,-20.02754328643227
2025-05-30 16:11:42.344,-9.462531630294778e-05,-20.02239803417954
2025-05-30 16:11:42.352,-9.399805263919268e-05,-19.928978428331146
2025-05-30 16:11:42.360,-9.578734144827168e-05,-19.74779706844523
2025-05-30 16:11:42.368,-9.979744495043712e-05,-19.480313275466425
2025-05-30 16:11:42.375,-0.0001057747643072,-19.128895755776377
2025-05-30 16:11:42.383,-0.0001134181320772,-18.696774816906498
2025-05-30 16:11:42.391,-0.0001223902449763,-18.187985292076124
2025-05-30 16:11:42.399,-0.0001323297769288,-17.607301227889202
2025-05-30 16:11:42.407,-0.0001428637427541,-16.960163276700033
2025-05-30 16:11:42.414,-0.0001536196818388,-16.252599643623295
2025-05-30 16:11:42.422,-0.000164237192546,-15.491141394759309
2025-05-30 16:11:42.430,-0.0001743783197598,-14.682732952116236
2025-05-30 16:11:42.438,-0.0001837363392696,-13.834638683715966
2025-05-30 16:11:42.446,-0.0001920426004982,-12.954346636746306
2025-05-30 16:11:42.454,-0.0001990712454931,-12.049470639623811
2025-05-30 16:11:42.461,-0.0002046417814131,-11.127652186171506
2025-05-30 16:11:42.469,-0.0002086196300121,-10.19646367436273
2025-05-30 16:11:42.477,-0.0002109149054352,-9.263314666210528
2025-05-30 16:11:42.485,-0.0002114797764261,-8.33536283627574
2025-05-30 16:11:42.493,-0.0002103048390701,-7.4194311701226
2025-05-30 16:11:42.500,-0.0002074149396107,-6.521932764471206
2025-05-30 16:11:42.508,-0.0002028648321,-5.64880428913462
2025-05-30 16:11:42.516,-0.0001967349593363,-4.805448831511097
2025-05-30 16:11:42.524,-0.0001891275585877,-3.9966884958273408
2025-05-30 16:11:42.532,-0.0001801632419289,-3.2267268050804487
2025-05-30 16:11:42.539,-0.0001699781651119,-2.499120678637179
2025-05-30 16:11:42.547,-0.0001587218389269,-1.8167615502974117
2025-05-30 16:11:42.555,-0.0001465555335042,-1.181865062569008
2025-05-30 16:11:42.563,-0.0001336511049828,-0.5959687281099707
2025-05-30 16:11:42.571,-0.0001201899864524,-0.0599369823952901
2025-05-30 16:11:42.579,-0.000106362057975,0.4260268561174808
2025-05-30 16:11:42.586,-9.236413259004898e-05,0.8623620760415741
2025-05-30 16:11:42.594,-7.839784517825353e-05,1.2501257354247286
2025-05-30 16:11:42.602,-6.466679789474278e-05,1.5909615932297667
2025-05-30 16:11:42.610,-5.137289595743132e-05,1.887062809754132
2025-05-30 16:11:42.618,-3.871189832576863e-05,2.1411283656060327
2025-05-30 16:11:42.625,-2.6868306081383652e-05,2.356313162587711
2025-05-30 16:11:42.633,-1.6009813511068905e-05,2.5361718580919885
2025-05-30 16:11:42.641,-6.28164734184323e-06,2.684596647703691
2025-05-30 16:11:42.649,2.198797346260561e-06,2.805749438745979
2025-05-30 16:11:42.657,9.346585094965363e-06,2.9039891319043534
2025-05-30 16:11:42.664,1.5112750089343292e-05,2.9837950223798013
2025-05-30 16:11:42.672,1.948644177049216e-05,3.049687614761408
2025-05-30 16:11:42.680,2.249560074679936e-05,3.1061483864489894
2025-05-30 16:11:42.688,2.420613625807529e-05,3.1575402096247065
2025-05-30 16:11:42.696,2.4719588947654888e-05,3.2080302368615308
2025-05-30 16:11:42.704,2.4169277710299376e-05,3.2615170625149075
2025-05-30 16:11:42.711,2.2715013351926768e-05,3.3215638895575847
2025-05-30 16:11:42.719,2.053661495213219e-05,3.391339267111284
2025-05-30 16:11:42.727,1.782661621449027e-05,3.473566734328504
2025-05-30 16:11:42.735,1.4782625961850687e-05,3.5704844326238434
2025-05-30 16:11:42.743,1.1599797654094052e-05,3.6838154519502417
2025-05-30 16:11:42.750,8.46380265387758e-06,3.814749378957895
2025-05-30 16:11:42.758,5.5446245775412176e-06,3.963935235695752
2025-05-30 16:11:42.766,2.9914118612392783e-06,4.131485751799408
2025-05-30 16:11:42.774,9.2854706533485e-07,4.316992703630888
2025-05-30 16:11:42.782,-5.469831411417934e-07,4.519552869605591
2025-05-30 16:11:42.789,-1.3669019071136606e-06,4.737803974000024
2025-05-30 16:11:42.797,-1.491685511488108e-06,4.969969808004088
2025-05-30 16:11:42.805,-9.094335898971074e-07,5.213913523155399
2025-05-30 16:11:42.813,3.662937353975829e-07,5.467197892674924
2025-05-30 16:11:42.821,2.299499351410663e-06,5.727151136187943
2025-05-30 16:11:42.829,4.835438326798724e-06,5.990936708902479
2025-05-30 16:11:42.836,7.904765052615781e-06,6.255625278678837
2025-05-30 16:11:42.844,1.1427927052982609e-05,6.5182669727578135
2025-05-30 16:11:42.852,1.5319598975175916e-05,6.77596189414587
2025-05-30 16:11:42.860,1.9492962534889577e-05,7.025926907891691
2025-05-30 16:11:42.868,2.3863656853540935e-05,7.265556794286367
2025-05-30 16:11:42.875,2.8353247537805484e-05,7.492478062342506
2025-05-30 16:11:42.883,3.289209083491582e-05,7.704594002497767
2025-05-30 16:11:42.891,3.742150006395877e-05,7.900119911351158
2025-05-30 16:11:42.899,4.189515411174552e-05,8.077607818236684
2025-05-30 16:11:42.907,4.6279720979190224e-05,8.235960460819106
2025-05-30 16:11:42.914,5.055470212578373e-05,8.37443467523088
2025-05-30 16:11:42.922,5.4711534722860336e-05,8.492634764997533
2025-05-30 16:11:42.930,5.875201801984297e-05,8.59049676747838
2025-05-30 16:11:42.938,6.268615607865632e-05,8.668264822239145
2025-05-30 16:11:42.946,6.652953146936704e-05,8.726461047019887
2025-05-30 16:11:42.954,7.03003425787721e-05,8.76585044116131
2025-05-30 16:11:42.961,7.401625050320373e-05,8.787402368476934
2025-05-30 16:11:42.969,7.769118972505035e-05,8.792250126091677
2025-05-30 16:11:42.977,8.133229966698213e-05,8.781649985573594
2025-05-30 16:11:42.985,8.493713164895049e-05,8.756940903812115
2025-05-30 16:11:42.993,8.849127772788112e-05,8.719505856479948
2025-05-30 16:11:43.000,9.196655448772408e-05,8.670735467100236
2025-05-30 16:11:43.008,9.53198563050872e-05,8.611994317684239
2025-05-30 16:11:43.016,9.849276931384328e-05,8.544590066875838
2025-05-30 16:11:43.024,0.000101412009741,8.46974530564803
2025-05-30 16:11:43.032,0.0001039907191403,8.388571982033513
2025-05-30 16:11:43.039,0.0001061306151054,8.302048244573946
2025-05-30 16:11:43.047,0.0001077249602526,8.210997685589536
2025-05-30 16:11:43.055,0.00010866227569,8.116071181027676
2025-05-30 16:11:43.063,0.0001088306890581,8.017731776109912
2025-05-30 16:11:43.071,0.0001081227728401,7.916243301532628
2025-05-30 16:11:43.079,0.0001064406973986,7.811663574813532
2025-05-30 16:11:43.086,0.0001037014965471,7.703843109751789
2025-05-30 16:11:43.094,9.98422228743948e-05,7.592430205890127
2025-05-30 16:11:43.102,9.482475691557302e-05,7.476883118921206
2025-05-30 16:11:43.110,8.864002996034442e-05,7.3564897347521985
2025-05-30 16:11:43.118,8.131142597627253e-05,7.230394805831437
2025-05-30 16:11:43.125,7.289714479226762e-05,7.097634387905315
2025-05-30 16:11:43.133,6.349133703804497e-05,6.957176676664851
2025-05-30 16:11:43.141,5.322386174350185e-05,6.807968029760791
2025-05-30 16:11:43.149,4.225856994853672e-05,6.648982609376085
2025-05-30 16:11:43.157,3.079008169511956e-05,6.479273819544911
2025-05-30 16:11:43.164,1.903909841839255e-05,6.298025550644871
2025-05-30 16:11:43.172,7.24637655365654e-06,6.104601180637097
2025-05-30 16:11:43.180,-4.334420869832313e-06,5.898588314180936
2025-05-30 16:11:43.188,-1.5444683924991944e-05,5.679837359912427
2025-05-30 16:11:43.196,-2.5829233445366024e-05,5.44849224420077
2025-05-30 16:11:43.204,-3.5244685844801467e-05,5.205011828474658
2025-05-30 16:11:43.211,-4.346741762178139e-05,4.950180932022283
2025-05-30 16:11:43.219,-5.030085520739799e-05,4.685110259320385
2025-05-30 16:11:43.227,-5.5581926908127226e-05,4.411224980575992
2025-05-30 16:11:43.235,-5.918655296405319e-05,4.130242195490328
2025-05-30 16:11:43.243,-6.103401721480865e-05,3.844137993991256
2025-05-30 16:11:43.250,-6.109001794520949e-05,3.5551052820102065
2025-05-30 16:11:43.258,-5.936818559413972e-05,3.2655039347327826
2025-05-30 16:11:43.266,-5.592988384943057e-05,2.9778051458148065
2025-05-30 16:11:43.274,-5.0882166550140085e-05,2.6945320351952824
2025-05-30 16:11:43.282,-4.43738591603771e-05,2.418198647247088
2025-05-30 16:11:43.289,-3.658988218952632e-05,2.151249417226448
2025-05-30 16:11:43.297,-2.7744105498504163e-05,1.896001023469229
2025-05-30 16:11:43.305,-1.8071167049043388e-05,1.6545883006265216
2025-05-30 16:11:43.313,-7.817772828697105e-06,1.4289155957735309
2025-05-30 16:11:43.321,2.7659965237512145e-06,1.2206146378913407
2025-05-30 16:11:43.329,1.3434903404457782e-05,1.0310096933150468
2025-05-30 16:11:43.336,2.395592070646428e-05,0.8610905158379092
2025-05-30 16:11:43.344,3.411448007371231e-05,0.7114933751753209
2025-05-30 16:11:43.352,4.371943479715497e-05,0.5824902544428848
2025-05-30 16:11:43.360,5.260666610902885e-05,0.4739861353891602
2025-05-30 16:11:43.368,6.0641345644054486e-05,0.3855241299306356
2025-05-30 16:11:43.375,6.771893765331406e-05,0.3162980613518476
2025-05-30 16:11:43.383,7.376508055976992e-05,0.2651719453970832
2025-05-30 16:11:43.391,7.873452769939397e-05,0.2307056735835915
2025-05-30 16:11:43.399,8.260935132714611e-05,0.2111860693915142
2025-05-30 16:11:43.407,8.539662253560756e-05,0.204662388915637
2025-05-30 16:11:43.414,8.712577356006614e-05,0.2089852859598723
2025-05-30 16:11:43.422,8.784582945649144e-05,0.2218482637471371
2025-05-30 16:11:43.430,8.76226651966134e-05,0.2408306872551273
2025-05-30 16:11:43.438,8.653640403190072e-05,0.2634415200112613
2025-05-30 16:11:43.446,8.467902599866104e-05,0.2871630615855893
2025-05-30 16:11:43.454,8.215220430095112e-05,0.3094940805208518
2025-05-30 16:11:43.461,7.906533472542822e-05,0.3279918476983529
2025-05-30 16:11:43.469,7.553367353566875e-05,0.3403126689676616
2025-05-30 16:11:43.477,7.167646474864472e-05,0.3442505921500104
2025-05-30 16:11:43.485,6.761494133837863e-05,0.3377740236256508
2025-05-30 16:11:43.493,6.347014009118564e-05,0.3190600312681806
2025-05-30 16:11:43.500,5.936055205552001e-05,0.286526126239326
2025-05-30 16:11:43.508,5.539969139085491e-05,0.238859298961053
2025-05-30 16:11:43.516,5.169368002740364e-05,0.1750420321138222
2025-05-30 16:11:43.524,4.8338926470194586e-05,0.0943749278403896
2025-05-30 16:11:43.532,4.541994621092051e-05,-0.0035045278589744
2025-05-30 16:11:43.539,4.300733940124152e-05,-0.1186076733782537
2025-05-30 16:11:43.547,4.115591296586765e-05,-0.2505855933773536
2025-05-30 16:11:43.555,3.9902919745836016e-05,-0.3987260934764378
2025-05-30 16:11:43.563,3.926640787189227e-05,-0.5619575976872697
2025-05-30 16:11:43.571,3.9243741102487386e-05,-0.7388607744249371
2025-05-30 16:11:43.579,3.981043936741131e-05,-0.9276885254049394
2025-05-30 16:11:43.586,4.091954862068087e-05,-1.1263946964697766
2025-05-30 16:11:43.594,4.250175450731412e-05,-1.3326715096877486
2025-05-30 16:11:43.602,4.446641728818703e-05,-1.5439953041795942
2025-05-30 16:11:43.610,4.670364766699393e-05,-1.7576797484178863
2025-05-30 16:11:43.618,4.908747573047607e-05,-1.970935287603808
2025-05-30 16:11:43.625,5.148009149553559e-05,-2.1809332476676606
2025-05-30 16:11:43.633,5.373705756820872e-05,-2.3848727555023115
2025-05-30 16:11:43.641,5.571331444503072e-05,-2.580048468417228
2025-05-30 16:11:43.649,5.72697195544541e-05,-2.7639170412398077
2025-05-30 16:11:43.657,5.827978497276431e-05,-2.9341602932721225
2025-05-30 16:11:43.664,5.8636210355568216e-05,-3.0887431560614416
2025-05-30 16:11:43.672,5.825675964288307e-05,-3.2259646695386848
2025-05-30 16:11:43.680,5.708902770813172e-05,-3.344500533863474
2025-05-30 16:11:43.688,5.511371006277616e-05,-3.4434360054885
2025-05-30 16:11:43.696,5.234612193492749e-05,-3.522288235430035
2025-05-30 16:11:43.704,4.883587621132181e-05,-3.581017469375111
2025-05-30 16:11:43.711,4.4664774186749286e-05,-3.6200268471250814
2025-05-30 16:11:43.719,3.994306207724126e-05,-3.640150841015263
2025-05-30 16:11:43.727,3.480427713535097e-05,-3.64263265177846
2025-05-30 16:11:43.735,2.93989845187035e-05,-3.629091130849921
2025-05-30 16:11:43.743,2.388778815059505e-05,-3.601478017911488
2025-05-30 16:11:43.750,1.8434047795939725e-05,-3.562026474071304
2025-05-30 16:11:43.758,1.3196728191090326e-05,-3.5131920624872883
2025-05-30 16:11:43.766,8.32375801226697e-06,-3.457587488734944
2025-05-30 16:11:43.774,3.946209855087624e-06,-3.3979125684870017
2025-05-30 16:11:43.782,1.7353934361367797e-07,-3.336881042052417
2025-05-30 16:11:43.789,-2.909954079136666e-06,-3.2771460042829323
2025-05-30 16:11:43.797,-5.2473580669052056e-06,-3.221225861615421
2025-05-30 16:11:43.805,-6.8100577434904684e-06,-3.171432856136536
2025-05-30 16:11:43.813,-7.597384326765208e-06,-3.129806291707881
2025-05-30 16:11:43.821,-7.635126977427754e-06,-3.0980526350581465
2025-05-30 16:11:43.829,-6.973092829603915e-06,-3.0774946190657926
2025-05-30 16:11:43.836,-5.681951175557526e-06,-3.069031324217637
2025-05-30 16:11:43.844,-3.849629172031023e-06,-3.0731109455486707
2025-05-30 16:11:43.852,-1.5775168045913812e-06,-3.089717568564487
2025-05-30 16:11:43.860,1.0233236465139635e-06,-3.1183727972358963
2025-05-30 16:11:43.868,3.835837921286647e-06,-3.1581525325677755
2025-05-30 16:11:43.875,6.740511239692572e-06,-3.207718629037114
2025-05-30 16:11:43.883,9.618731232749068e-06,-3.2653645897406216
2025-05-30 16:11:43.891,1.2355945643417954e-05,-3.3290739198638226
2025-05-30 16:11:43.899,1.4844548512404836e-05,-3.3965892568837064
2025-05-30 16:11:43.907,1.6986407235555746e-05,-3.4654899516239306
2025-05-30 16:11:43.914,1.8694953669173577e-05,-3.5332754075252724
2025-05-30 16:11:43.922,1.9896818330991665e-05,-3.597451216386895
2025-05-30 16:11:43.930,2.053306322700432e-05,-3.655614972859466
2025-05-30 16:11:43.938,2.0560117967291205e-05,-3.705538617582319
2025-05-30 16:11:43.946,1.995052154441049e-05,-3.7452442568562434
2025-05-30 16:11:43.954,1.8693532179956114e-05,-3.773070637625567
2025-05-30 16:11:43.961,1.6795613369593622e-05,-3.787727815178928
2025-05-30 16:11:43.969,1.4280748242185764e-05,-3.788338022422165
2025-05-30 16:11:43.977,1.1190482748940355e-05,-3.77446131074926
2025-05-30 16:11:43.985,7.583563529553993e-06,-3.746105155772053
2025-05-30 16:11:43.993,3.535041830285597e-06,-3.703717877255405
2025-05-30 16:11:44.000,-8.652258408214016e-07,-3.648166383121325
2025-05-30 16:11:44.008,-5.514660830499488e-06,-3.5806993856769798
2025-05-30 16:11:44.016,-1.0300539667050002e-05,-3.5028978282757834
2025-05-30 16:11:44.024,-1.5102949499698517e-05,-3.416614774763594
2025-05-30 16:11:44.032,-1.97980099743803e-05,-3.32390742188922
2025-05-30 16:11:44.039,-2.4261263456770706e-05,-3.226964166378143
2025-05-30 16:11:44.047,-2.837114764318658e-05,-3.128029770958336
2025-05-30 16:11:44.055,-3.20124729955209e-05,-3.0293316176231
2025-05-30 16:11:44.063,-3.5079831752424884e-05,-2.9330098157193576
2025-05-30 16:11:44.071,-3.748086547524582e-05,-2.8410535627965885
2025-05-30 16:11:44.079,-3.913931446373512e-05,-2.755245665641885
2025-05-30 16:11:44.086,-3.999776549636882e-05,-2.6771165602479754
2025-05-30 16:11:44.094,-4.002000505056207e-05,-2.6079085779026765
2025-05-30 16:11:44.102,-3.919287450069062e-05,-2.5485506486222587
2025-05-30 16:11:44.110,-3.752751301299065e-05,-2.499643161996462
2025-05-30 16:11:44.118,-3.5059864309620325e-05,-2.461452350758629
2025-05-30 16:11:44.125,-3.185031656646603e-05,-2.4339133359154443
2025-05-30 16:11:44.133,-2.7982343458486706e-05,-2.416640867054641
2025-05-30 16:11:44.141,-2.356002976570906e-05,-2.4089467828765514
2025-05-30 16:11:44.149,-1.8704418759198185e-05,-2.409863267385783
2025-05-30 16:11:44.157,-1.3548722912934634e-05,-2.41817104613644
2025-05-30 16:11:44.164,-8.232568638811755e-06,-2.432431722953696
2025-05-30 16:11:44.172,-2.895550167721007e-06,-2.451023484444667
2025-05-30 16:11:44.180,2.329578600397318e-06,-2.4721793973364776
2025-05-30 16:11:44.188,7.323730957502912e-06,-2.494027506098817
2025-05-30 16:11:44.196,1.1987993427588832e-05,-2.514631927056521
2025-05-30 16:11:44.204,1.6249483569623004e-05,-2.532034150397961
2025-05-30 16:11:44.211,2.006625071467936e-05,-2.544293813214442
2025-05-30 16:11:44.219,2.3430935673173047e-05,-2.5495282910501693
2025-05-30 16:11:44.227,2.637293640843516e-05,-2.545950557601944
2025-05-30 16:11:44.235,2.895886353433308e-05,-2.5319048652122307
2025-05-30 16:11:44.243,3.129111363935549e-05,-2.505899890978532
2025-05-30 16:11:44.250,3.350444922178228e-05,-2.4666390688568685
2025-05-30 16:11:44.258,3.576057158372798e-05,-2.413047882809735
2025-05-30 16:11:44.266,3.824081792919876e-05,-2.3442979243718374
2025-05-30 16:11:44.274,4.113727896626108e-05,-2.2598275151187104
2025-05-30 16:11:44.282,4.46427676003595e-05,-2.1593586591020557
2025-05-30 16:11:44.289,4.894014558053191e-05,-2.042910024230846
2025-05-30 16:11:44.297,5.419154366001419e-05,-1.9108055576974807
2025-05-30 16:11:44.305,6.052801197426444e-05,-1.7636782243193374
2025-05-30 16:11:44.313,6.804012019325352e-05,-1.6024682323365695
2025-05-30 16:11:44.321,7.676999297909306e-05,-1.4284150060944405
2025-05-30 16:11:44.329,8.670521539199924e-05,-1.2430421161633332
2025-05-30 16:11:44.336,9.777497543488926e-05,-1.0481344224820024
2025-05-30 16:11:44.344,0.0001098487275399,-0.8457068542567724
2025-05-30 16:11:44.352,0.0001227375624969,-0.6379645554903203
2025-05-30 16:11:44.360,0.0001361983575637,-0.4272545600837498
2025-05-30 16:11:44.368,0.0001499406572286,-0.2160096939492329
2025-05-30 16:11:44.375,0.0001636361027946,-0.0066859800396873
2025-05-30 16:11:44.383,0.0001769300906453,0.1983046188008987
2025-05-30 16:11:44.391,0.0001894551983103,0.3966638046060131
2025-05-30 16:11:44.399,0.0002008457800156,0.5862762261376577
2025-05-30 16:11:44.407,0.0002107530135525,0.7652755627368267
2025-05-30 16:11:44.414,0.0002188596036377,0.9321044967291796
2025-05-30 16:11:44.422,0.0002248933315802,1.085565791982034
2025-05-30 16:11:44.430,0.0002286386774408,1.224861988902716
2025-05-30 16:11:44.438,0.0002299458164835,1.3496216652086426
2025-05-30 16:11:44.446,0.0002287364289963,1.4599107781205845
2025-05-30 16:11:44.454,0.0002250059934693,1.5562282731590644
2025-05-30 16:11:44.461,0.000218822539248,1.6394858820984668
2025-05-30 16:11:44.469,0.0002103221397683,1.7109727873852816
2025-05-30 16:11:44.477,0.0001997016469471,1.7723065431098295
2025-05-30 16:11:44.485,0.0001872092623986,1.8253722594082655
2025-05-30 16:11:44.493,0.0001731335345453,1.8722525405472847
2025-05-30 16:11:44.500,0.0001577913211708,1.9151509978034684
2025-05-30 16:11:44.508,0.0001415152228785,1.9563123321150129
2025-05-30 16:11:44.516,0.0001246410022259,1.9979420062257287
2025-05-30 16:11:44.524,0.000107495536124,2.042128421320332
2025-05-30 16:11:44.532,9.0385858055738e-05,2.0907703068325416
2025-05-30 16:11:44.539,7.358979934088428e-05,2.145511752311704
2025-05-30 16:11:44.547,5.734862869081002e-05,2.2076869784857323
2025-05-30 16:11:44.555,4.186192843006088e-05,2.278276575025173
2025-05-30 16:11:44.563,2.7284771760222137e-05,2.357876534960377
2025-05-30 16:11:44.571,1.3727130786347832e-05,2.446680999128963
2025-05-30 16:11:44.579,1.2553743907584563e-06,2.544479197068857
2025-05-30 16:11:44.586,-1.0104313502410948e-05,2.650666641530357
2025-05-30 16:11:44.594,-2.036079597237921e-05,2.764270209302782
2025-05-30 16:11:44.602,-2.9551393414978724e-05,2.883986325446371
2025-05-30 16:11:44.610,-3.773421265776802e-05,3.008231060627902
2025-05-30 16:11:44.618,-4.497987017847646e-05,3.135200549873897
2025-05-30 16:11:44.625,-5.1363153378789584e-05,3.2629397507940148
2025-05-30 16:11:44.633,-5.695518361080463e-05,3.389417199233841
2025-05-30 16:11:44.641,-6.181662705563858e-05,3.512603120488292
2025-05-30 16:11:44.649,-6.59924459077907e-05,3.630548045758376
2025-05-30 16:11:44.657,-6.950857223100742e-05,3.7414589892579313
2025-05-30 16:11:44.664,-7.23707115962307e-05,3.8437702718813127
2025-05-30 16:11:44.672,-7.456526606197509e-05,3.936206232104748
2025-05-30 16:11:44.680,-7.606214688186628e-05,4.0178333347811375
2025-05-30 16:11:44.688,-7.68190753756745e-05,4.08809955810085
2025-05-30 16:11:44.696,-7.678688952105185e-05,4.146859388463673
2025-05-30 16:11:44.704,-7.59153886979003e-05,4.194383262579264
2025-05-30 16:11:44.711,-7.415932179551057e-05,4.231350849174192
2025-05-30 16:11:44.719,-7.148421796275358e-05,4.25882814416045
2025-05-30 16:11:44.727,-6.78718520785099e-05,4.278228945508286
2025-05-30 16:11:44.735,-6.332519324780875e-05,4.291261857204205
2025-05-30 16:11:44.743,-5.78726754967998e-05,4.299864526461612
2025-05-30 16:11:44.750,-5.15715812984328e-05,4.306127328459598
2025-05-30 16:11:44.758,-4.451030400069456e-05,4.312209161424337
2025-05-30 16:11:44.766,-3.680929605934628e-05,4.32024838025587
2025-05-30 16:11:44.774,-2.862061607358831e-05,4.332272154675944
2025-05-30 16:11:44.782,-2.0126125410673667e-05,4.350107668512118
2025-05-30 16:11:44.789,-1.1534495421270206e-05,4.375298571206324
2025-05-30 16:11:44.797,-3.0772187206027576e-06,4.409029950098699
2025-05-30 16:11:44.805,4.996225781689185e-06,4.452064815141485
2025-05-30 16:11:44.813,1.2423976329625791e-05,4.504694683568729
2025-05-30 16:11:44.821,1.8938126991972064e-05,4.56670633747029
2025-05-30 16:11:44.829,2.427175889464409e-05,4.6373662291742965
2025-05-30 16:11:44.836,2.8166579389547e-05,4.715423357745181
2025-05-30 16:11:44.844,3.038105568571376e-05,4.799130759910441
2025-05-30 16:11:44.852,3.06989266393427e-05,4.886285070372682
2025-05-30 16:11:44.860,2.89379564752852e-05,4.974282930054096
2025-05-30 16:11:44.868,2.4958703666710628e-05,5.060192380642619
2025-05-30 16:11:44.875,1.8672921876904465e-05,5.140836806513096
2025-05-30 16:11:44.883,1.0051062200601656e-05,5.212888496279
2025-05-30 16:11:44.891,-8.717169786537317e-07,5.272968520213095
2025-05-30 16:11:44.899,-1.3991589764371027e-05,5.317749381365205
2025-05-30 16:11:44.907,-2.913460645157406e-05,5.3440568193299605
2025-05-30 16:11:44.915,-4.605805788147985e-05,5.348967235430663
2025-05-30 16:11:44.922,-6.445481851729378e-05,5.329897455898306
2025-05-30 16:11:44.930,-8.39606527413598e-05,5.2846839282609
2025-05-30 16:11:44.938,-0.0001041642936883,5.211648921801478
2025-05-30 16:11:44.946,-0.0001246199520846,5.109651842996871
2025-05-30 16:11:44.954,-0.0001448618019483,4.97812435284445
2025-05-30 16:11:44.961,-0.0001644199097262,4.8170885613895935
2025-05-30 16:11:44.969,-0.0001828370022653,4.627158157205988
2025-05-30 16:11:44.977,-0.0001996854103903,4.409522890430145
2025-05-30 16:11:44.985,-0.0002145835020011,4.165917350435321
2025-05-30 16:11:44.993,-0.0002272109426872,3.898575444914972
2025-05-30 16:11:45.000,-0.0002373221720999,3.610172380160852
2025-05-30 16:11:45.008,-0.0002447575184911,3.3037562543817818
2025-05-30 16:11:45.016,-0.0002494513786781,2.982671606735299
2025-05-30 16:11:45.024,-0.0002514369148803,2.6504774158056845
2025-05-30 16:11:45.032,-0.0002508468248446,2.310862108559348
2025-05-30 16:11:45.040,-0.0002479099357039,1.9675581153821715
2025-05-30 16:11:45.047,-0.000242943617869,1.624258383061704
2025-05-30 16:11:45.055,-0.0002363422753621,1.284537040436356
2025-05-30 16:11:45.063,-0.00022856241649,0.9517761162472764
2025-05-30 16:11:45.071,-0.0002201050152886,0.6290998567146938
2025-05-30 16:11:45.079,-0.0002114960206202,0.3193178043942361
2025-05-30 16:11:45.086,-0.000203265964691,0.0248774024285445
2025-05-30 16:11:45.094,-0.0001959296774024,-0.2521734987626585
2025-05-30 16:11:45.102,-0.0001899671035477,-0.5102142104499552
2025-05-30 16:11:45.110,-0.0001858061127383,-0.7480691304648349
2025-05-30 16:11:45.118,-0.0001838080018289,-0.9650165343907467
2025-05-30 16:11:45.125,-0.0001842561790875,-1.1607888883570228
2025-05-30 16:11:45.133,-0.0001873483396472,-1.3355653953652429
2025-05-30 16:11:45.141,-0.0001931922950626,-1.489957465560603
2025-05-30 16:11:45.149,-0.0002018054853236,-1.6249877220635052
2025-05-30 16:11:45.157,-0.0002131180708701,-1.7420630441393776
2025-05-30 16:11:45.165,-0.0002269793660748,-1.8429420347715009
2025-05-30 16:11:45.172,-0.000243167212609,-1.9296972028386383
2025-05-30 16:11:45.180,-0.0002613997016604,-2.004672088943055
2025-05-30 16:11:45.188,-0.0002813484888917,-2.070433550434597
2025-05-30 16:11:45.196,-0.0003026528750234,-2.12971945956275
2025-05-30 16:11:45.204,-0.0003249338788429,-2.1853821551513097
2025-05-30 16:11:45.211,-0.0003478076730649,-2.240328115446882
2025-05-30 16:11:45.219,-0.0003708979129617,-2.297454483412966
2025-05-30 16:11:45.227,-0.0003938466103701,-2.359583274586648
2025-05-30 16:11:45.235,-0.0004163232962299,-2.429394327731372
2025-05-30 16:11:45.243,-0.0004380323040731,-2.509358307766406
2025-05-30 16:11:45.250,-0.0004587180937298,-2.601671318026466
2025-05-30 16:11:45.258,-0.0004781685906839,-2.708192897823323
2025-05-30 16:11:45.266,-0.0004962165429238,-2.830389342632356
2025-05-30 16:11:45.274,-0.0005127389302828,-2.969284363410278
2025-05-30 16:11:45.282,-0.0005276545229923,-3.1254190838472624
2025-05-30 16:11:45.290,-0.0005409197631752,-3.298823255754526
2025-05-30 16:11:45.297,-0.0005525232133605,-3.4889993557322065
2025-05-30 16:11:45.305,-0.0005624788695077,-3.694920914311398
2025-05-30 16:11:45.313,-0.0005708186709649,-3.9150460241673306
2025-05-30 16:11:45.321,-0.0005775845569341,-4.147346479347292
2025-05-30 16:11:45.329,-0.0005828204196424,-4.3893524200940846
2025-05-30 16:11:45.336,-0.0005865642902137,-4.6382117142681984
2025-05-30 16:11:45.344,-0.0005888410662925,-4.890762624674874
2025-05-30 16:11:45.352,-0.000589656053168,-5.143617632546949
2025-05-30 16:11:45.360,-0.0005889895450759,-5.393255663783683
2025-05-30 16:11:45.368,-0.0005867926232532,-5.636119455736295
2025-05-30 16:11:45.375,-0.0005829842949745,-5.868714463313196
2025-05-30 16:11:45.383,-0.0005774500460162,-6.087705571338177
2025-05-30 16:11:45.391,-0.0005700418305013,-6.290007967610354
2025-05-30 16:11:45.399,-0.0005605794794877,-6.472868827284946
2025-05-30 16:11:45.407,-0.0005488534754365,-6.633936938354293
2025-05-30 16:11:45.415,-0.0005346290160451,-6.771318024163143
2025-05-30 16:11:45.422,-0.0005176512798423,-6.883614245478807
2025-05-30 16:11:45.430,-0.0004976518090726,-6.969947136191894
2025-05-30 16:11:45.438,-0.0004743559440793,-7.029963986151157
2025-05-30 16:11:45.446,-0.0004474912769307,-7.063828381431166
2025-05-30 16:11:45.454,-0.000416797129644,-7.072196206439911
2025-05-30 16:11:45.461,-0.0003820350721722,-7.0561788742238205
2025-05-30 16:11:45.469,-0.0003430004337984,-7.017295862562694
2025-05-30 16:11:45.477,-0.000299534611013,-6.957418788528333
2025-05-30 16:11:45.485,-0.0002515377669058,-6.878709262930427
2025-05-30 16:11:45.493,-0.0001989813101618,-6.78355265276017
2025-05-30 16:11:45.500,-0.0001419193899482,-6.674489678707414
2025-05-30 16:11:45.508,-8.049858885733671e-05,-6.5541475249125964
2025-05-30 16:11:45.516,-1.496506090028223e-05,-6.425171877794217
2025-05-30 16:11:45.524,5.433147670558459e-05,-6.290161072624158
2025-05-30 16:11:45.532,0.000126937288597,-6.15160333064076
2025-05-30 16:11:45.540,0.0002022979104614,-6.011817921044017
2025-05-30 16:11:45.547,0.0002797652481416,-5.872900976473952
2025-05-30 16:11:45.555,0.0003586084335423,-5.736676621033499
2025-05-30 16:11:45.563,0.0004380282422637,-5.60465403160166
2025-05-30 16:11:45.571,0.0005171746912847,-5.477991039953476
2025-05-30 16:11:45.579,0.0005951672318668,-5.3574648851577535
2025-05-30 16:11:45.586,0.0006711167822546,-5.243450731350468
2025-05-30 16:11:45.594,0.0007441487425652,-5.135908567035593
2025-05-30 16:11:45.602,0.0008134261055125,-5.034379095413717
2025-05-30 16:11:45.610,0.0008781717921625,-4.937989209087954
2025-05-30 16:11:45.618,0.0009376893672567,-4.845467610759667
2025-05-30 16:11:45.625,0.0009913813259113,-4.75517108114208
2025-05-30 16:11:45.633,0.001038764229712,-4.66512178646611
2025-05-30 16:11:45.641,0.0010794801285832,-4.573055835910489
2025-05-30 16:11:45.649,0.001113303912765,-4.476483019844929
2025-05-30 16:11:45.657,0.0011401464503462,-4.3727572684377565
2025-05-30 16:11:45.665,0.0011600535471231,-4.259156870195399
2025-05-30 16:11:45.672,0.0011732009068875,-4.132972904679549
2025-05-30 16:11:45.680,0.0011798853728862,-3.9916037136831215
2025-05-30 16:11:45.688,0.0011805127996363,-3.832652613440872
2025-05-30 16:11:45.696,0.001175582945794,-3.654025496356665
2025-05-30 16:11:45.704,0.0011656718095103,-3.4540245450531133
2025-05-30 16:11:45.711,0.001151411875143,-3.231434040493821
2025-05-30 16:11:45.719,0.0011334708224445,-2.985594231926914
2025-05-30 16:11:45.727,0.0011125293466641,-2.7164594699771563
2025-05-30 16:11:45.735,0.0010892588065188,-2.4246372822588707
2025-05-30 16:11:45.743,0.0010642994357976,-2.111405769629777
2025-05-30 16:11:45.750,0.0010382398377541,-1.7787075790230429
2025-05-30 16:11:45.758,0.0010115984440969,-1.4291197089022374
2025-05-30 16:11:45.766,0.0009848075540977,-1.0657994609382109
2025-05-30 16:11:45.774,0.0009582004661257,-0.6924079046436309
2025-05-30 16:11:45.782,0.0009320021005518,-0.3130132189429376
2025-05-30 16:11:45.790,0.0009063234370183,0.0680228257915836
2025-05-30 16:11:45.797,0.0008811600634802,0.4461712161596651
2025-05-30 16:11:45.805,0.0008563951127615,0.8168702467706979
2025-05-30 16:11:45.813,0.0008318067765236,1.1756632424938998
2025-05-30 16:11:45.821,0.0008070804048261,1.5183342339181822
2025-05-30 16:11:45.829,0.0007818249475657,1.8410364106556032
2025-05-30 16:11:45.836,0.0007555932249279,2.140408449727628
2025-05-30 16:11:45.844,0.0007279052685299,2.413674307342448
2025-05-30 16:11:45.852,0.0006982737725619,2.6587227474502173
2025-05-30 16:11:45.860,0.000666230543617,2.8741637226591235
2025-05-30 16:11:45.868,0.0006313527449244,3.0593596775761767
2025-05-30 16:11:45.875,0.0005932876999754,3.214430864904791
2025-05-30 16:11:45.883,0.0005517750552807,3.340234805567886
2025-05-30 16:11:45.891,0.0005066652039161,3.43832104186274
2025-05-30 16:11:45.899,0.0004579330390384,3.510863285538833
2025-05-30 16:11:45.907,0.0004056863282794,3.560571914258461
2025-05-30 16:11:45.915,0.0003501682516736,3.5905904895012184
2025-05-30 16:11:45.922,0.0002917539091758,3.604380528101923
2025-05-30 16:11:45.930,0.0002309408863354,3.605599130112663
2025-05-30 16:11:45.938,0.0001683342766374,3.5979742259133958
2025-05-30 16:11:45.946,0.0001046268675863,3.5851821497899707
2025-05-30 16:11:45.954,4.057546085235167e-05,3.570731988205946
2025-05-30 16:11:45.961,-2.3025500640304706e-05,3.5578607131231315
2025-05-30 16:11:45.969,-8.537168494182217e-05,3.5494425228405584
2025-05-30 16:11:45.977,-0.0001456766274495,3.5479151057766525
2025-05-30 16:11:45.985,-0.0002031981485815,3.5552247492031013
2025-05-30 16:11:45.993,-0.0002572622020842,3.572791369443784
2025-05-30 16:11:46.000,-0.0003072830996977,3.601493678825241
2025-05-30 16:11:46.008,-0.0003527793076985,3.6416738684905448
2025-05-30 16:11:46.016,-0.0003933843383053,3.693160421018706
2025-05-30 16:11:46.024,-0.0004288526223797,3.7553070185997326
2025-05-30 16:11:46.032,-0.0004590605744092,3.827045016966632
2025-05-30 16:11:46.040,-0.0004840032931144,3.906946628661515
2025-05-30 16:11:46.047,-0.0005037874804689,3.9932957977799775
2025-05-30 16:11:46.055,-0.0005186212325929,4.084163736109785
2025-05-30 16:11:46.063,-0.0005288013714885,4.177486206892948
2025-05-30 16:11:46.071,-0.0005346989623956,4.271139863086821
2025-05-30 16:11:46.079,-0.0005367436288405,4.363015242631963
2025-05-30 16:11:46.086,-0.0005354072558199,4.451084361579884
2025-05-30 16:11:46.094,-0.0005311876519247,4.533461197800336
2025-05-30 16:11:46.102,-0.0005245927072315,4.608453701639573
2025-05-30 16:11:46.110,-0.0005161255304046,4.674606290883059
2025-05-30 16:11:46.118,-0.0005062709787969,4.730732077088178
2025-05-30 16:11:46.125,-0.000495483914115,4.775934327731204
2025-05-30 16:11:46.133,-0.0004841794279465,4.809616903338931
2025-05-30 16:11:46.141,-0.000472725190301,4.831483639690645
2025-05-30 16:11:46.149,-0.000461435984046,4.84152689201659
2025-05-30 16:11:46.157,-0.0004505704019516,4.840005732902186
2025-05-30 16:11:46.165,-0.0004403296036872,4.827414600181097
2025-05-30 16:11:46.172,-0.0004308579596459,4.8044435198564965
2025-05-30 16:11:46.180,-0.0004222453484656,4.771931371052478
2025-05-30 16:11:46.188,-0.000414530826574,4.73081399769569
2025-05-30 16:11:46.196,-0.0004077073515335,4.682069280215096
2025-05-30 16:11:46.204,-0.0004017272180909,4.626661530874001
2025-05-30 16:11:46.211,-0.0003965078660416,4.565487740208538
2025-05-30 16:11:46.219,-0.0003919377622915,4.499328255568376
2025-05-30 16:11:46.227,-0.0003878821561776,4.428804397882622
2025-05-30 16:11:46.235,-0.0003841886298368,4.35434530975407
2025-05-30 16:11:46.243,-0.0003806924632147,4.276165978447454
2025-05-30 16:11:46.250,-0.0003772218790727,4.194257904089271
2025-05-30 16:11:46.258,-0.0003736032379228,4.10839330637364
2025-05-30 16:11:46.266,-0.000369666236875,4.018143106094749
2025-05-30 16:11:46.274,-0.0003652491401404,3.922908209697774
2025-05-30 16:11:46.282,-0.000360204034985,3.821962902690509
2025-05-30 16:11:46.290,-0.0003544020666724,3.714508466124181
2025-05-30 16:11:46.297,-0.0003477385611483,3.5997345163064782
2025-05-30 16:11:46.305,-0.0003401378970221,3.4768850716872546
2025-05-30 16:11:46.313,-0.0003315579411692,3.345326000990452
2025-05-30 16:11:46.321,-0.0003219938175922,3.204610320159462
2025-05-30 16:11:46.329,-0.0003114807413241,3.054537790041953
2025-05-30 16:11:46.336,-0.0003000956304809,2.895205421423175
2025-05-30 16:11:46.344,-0.0002879572332226,2.727045812512304
2025-05-30 16:11:46.352,-0.0002752245858589,2.5508507170729207
2025-05-30 16:11:46.360,-0.0002620937292782,2.367777858585598
2025-05-30 16:11:46.368,-0.000248792704946,2.179339752395901
2025-05-30 16:11:46.375,-0.0002355749056016,1.987374150092395
2025-05-30 16:11:46.383,-0.0002227108915088,1.7939966448867444
2025-05-30 16:11:46.391,-0.0002104788427571,1.6015369331944285
2025-05-30 16:11:46.399,-0.0001991539230258,1.4124611712158577
2025-05-30 16:11:46.407,-0.0001889969557546,1.2292837463260886
2025-05-30 16:11:46.415,-0.0001802429095769,1.0544725450960486
2025-05-30 16:11:46.422,-0.0001730897293953,0.8903523818464734
2025-05-30 16:11:46.430,-0.0001676880433502,0.7390115957429199
2025-05-30 16:11:46.438,-0.0001641322443246,0.6022168841967723
2025-05-30 16:11:46.446,-0.000162453396832,0.4813411865704606
2025-05-30 16:11:46.454,-0.000162614357545,0.3773088562716674
2025-05-30 16:11:46.461,-0.0001645074202635,0.2905614776878282
2025-05-30 16:11:46.469,-0.0001679547040563,0.2210465428063262
2025-05-30 16:11:46.477,-0.0001727113972475,0.1682298741807399
2025-05-30 16:11:46.485,-0.0001784718509453,0.131131257919967
2025-05-30 16:11:46.493,-0.0001848783855654,0.1083813320512904
2025-05-30 16:11:46.500,-0.0001915325345228,0.0982964632959205
2025-05-30 16:11:46.508,-0.000198008305474,0.0989672390406823
2025-05-30 16:11:46.516,-0.0002038669060748,0.1083553906753085
2025-05-30 16:11:46.524,-0.000208672292688,0.124393512389884
2025-05-30 16:11:46.532,-0.0002120068934656,0.145081870084932
2025-05-30 16:11:46.540,-0.000213486923584,0.168576895357093
2025-05-30 16:11:46.547,-0.0002127767910038,0.1932665916655708
2025-05-30 16:11:46.555,-0.0002096021465062,0.2178289910427845
2025-05-30 16:11:46.563,-0.0002037611858434,0.2412709253571384
2025-05-30 16:11:46.571,-0.0001951338908517,0.2629456395466867
2025-05-30 16:11:46.579,-0.0001836889723581,0.2825490908318341
2025-05-30 16:11:46.586,-0.0001694883151608,0.300096062106879
2025-05-30 16:11:46.594,-0.0001526887328343,0.3158783885549871
2025-05-30 16:11:46.602,-0.000133540842228,0.3304085817479869
2025-05-30 16:11:46.610,-0.0001123848762643,0.3443528770035658
2025-05-30 16:11:46.618,-8.964328563125164e-05,0.3584581901155088
2025-05-30 16:11:46.625,-6.581006227304156e-05,0.3734776347702138
2025-05-30 16:11:46.633,-4.143687024965122e-05,0.3900991298049259
2025-05-30 16:11:46.641,-1.7116288417876486e-05,0.4088812424246937
2025-05-30 16:11:46.649,6.537291736791181e-06,0.4301998115379608
2025-05-30 16:11:46.657,2.890838614988047e-05,0.4542081267605201
2025-05-30 16:11:46.665,4.940194203082549e-05,0.480812558203376
2025-05-30 16:11:46.672,6.746482930997162e-05,0.5096645899523813
2025-05-30 16:11:46.680,8.260645040514391e-05,0.5401692489309486
2025-05-30 16:11:46.688,9.441760689727784e-05,0.5715089804340742
2025-05-30 16:11:46.696,0.0001025867872114,0.6026811467567185
2025-05-30 16:11:46.704,0.0001069131257283,0.632546568826436
2025-05-30 16:11:46.711,0.0001073154184163,0.6598859461443698
2025-05-30 16:11:46.719,0.0001038367413177,0.6834606184055575
2025-05-30 16:11:46.727,9.664439521286384e-05,0.7020739919143203
2025-05-30 16:11:46.735,8.602508963692748e-05,0.7146300429226378
2025-05-30 16:11:46.743,7.237548058610983e-05,0.7201856091370904
2025-05-30 16:11:46.750,5.6188386735247496e-05,0.7179936573304053
2025-05-30 16:11:46.758,3.803522460681472e-05,0.7075353267179177
2025-05-30 16:11:46.766,1.8545410913232425e-05,0.6885392484533057
2025-05-30 16:11:46.774,-1.6163460653034485e-06,0.66098738862711
2025-05-30 16:11:46.782,-2.177383213427345e-05,0.6251074181048599
2025-05-30 16:11:46.790,-4.126311679430969e-05,0.5813523416411853
2025-05-30 16:11:46.797,-5.945530734649481e-05,0.5303687842039082
2025-05-30 16:11:46.805,-7.577733251173534e-05,0.4729558995112142
2025-05-30 16:11:46.813,-8.972998262310916e-05,0.4100173065806718
2025-05-30 16:11:46.821,-0.0001009026239298,0.3425087556278977
2025-05-30 16:11:46.829,-0.0001089841958194,0.2713843638936084
2025-05-30 16:11:46.836,-0.0001137702779683,0.1975442423393997
2025-05-30 16:11:46.844,-0.0001151661750174,0.1217861643470123
2025-05-30 16:11:46.852,-0.0001131861075936,0.0447636280955891
2025-05-30 16:11:46.860,-0.0001079487196755,-0.0330477377600272
2025-05-30 16:11:46.868,-9.966921367557204e-05,-0.1113739535964008
2025-05-30 16:11:46.875,-8.864850717749311e-05,-0.1901557126456387
2025-05-30 16:11:46.883,-7.525987057300189e-05,-0.2695502682296389
2025-05-30 16:11:46.891,-5.993355480945993e-05,-0.3499223665973231
2025-05-30 16:11:46.899,-4.313995517563257e-05,-0.4318249440551186
2025-05-30 16:11:46.907,-2.537188258899521e-05,-0.5159707854524772
2025-05-30 16:11:46.915,-7.126530102150873e-06,-0.603196731339703
2025-05-30 16:11:46.922,1.1112269104360064e-05,-0.6944222993028242
2025-05-30 16:11:46.930,2.889089397596342e-05,-0.7906047378940443
2025-05-30 16:11:46.938,4.5801303710885547e-05,-0.8926925595163475
2025-05-30 16:11:46.946,6.149433867077589e-05,-1.0015795142022113
2025-05-30 16:11:46.954,7.56903997473165e-05,-1.118060790069058
2025-05-30 16:11:46.961,8.818702120710286e-05,-1.2427929827311055
2025-05-30 16:11:46.969,9.886298413096584e-05,-1.3762590909861694
2025-05-30 16:11:46.977,0.0001076788082427,-1.5187394960316651
2025-05-30 16:11:46.985,0.0001146736738696,-1.6702895914089342
2025-05-30 16:11:46.993,0.0001199590221381,-1.830724471175392
2025-05-30 16:11:47.000,0.0001237092445932,-1.99961086678271
2025-05-30 16:11:47.008,0.0001261500115228,-2.176266353568945
2025-05-30 16:11:47.016,0.0001275448990232,-2.359765725975834
2025-05-30 16:11:47.024,0.0001281810338202,-2.548954363030147
2025-05-30 16:11:47.032,0.0001283544689518,-2.74246836192139
2025-05-30 16:11:47.040,0.0001283559491021,-2.938761188880043
2025-05-30 16:11:47.047,0.0001284576459652,-3.1361365582947127
2025-05-30 16:11:47.055,0.000128901354779,-3.3327871768658537
2025-05-30 16:11:47.063,0.0001298885480954,-3.526838856170396
2025-05-30 16:11:47.071,0.0001315725850147,-3.716399288556151
2025-05-30 16:11:47.079,0.0001340532762559,-3.8996104953636888
2025-05-30 16:11:47.086,0.000137373909903,-4.074703608919069
2025-05-30 16:11:47.094,0.0001415207514739,-4.240054275530305
2025-05-30 16:11:47.102,0.0001464249467168,-4.394236613673552
2025-05-30 16:11:47.110,0.0001519666775811,-4.536073378934602
2025-05-30 16:11:47.118,0.0001579813521381,-4.664679817245355
2025-05-30 16:11:47.125,0.0001642675486667,-4.779498664310758
2025-05-30 16:11:47.133,0.0001705963832613,-4.880323897758296
2025-05-30 16:11:47.141,0.0001767219296814,-4.9673111836199135
2025-05-30 16:11:47.149,0.000182392290135,-5.0409734770561805
2025-05-30 16:11:47.157,0.0001873608966599,-5.102160916745729
2025-05-30 16:11:47.165,0.0001913976150733,-5.152024955577301
2025-05-30 16:11:47.172,0.000194299227451,-5.191967547555016
2025-05-30 16:11:47.180,0.0001958988851055,-5.223577102029229
2025-05-30 16:11:47.188,0.0001960741523528,-5.248553754921437
2025-05-30 16:11:47.196,0.000194753302221,-5.268627228546742
2025-05-30 16:11:47.204,0.00019191957879,-5.285471104532129
2025-05-30 16:11:47.211,0.0001876132069904,-5.300617679714354
2025-05-30 16:11:47.219,0.0001819310091555,-5.315377685751848
2025-05-30 16:11:47.227,0.0001750235778051,-5.330769014175132
2025-05-30 16:11:47.235,0.0001670900550761,-5.347458201413851
2025-05-30 16:11:47.243,0.0001583706794981,-5.365717815686192
2025-05-30 16:11:47.250,0.0001491373769188,-5.385402090209161
2025-05-30 16:11:47.258,0.0001396827822211,-5.405942215203433
2025-05-30 16:11:47.266,0.0001303081584899,-5.426361686685067
2025-05-30 16:11:47.274,0.0001213107158242,-5.4453110648474
2025-05-30 16:11:47.282,0.0001129708438136,-5.46112047383865
2025-05-30 16:11:47.290,0.0001055397956027,-5.471867239036166
2025-05-30 16:11:47.297,9.92283964483881e-05,-5.475455270708417
2025-05-30 16:11:47.305,9.41973579726736e-05,-5.469702218997948
2025-05-30 16:11:47.313,9.0549738266502e-05,-5.452430081474084
2025-05-30 16:11:47.321,8.832600889592388e-05,-5.421554856900922
2025-05-30 16:11:47.329,8.750208499839174e-05,-5.375171003689311
2025-05-30 16:11:47.336,8.799053258269835e-05,-5.311626860859341
2025-05-30 16:11:47.344,8.96449711008949e-05,-5.2295877963794
2025-05-30 16:11:47.352,9.22674538398758e-05,-5.1280846275667145
2025-05-30 16:11:47.360,9.56183839032457e-05,-5.006545764066239
2025-05-30 16:11:47.368,9.9428353010095e-05,-4.864812494357968
2025-05-30 16:11:47.375,0.0001034111767216,-4.7031378000490776
2025-05-30 16:11:47.383,0.0001072773342119,-4.5221699663156665
2025-05-30 16:11:47.391,0.0001107470257217,-4.322922998277277
2025-05-30 16:11:47.399,0.000113562161525,-4.106736401948133
2025-05-30 16:11:47.407,0.0001154967642121,-3.875227212253156
2025-05-30 16:11:47.415,0.0001163654368185,-3.630237239171301
2025-05-30 16:11:47.422,0.0001160296863021,-3.373778371965772
2025-05-30 16:11:47.430,0.0001144020010101,-3.107978469585467
2025-05-30 16:11:47.438,0.0001114476710606,-2.8350299242242105
2025-05-30 16:11:47.446,0.0001071843991677,-2.55714246511292
2025-05-30 16:11:47.454,0.0001016797665795,-2.276501212020185
2025-05-30 16:11:47.461,9.50466270155258e-05,-1.995230426038151
2025-05-30 16:11:47.469,8.743656130168468e-05,-1.7153628713578115
2025-05-30 16:11:47.477,7.90316594454416e-05,-1.4388142314664052
2025-05-30 16:11:47.485,7.003506454268672e-05,-1.1673616540338283
2025-05-30 16:11:47.493,6.066085568887187e-05,-0.9026252648571224
2025-05-30 16:11:47.500,5.112392823425085e-05,-0.6460514170959182
2025-05-30 16:11:47.508,4.163053564099862e-05,-0.3988965367244729
2025-05-30 16:11:47.516,3.237009456393289e-05,-0.1622106785987019
2025-05-30 16:11:47.524,2.3508740580457415e-05,0.0631797093273484
2025-05-30 16:11:47.532,1.5184961757646102e-05,0.2766898475101505
2025-05-30 16:11:47.540,7.50743298927829e-06,0.4779950443825811
2025-05-30 16:11:47.547,5.549568261145279e-07,0.6670485251473542
2025-05-30 16:11:47.555,-5.621761144941235e-06,0.8440973088383243
2025-05-30 16:11:47.563,-1.0996884347088145e-05,1.0096944699027974
2025-05-30 16:11:47.571,-1.5565199354289875e-05,1.164705955488634
2025-05-30 16:11:47.579,-1.9337302721837264e-05,1.3103101169314777
2025-05-30 16:11:47.586,-2.2334660706722504e-05,1.4479882574150926
2025-05-30 16:11:47.594,-2.4584948484624216e-05,1.5795047946233105
2025-05-30 16:11:47.602,-2.6118020847487863e-05,1.7068760779330625
2025-05-30 16:11:47.610,-2.696279347114205e-05,1.8323274644953431
2025-05-30 16:11:47.618,-2.7145225938892424e-05,1.958238916328563
2025-05-30 16:11:47.625,-2.668749847117358e-05,2.087080092894819
2025-05-30 16:11:47.633,-2.560836773822196e-05,2.2213366395209917
2025-05-30 16:11:47.641,-2.3924577437408785e-05,2.363430068735032
2025-05-30 16:11:47.649,-2.1653090833337302e-05,2.515634252098187
2025-05-30 16:11:47.657,-1.881381116225384e-05,2.679992032876972
2025-05-30 16:11:47.665,-1.5432377264245675e-05,2.8582357853103275
2025-05-30 16:11:47.672,-1.1542600381488285e-05,3.051715845559257
2025-05-30 16:11:47.680,-7.18817929730627e-06,3.2613405983759507
2025-05-30 16:11:47.688,-2.4234830822679297e-06,3.487531610619326
2025-05-30 16:11:47.696,2.6866480770029558e-06,3.730196560045298
2025-05-30 16:11:47.704,8.068027039638476e-06,3.98872183679846
2025-05-30 16:11:47.711,1.3639052043973846e-05,4.261985642317434
2025-05-30 16:11:47.719,1.9313271317532663e-05,4.548391247023919
2025-05-30 16:11:47.727,2.500233916735556e-05,4.84591888182537
2025-05-30 16:11:47.735,3.061908805220789e-05,5.152193622346164
2025-05-30 16:11:47.743,3.608045866655202e-05,5.464565668056154
2025-05-30 16:11:47.750,4.1310085875212726e-05,5.780198696952885
2025-05-30 16:11:47.758,4.624040904747578e-05,6.096161543201555
2025-05-30 16:11:47.766,5.081424854582216e-05,6.409518325249619
2025-05-30 16:11:47.774,5.498585997517897e-05,6.717412345736526
2025-05-30 16:11:47.782,5.8721532175451766e-05,7.017139574569396
2025-05-30 16:11:47.790,6.199981102147196e-05,7.306208281349094
2025-05-30 16:11:47.797,6.481139573326911e-05,7.582382356298253
2025-05-30 16:11:47.805,6.715869226011609e-05,7.843706986846703
2025-05-30 16:11:47.813,6.905496787824547e-05,8.088516563287202
2025-05-30 16:11:47.821,7.052305733220652e-05,8.315425886955802
2025-05-30 16:11:47.829,7.159361096696955e-05,8.523306860628201
2025-05-30 16:11:47.836,7.230292719578907e-05,8.711253766179022
2025-05-30 16:11:47.844,7.26904640816424e-05,8.878540900596056
2025-05-30 16:11:47.852,7.279617297041807e-05,9.024576691209344
2025-05-30 16:11:47.860,7.265782978688701e-05,9.148858419635204
2025-05-30 16:11:47.868,7.230853470933299e-05,9.250931362022811
2025-05-30 16:11:47.876,7.177449589775356e-05,9.330355542955791
2025-05-30 16:11:47.883,7.107313282451441e-05,9.386682467424242
2025-05-30 16:11:47.891,7.021147827045976e-05,9.419443218539168
2025-05-30 16:11:47.899,6.918485018233082e-05,9.428148271437149
2025-05-30 16:11:47.907,6.797579260455307e-05,9.412298358529531
2025-05-30 16:11:47.915,6.655332650361509e-05,9.37140480598836
2025-05-30 16:11:47.922,6.48725950278236e-05,9.305017015235938
2025-05-30 16:11:47.930,6.287503014277042e-05,9.212754239964523
2025-05-30 16:11:47.938,6.0489206847809934e-05,9.094338541301262
2025-05-30 16:11:47.946,5.76325839494716e-05,8.949625798955987
2025-05-30 16:11:47.954,5.4214345343923e-05,8.778631898132478
2025-05-30 16:11:47.961,5.013952927138114e-05,8.581551664094116
2025-05-30 16:11:47.969,4.531454133677381e-05,8.358768728420321
2025-05-30 16:11:47.977,3.965398534154439e-05,8.110855226087942
2025-05-30 16:11:47.985,3.30885315642339e-05,7.838560981070327
2025-05-30 16:11:47.993,2.557331583777471e-05,7.542792581776784
2025-05-30 16:11:48.001,1.7096188842088126e-05,7.224583424626611
2025-05-30 16:11:48.008,7.685067842304715e-06,6.885056376495284
2025-05-30 16:11:48.016,-2.5863139212084816e-06,6.5253811540225
2025-05-30 16:11:48.024,-1.3594848118212662e-05,6.146728832111873
2025-05-30 16:11:48.032,-2.5167113592676387e-05,5.750226073320068
2025-05-30 16:11:48.040,-3.708131003257089e-05,5.336911714963391
2025-05-30 16:11:48.047,-4.907211609725809e-05,4.907698266567113
2025-05-30 16:11:48.055,-6.083832762538245e-05,4.463340665433436
2025-05-30 16:11:48.063,-7.20529606158344e-05,4.004414322316243
2025-05-30 16:11:48.071,-8.237537727721192e-05,3.531304073372848
2025-05-30 16:11:48.079,-9.14648941077359e-05,3.0442051545869377
2025-05-30 16:11:48.086,-9.899522766124243e-05,2.5431367537892218
2025-05-30 16:11:48.094,-0.0001046690399808,2.0279681018090474
2025-05-30 16:11:48.102,-0.0001082318226606,1.4984564693216766
2025-05-30 16:11:48.110,-0.0001094844422841,0.954295872433941
2025-05-30 16:11:48.118,-0.0001082938249091,0.3951747926844071
2025-05-30 16:11:48.126,-0.0001046014210701,-0.1791591807642557
2025-05-30 16:11:48.133,-9.84292407073059e-05,-0.7688301537372497
2025-05-30 16:11:48.141,-8.988337854931319e-05,-1.373762686443048
2025-05-30 16:11:48.149,-7.915503868217233e-05,-1.9936110461121257
2025-05-30 16:11:48.157,-6.651907831946497e-05,-2.6276914100815283
2025-05-30 16:11:48.165,-5.233003967301714e-05,-3.2749193116362094
2025-05-30 16:11:48.172,-3.7015589372036686e-05,-3.9337543917359854
2025-05-30 16:11:48.180,-2.1067296052593756e-05,-4.602154254006364
2025-05-30 16:11:48.188,-5.028760995705088e-06,-5.277538947861342
2025-05-30 16:11:48.196,1.0518755713444722e-05,-5.95676734779916
2025-05-30 16:11:48.204,2.4972938453415517e-05,-6.636126465702708
2025-05-30 16:11:48.211,3.772885081305237e-05,-7.311334527892014
2025-05-30 16:11:48.219,4.819868279191337e-05,-7.977558466840422
2025-05-30 16:11:48.227,5.583217633125164e-05,-8.629446314986671
2025-05-30 16:11:48.235,6.0137013405932855e-05,-9.261174837590906
2025-05-30 16:11:48.243,6.069841996969338e-05,-9.866512588986753
2025-05-30 16:11:48.251,5.719724731749559e-05,-10.43889840096913
2025-05-30 16:11:48.258,4.942582123092665e-05,-10.97153508888762
2025-05-30 16:11:48.266,3.730089132219628e-05,-11.457497866439578
2025-05-30 16:11:48.274,2.087306936245287e-05,-11.889856575772113
2025-05-30 16:11:48.282,3.3221885229942494e-07,-12.261810357556646
2025-05-30 16:11:48.290,-2.3991648706804865e-05,-12.56683281374195
2025-05-30 16:11:48.297,-5.1632300232186615e-05,-12.79882507815222
2025-05-30 16:11:48.305,-8.199622090582372e-05,-12.952273545395808
2025-05-30 16:11:48.313,-0.0001143765953649,-13.022408364224768
2025-05-30 16:11:48.321,-0.0001479721716565,-13.005358230108786
2025-05-30 16:11:48.329,-0.0001819106409889,-12.898296566735308
2025-05-30 16:11:48.336,-0.0002152759409276,-12.699573916379228
2025-05-30 16:11:48.344,-0.00024713866179,-12.408831304804275
2025-05-30 16:11:48.352,-0.0002765885325813,-12.027089536671234
2025-05-30 16:11:48.360,-0.0003027678045987,-11.55680982859792
2025-05-30 16:11:48.368,-0.0003249042320588,-11.001921899096356
2025-05-30 16:11:48.376,-0.0003423422623216,-10.367816586257632
2025-05-30 16:11:48.383,-0.0003545710220025,-9.661301210075926
2025-05-30 16:11:48.391,-0.0003612477601295,-8.890517174140792
2025-05-30 16:11:48.399,-0.0003622155861972,-8.064820644809668
2025-05-30 16:11:48.407,-0.0003575145832889,-7.194628495295184
2025-05-30 16:11:48.415,-0.0003473856515555,-6.291233004861264
2025-05-30 16:11:48.422,-0.0003322667314191,-5.366590008806053
2025-05-30 16:11:48.430,-0.000312781364611,-4.433086251227748
2025-05-30 16:11:48.438,-0.0002897198698122,-3.503292549120947
2025-05-30 16:11:48.446,-0.0002640137248146,-2.5897099885833037
2025-05-30 16:11:48.454,-0.0002367040335621,-1.704516706177887
2025-05-30 16:11:48.461,-0.0002089051957381,-0.8593228350227922
2025-05-30 16:11:48.469,-0.0001817650970354,-0.0649409024394562
2025-05-30 16:11:48.477,-0.0001564233099036,0.6688216425748482
2025-05-30 16:11:48.485,-0.0001339689112101,1.3333419940993858
2025-05-30 16:11:48.493,-0.0001153995460369,1.9213290157494607
2025-05-30 16:11:48.501,-0.0001015832961951,2.42693443008339
2025-05-30 16:11:48.508,-9.322478272105232e-05,2.8458263102753683
2025-05-30 16:11:48.516,-9.08367659098196e-05,3.1752244696775493
2025-05-30 16:11:48.524,-9.471829553091812e-05,3.4138987312224867
2025-05-30 16:11:48.532,-0.0001049401976815,3.562132300094525
2025-05-30 16:11:48.540,-0.0001213383883212,3.621653507635446
2025-05-30 16:11:48.547,-0.0001435152250489,3.595540011757392
2025-05-30 16:11:48.555,-0.0001708488722705,3.488100112904269
2025-05-30 16:11:48.563,-0.0002025104470838,3.3047361676315177
2025-05-30 16:11:48.571,-0.0002374885113794,3.0517951579366787
2025-05-30 16:11:48.579,-0.0002746202688295,2.7364113214177594
2025-05-30 16:11:48.586,-0.0003126286117297,2.366345395580288
2025-05-30 16:11:48.594,-0.0003501639447674,1.9498245176235127
2025-05-30 16:11:48.602,-0.0003858495030775,1.4953861932496522
2025-05-30 16:11:48.610,-0.0004183287070107,1.0117290554604788
2025-05-30 16:11:48.618,-0.000446312982922,0.5075724323000467
2025-05-30 16:11:48.626,-0.0004686284301262,-0.0084739157975693
2025-05-30 16:11:48.633,-0.0004842597013538,-0.528029098360917
2025-05-30 16:11:48.641,-0.0004923894573353,-1.0430490955257212
2025-05-30 16:11:48.649,-0.0004924317612293,-1.5459234271547655
2025-05-30 16:11:48.657,-0.0004840578465308,-2.029560633841442
2025-05-30 16:11:48.665,-0.0004672128748123,-2.487462760133504
2025-05-30 16:11:48.672,-0.0004421226006285,-2.913788969223365
2025-05-30 16:11:48.680,-0.0004092892444259,-3.303408269646455
2025-05-30 16:11:48.688,-0.000369476307119,-3.651941123480393
2025-05-30 16:11:48.696,-0.0003236825268822,-3.9557894689188258
2025-05-30 16:11:48.704,-0.0002731056728161,-4.21215447716082
2025-05-30 16:11:48.711,-0.0002190973846135,-4.419041226811745
2025-05-30 16:11:48.719,-0.0001631107934779,-4.575249461652285
2025-05-30 16:11:48.727,-0.0001066431833479,-4.680349727457737
2025-05-30 16:11:48.735,-5.117643752220347e-05,-4.734644474034665
2025-05-30 16:11:48.743,1.88161622695846e-06,-4.739114160469503
2025-05-30 16:11:48.751,5.125171321077179e-05,-4.695348999163476
2025-05-30 16:11:48.758,9.583044492390343e-05,-4.605467680202154
2025-05-30 16:11:48.766,0.0001347277771854,-4.4720251721413495
2025-05-30 16:11:48.774,0.0001672930130086,-4.297912422971015
2025-05-30 16:11:48.782,0.0001931283960511,-4.086251406321456
2025-05-30 16:11:48.790,0.000212090603401,-3.840289401034
2025-05-30 16:11:48.797,0.0002242813281286,-3.563296602866472
2025-05-30 16:11:48.805,0.0002300288191953,-3.2584711166112896
2025-05-30 16:11:48.813,0.0002298625347263,-2.928855066148821
2025-05-30 16:11:48.821,0.0002244830096656,-2.577265018159215
2025-05-30 16:11:48.829,0.0002147287629488,-2.206239192992991
2025-05-30 16:11:48.836,0.0002015417137652,-1.818003095616696
2025-05-30 16:11:48.844,0.0001859322532091,-1.4144543047797442
2025-05-30 16:11:48.852,0.0001689448806177,-0.997166268636134
2025-05-30 16:11:48.860,0.0001516251553745,-0.5674101176510488
2025-05-30 16:11:48.868,0.000134988598337,-0.1261927527910559
2025-05-30 16:11:48.876,0.000119992075766,0.3256911825533708
2025-05-30 16:11:48.883,0.0001075081054454,0.7875963710573954
2025-05-30 16:11:48.891,9.830244061225676e-05,1.2589562551502809
2025-05-30 16:11:48.899,9.30152135696331e-05,1.739208414406205
2025-05-30 16:11:48.907,9.214585723957424e-05,2.227719561811538
2025-05-30 16:11:48.915,9.604196796149908e-05,2.7237137697905727
2025-05-30 16:11:48.922,0.0001048922239813,3.226207312096351
2025-05-30 16:11:48.930,0.0001187234278714,3.733953127233834
2025-05-30 16:11:48.938,0.0001374016935513,4.245397384853356
2025-05-30 16:11:48.946,0.0001606377453539,4.758649990448012
2025-05-30 16:11:48.954,0.000187996233454,5.271470128939503
2025-05-30 16:11:48.961,0.0002189088931055,5.781267167358932
2025-05-30 16:11:48.969,0.0002526912813839,6.2851164596184965
2025-05-30 16:11:48.977,0.0002885627123751,6.779788872635849
2025-05-30 16:11:48.985,0.0003256688807881,7.261792231416478
2025-05-30 16:11:48.993,0.0003631065251263,7.727422404105084
2025-05-30 16:11:49.001,0.0003999493593645,8.172821448051454
2025-05-30 16:11:49.008,0.0004352744230733,8.594040129832795
2025-05-30 16:11:49.016,0.0004681879754395,8.987102213508289
2025-05-30 16:11:49.024,0.0004978500893243,9.348068163336658
2025-05-30 16:11:49.032,0.0005234971871133,9.673096296769632
2025-05-30 16:11:49.040,0.0005444618897201,9.95849990718924
2025-05-30 16:11:49.047,0.0005601896975761,10.200799405385998
2025-05-30 16:11:49.055,0.0005702521636504,10.396769057886369
2025-05-30 16:11:49.063,0.0005743563435344,10.543478387939686
2025-05-30 16:11:49.071,0.0005723504159941,10.638328715298934
2025-05-30 16:11:49.079,0.0005642254616145,10.679085613429333
2025-05-30 16:11:49.086,0.0005501134707048,10.663908236615866
2025-05-30 16:11:49.094,0.0005302817286553,10.591376508004949
2025-05-30 16:11:49.102,0.0005051238019368,10.460517070781844
2025-05-30 16:11:49.110,0.0004751474254092,10.270828706280945
2025-05-30 16:11:49.118,0.0004409596757289,10.022307638042228
2025-05-30 16:11:49.126,0.0004032499082661,9.71547279721548
2025-05-30 16:11:49.133,0.000362771028907,9.351390754050447
2025-05-30 16:11:49.141,0.0003203197464877,8.931699654161562
2025-05-30 16:11:49.149,0.000276716483756,8.458631161137951
2025-05-30 16:11:49.157,0.0002327856074159,7.935029113287948
2025-05-30 16:11:49.165,0.0001893365743926,7.364363361816612
2025-05-30 16:11:49.172,0.0001471464861763,6.750737083782346
2025-05-30 16:11:49.180,0.0001069444105298,6.098885774339493
2025-05-30 16:11:49.188,6.939769767775591e-05,5.414166137399092
2025-05-30 16:11:49.196,3.510040333664049e-05,4.702533222441128
2025-05-30 16:11:49.204,4.563824752917828e-06,3.970504397009103
2025-05-30 16:11:49.211,-2.1790951598517304e-05,3.225109088249713
2025-05-30 16:11:49.219,-4.363867709473768e-05,2.4738236530697506
2025-05-30 16:11:49.227,-6.075394678733733e-05,1.7244912192158626
2025-05-30 16:11:49.235,-7.301371852149824e-05,0.985226851416942
2025-05-30 16:11:49.243,-8.039834531466914e-05,0.2643089146587912
2025-05-30 16:11:49.251,-8.299096363429342e-05,-0.4299419848885067
2025-05-30 16:11:49.258,-8.097495347669602e-05,-1.089294611692833
2025-05-30 16:11:49.266,-7.462914717601615e-05,-1.705746933681
2025-05-30 16:11:49.274,-6.432054213908552e-05,-2.271671415999301
2025-05-30 16:11:49.282,-5.049444760980149e-05,-2.779962628457219
2025-05-30 16:11:49.290,-3.366221826221131e-05,-3.224183683707228
2025-05-30 16:11:49.297,-1.4386951828612102e-05,-3.5987077560618355
2025-05-30 16:11:49.305,6.732284321411671e-06,-3.898850755718904
2025-05-30 16:11:49.313,2.9077011125739947e-05,-4.120991174607525
2025-05-30 16:11:49.321,5.2025949527368846e-05,-4.262673197071391
2025-05-30 16:11:49.329,7.497098756520113e-05,-4.32268939158679
2025-05-30 16:11:49.336,9.733191072687496e-05,-4.301139671249685
2025-05-30 16:11:49.344,0.000118569468868,-4.199463726677582
2025-05-30 16:11:49.352,0.0001381965469109,-4.020444784531964
2025-05-30 16:11:49.360,0.0001557873978099,-3.768183311247787
2025-05-30 16:11:49.368,0.0001709850577782,-3.4480401413622337
2025-05-30 16:11:49.376,0.0001835071570665,-3.066549430768903
2025-05-30 16:11:49.383,0.0001931503195157,-2.6313027750739093
2025-05-30 16:11:49.391,0.0001997932028568,-2.150806743881364
2025-05-30 16:11:49.399,0.0002033980331287,-1.6343169177665486
2025-05-30 16:11:49.407,0.0002040103327645,-1.091652242245152
2025-05-30 16:11:49.415,0.0002017564976802,-0.532994115461077
2025-05-30 16:11:49.422,0.000196838938194,0.0313248995862572
2025-05-30 16:11:49.430,0.0001895286194731,0.5910375002183387
2025-05-30 16:11:49.438,0.0001801549862034,1.136157747440987
2025-05-30 16:11:49.446,0.0001690934200577,1.6571912911297633
2025-05-30 16:11:49.454,0.0001567505530805,2.145334181510844
2025-05-30 16:11:49.461,0.0001435479419904,2.592654863371607
2025-05-30 16:11:49.469,0.0001299047919343,2.9922541928935003
2025-05-30 16:11:49.477,0.0001162205872697,3.3383986860447754
2025-05-30 16:11:49.485,0.0001028586041098,3.626622728409426
2025-05-30 16:11:49.493,9.013129540037108e-05,3.853796178391256
2025-05-30 16:11:49.501,7.828843090842547e-05,4.018154700172754
2025-05-30 16:11:49.508,6.750866790507382e-05,4.119291274705973
2025-05-30 16:11:49.516,5.789497562528307e-05,4.158108639063895
2025-05-30 16:11:49.524,4.9474078050777824e-05,4.13673385295797
2025-05-30 16:11:49.532,4.219983408693351e-05,4.058397717033286
2025-05-30 16:11:49.540,3.5960250158027297e-05,3.927283282258296
2025-05-30 16:11:49.547,3.0587623459221136e-05,3.748349093257543
2025-05-30 16:11:49.555,2.5871149471216624e-05,3.5271339976782707
2025-05-30 16:11:49.563,2.157120042666012e-05,3.2695512335131416
2025-05-30 16:11:49.571,1.743440487876484e-05,2.981680002194991
2025-05-30 16:11:49.579,1.3208654987804345e-05,2.669562803936433
2025-05-30 16:11:49.586,8.657249866652304e-06,2.339016446429228
2025-05-30 16:11:49.594,3.5715241043610743e-06,1.995463867039732
2025-05-30 16:11:49.602,-2.21854023953809e-06,1.6437927892830573
2025-05-30 16:11:49.610,-8.83608995872992e-06,1.2882458449915868
2025-05-30 16:11:49.618,-1.635181710304164e-05,0.9323452260398308
2025-05-30 16:11:49.626,-2.4781138813390685e-05,0.578853279810274
2025-05-30 16:11:49.633,-3.4084121940307435e-05,0.2297688204633315
2025-05-30 16:11:49.641,-4.41679912543703e-05,-0.1136426305197722
2025-05-30 16:11:49.649,-5.489195113693984e-05,-0.4507878739469035
2025-05-30 16:11:49.657,-6.607401149869192e-05,-0.781658746695544
2025-05-30 16:11:49.665,-7.749952898264914e-05,-1.1067239061092102
2025-05-30 16:11:49.672,-8.893118493420363e-05,-1.4268057714294269
2025-05-30 16:11:49.680,-0.0001001200616455,-1.742949122362985
2025-05-30 16:11:49.688,-0.0001108173621463,-2.0562879794910107
2025-05-30 16:11:49.696,-0.0001207862086044,-2.367917227247025
2025-05-30 16:11:49.704,-0.0001298128948644,-2.6787749915810517
2025-05-30 16:11:49.711,-0.0001377169736815,-2.9895410664598177
2025-05-30 16:11:49.719,-0.00014435963093,-3.300555727641338
2025-05-30 16:11:49.727,-0.0001496499261268,-3.611762124259171
2025-05-30 16:11:49.735,-0.0001535486332929,-3.9226741547366624
2025-05-30 16:11:49.743,-0.0001560695717058,-4.232370380061641
2025-05-30 16:11:49.751,-0.0001572784589169,-4.539513180929994
2025-05-30 16:11:49.758,-0.0001572894437679,-4.842391105912748
2025-05-30 16:11:49.766,-0.0001562595825942,-5.138981259805725
2025-05-30 16:11:49.774,-0.0001543816056353,-5.427027703875633
2025-05-30 16:11:49.782,-0.0001518753817835,-5.70413122192505
2025-05-30 16:11:49.790,-0.0001489785277253,-5.967845466089813
2025-05-30 16:11:49.797,-0.0001459366223431,-6.2157744327281295
2025-05-30 16:11:49.805,-0.0001429934795248,-6.445666413670661
2025-05-30 16:11:49.813,-0.0001403819033006,-6.655499991812121
2025-05-30 16:11:49.821,-0.0001383152999077,-6.843558267931209
2025-05-30 16:11:49.829,-0.0001369804553805,-7.008488282498039
2025-05-30 16:11:49.836,-0.0001365317163279,-7.149343494737027
2025-05-30 16:11:49.844,-0.0001370867586713,-7.265608157043564
2025-05-30 16:11:49.852,-0.0001387241080502,-7.357203422540879
2025-05-30 16:11:49.860,-0.0001414825628606,-7.424475987809483
2025-05-30 16:11:49.868,-0.0001453626196292,-7.468170942187913
2025-05-30 16:11:49.876,-0.0001503298895597,-7.489391214723547
2025-05-30 16:11:49.883,-0.0001563203496594,-7.489546534708782
2025-05-30 16:11:49.891,-0.0001632471377706,-7.470295123870531
2025-05-30 16:11:49.899,-0.0001710085041387,-7.433481414095143
2025-05-30 16:11:49.907,-0.0001794964553064,-7.381072955006192
2025-05-30 16:11:49.915,-0.0001886055364874,-7.3150993784503875
2025-05-30 16:11:49.922,-0.0001982411082012,-7.237595865785835
2025-05-30 16:11:49.930,-0.0002083264431497,-7.15055306092704
2025-05-30 16:11:49.938,-0.0002188080447717,-7.055874825157575
2025-05-30 16:11:49.946,-0.0002296587537373,-6.955344672358661
2025-05-30 16:11:49.954,-0.0002408784128759,-6.850601184209982
2025-05-30 16:11:49.961,-0.0002524920648836,-6.743122206654698
2025-05-30 16:11:49.969,-0.0002645458421231,-6.634217188306496
2025-05-30 16:11:49.977,-0.0002771008659911,-6.52502665074202
2025-05-30 16:11:49.985,-0.0002902255993756,-6.41652748707981
2025-05-30 16:11:49.993,-0.0003039871854084,-6.309542570091886
2025-05-30 16:11:50.001,-0.0003184423559776,-6.20475301066457
2025-05-30 16:11:50.008,-0.0003336285024364,-6.102711338232536
2025-05-30 16:11:50.016,-0.0003495554680241,-6.003853878436515
2025-05-30 16:11:50.024,-0.0003661985473942,-5.908510686412714
2025-05-30 16:11:50.032,-0.0003834930669018,-5.816911564701042
2025-05-30 16:11:50.040,-0.0004013307828597,-5.729186959005695
2025-05-30 16:11:50.047,-0.0004195581989094,-5.6453628875277255
2025-05-30 16:11:50.055,-0.0004379767864098,-5.56534952160595
2025-05-30 16:11:50.063,-0.0004563449850571,-5.488923588644969
