Timestamp,GSR_Filtered,PPG_Filtered,FMS,Condition
2025-05-30 16:47:43.992,-0.0010479635836799,2.115534924473124,2,NB
2025-05-30 16:47:43.999,-0.0009987695336293,2.1141524765637,2,NB
2025-05-30 16:47:44.007,-0.000950533990673,2.1048554049162624,2,NB
2025-05-30 16:47:44.015,-0.0009042563825433,2.089466526205744,2,NB
2025-05-30 16:47:44.023,-0.0008607540789315,2.0699392918917296,2,NB
2025-05-30 16:47:44.031,-0.0008206569857049,2.048305510221516,2,NB
2025-05-30 16:47:44.038,-0.0007844086502403,2.02662438381328,2,NB
2025-05-30 16:47:44.046,-0.0007522731834944,2.006934654472332,2,NB
2025-05-30 16:47:44.054,-0.0007243471728455,1.991211322351902,2,NB
2025-05-30 16:47:44.062,-0.0007005757033451,1.9813280317869808,2,NB
2025-05-30 16:47:44.070,-0.0006807715895956,1.979025815200892,2,NB
2025-05-30 16:47:44.078,-0.0006646369103926,1.9858884816271063,2,NB
2025-05-30 16:47:44.085,-0.0006517859144023,2.003324547936068,2,NB
2025-05-30 16:47:44.093,-0.0006417683468328,2.032555253364609,2,NB
2025-05-30 16:47:44.101,-0.0006340922768379,2.074607877785303,2,NB
2025-05-30 16:47:44.109,-0.0006282456019452,2.130313305855777,2,NB
2025-05-30 16:47:44.117,-0.0006237155501457,2.2003065556651062,2,NB
2025-05-30 16:47:44.124,-0.0006200056643046,2.285028845104398,2,NB
2025-05-30 16:47:44.132,-0.0006166499204491,2.3847297271958423,2,NB
2025-05-30 16:47:44.140,-0.0006132237932339,2.499467904104961,2,NB
2025-05-30 16:47:44.148,-0.000609352232869,2.629109533231045,2,NB
2025-05-30 16:47:44.156,-0.0006047146533862,2.773323160216025,2,NB
2025-05-30 16:47:44.163,-0.0005990471486781,2.931570833749204,2,NB
2025-05-30 16:47:44.171,-0.0005921422477097,3.103095444874198,2,NB
2025-05-30 16:47:44.179,-0.000583846592146,3.2869048503606293,2,NB
2025-05-30 16:47:44.187,-0.0005740569678585,3.4817538461720074,2,NB
2025-05-30 16:47:44.195,-0.0005627151468054,3.6861255177240166,2,NB
2025-05-30 16:47:44.203,-0.0005498019989195,3.89821387491264,2,NB
2025-05-30 16:47:44.210,-0.0005353313169261,4.115909946362417,2,NB
2025-05-30 16:47:44.218,-0.0005193437631109,4.336793623943311,2,NB
2025-05-30 16:47:44.226,-0.0005019012991127,4.558133488888723,2,NB
2025-05-30 16:47:44.234,-0.0004830824013309,4.776896604909322,2,NB
2025-05-30 16:47:44.242,-0.0004629782992048,4.989769840919427,2,NB
2025-05-30 16:47:44.249,-0.0004416904036069,5.193193713714219,2,NB
2025-05-30 16:47:44.257,-0.0004193290119035,5.383409062638815,2,NB
2025-05-30 16:47:44.265,-0.0003960132678073,5.556516140732379,2,NB
2025-05-30 16:47:44.273,-0.0003718722100166,5.708544991783324,2,NB
2025-05-30 16:47:44.281,-0.0003470465929656,5.835535334144546,2,NB
2025-05-30 16:47:44.288,-0.0003216910580094,5.933623627447405,2,NB
2025-05-30 16:47:44.296,-0.0002959762017205,5.999134579787796,2,NB
2025-05-30 16:47:44.304,-0.0002700901172212,6.028674074027126,2,NB
2025-05-30 16:47:44.312,-0.000244239043586,6.019220359341463,2,NB
2025-05-30 16:47:44.320,-0.0002186468152366,5.968210365180901,2,NB
2025-05-30 16:47:44.328,-0.000193552842255,5.873618136647152,2,NB
2025-05-30 16:47:44.335,-0.0001692083961142,5.734022645986174,2,NB
2025-05-30 16:47:44.343,-0.000145871068518,5.5486625879643725,2,NB
2025-05-30 16:47:44.351,-0.0001237974324336,5.317476200972184,2,NB
2025-05-30 16:47:44.359,-0.000103234134256,5.041124652630323,2,NB
2025-05-30 16:47:44.367,-8.44078235594378e-05,4.720998068970015,2,NB
2025-05-30 16:47:44.374,-6.751442184029505e-05,4.35920385004237,2,NB
2025-05-30 16:47:44.382,-5.270822729833404e-05,3.958537481155739,2,NB
2025-05-30 16:47:44.390,-4.009130242682997e-05,3.5224365958800647,2,NB
2025-05-30 16:47:44.398,-2.970357736943234e-05,3.0549195553265163,2,NB
2025-05-30 16:47:44.406,-2.1514156385690623e-05,2.560510266561218,2,NB
2025-05-30 16:47:44.413,-1.5414397699819554e-05,2.0441513670455733,2,NB
2025-05-30 16:47:44.421,-1.1213389439442148e-05,1.5111082472621575,2,NB
2025-05-30 16:47:44.429,-8.636429235405398e-06,0.9668666580743738,2,NB
2025-05-30 16:47:44.437,-7.327018782635297e-06,0.4170268320173451,2,NB
2025-05-30 16:47:44.445,-6.852716179382523e-06,-0.132802884667322,2,NB
2025-05-30 16:47:44.453,-6.71497609731918e-06,-0.6771099553290395,2,NB
2025-05-30 16:47:44.460,-6.362878890981015e-06,-1.210576390752801,2,NB
2025-05-30 16:47:44.468,-5.210420597578948e-06,-1.7281698677663204,2,NB
2025-05-30 16:47:44.476,-2.6568146690570226e-06,-2.2252251882769745,2,NB
2025-05-30 16:47:44.484,1.8909482373150689e-06,-2.69751448462758,2,NB
2025-05-30 16:47:44.492,8.99420721774748e-06,-3.141305039488035,2,NB
2025-05-30 16:47:44.499,1.915843963427563e-05,-3.5534040320064424,2,NB
2025-05-30 16:47:44.507,3.280983662174926e-05,-3.9311899192944297,2,NB
2025-05-30 16:47:44.515,5.027368029833981e-05,-4.272630497512223,2,NB
2025-05-30 16:47:44.523,7.175549927217132e-05,-4.576287956179793,2,NB
2025-05-30 16:47:44.531,9.732589346338366e-05,-4.841311451270149,2,NB
2025-05-30 16:47:44.538,0.0001269097787064,-5.067417895607041,2,NB
2025-05-30 16:47:44.546,0.0001602806075854,-5.254861822587923,2,NB
2025-05-30 16:47:44.554,0.0001970599126811,-5.404395342384448,2,NB
2025-05-30 16:47:44.562,0.0002367223147272,-5.517219390464246,2,NB
2025-05-30 16:47:44.570,0.0002786059294136,-5.594927666558618,2,NB
2025-05-30 16:47:44.578,0.0003219278749074,-5.639444867399185,2,NB
2025-05-30 16:47:44.585,0.0003658043321766,-5.652961008991332,2,NB
2025-05-30 16:47:44.593,0.0004092743771242,-5.637863786585793,2,NB
2025-05-30 16:47:44.601,0.0004513266374563,-5.596671002342013,2,NB
2025-05-30 16:47:44.609,0.0004909277555172,-5.531965077375547,2,NB
2025-05-30 16:47:44.617,0.0005270516485942,-5.44633154703411,2,NB
2025-05-30 16:47:44.624,0.0005587086247415,-5.342303223811453,2,NB
2025-05-30 16:47:44.632,0.0005849735133914,-5.222311420685483,2,NB
2025-05-30 16:47:44.640,0.0006050120697417,-5.0886452817095655,2,NB
2025-05-30 16:47:44.648,0.0006181049639893,-4.9434198888245175,2,NB
2025-05-30 16:47:44.656,0.0006236686621392,-4.788553426940882,2,NB
2025-05-30 16:47:44.663,0.0006212724958952,-4.625753317833979,2,NB
2025-05-30 16:47:44.671,0.0006106512790147,-4.45651090070463,2,NB
2025-05-30 16:47:44.679,0.0005917129946063,-4.282103960348687,2,NB
2025-05-30 16:47:44.687,0.0005645413331921,-4.103606190580933,2,NB
2025-05-30 16:47:44.695,0.0005293931570862,-3.921902531149312,2,NB
2025-05-30 16:47:44.703,0.0004866912568544,-3.7377092254726976,2,NB
2025-05-30 16:47:44.710,0.0004370130046781,-3.5515974036865794,2,NB
2025-05-30 16:47:44.718,0.0003810756501931,-3.36401898733124,2,NB
2025-05-30 16:47:44.726,0.000319719027412,-3.1753337274245057,2,NB
2025-05-30 16:47:44.734,0.0002538863766828,-2.985836222500467,2,NB
2025-05-30 16:47:44.742,0.0001846038885979,-2.795781819912894,2,NB
2025-05-30 16:47:44.749,0.0001129594899552,-2.605410385239705,2,NB
2025-05-30 16:47:44.757,4.008133358622766e-05,-2.4149670296051973,2,NB
2025-05-30 16:47:44.765,-3.288357768234539e-05,-2.2247190097589225,2,NB
2025-05-30 16:47:44.773,-0.0001047902261733,-2.0349681608418053,2,NB
2025-05-30 16:47:44.781,-0.000174515504114,-1.8460583910883956,2,NB
2025-05-30 16:47:44.788,-0.0002409769173679,-1.6583779650617,2,NB
2025-05-30 16:47:44.796,-0.0003031498363898,-1.472356527712468,2,NB
2025-05-30 16:47:44.804,-0.0003600831603249,-1.2884570733298717,2,NB
2025-05-30 16:47:44.812,-0.0004109133660027,-1.1071633363537543,2,NB
2025-05-30 16:47:44.820,-0.0004548770029761,-0.92896336319831,2,NB
2025-05-30 16:47:44.828,-0.0004913217473111,-0.7543302940083463,2,NB
2025-05-30 16:47:44.835,-0.0005197161344165,-0.5837016132528112,2,NB
2025-05-30 16:47:44.843,-0.0005396580592563,-0.4174582933737034,2,NB
2025-05-30 16:47:44.851,-0.0005508820690202,-0.2559053387419178,2,NB
2025-05-30 16:47:44.859,-0.0005532653887205,-0.0992552264658305,2,NB
2025-05-30 16:47:44.867,-0.0005468325254923,0.0523843721466479,2,NB
2025-05-30 16:47:44.874,-0.0005317582046367,0.1990174250762333,2,NB
2025-05-30 16:47:44.882,-0.0005083683119321,0.3407600858421489,2,NB
2025-05-30 16:47:44.890,-0.0004771384627695,0.4778345186585916,2,NB
2025-05-30 16:47:44.898,-0.0004386897906267,0.610556033371708,2,NB
2025-05-30 16:47:44.906,-0.0003937815343228,0.7393140421782214,2,NB
2025-05-30 16:47:44.913,-0.0003433000019416,0.864547801916868,2,NB
2025-05-30 16:47:44.921,-0.0002882435309595,0.9867182842751,2,NB
2025-05-30 16:47:44.929,-0.0002297031997876,1.1062777897061349,2,NB
2025-05-30 16:47:44.937,-0.0001688392913829,1.223639076703695,2,NB
2025-05-30 16:47:44.945,-0.0001068538267905,1.3391458215533465,2,NB
2025-05-30 16:47:44.953,-4.495982395669171e-05,1.4530461682427438,2,NB
2025-05-30 16:47:44.960,1.565173415134457e-05,1.5654709861287044,2,NB
2025-05-30 16:47:44.968,7.384594009992604e-05,1.6764182324597527,2,NB
2025-05-30 16:47:44.976,0.0001285775037858,1.7857445260042233,2,NB
2025-05-30 16:47:44.984,0.0001789221807875,1.8931646891787413,2,NB
2025-05-30 16:47:44.992,0.0002241044986688,1.9982596250141085,2,NB
2025-05-30 16:47:44.999,0.0002635203410675,2.1004924770951017,2,NB
2025-05-30 16:47:45.007,0.0002967532094077,2.1992325891932083,2,NB
2025-05-30 16:47:45.015,0.0003235833384334,2.293786354289277,2,NB
2025-05-30 16:47:45.023,0.0003439892540339,2.383433644152676,2,NB
2025-05-30 16:47:45.031,0.000358141775362,2.4674681671350536,2,NB
2025-05-30 16:47:45.038,0.0003663908385795,2.5452398359856323,2,NB
2025-05-30 16:47:45.046,0.000369245840133,2.6161970557518948,2,NB
2025-05-30 16:47:45.054,0.0003673504584514,2.6799267757761926,2,NB
2025-05-30 16:47:45.062,0.0003614531130441,2.736190196093678,2,NB
2025-05-30 16:47:45.070,0.0003523743594455,2.7849521755025144,2,NB
2025-05-30 16:47:45.078,0.000340972598899,2.8264026431809275,2,NB
2025-05-30 16:47:45.085,0.0003281095057994,2.860968645718419,2,NB
2025-05-30 16:47:45.093,0.0003146165472242,2.8893160425939306,2,NB
2025-05-30 16:47:45.101,0.0003012638915199,2.91234027638692,2,NB
2025-05-30 16:47:45.109,0.0002887328814278,2.9311460773855926,2,NB
2025-05-30 16:47:45.117,0.0002775930864999,2.9470164086016246,2,NB
2025-05-30 16:47:45.124,0.0002682847546097,2.9613714109629417,2,NB
2025-05-30 16:47:45.132,0.0002611072583971,2.975718561550629,2,NB
2025-05-30 16:47:45.140,0.000256213884798,2.991595694665014,2,NB
2025-05-30 16:47:45.148,0.0002536130498149,3.01050893288536,2,NB
2025-05-30 16:47:45.156,0.0002531757419873,3.033867908295172,2,NB
2025-05-30 16:47:45.163,0.0002546487123936,3.062920902462685,2,NB
2025-05-30 16:47:45.171,0.0002576726441766,3.0986926800069607,2,NB
2025-05-30 16:47:45.179,0.0002618042682021,3.141927812688745,2,NB
2025-05-30 16:47:45.187,0.0002665411821904,3.193042161458609,2,NB
2025-05-30 16:47:45.195,0.0002713480286779,3.252084880164364,2,NB
2025-05-30 16:47:45.203,0.000275682716614,3.3187128244038133,2,NB
2025-05-30 16:47:45.210,0.0002790215068166,3.392178618791596,2,NB
2025-05-30 16:47:45.218,0.0002808819716105,3.471332907344345,2,NB
2025-05-30 16:47:45.226,0.0002808430444186,3.554640551369425,2,NB
2025-05-30 16:47:45.234,0.0002785615780801,3.640209818165135,2,NB
2025-05-30 16:47:45.242,0.0002737850241689,3.725832987845454,2,NB
2025-05-30 16:47:45.249,0.0002663600252883,3.809036345569845,2,NB
2025-05-30 16:47:45.257,0.0002562368750099,3.8871372492905736,2,NB
2025-05-30 16:47:45.265,0.0002434699437109,3.957305868245362,2,NB
2025-05-30 16:47:45.273,0.0002282142919081,4.01662925185,2,NB
2025-05-30 16:47:45.281,0.0002107187955288,4.062175576963615,2,NB
2025-05-30 16:47:45.288,0.0001913161903734,4.091056694365998,2,NB
2025-05-30 16:47:45.296,0.0001704105068181,4.100487415257296,2,NB
2025-05-30 16:47:45.304,0.0001484624120011,4.0878403157571634,2,NB
2025-05-30 16:47:45.312,0.0001259730069565,4.0506951736574095,2,NB
2025-05-30 16:47:45.320,0.0001034666420829,3.986882478627693,2,NB
2025-05-30 16:47:45.328,8.147331757630566e-05,3.894520767563993,2,NB
2025-05-30 16:47:45.335,6.05112273993682e-05,3.77204781856217,2,NB
2025-05-30 16:47:45.343,4.106998711913105e-05,3.618245973873675,2,NB
2025-05-30 16:47:45.351,2.359505826019848e-05,3.4322620399852948,2,NB
2025-05-30 16:47:45.359,8.473845076747055e-06,3.2136223239209287,2,NB
2025-05-30 16:47:45.367,-3.976106158066362e-06,2.9622434065902308,2,NB
2025-05-30 16:47:45.374,-1.3516430420838932e-05,2.6784392249903988,2,NB
2025-05-30 16:47:45.382,-1.9994479947558606e-05,2.3629249330484527,2,NB
2025-05-30 16:47:45.390,-2.334683891336255e-05,2.016817837403371,2,NB
2025-05-30 16:47:45.398,-2.359966982616765e-05,1.6416354713142725,2,NB
2025-05-30 16:47:45.406,-2.0865843773034743e-05,1.2392906014806266,2,NB
2025-05-30 16:47:45.413,-1.5338918083795268e-05,0.8120826926447229,2,NB
2025-05-30 16:47:45.421,-7.2841486736755004e-06,0.3626851215396878,2,NB
2025-05-30 16:47:45.429,2.9731403112957515e-06,-0.1058727278351991,2,NB
2025-05-30 16:47:45.437,1.5061361172811438e-05,-0.5902294111430191,2,NB
2025-05-30 16:47:45.445,2.857802082536875e-05,-1.0867222693218686,2,NB
2025-05-30 16:47:45.453,4.310586662875897e-05,-1.591425835632638,2,NB
2025-05-30 16:47:45.460,5.822895223958216e-05,-2.1001981571813046,2,NB
2025-05-30 16:47:45.468,7.35477448671312e-05,-2.608734983311777,2,NB
2025-05-30 16:47:45.476,8.869249738244207e-05,-3.11263131857632,2,NB
2025-05-30 16:47:45.484,0.0001033342968218,-3.6074493718679377,2,NB
2025-05-30 16:47:45.492,0.0001171934225548,-4.088791495722558,2,NB
2025-05-30 16:47:45.499,0.0001300448627007,-4.552376331566414,2,NB
2025-05-30 16:47:45.507,0.0001417210281397,-4.99411607831034,2,NB
2025-05-30 16:47:45.515,0.0001521118626575,-5.410192596996069,2,NB
2025-05-30 16:47:45.523,0.0001611626714454,-5.79712996396707,2,NB
2025-05-30 16:47:45.531,0.0001688700759428,-6.151861096959684,2,NB
2025-05-30 16:47:45.538,0.0001752765498746,-6.471786203496704,2,NB
2025-05-30 16:47:45.546,0.0001804639997589,-6.754821030312164,2,NB
2025-05-30 16:47:45.554,0.0001845468249012,-6.999433210428387,2,NB
2025-05-30 16:47:45.562,0.0001876648299094,-7.204665393176156,2,NB
2025-05-30 16:47:45.570,0.0001899762710873,-7.370144283394023,2,NB
2025-05-30 16:47:45.578,0.0001916512032635,-7.49607518805492,2,NB
2025-05-30 16:47:45.585,0.000192865172665,-7.583222149481585,2,NB
2025-05-30 16:47:45.593,0.0001937932125319,-7.632874216694655,2,NB
2025-05-30 16:47:45.601,0.000194604089384,-7.646798859538103,2,NB
2025-05-30 16:47:45.609,0.0001954548314827,-7.627183954721728,2,NB
2025-05-30 16:47:45.617,0.0001964856889003,-7.576570154554616,2,NB
2025-05-30 16:47:45.624,0.0001978157328909,-7.497775768919738,2,NB
2025-05-30 16:47:45.632,0.0001995392548026,-7.393816531428356,2,NB
2025-05-30 16:47:45.640,0.0002017230155742,-7.267822770875659,2,NB
2025-05-30 16:47:45.648,0.0002044043095697,-7.122956565617867,2,NB
2025-05-30 16:47:45.656,0.0002075897782624,-6.962331423282917,2,NB
2025-05-30 16:47:45.663,0.0002112549146692,-6.788936907248411,2,NB
2025-05-30 16:47:45.671,0.0002153442067962,-6.605570433819351,2,NB
2025-05-30 16:47:45.679,0.0002197718687127,-6.414778200225744,2,NB
2025-05-30 16:47:45.687,0.0002244230990607,-6.218806879708909,2,NB
2025-05-30 16:47:45.695,0.000229155796857,-6.019567337041476,2,NB
2025-05-30 16:47:45.703,0.0002338026777469,-5.818611178713918,2,NB
2025-05-30 16:47:45.710,0.0002381737826478,-5.617120470928528,2,NB
2025-05-30 16:47:45.718,0.0002420594382552,-5.415910462143392,2,NB
2025-05-30 16:47:45.726,0.0002452337897,-5.215444666593522,2,NB
2025-05-30 16:47:45.734,0.0002474590579059,-5.015861228695431,2,NB
2025-05-30 16:47:45.742,0.000248490654013,-4.81700911629277,2,NB
2025-05-30 16:47:45.749,0.00024808319869,-4.618492397513045,2,NB
2025-05-30 16:47:45.757,0.0002459973717579,-4.4197206493652,2,NB
2025-05-30 16:47:45.765,0.0002420074082452,-4.219963426638636,2,NB
2025-05-30 16:47:45.773,0.0002359089886993,-4.0184066803154685,2,NB
2025-05-30 16:47:45.781,0.000227527235112,-3.81420904397112,2,NB
2025-05-30 16:47:45.789,0.0002167245009275,-3.606555993387656,2,NB
2025-05-30 16:47:45.796,0.000203407627243,-3.3947100226334026,2,NB
2025-05-30 16:47:45.804,0.0001875343286297,-3.178055167834765,2,NB
2025-05-30 16:47:45.812,0.0001691183738281,-2.9561344483914915,2,NB
2025-05-30 16:47:45.820,0.0001482332415893,-2.7286790853379785,2,NB
2025-05-30 16:47:45.828,0.0001250139626156,-2.4956286972498587,2,NB
2025-05-30 16:47:45.835,9.965690692297932e-05,-2.2571420579923926,2,NB
2025-05-30 16:47:45.843,7.241734350176851e-05,-2.013598408282482,2,NB
2025-05-30 16:47:45.851,4.360468669105283e-05,-1.7655897154389333,2,NB
2025-05-30 16:47:45.859,1.3575451176118213e-05,-1.5139046427871028,2,NB
2025-05-30 16:47:45.867,-1.7275935956366738e-05,-1.2595052979743904,2,NB
2025-05-30 16:47:45.874,-4.8528175688368015e-05,-1.003498061613186,2,NB
2025-05-30 16:47:45.882,-7.974555648939504e-05,-0.7470999457759906,2,NB
2025-05-30 16:47:45.890,-0.0001104912890925,-0.4916019972726117,2,NB
2025-05-30 16:47:45.898,-0.0001403411329951,-0.2383312540719205,2,NB
2025-05-30 16:47:45.906,-0.000168896753434,0.0113873014146295,2,NB
2025-05-30 16:47:45.914,-0.0001957982743056,0.2562674612922702,2,NB
2025-05-30 16:47:45.921,-0.0002207354871317,0.4950960074320445,2,NB
2025-05-30 16:47:45.929,-0.0002434571757812,0.7267634351394505,2,NB
2025-05-30 16:47:45.937,-0.0002637780799002,0.9502904029829208,2,NB
2025-05-30 16:47:45.945,-0.0002815831548712,1.16484933210756,2,NB
2025-05-30 16:47:45.953,-0.000296828956007,1.3697807718622197,2,NB
2025-05-30 16:47:45.960,-0.0003095421452754,1.5646043257403728,2,NB
2025-05-30 16:47:45.968,-0.0003198152755458,1.7490240933840595,2,NB
2025-05-30 16:47:45.976,-0.0003278001459831,1.9229287347480732,2,NB
2025-05-30 16:47:45.984,-0.0003336991409139,2.086386408771654,2,NB
2025-05-30 16:47:45.992,-0.0003377550619942,2.239634990571204,2,NB
2025-05-30 16:47:45.999,-0.0003402400374489,2.383068135004942,2,NB
2025-05-30 16:47:46.007,-0.0003414441325598,2.517217927188307,2,NB
2025-05-30 16:47:46.015,-0.0003416642703082,2.642735024698244,2,NB
2025-05-30 16:47:46.023,-0.0003411939796294,2.760367323800145,2,NB
2025-05-30 16:47:46.031,-0.0003403143274991,2.87093824429873,2,NB
2025-05-30 16:47:46.039,-0.0003392861995241,2.975325704183271,2,NB
2025-05-30 16:47:46.046,-0.0003383439251397,3.0744427385896724,2,NB
2025-05-30 16:47:46.054,-0.0003376901369253,3.169220514720732,2,NB
2025-05-30 16:47:46.062,-0.00033749171436,3.2605942272638955,2,NB
2025-05-30 16:47:46.070,-0.0003378766687491,3.349492060989677,2,NB
2025-05-30 16:47:46.078,-0.0003389318543216,3.436827114156913,2,NB
2025-05-30 16:47:46.085,-0.0003407014289639,3.523491915563731,2,NB
2025-05-30 16:47:46.093,-0.0003431860326856,3.610354954697837,2,NB
2025-05-30 16:47:46.101,-0.0003463427000276,3.6982584837559433,2,NB
2025-05-30 16:47:46.109,-0.0003500855713314,3.788016742544916,2,NB
2025-05-30 16:47:46.117,-0.0003542875141522,3.880413701512987,2,NB
2025-05-30 16:47:46.124,-0.0003587828055773,3.9761994157491314,2,NB
2025-05-30 16:47:46.132,-0.0003633710464117,4.076084139377651,2,NB
2025-05-30 16:47:46.140,-0.0003678224560609,4.180729472764163,2,NB
2025-05-30 16:47:46.148,-0.000371884617636,4.290736007108253,2,NB
2025-05-30 16:47:46.156,-0.0003752906214554,4.406627185865267,2,NB
2025-05-30 16:47:46.164,-0.000377768420015,4.52882940568678,2,NB
2025-05-30 16:47:46.171,-0.0003790510730959,4.6576487137638045,2,NB
2025-05-30 16:47:46.179,-0.0003788874427076,4.793244804685065,2,NB
2025-05-30 16:47:46.187,-0.000377052823173,4.935603354131712,2,NB
2025-05-30 16:47:46.195,-0.0003733589783232,5.08450801703427,2,NB
2025-05-30 16:47:46.203,-0.0003676630924018,5.239513629819788,2,NB
2025-05-30 16:47:46.210,-0.0003598752028967,5.399922264265424,2,NB
2025-05-30 16:47:46.218,-0.0003499637619136,5.564763774469963,2,NB
2025-05-30 16:47:46.226,-0.0003379590655418,5.732782363116793,2,NB
2025-05-30 16:47:46.234,-0.000323954396969,5.902430481415347,2,NB
2025-05-30 16:47:46.242,-0.0003081048459809,6.071871088217783,2,NB
2025-05-30 16:47:46.249,-0.0002906238835838,6.238988955159547,2,NB
2025-05-30 16:47:46.257,-0.0002717778631287,6.401411347768137,2,NB
2025-05-30 16:47:46.265,-0.000251878673114,6.556538062324964,2,NB
2025-05-30 16:47:46.273,-0.0002312747937422,6.701580465725021,2,NB
2025-05-30 16:47:46.281,-0.0002103410252824,6.833608870415103,2,NB
2025-05-30 16:47:46.289,-0.0001894671513625,6.949607276533021,2,NB
2025-05-30 16:47:46.296,-0.0001690457730745,7.046534229756587,2,NB
2025-05-30 16:47:46.304,-0.0001494595480046,7.121388279252788,2,NB
2025-05-30 16:47:46.312,-0.0001310681415604,7.171276279525959,2,NB
2025-05-30 16:47:46.320,-0.0001141953289767,7.1934825713298975,2,NB
2025-05-30 16:47:46.328,-9.911681112434884e-05,7.185536917046384,2,NB
2025-05-30 16:47:46.335,-8.604937927742917e-05,7.145278978581437,2,NB
2025-05-30 16:47:46.343,-7.514206758886462e-05,7.070917132464238,2,NB
2025-05-30 16:47:46.351,-6.646986331251714e-05,6.961079528151755,2,NB
2025-05-30 16:47:46.359,-6.003041359148887e-05,6.814855509889386,2,NB
2025-05-30 16:47:46.367,-5.574400030826366e-05,6.6318258320398185,2,NB
2025-05-30 16:47:46.374,-5.345687690088892e-05,6.412080493795921,2,NB
2025-05-30 16:47:46.382,-5.294788620145511e-05,6.156223489300084,2,NB
2025-05-30 16:47:46.390,-5.3938110962035314e-05,5.865364291429146,2,NB
2025-05-30 16:47:46.398,-5.610315169505792e-05,5.5410964302527885,2,NB
2025-05-30 16:47:46.406,-5.90874825222033e-05,5.185464056416959,2,NB
2025-05-30 16:47:46.414,-6.252020754933332e-05,4.800917864904819,2,NB
2025-05-30 16:47:46.421,-6.603143044512669e-05,4.390262168715781,2,NB
2025-05-30 16:47:46.429,-6.926836254768938e-05,3.956595231697261,2,NB
2025-05-30 16:47:46.437,-7.191024372946232e-05,3.503245179834662,2,NB
2025-05-30 16:47:46.445,-7.368116970152738e-05,3.0337039050600145,2,NB
2025-05-30 16:47:46.453,-7.436005313082901e-05,2.5515613535128887,2,NB
2025-05-30 16:47:46.460,-7.378720294789113e-05,2.06044244814986,2,NB
2025-05-30 16:47:46.468,-7.186733288049665e-05,1.5639486312093636,2,NB
2025-05-30 16:47:46.476,-6.856912626630882e-05,1.0656056321418168,2,NB
2025-05-30 16:47:46.484,-6.392173763278608e-05,0.568818594429852,2,NB
2025-05-30 16:47:46.492,-5.800878389286856e-05,0.0768351686771488,2,NB
2025-05-30 16:47:46.499,-5.096046365407035e-05,-0.4072833545285125,2,NB
2025-05-30 16:47:46.507,-4.294445099032024e-05,-0.8806832938194815,2,NB
2025-05-30 16:47:46.515,-3.415616633144685e-05,-1.3407330449182828,2,NB
2025-05-30 16:47:46.523,-2.480895811762412e-05,-1.785031904961604,2,NB
2025-05-30 16:47:46.531,-1.5124648318976118e-05,-2.211414560113885,2,NB
2025-05-30 16:47:46.539,-5.324808482735376e-06,-2.6179525777963475,2,NB
2025-05-30 16:47:46.546,4.376955531856089e-06,-3.002954155096601,2,NB
2025-05-30 16:47:46.554,1.3781519022124975e-05,-3.364963179019448,2,NB
2025-05-30 16:47:46.562,2.270944549484064e-05,-3.7027583759923863,2,NB
2025-05-30 16:47:46.570,3.1004851976628607e-05,-4.015352997273166,2,NB
2025-05-30 16:47:46.578,3.853796524027608e-05,-4.301995137886589,2,NB
2025-05-30 16:47:46.585,4.52064567260633e-05,-4.562168452722307,2,NB
2025-05-30 16:47:46.593,5.0935687197254965e-05,-4.7955927408865,2,NB
2025-05-30 16:47:46.601,5.567802312067258e-05,-5.002223636196599,2,NB
2025-05-30 16:47:46.609,5.941140547997233e-05,-5.182250480549531,2,NB
2025-05-30 16:47:46.617,6.213735876148783e-05,-5.336091380028268,2,NB
2025-05-30 16:47:46.624,6.38786241731851e-05,-5.464384463886786,2,NB
2025-05-30 16:47:46.632,6.4676588096941e-05,-5.567974493520769,2,NB
2025-05-30 16:47:46.640,6.458865594951058e-05,-5.64789420255965,2,NB
2025-05-30 16:47:46.648,6.368569486467479e-05,-5.705340077789502,2,NB
2025-05-30 16:47:46.656,6.204963786658845e-05,-5.741642688903746,2,NB
2025-05-30 16:47:46.664,5.977130949484204e-05,-5.758232109679918,2,NB
2025-05-30 16:47:46.671,5.694850015631423e-05,-5.756599407430499,2,NB
2025-05-30 16:47:46.679,5.3684285715616296e-05,-5.738255577696521,2,NB
2025-05-30 16:47:46.687,5.0085561733919375e-05,-5.704689640439585,2,NB
2025-05-30 16:47:46.695,4.626173984632989e-05,-5.6573278701625895,2,NB
2025-05-30 16:47:46.703,4.23235382829733e-05,-5.597496279481032,2,NB
2025-05-30 16:47:46.710,3.838179043006893e-05,-5.526388481518057,2,NB
2025-05-30 16:47:46.718,3.454619519328964e-05,-5.445040893144611,2,NB
2025-05-30 16:47:46.726,3.0923941000994155e-05,-5.3543168992250365,2,NB
2025-05-30 16:47:46.734,2.7618151428741927e-05,-5.254901092546344,2,NB
2025-05-30 16:47:46.742,2.472612412323252e-05,-5.147304070905451,2,NB
2025-05-30 16:47:46.749,2.2337365074428824e-05,-5.031877565391458,2,NB
2025-05-30 16:47:46.757,2.0531456109195745e-05,-4.90883896047596,2,NB
2025-05-30 16:47:46.765,1.937583323074924e-05,-4.778303621275629,2,NB
2025-05-30 16:47:46.773,1.892359531386928e-05,-4.6403229308657785,2,NB
2025-05-30 16:47:46.781,1.921150305846299e-05,-4.494925602588768,2,NB
2025-05-30 16:47:46.789,2.0258355167644066e-05,-4.342159684930842,2,NB
2025-05-30 16:47:46.796,2.206391961900345e-05,-4.182132715575897,2,NB
2025-05-30 16:47:46.804,2.4608539227843365e-05,-4.015047688855348,2,NB
2025-05-30 16:47:46.812,2.785344665403173e-05,-3.841232848893353,2,NB
2025-05-30 16:47:46.820,3.174176245731428e-05,-3.6611637726755415,2,NB
2025-05-30 16:47:46.828,3.620013495601944e-05,-3.4754767202490933,2,NB
2025-05-30 16:47:46.835,4.114099745989915e-05,-3.284972758390676,2,NB
2025-05-30 16:47:46.843,4.646543442659141e-05,-3.0906126678981694,2,NB
2025-05-30 16:47:46.851,5.206663082456301e-05,-2.893503090352216,2,NB
2025-05-30 16:47:46.859,5.783381372097158e-05,-2.6948747379436755,2,NB
2025-05-30 16:47:46.867,6.365650649666246e-05,-2.4960537764785884,2,NB
2025-05-30 16:47:46.874,6.942885259754622e-05,-2.298427708698567,2,NB
2025-05-30 16:47:46.882,7.50537522725103e-05,-2.103407249287859,2,NB
2025-05-30 16:47:46.890,8.044657970753841e-05,-1.912385803356642,2,NB
2025-05-30 16:47:46.898,8.553828734569352e-05,-1.726698234332868,2,NB
2025-05-30 16:47:46.906,9.027774797169951e-05,-1.5475806284940032,2,NB
2025-05-30 16:47:46.914,9.463323047633192e-05,-1.3761327289198078,2,NB
2025-05-30 16:47:46.921,9.859295096536258e-05,-1.2132846216049926,2,NB
2025-05-30 16:47:46.929,0.0001021646860128,-1.0597691090559962,2,NB
2025-05-30 16:47:46.937,0.0001053744784572,-0.9161009977586392,2,NB
2025-05-30 16:47:46.945,0.0001082645073751,-0.7825642542003826,2,NB
2025-05-30 16:47:46.953,0.0001108902320126,-0.6592076556949167,2,NB
2025-05-30 16:47:46.960,0.0001133169538405,-0.5458491889268493,2,NB
2025-05-30 16:47:46.968,0.0001156159709455,-0.4420890437950164,2,NB
2025-05-30 16:47:46.976,0.0001178605241313,-0.3473306255168745,2,NB
2025-05-30 16:47:46.984,0.000120121753892,-0.2608085813758803,2,NB
2025-05-30 16:47:46.992,0.0001224649013892,-0.1816224368001956,2,NB
2025-05-30 16:47:46.999,0.0001249459926774,-0.1087740937130291,2,NB
2025-05-30 16:47:47.007,0.000127609233648,-0.0412071981795752,2,NB
2025-05-30 16:47:47.015,0.0001304852925814,0.0221537365163577,2,NB
2025-05-30 16:47:47.023,0.0001335905464192,0.0823665420064398,2,NB
2025-05-30 16:47:47.031,0.0001369272420986,0.1404388581591742,2,NB
2025-05-30 16:47:47.039,0.0001404844253866,0.197301445393014,2,NB
2025-05-30 16:47:47.046,0.0001442394426752,0.2537885074631027,2,NB
2025-05-30 16:47:47.054,0.0001481598144554,0.3106256708319444,2,NB
2025-05-30 16:47:47.062,0.0001522052913609,0.3684257180192846,2,NB
2025-05-30 16:47:47.070,0.0001563299241855,0.427691637762811,2,NB
2025-05-30 16:47:47.078,0.0001604840054956,0.4888260814984426,2,NB
2025-05-30 16:47:47.085,0.0001646157712719,0.5521459453050914,2,NB
2025-05-30 16:47:47.093,0.0001686727852425,0.6179005557096144,2,NB
2025-05-30 16:47:47.101,0.000172602965026,0.6862918303967517,2,NB
2025-05-30 16:47:47.109,0.0001763552466661,0.7574947936997585,2,NB
2025-05-30 16:47:47.117,0.0001798799214567,0.8316769245341226,2,NB
2025-05-30 16:47:47.124,0.0001831287149906,0.909014975787491,2,NB
2025-05-30 16:47:47.132,0.0001860547120684,0.989708111176352,2,NB
2025-05-30 16:47:47.140,0.0001886122615249,1.073986447246987,2,NB
2025-05-30 16:47:47.148,0.0001907570196841,1.1621143576579214,2,NB
2025-05-30 16:47:47.156,0.0001924462996211,1.2543881880777048,2,NB
2025-05-30 16:47:47.164,0.0001936398644988,1.351128333990308,2,NB
2025-05-30 16:47:47.171,0.0001943012253028,1.4526659361726115,2,NB
2025-05-30 16:47:47.179,0.0001943994023629,1.5593247315967234,2,NB
2025-05-30 16:47:47.187,0.0001939110342064,1.6713988433853677,2,NB
2025-05-30 16:47:47.195,0.0001928226827739,1.7891274883511443,2,NB
2025-05-30 16:47:47.203,0.0001911331584151,1.912667716161489,2,NB
2025-05-30 16:47:47.210,0.0001888556386735,2.0420663681447957,2,NB
2025-05-30 16:47:47.218,0.0001860192972089,2.1772324614847745,2,NB
2025-05-30 16:47:47.226,0.0001826701401854,2.317911179891992,2,NB
2025-05-30 16:47:47.234,0.000178870791467,2.463660604462393,2,NB
2025-05-30 16:47:47.242,0.0001746990613036,2.613832265018971,2,NB
2025-05-30 16:47:47.249,0.0001702452521538,2.7675565371467776,2,NB
2025-05-30 16:47:47.257,0.0001656082866202,2.923733843533657,2,NB
2025-05-30 16:47:47.265,0.0001608908788546,3.0810325223781416,2,NB
2025-05-30 16:47:47.273,0.000156194096494,3.2378940829927267,2,NB
2025-05-30 16:47:47.281,0.0001516117401909,3.392546366887304,2,NB
2025-05-30 16:47:47.289,0.0001472249653718,3.543024866728834,2,NB
2025-05-30 16:47:47.296,0.0001430974961151,3.6872021315863126,2,NB
2025-05-30 16:47:47.304,0.0001392717035561,3.822824824408963,2,NB
2025-05-30 16:47:47.312,0.0001357658006111,3.947557627246307,2,NB
2025-05-30 16:47:47.320,0.0001325724185456,4.059032842968882,2,NB
2025-05-30 16:47:47.328,0.0001296587979685,4.154904243010622,2,NB
2025-05-30 16:47:47.335,0.0001269686955211,4.232903473668556,2,NB
2025-05-30 16:47:47.343,0.0001244259046855,4.290897168710924,2,NB
2025-05-30 16:47:47.351,0.0001219390964462,4.326942831197858,2,NB
2025-05-30 16:47:47.359,0.0001194075778518,4.339341546137382,2,NB
2025-05-30 16:47:47.367,0.0001167275586163,4.326685664715165,2,NB
2025-05-30 16:47:47.374,0.0001137985619574,4.287899750716161,2,NB
2025-05-30 16:47:47.382,0.0001105296584781,4.222273287157012,2,NB
2025-05-30 16:47:47.390,0.00010684520846,4.129483892454105,2,NB
2025-05-30 16:47:47.398,0.0001026897684751,4.009610079584024,2,NB
2025-05-30 16:47:47.406,9.803179510444872e-05,3.863132902534399,2,NB
2025-05-30 16:47:47.414,9.28658318020646e-05,3.6909261710419776,2,NB
2025-05-30 16:47:47.421,8.721302767634178e-05,3.4942352779949197,2,NB
2025-05-30 16:47:47.429,8.112005845956032e-05,3.2746450713302853,2,NB
2025-05-30 16:47:47.437,7.465670338615891e-05,3.0340376061955454,2,NB
2025-05-30 16:47:47.445,6.791241586571126e-05,2.7745410234396024,2,NB
2025-05-30 16:47:47.453,6.0992219953617794e-05,2.498471206407741,2,NB
2025-05-30 16:47:47.460,5.401221379159138e-05,2.208268256774049,2,NB
2025-05-30 16:47:47.468,4.709490068213585e-05,1.906430183340464,2,NB
2025-05-30 16:47:47.476,4.0364512557791934e-05,1.5954464873755974,2,NB
2025-05-30 16:47:47.484,3.394244342667524e-05,1.2777345148711894,2,NB
2025-05-30 16:47:47.492,2.7942873866949676e-05,0.9555814837611551,2,NB
2025-05-30 16:47:47.499,2.246864315073517e-05,0.6310949409499156,2,NB
2025-05-30 16:47:47.507,1.7607413818121174e-05,0.3061640368661945,2,NB
2025-05-30 16:47:47.515,1.3428174569012382e-05,-0.017566569702421,2,NB
2025-05-30 16:47:47.523,9.978140638428324e-06,-0.3387091063307835,2,NB
2025-05-30 16:47:47.531,7.280135213389484e-06,-0.6561311493565724,2,NB
2025-05-30 16:47:47.539,5.330569229559882e-06,-0.9689407662695754,2,NB
2025-05-30 16:47:47.546,4.098176237135856e-06,-1.2764597160367162,2,NB
2025-05-30 16:47:47.554,3.523691670765283e-06,-1.5781867129408982,2,NB
2025-05-30 16:47:47.562,3.520666672552605e-06,-1.873753220252292,2,NB
2025-05-30 16:47:47.570,3.977551640947877e-06,-2.16287452898334,2,NB
2025-05-30 16:47:47.578,4.761076480282668e-06,-2.4452990021698846,2,NB
2025-05-30 16:47:47.585,5.720827031070527e-06,-2.7207583380191727,2,NB
2025-05-30 16:47:47.593,6.694809997638175e-06,-2.988921535955356,2,NB
2025-05-30 16:47:47.601,7.515726439458124e-06,-3.249354948911931,2,NB
2025-05-30 16:47:47.609,8.017627215075363e-06,-3.501490391962255,2,NB
2025-05-30 16:47:47.617,8.042602336027139e-06,-3.7446027834186446,2,NB
2025-05-30 16:47:47.624,7.447173616785979e-06,-3.977798261133481,2,NB
2025-05-30 16:47:47.632,6.108107568843081e-06,-4.200013183893422,2,NB
2025-05-30 16:47:47.640,3.9274124545552855e-06,-4.410023924813342,2,NB
2025-05-30 16:47:47.648,8.363205123661997e-07,-4.606466906646721,2,NB
2025-05-30 16:47:47.656,-3.201902278716225e-06,-4.787867924817607,2,NB
2025-05-30 16:47:47.664,-8.190423230706992e-06,-4.952679456135268,2,NB
2025-05-30 16:47:47.671,-1.409861850127258e-05,-5.099324362620653,2,NB
2025-05-30 16:47:47.679,-2.0863085397871463e-05,-5.226244173139282,2,NB
2025-05-30 16:47:47.687,-2.838970738967165e-05,-5.331949961925942,2,NB
2025-05-30 16:47:47.695,-3.655652990369065e-05,-5.415073744402829,2,NB
2025-05-30 16:47:47.703,-4.521724471877742e-05,-5.474418281846507,2,NB
2025-05-30 16:47:47.710,-5.4205192630017847e-05,-5.509003235548833,2,NB
2025-05-30 16:47:47.718,-6.333790596125679e-05,-5.518105746047189,2,NB
2025-05-30 16:47:47.726,-7.242226228390215e-05,-5.501293738099153,2,NB
2025-05-30 16:47:47.734,-8.126028617112295e-05,-5.458450566807091,2,NB
2025-05-30 16:47:47.742,-8.965552753303265e-05,-5.389790017151638,2,NB
2025-05-30 16:47:47.749,-9.741979944353262e-05,-5.295861129237181,2,NB
2025-05-30 16:47:47.757,-0.0001043799362423,-5.177542812180699,2,NB
2025-05-30 16:47:47.765,-0.0001103841861578,-5.036028689183214,2,NB
2025-05-30 16:47:47.773,-0.0001153078840268,-4.872803043768886,2,NB
2025-05-30 16:47:47.781,-0.000119058122672,-4.689609079670523,2,NB
2025-05-30 16:47:47.789,-0.0001215772234811,-4.488410943941741,2,NB
2025-05-30 16:47:47.796,-0.0001228448844969,-4.27135108877357,2,NB
2025-05-30 16:47:47.804,-0.0001228789548176,-4.040704571385686,2,NB
2025-05-30 16:47:47.812,-0.0001217348463102,-3.798831833282229,2,NB
2025-05-30 16:47:47.820,-0.000119503646999,-3.5481313830270125,2,NB
2025-05-30 16:47:47.828,-0.0001163090447658,-3.29099364977389,2,NB
2025-05-30 16:47:47.835,-0.0001123032053052,-3.029757093380001,2,NB
2025-05-30 16:47:47.843,-0.0001076617749467,-2.766667466936472,2,NB
2025-05-30 16:47:47.851,-0.0001025781975238,-2.503840948009513,2,NB
2025-05-30 16:47:47.859,-9.72575455785065e-05,-2.2432317038871457,2,NB
2025-05-30 16:47:47.867,-9.191007055895642e-05,-1.9866043430578528,2,NB
2025-05-30 16:47:47.874,-8.674467500099634e-05,-1.7355116255385243,2,NB
2025-05-30 16:47:47.882,-8.196250266640581e-05,-1.4912777414894995,2,NB
2025-05-30 16:47:47.890,-7.775083083946966e-05,-1.254987398484611,2,NB
2025-05-30 16:47:47.898,-7.427743296133238e-05,-1.0274808648800329,2,NB
2025-05-30 16:47:47.906,-7.168555990285934e-05,-0.8093549935783971,2,NB
2025-05-30 16:47:47.914,-7.008966472381809e-05,-0.6009701038322138,2,NB
2025-05-30 16:47:47.921,-6.957196892585863e-05,-0.4024624437416124,2,NB
2025-05-30 16:47:47.929,-7.017993809175454e-05,-0.2137618080583813,2,NB
2025-05-30 16:47:47.937,-7.192470148531448e-05,-0.0346137525702453,2,NB
2025-05-30 16:47:47.945,-7.478041536062813e-05,0.1353942745479187,2,NB
2025-05-30 16:47:47.953,-7.86845431937221e-05,0.2968036799193411,2,NB
2025-05-30 16:47:47.960,-8.35390286086706e-05,0.450253260685358,2,NB
2025-05-30 16:47:47.968,-8.921237993992713e-05,0.5964465462716627,2,NB
2025-05-30 16:47:47.976,-9.554274331814505e-05,0.7361190515765383,2,NB
2025-05-30 16:47:47.984,-0.0001023420647451,0.8700065994254669,2,NB
2025-05-30 16:47:47.992,-0.0001094014058578,0.9988158697321846,2,NB
2025-05-30 16:47:47.999,-0.000116497396177,1.1231982627255053,2,NB
2025-05-30 16:47:48.007,-0.0001233996998759,1.2437280147911138,2,NB
2025-05-30 16:47:48.015,-0.0001298792620924,1.3608852841932964,2,NB
2025-05-30 16:47:48.023,-0.0001357169937351,1.475044652540733,2,NB
2025-05-30 16:47:48.031,-0.0001407124795724,1.5864691975340768,2,NB
2025-05-30 16:47:48.039,-0.0001446922697418,1.6953100139342223,2,NB
2025-05-30 16:47:48.046,-0.0001475173280776,1.8016108173377845,2,NB
2025-05-30 16:47:48.054,-0.00014908923943,1.9053170758977849,2,NB
2025-05-30 16:47:48.062,-0.000149354824195,2.0062889862728444,2,NB
2025-05-30 16:47:48.070,-0.0001483088925561,2.104317538994816,2,NB
2025-05-30 16:47:48.078,-0.0001459950034676,2.1991428921676364,2,NB
2025-05-30 16:47:48.085,-0.0001425042580958,2.290474272874928,2,NB
2025-05-30 16:47:48.093,-0.0001379723175477,2.3780106379402803,2,NB
2025-05-30 16:47:48.101,-0.0001325749520284,2.461461343318192,2,NB
2025-05-30 16:47:48.109,-0.0001265224778267,2.540566094236845,2,NB
2025-05-30 16:47:48.117,-0.0001200534099193,2.6151134766098405,2,NB
2025-05-30 16:47:48.124,-0.0001134275623988,2.6849574034799617,2,NB
2025-05-30 16:47:48.132,-0.0001069186974592,2.7500308494237102,2,NB
2025-05-30 16:47:48.140,-0.0001008066966966,2.810356294733237,2,NB
2025-05-30 16:47:48.148,-9.536915403444632e-05,2.866052364355271,2,NB
2025-05-30 16:47:48.156,-9.087231669060794e-05,2.9173362297700525,2,NB
2025-05-30 16:47:48.164,-8.756143987994513e-05,2.964521455478685,2,NB
2025-05-30 16:47:48.171,-8.56508117252907e-05,3.008011128808985,2,NB
2025-05-30 16:47:48.179,-8.531384998884107e-05,3.048286319825984,2,NB
2025-05-30 16:47:48.187,-8.667372158098872e-05,3.085890170943256,2,NB
2025-05-30 16:47:48.195,-8.979492875398405e-05,3.121408193962808,2,NB
2025-05-30 16:47:48.203,-9.467631942031592e-05,3.1554456296533617,2,NB
2025-05-30 16:47:48.210,-0.0001012460336362,3.18860297302023,2,NB
2025-05-30 16:47:48.218,-0.0001093589327808,3.2214509549804298,2,NB
2025-05-30 16:47:48.226,-0.000118797001853,3.2545063663520604,2,NB
2025-05-30 16:47:48.234,-0.0001292730599312,3.288210088506881,2,NB
2025-05-30 16:47:48.242,-0.000140437906277,3.322908549891936,2,NB
2025-05-30 16:47:48.249,-0.0001518908270388,3.358839572576603,2,NB
2025-05-30 16:47:48.257,-0.0001631932194992,3.396123236321044,2,NB
2025-05-30 16:47:48.265,-0.0001738849401917,3.434758004685273,2,NB
2025-05-30 16:47:48.273,-0.000183502808177,3.474621966724201,2,NB
2025-05-30 16:47:48.281,-0.000191600479488,3.515478687875236,2,NB
2025-05-30 16:47:48.289,-0.0001977686851659,3.556986869745163,2,NB
2025-05-30 16:47:48.296,-0.0002016546558545,3.598712814689881,2,NB
2025-05-30 16:47:48.304,-0.0002029795034446,3.6401445858745047,2,NB
2025-05-30 16:47:48.312,-0.0002015524231342,3.680706741492784,2,NB
2025-05-30 16:47:48.320,-0.0001972807939677,3.719774590428747,2,NB
2025-05-30 16:47:48.328,-0.0001901755422502,3.756687052458347,2,NB
2025-05-30 16:47:48.335,-0.0001803514509325,3.7907573965070185,2,NB
2025-05-30 16:47:48.343,-0.0001680224302174,3.8212813627978734,2,NB
2025-05-30 16:47:48.351,-0.0001534920992125,3.847542436423657,2,NB
2025-05-30 16:47:48.359,-0.0001371403461402,3.868814317504965,2,NB
2025-05-30 16:47:48.367,-0.0001194067953658,3.884360907242426,2,NB
2025-05-30 16:47:48.374,-0.0001007722619377,3.893434371859101,2,NB
2025-05-30 16:47:48.382,-8.173929338376118e-05,3.8952720282966338,2,NB
2025-05-30 16:47:48.390,-6.281280896687032e-05,3.889092897854327,2,NB
2025-05-30 16:47:48.398,-4.448169936106838e-05,3.8740947934780094,2,NB
2025-05-30 16:47:48.406,-2.72020839495348e-05,3.849452749993021,2,NB
2025-05-30 16:47:48.414,-1.1382756529121882e-05,3.814319485001452,2,NB
2025-05-30 16:47:48.421,2.6268095808761163e-06,3.767828406616479,2,NB
2025-05-30 16:47:48.429,1.4545674506820466e-05,3.7090994862007673,2,NB
2025-05-30 16:47:48.437,2.4167773897069828e-05,3.63724811964938,2,NB
2025-05-30 16:47:48.445,3.136541720381135e-05,3.5513969351421166,2,NB
2025-05-30 16:47:48.453,3.6090066333176414e-05,3.450690379718211,2,NB
2025-05-30 16:47:48.460,3.837059634967735e-05,3.334311827378185,2,NB
2025-05-30 16:47:48.468,3.830929823629198e-05,3.2015028863275954,2,NB
2025-05-30 16:47:48.476,3.607592390606567e-05,3.051584530952511,2,NB
2025-05-30 16:47:48.484,3.190009743232793e-05,2.883979635884691,2,NB
2025-05-30 16:47:48.492,2.606242596546076e-05,2.698236439401468,2,NB
2025-05-30 16:47:48.499,1.88846414830965e-05,2.4940524121300696,2,NB
2025-05-30 16:47:48.507,1.0719092963233632e-05,2.2712979627987586,2,NB
2025-05-30 16:47:48.515,1.9378903478410774e-06,2.0300393869571365,2,NB
2025-05-30 16:47:48.523,-7.078020801574146e-06,1.7705604633556058,2,NB
2025-05-30 16:47:48.531,-1.5949599616073657e-05,1.49338212148153,2,NB
2025-05-30 16:47:48.539,-2.431003573477188e-05,1.1992796290874568,2,NB
2025-05-30 16:47:48.546,-3.181445501258077e-05,0.8892967638751601,2,NB
2025-05-30 16:47:48.554,-3.814882149018472e-05,0.5647564238065873,2,NB
2025-05-30 16:47:48.562,-4.303787176336253e-05,0.2272670855449261,2,NB
2025-05-30 16:47:48.570,-4.625193559863001e-05,-0.1212755592740404,2,NB
2025-05-30 16:47:48.578,-4.761251291443824e-05,-0.4786925568565301,2,NB
2025-05-30 16:47:48.585,-4.699649310450658e-05,-0.8425320790192481,2,NB
2025-05-30 16:47:48.593,-4.433891946604352e-05,-1.2100871140205718,2,NB
2025-05-30 16:47:48.601,-3.96342207752263e-05,-1.5784212632042232,2,NB
2025-05-30 16:47:48.609,-3.293585549652317e-05,-1.9444032745474944,2,NB
2025-05-30 16:47:48.617,-2.4354343375190157e-05,-2.304750657856641,2,NB
2025-05-30 16:47:48.624,-1.4053695752176714e-05,-2.65608232816511,2,NB
2025-05-30 16:47:48.632,-2.2463010938939675e-06,-2.994979732526827,2,NB
2025-05-30 16:47:48.640,1.0813623211279328e-05,-3.318055365507448,2,NB
2025-05-30 16:47:48.648,2.483783905673063e-05,-3.6220270135175583,2,NB
2025-05-30 16:47:48.656,3.9512921223836896e-05,-3.903795531935191,2,NB
2025-05-30 16:47:48.664,5.4509844264109696e-05,-4.160523495368541,2,NB
2025-05-30 16:47:48.671,6.94940491423593e-05,-4.389711713848591,2,NB
2025-05-30 16:47:48.679,8.413572687765146e-05,-4.589270414378588,2,NB
2025-05-30 16:47:48.687,9.81200341207752e-05,-4.757581871604144,2,NB
2025-05-30 16:47:48.695,0.0001111568893358,-4.893551437734597,2,NB
2025-05-30 16:47:48.703,0.0001229899361886,-4.996644261093732,2,NB
2025-05-30 16:47:48.710,0.0001334042708832,-5.066905481616604,2,NB
2025-05-30 16:47:48.718,0.0001422326358909,-5.104962335671207,2,NB
2025-05-30 16:47:48.726,0.0001493599371327,-5.112007370647942,2,NB
2025-05-30 16:47:48.734,0.0001547260710109,-5.089762828585647,2,NB
2025-05-30 16:47:48.742,0.0001583271080434,-5.0404271611796565,2,NB
2025-05-30 16:47:48.750,0.0001602148711208,-4.966605528903095,2,NB
2025-05-30 16:47:48.757,0.0001604949005628,-4.871226952067988,2,NB
2025-05-30 16:47:48.765,0.0001593227649504,-4.757451458669126,2,NB
2025-05-30 16:47:48.773,0.0001568986859153,-4.628571057577644,2,NB
2025-05-30 16:47:48.781,0.0001534604857264,-4.48790861972214,2,NB
2025-05-30 16:47:48.789,0.0001492749263339,-4.3387187660347255,2,NB
2025-05-30 16:47:48.796,0.0001446276019823,-4.1840946575105145,2,NB
2025-05-30 16:47:48.804,0.000139811684231,-4.02688419295758,2,NB
2025-05-30 16:47:48.812,0.0001351159782333,-3.869618580877186,2,NB
2025-05-30 16:47:48.820,0.0001308128948421,-3.7144556014936474,2,NB
2025-05-30 16:47:48.828,0.0001271470288959,-3.5631391538827355,2,NB
2025-05-30 16:47:48.835,0.0001243250193055,-3.4169759327958262,2,NB
2025-05-30 16:47:48.843,0.0001225072514981,-3.2768293377929933,2,NB
2025-05-30 16:47:48.851,0.000121801796471,-3.143130015813479,2,NB
2025-05-30 16:47:48.859,0.0001222608137685,-3.0159018053924664,2,NB
2025-05-30 16:47:48.867,0.0001238794942222,-2.89480131067714,2,NB
2025-05-30 16:47:48.875,0.0001265974828644,-2.779168903819565,2,NB
2025-05-30 16:47:48.882,0.0001303026109586,-2.6680886429452584,2,NB
2025-05-30 16:47:48.890,0.0001348366806707,-2.56045439751724,2,NB
2025-05-30 16:47:48.898,0.0001400029746789,-2.4550393846842518,2,NB
2025-05-30 16:47:48.906,0.000145575106762,-2.350566327216078,2,NB
2025-05-30 16:47:48.914,0.000151306809727,-2.2457755330472,2,NB
2025-05-30 16:47:48.921,0.0001569422765432,-2.139488356532412,2,NB
2025-05-30 16:47:48.929,0.0001622266916877,-2.030663725018341,2,NB
2025-05-30 16:47:48.937,0.0001669165768963,-1.9184457010236604,2,NB
2025-05-30 16:47:48.945,0.0001707895420903,-1.8022004049509104,2,NB
2025-05-30 16:47:48.953,0.0001736530236902,-1.6815410497214744,2,NB
2025-05-30 16:47:48.960,0.0001753516326481,-1.556340335685202,2,NB
2025-05-30 16:47:48.968,0.0001757728098697,-1.4267300139725223,2,NB
2025-05-30 16:47:48.976,0.0001748505746883,-1.2930880332422354,2,NB
2025-05-30 16:47:48.984,0.0001725672413019,-1.1560143093745692,2,NB
2025-05-30 16:47:48.992,0.0001689530655733,-1.0162967551777813,2,NB
2025-05-30 16:47:49.000,0.0001640838691303,-0.8748697232557633,2,NB
2025-05-30 16:47:49.007,0.0001580767683316,-0.7327673986602948,2,NB
2025-05-30 16:47:49.015,0.0001510842115434,-0.5910748917536142,2,NB
2025-05-30 16:47:49.023,0.0001432865985786,-0.4508798069364729,2,NB
2025-05-30 16:47:49.031,0.0001348838203791,-0.3132268979436812,2,NB
2025-05-30 16:47:49.039,0.000126086114374,-0.1790780800615345,2,NB
2025-05-30 16:47:49.046,0.0001171046806512,-0.0492795852015371,2,NB
2025-05-30 16:47:49.054,0.0001081425436929,0.0754625378007835,2,NB
2025-05-30 16:47:49.062,9.938616330490286e-05,0.1945980071138832,2,NB
2025-05-30 16:47:49.070,9.099827491441094e-05,0.3077390363911733,2,NB
2025-05-30 16:47:49.078,8.311235969398671e-05,0.4146588532744114,2,NB
2025-05-30 16:47:49.085,7.582902453050333e-05,0.5152831515866858,2,NB
2025-05-30 16:47:49.093,6.921443720587131e-05,0.6096759954716099,2,NB
2025-05-30 16:47:49.101,6.330081731878887e-05,0.6980219172345814,2,NB
2025-05-30 16:47:49.109,5.808882131905418e-05,0.7806060099991996,2,NB
2025-05-30 16:47:49.117,5.3551496775537965e-05,0.8577937161264586,2,NB
2025-05-30 16:47:49.125,4.963935735161725e-05,0.930011775310191,2,NB
2025-05-30 16:47:49.132,4.628608031790777e-05,0.9977314599567264,2,NB
2025-05-30 16:47:49.140,4.341435523630442e-05,1.0614548360925928,2,NB
2025-05-30 16:47:49.148,4.094148939517396e-05,1.121704391975138,2,NB
2025-05-30 16:47:49.156,3.8784466542475314e-05,1.1790160117353643,2,NB
2025-05-30 16:47:49.164,3.686422568953847e-05,1.2339349623769011,2,NB
2025-05-30 16:47:49.171,3.510895881928569e-05,1.287014322162413,2,NB
2025-05-30 16:47:49.179,3.3456241931725954e-05,1.3388151131436472,2,NB
2025-05-30 16:47:49.187,3.185385830662066e-05,1.389907312524408,2,NB
2025-05-30 16:47:49.195,3.0259267735725208e-05,1.4408709029416322,2,NB
2025-05-30 16:47:49.203,2.863780471690449e-05,1.492296169538822,2,NB
2025-05-30 16:47:49.210,2.6959826723168985e-05,1.5447825460567055,2,NB
2025-05-30 16:47:49.218,2.519716618568353e-05,1.598935437318637,2,NB
2025-05-30 16:47:49.226,2.331935890982533e-05,1.6553605891645282,2,NB
2025-05-30 16:47:49.234,2.1290211650234964e-05,1.7146557305917012,2,NB
2025-05-30 16:47:49.242,1.906529665057605e-05,1.7773993706018665,2,NB
2025-05-30 16:47:49.250,1.6590876163300798e-05,1.8441367902053616,2,NB
2025-05-30 16:47:49.257,1.3804556946135847e-05,1.9153634268431103,2,NB
2025-05-30 16:47:49.265,1.0637716232630096e-05,1.9915060033129888,2,NB
2025-05-30 16:47:49.273,7.01952564894208e-06,2.0729019020390043,2,NB
2025-05-30 16:47:49.281,2.882279712723823e-06,2.159777420025969,2,NB
2025-05-30 16:47:49.289,-1.832327192200155e-06,2.2522256510848657,2,NB
2025-05-30 16:47:49.296,-7.166413029579598e-06,2.3501848231499936,2,NB
2025-05-30 16:47:49.304,-1.3139167170173663e-05,2.453417965900732,2,NB
2025-05-30 16:47:49.312,-1.9740810495107664e-05,2.5614947965385566,2,NB
2025-05-30 16:47:49.320,-2.6927912741264238e-05,2.673776692941074,2,NB
2025-05-30 16:47:49.328,-3.4620619901436766e-05,2.7894055827873068,2,NB
2025-05-30 16:47:49.335,-4.270217257747293e-05,2.907297526271228,2,NB
2025-05-30 16:47:49.343,-5.102089177402052e-05,3.02614171394493,2,NB
2025-05-30 16:47:49.351,-5.9394590980591545e-05,3.1444055324465428,2,NB
2025-05-30 16:47:49.359,-6.761716065326176e-05,3.2603462520738726,2,NB
2025-05-30 16:47:49.367,-7.546689280995941e-05,3.372029744744773,2,NB
2025-05-30 16:47:49.375,-8.271599935858155e-05,3.4773564414312523,2,NB
2025-05-30 16:47:49.382,-8.914073952936627e-05,3.574094487598533,2,NB
2025-05-30 16:47:49.390,-9.45316005055702e-05,3.659919762758683,2,NB
2025-05-30 16:47:49.398,-9.870304700968448e-05,3.7324621082178537,2,NB
2025-05-30 16:47:49.406,-0.0001015024352266,3.789356771114338,2,NB
2025-05-30 16:47:49.414,-0.0001028177489616,3.828299743196156,2,NB
2025-05-30 16:47:49.421,-0.0001025838682514,3.8471053726369218,2,NB
2025-05-30 16:47:49.429,-0.0001007871467025,3.843764379150004,2,NB
2025-05-30 16:47:49.437,-9.746815291697353e-05,3.8165002274678472,2,NB
2025-05-30 16:47:49.445,-9.272248833960036e-05,3.7638217310688487,2,NB
2025-05-30 16:47:49.453,-8.669960599809982e-05,3.684569782636836,2,NB
2025-05-30 16:47:49.460,-7.959954815305926e-05,3.577956248299728,2,NB
2025-05-30 16:47:49.468,-7.166754235575467e-05,3.4435933170371285,2,NB
2025-05-30 16:47:49.476,-6.318646743692828e-05,3.281511953076206,2,NB
2025-05-30 16:47:49.484,-5.446731313896629e-05,3.0921685391918574,2,NB
2025-05-30 16:47:49.492,-4.583788591459565e-05,2.876439299987569,2,NB
2025-05-30 16:47:49.500,-3.7630152239712526e-05,2.635602630961953,2,NB
2025-05-30 16:47:49.507,-3.0166766857928302e-05,2.371310003946129,2,NB
2025-05-30 16:47:49.515,-2.374748185819688e-05,2.0855466440381805,2,NB
2025-05-30 16:47:49.523,-1.8636209253594784e-05,1.7805836484142064,2,NB
2025-05-30 16:47:49.531,-1.5049477213708004e-05,1.4589236120996425,2,NB
2025-05-30 16:47:49.539,-1.3146912654375428e-05,1.1232421075138384,2,NB
2025-05-30 16:47:49.546,-1.3024259922333898e-05,0.7763275061709776,2,NB
2025-05-30 16:47:49.554,-1.4709319133928317e-05,0.4210216191331647,2,NB
2025-05-30 16:47:49.562,-1.8161026400879863e-05,0.0601634729866153,2,NB
2025-05-30 16:47:49.570,-2.3271685440986483e-05,-0.3034617489817068,2,NB
2025-05-30 16:47:49.578,-2.987212377724005e-05,-0.6671669559360267,2,NB
2025-05-30 16:47:49.585,-3.7739336777364194e-05,-1.0283993955652608,2,NB
2025-05-30 16:47:49.593,-4.660603844853634e-05,-1.3847681877275428,2,NB
2025-05-30 16:47:49.601,-5.617147342142184e-05,-1.734062922453781,2,NB
2025-05-30 16:47:49.609,-6.611285846277639e-05,-2.0742635617568155,2,NB
2025-05-30 16:47:49.617,-7.609690198031208e-05,-2.403542304953503,2,NB
2025-05-30 16:47:49.625,-8.579096098196343e-05,-2.720258440142429,2,NB
2025-05-30 16:47:49.632,-9.48734943259437e-05,-3.0229474952746767,2,NB
2025-05-30 16:47:49.640,-0.000103043553107,-3.3103062058358192,2,NB
2025-05-30 16:47:49.648,-0.0001100291367346,-3.581174921083425,2,NB
2025-05-30 16:47:49.656,-0.0001155943323074,-3.8345190729152807,2,NB
2025-05-30 16:47:49.664,-0.000119545207103,-4.069411234429501,2,NB
2025-05-30 16:47:49.671,-0.0001217344192224,-4.285015109940448,2,NB
2025-05-30 16:47:49.679,-0.0001220644743042,-4.4805725429554215,2,NB
2025-05-30 16:47:49.687,-0.0001204895340227,-4.6553943285236095,2,NB
2025-05-30 16:47:49.695,-0.0001170157086859,-4.8088552992294895,2,NB
2025-05-30 16:47:49.703,-0.0001116998347593,-4.940393843715383,2,NB
2025-05-30 16:47:49.710,-0.0001046468043135,-5.049515729051255,2,NB
2025-05-30 16:47:49.718,-9.600554128993036e-05,-5.13580184431219,2,NB
2025-05-30 16:47:49.726,-8.596372337074133e-05,-5.198919271952019,2,NB
2025-05-30 16:47:49.734,-7.474137418855428e-05,-5.2386349334766855,2,NB
2025-05-30 16:47:49.742,-6.258352084976156e-05,-5.254830946929148,2,NB
2025-05-30 16:47:49.750,-4.975220269843986e-05,-5.247520767285797,2,NB
2025-05-30 16:47:49.757,-3.651818469076749e-05,-5.216865145416964,2,NB
2025-05-30 16:47:49.765,-2.315274695415331e-05,-5.163186931024836,2,NB
2025-05-30 16:47:49.773,-9.919901020089222e-06,-5.086983763402353,2,NB
2025-05-30 16:47:49.781,2.930661187942425e-06,-4.988937748579559,2,NB
2025-05-30 16:47:49.789,1.5169656794820093e-05,-4.869921317280777,2,NB
2025-05-30 16:47:49.796,2.659322164528577e-05,-4.730998595452159,2,NB
2025-05-30 16:47:49.804,3.702681674646044e-05,-4.573421795995375,2,NB
2025-05-30 16:47:49.812,4.632803693350364e-05,-4.398622352664487,2,NB
2025-05-30 16:47:49.820,5.438831309080275e-05,-4.208196755700387,2,NB
2025-05-30 16:47:49.828,6.113351230340055e-05,-4.003887298864629,2,NB
2025-05-30 16:47:49.835,6.652350264114806e-05,-3.787558192926488,2,NB
2025-05-30 16:47:49.843,7.055080476795657e-05,-3.5611677282423893,2,NB
2025-05-30 16:47:49.851,7.323844542523984e-05,-3.3267373677375622,2,NB
2025-05-30 16:47:49.859,7.46370811602813e-05,-3.086318807876732,2,NB
2025-05-30 16:47:49.867,7.482144786879825e-05,-2.8419601429708865,2,NB
2025-05-30 16:47:49.875,7.38862458121959e-05,-2.595672294963725,2,NB
2025-05-30 16:47:49.882,7.194165439821866e-05,-2.349396823922995,2,NB
2025-05-30 16:47:49.890,6.91087306110892e-05,-2.10497612036084,2,NB
2025-05-30 16:47:49.898,6.551494755769566e-05,-1.8641268119148409,2,NB
2025-05-30 16:47:49.906,6.129007449182217e-05,-1.6284170120930046,2,NB
2025-05-30 16:47:49.914,5.656251917468455e-05,-1.3992478208371768,2,NB
2025-05-30 16:47:49.921,5.145619036329018e-05,-1.1778392785307874,2,NB
2025-05-30 16:47:49.929,4.6087905290891765e-05,-0.9652207926589024,2,NB
2025-05-30 16:47:49.937,4.056535118431909e-05,-0.7622259055040955,2,NB
2025-05-30 16:47:49.945,3.4985603806974144e-05,-0.569491150391041,2,NB
2025-05-30 16:47:49.953,2.943420187631542e-05,-0.3874586484918265,2,NB
2025-05-30 16:47:49.960,2.398475945529582e-05,-0.2163820235405625,2,NB
2025-05-30 16:47:49.968,1.8699077698943147e-05,-0.0563351543112639,2,NB
2025-05-30 16:47:49.976,1.3627720874568313e-05,0.0927767572232384,2,NB
2025-05-30 16:47:49.984,8.811047307063729e-06,0.23120434724807,2,NB
2025-05-30 16:47:49.992,4.280696698993555e-06,0.3593400219781039,2,NB
2025-05-30 16:47:50.000,6.150917801629758e-08,0.4777031616197441,2,NB
2025-05-30 16:47:50.007,-3.826197971375478e-06,0.5869250233121087,2,NB
2025-05-30 16:47:50.015,-7.364119998205861e-06,0.6877336685564245,2,NB
2025-05-30 16:47:50.023,-1.0533384346039863e-05,0.7809391239461427,2,NB
2025-05-30 16:47:50.031,-1.331208987458572e-05,0.8674188617943368,2,NB
2025-05-30 16:47:50.039,-1.567316718425808e-05,0.948103569106582,2,NB
2025-05-30 16:47:50.046,-1.7582759236300093e-05,1.0239630715734878,2,NB
2025-05-30 16:47:50.054,-1.8999305069848275e-05,1.0959922071812107,2,NB
2025-05-30 16:47:50.062,-1.987347971128295e-05,1.1651964108024044,2,NB
2025-05-30 16:47:50.070,-2.0149101525909617e-05,1.232576780598405,2,NB
2025-05-30 16:47:50.078,-1.9765065876674705e-05,1.2991144521839488,2,NB
2025-05-30 16:47:50.085,-1.8658303017964385e-05,1.3657542102609397,2,NB
2025-05-30 16:47:50.093,-1.6767690999641045e-05,1.4333874156713673,2,NB
2025-05-30 16:47:50.101,-1.4038783616321027e-05,1.502834500006345,2,NB
2025-05-30 16:47:50.109,-1.0429141970634406e-05,1.5748274498836403,2,NB
2025-05-30 16:47:50.117,-5.913989049232963e-06,1.6499928400735215,2,NB
2025-05-30 16:47:50.125,-4.918429406840309e-07,1.728836064842699,2,NB
2025-05-30 16:47:50.132,5.810270946641518e-06,1.8117274635029832,2,NB
2025-05-30 16:47:50.140,1.2932470457698026e-05,1.8988910511041213,2,NB
2025-05-30 16:47:50.148,2.077898838984333e-05,1.990396558803753,2,NB
2025-05-30 16:47:50.156,2.921688986834397e-05,2.086155464203409,2,NB
2025-05-30 16:47:50.164,3.807685288252865e-05,2.1859216441830136,2,NB
2025-05-30 16:47:50.171,4.715615328394602e-05,2.2892971963452475,2,NB
2025-05-30 16:47:50.179,5.6223787960752616e-05,2.3957438322906195,2,NB
2025-05-30 16:47:50.187,6.502748291505788e-05,2.504600038636179,2,NB
2025-05-30 16:47:50.195,7.330220493912628e-05,2.615103938763811,2,NB
2025-05-30 16:47:50.203,8.077973194414563e-05,2.726421489708294,2,NB
2025-05-30 16:47:50.210,8.71988166323537e-05,2.8376793342043998,2,NB
2025-05-30 16:47:50.218,9.231547875185244e-05,2.9480013117397217,2,NB
2025-05-30 16:47:50.226,9.59129729309908e-05,3.0565473260697797,2,NB
2025-05-30 16:47:50.234,9.781100053507469e-05,3.1625529851762315,2,NB
2025-05-30 16:47:50.242,9.787376532924864e-05,3.2653681930918985,2,NB
2025-05-30 16:47:50.250,9.601651423934136e-05,3.364492703054615,2,NB
2025-05-30 16:47:50.257,9.221025645983224e-05,3.459606559478539,2,NB
2025-05-30 16:47:50.265,8.648441679099994e-05,3.550593382973433,2,NB
2025-05-30 16:47:50.273,7.892725248794873e-05,3.637554604021328,2,NB
2025-05-30 16:47:50.281,6.968394694719441e-05,3.720813030714455,2,NB
2025-05-30 16:47:50.289,5.8952387813721424e-05,3.800904533143935,2,NB
2025-05-30 16:47:50.296,4.697674075029168e-05,3.8785571218236896,2,NB
2025-05-30 16:47:50.304,3.403904027610178e-05,3.954657270314212,2,NB
2025-05-30 16:47:50.312,2.0449124282494676e-05,4.030203966242187,2,NB
2025-05-30 16:47:50.320,6.533316124620399e-06,4.106251651310015,2,NB
2025-05-30 16:47:50.328,-7.3777065248312655e-06,4.183843902275192,2,NB
2025-05-30 16:47:50.335,-2.096140234446981e-05,4.26394037324061,2,NB
2025-05-30 16:47:50.343,-3.3915732884202364e-05,4.347340118703685,2,NB
2025-05-30 16:47:50.351,-4.597087661585835e-05,4.434604896903172,2,NB
2025-05-30 16:47:50.359,-5.689974049711024e-05,4.525986365490889,2,NB
2025-05-30 16:47:50.367,-6.652674297224333e-05,4.621361184088129,2,NB
2025-05-30 16:47:50.375,-7.473440084519714e-05,4.720177902263703,2,NB
2025-05-30 16:47:50.382,-8.146733363167253e-05,4.821419130301095,2,NB
2025-05-30 16:47:50.390,-8.673341323303848e-05,4.923581881971763,2,NB
2025-05-30 16:47:50.398,-9.060194353614748e-05,5.024678181357328,2,NB
2025-05-30 16:47:50.406,-9.319892934777236e-05,5.122257090421658,2,NB
2025-05-30 16:47:50.414,-9.469964721059036e-05,5.213448300417233,2,NB
2025-05-30 16:47:50.421,-9.531885899965962e-05,5.295026403685489,2,NB
2025-05-30 16:47:50.429,-9.52991445894158e-05,5.363493985950469,2,NB
2025-05-30 16:47:50.437,-9.489798079556444e-05,5.415180803432419,2,NB
2025-05-30 16:47:50.445,-9.437432053377915e-05,5.446355568025594,2,NB
2025-05-30 16:47:50.453,-9.397548128759876e-05,5.453346278912006,2,NB
2025-05-30 16:47:50.460,-9.392512448087204e-05,5.43266462534636,2,NB
2025-05-30 16:47:50.468,-9.441301801816182e-05,5.381129753288754,2,NB
2025-05-30 16:47:50.476,-9.558713920042844e-05,5.2959866431249,2,NB
2025-05-30 16:47:50.484,-9.754848739206678e-05,5.175014487349625,2,NB
2025-05-30 16:47:50.492,-0.0001003487313856,5.01662078283743,2,NB
2025-05-30 16:47:50.500,-0.0001039905557135,4.819917354101825,2,NB
2025-05-30 16:47:50.507,-0.0001084303681092,4.584775184126567,2,NB
2025-05-30 16:47:50.515,-0.0001135829286201,4.311855718599706,2,NB
2025-05-30 16:47:50.523,-0.0001193274274518,4.002617190274616,2,NB
2025-05-30 16:47:50.531,-0.0001255145162101,3.659295443766167,2,NB
2025-05-30 16:47:50.539,-0.000131973775536,3.284859690463437,2,NB
2025-05-30 16:47:50.546,-0.0001385211151672,2.882944552526433,2,NB
2025-05-30 16:47:50.554,-0.0001449656702163,2.45776062774184,2,NB
2025-05-30 16:47:50.562,-0.0001511158640228,2.0139865883780863,2,NB
2025-05-30 16:47:50.570,-0.0001567844281486,1.5566464878566493,2,NB
2025-05-30 16:47:50.578,-0.0001617922899524,1.0909764676500513,2,NB
2025-05-30 16:47:50.585,-0.0001659713521274,0.6222854179159981,2,NB
2025-05-30 16:47:50.593,-0.0001691662931384,0.155814337378813,2,NB
2025-05-30 16:47:50.601,-0.0001712356096608,-0.3034008452708932,2,NB
2025-05-30 16:47:50.609,-0.0001720521994987,-0.7506583816752959,2,NB
2025-05-30 16:47:50.617,-0.0001715038425944,-1.1817074541764423,2,NB
2025-05-30 16:47:50.625,-0.0001694939660948,-1.5928487311637232,2,NB
2025-05-30 16:47:50.632,-0.0001659430461181,-1.9810154709262864,2,NB
2025-05-30 16:47:50.640,-0.000160790872047,-2.343832600676411,2,NB
2025-05-30 16:47:50.648,-0.0001539996945533,-2.6796519698189387,2,NB
2025-05-30 16:47:50.656,-0.000145558073411,-2.9875628228382904,2,NB
2025-05-30 16:47:50.664,-0.0001354851111727,-3.2673774379243543,2,NB
2025-05-30 16:47:50.671,-0.0001238347101802,-3.5195928067815454,2,NB
2025-05-30 16:47:50.679,-0.000110699471052,-3.745330156288881,2,NB
2025-05-30 16:47:50.687,-9.621381904439864e-05,-3.946254994530544,2,NB
2025-05-30 16:47:50.695,-8.05559148255691e-05,-4.124481157464982,2,NB
2025-05-30 16:47:50.703,-6.394792514690386e-05,-4.282462991543653,2,NB
2025-05-30 16:47:50.710,-4.6654320671809694e-05,-4.422880288800264,2,NB
2025-05-30 16:47:50.718,-2.8978016699327555e-05,-4.5485208597914095,2,NB
2025-05-30 16:47:50.726,-1.1254343068660915e-05,-4.662165665163722,2,NB
2025-05-30 16:47:50.734,6.157015050761616e-06,-4.766481225112376,2,NB
2025-05-30 16:47:50.742,2.288185218168815e-05,-4.863923602163933,2,NB
2025-05-30 16:47:50.750,3.854273355710296e-05,-4.95665763309995,2,NB
2025-05-30 16:47:50.757,5.277137151593907e-05,-5.046494301027418,2,NB
2025-05-30 16:47:50.765,6.522164881581775e-05,-5.134848221341627,2,NB
2025-05-30 16:47:50.773,7.55827664906264e-05,-5.222716205167447,2,NB
2025-05-30 16:47:50.781,8.359193185376552e-05,-5.310676810300041,2,NB
2025-05-30 16:47:50.789,8.904599005167333e-05,-5.39890974813998,2,NB
2025-05-30 16:47:50.796,9.181142941228425e-05,-5.48723303963867,2,NB
2025-05-30 16:47:50.804,9.183224496218492e-05,-5.575154952634557,2,NB
2025-05-30 16:47:50.812,8.913524124610616e-05,-5.661937052083223,2,NB
2025-05-30 16:47:50.820,8.383250420056424e-05,-5.746664195974975,2,NB
2025-05-30 16:47:50.828,7.612094568150702e-05,-5.828317049594321,2,NB
2025-05-30 16:47:50.835,6.627897638068688e-05,-5.905842692316888,2,NB
2025-05-30 16:47:50.843,5.4660458621726006e-05,-5.978219158546434,2,NB
2025-05-30 16:47:50.851,4.168612987597635e-05,-6.044510272454087,2,NB
2025-05-30 16:47:50.859,2.783270363693692e-05,-6.103907872833823,2,NB
2025-05-30 16:47:50.867,1.3619884866913992e-05,-6.155759432458196,2,NB
2025-05-30 16:47:50.875,-4.044044874907007e-07,-6.19958009556616,2,NB
2025-05-30 16:47:50.882,-1.3680219854239395e-05,-6.235049219981487,2,NB
2025-05-30 16:47:50.890,-2.565275028626429e-05,-6.26199254898144,2,NB
2025-05-30 16:47:50.898,-3.5789868434682875e-05,-6.280352087407389,2,NB
2025-05-30 16:47:50.906,-4.35993972416945e-05,-6.290146555589603,2,NB
2025-05-30 16:47:50.914,-4.864537223537672e-05,-6.2914258911961625,2,NB
2025-05-30 16:47:50.921,-5.056263617058966e-05,-6.2842236273445575,2,NB
2025-05-30 16:47:50.929,-4.9069228374927714e-05,-6.268511079537027,2,NB
2025-05-30 16:47:50.937,-4.397616563259148e-05,-6.244157124873292,2,NB
2025-05-30 16:47:50.945,-3.5194341708975896e-05,-6.21089696537808,2,NB
2025-05-30 16:47:50.953,-2.273842045915664e-05,-6.168312652907482,2,NB
2025-05-30 16:47:50.960,-6.727750205478985e-06,-6.11582735009824,2,NB
2025-05-30 16:47:50.968,1.2615573433357464e-05,-6.052714363450214,2,NB
2025-05-30 16:47:50.976,3.4971356032578075e-05,-5.978120979192937,2,NB
2025-05-30 16:47:50.984,5.992855891646344e-05,-5.891106131740032,2,NB
2025-05-30 16:47:50.992,8.699507459813242e-05,-5.790690002401168,2,NB
2025-05-30 16:47:51.000,0.000115609926531,-5.675912834596868,2,NB
2025-05-30 16:47:51.007,0.0001451577745096,-5.5458996012159005,2,NB
2025-05-30 16:47:51.015,0.0001749855698654,-5.399926699817972,2,NB
2025-05-30 16:47:51.023,0.0002044211148647,-5.237486603555702,2,NB
2025-05-30 16:47:51.031,0.0002327931198896,-5.058346374940765,2,NB
2025-05-30 16:47:51.039,0.0002594521473234,-4.862596164315111,2,NB
2025-05-30 16:47:51.046,0.0002837916334614,-4.650684262121717,2,NB
2025-05-30 16:47:51.054,0.000305268031063,-4.423435932711922,2,NB
2025-05-30 16:47:51.062,0.0003234190350976,-4.182054087187373,2,NB
2025-05-30 16:47:51.070,0.0003378788577236,-3.928100801147634,2,NB
2025-05-30 16:47:51.078,0.0003483896312457,-3.663459694941869,2,NB
2025-05-30 16:47:51.085,0.0003548082523484,-3.390280216562206,2,NB
2025-05-30 16:47:51.093,0.0003571083069888,-3.110905851627604,2,NB
2025-05-30 16:47:51.101,0.0003553770688021,-2.8277891858938284,2,NB
2025-05-30 16:47:51.109,0.0003498078734397,-2.543397524127216,2,NB
2025-05-30 16:47:51.117,0.0003406883853998,-2.260113390563689,2,NB
2025-05-30 16:47:51.125,0.0003283853984346,-1.980134665039221,2,NB
2025-05-30 16:47:51.132,0.0003133269130692,-1.705379305728874,2,NB
2025-05-30 16:47:51.140,0.0002959823732638,-1.4373995394200678,2,NB
2025-05-30 16:47:51.148,0.0002768420951689,-1.1773100486805594,2,NB
2025-05-30 16:47:51.156,0.0002563970023905,-0.9257340664341857,2,NB
2025-05-30 16:47:51.164,0.0002351197401626,-0.6827704420272305,2,NB
2025-05-30 16:47:51.171,0.0002134480901772,-0.4479837245095204,2,NB
2025-05-30 16:47:51.179,0.0001917713992304,-0.2204181828586656,2,NB
2025-05-30 16:47:51.187,0.0001704205089725,0.0013644818585451,2,NB
2025-05-30 16:47:51.195,0.0001496614503054,0.2192251121565672,2,NB
2025-05-30 16:47:51.203,0.0001296929532673,0.4353671801448568,2,NB
2025-05-30 16:47:51.210,0.0001106476279193,0.6522403061170325,2,NB
2025-05-30 16:47:51.218,9.259649914904103e-05,0.8724312495319526,2,NB
2025-05-30 16:47:51.226,7.555643271730209e-05,1.0985469206566707,2,NB
2025-05-30 16:47:51.234,5.949987450673187e-05,1.3330942474141856,2,NB
2025-05-30 16:47:51.242,4.436624195290556e-05,1.5783617985739162,2,NB
2025-05-30 16:47:51.250,3.007425718387929e-05,1.836307927087896,2,NB
2025-05-30 16:47:51.257,1.6534495622263934e-05,2.108459878284297,2,NB
2025-05-30 16:47:51.265,3.661440959118631e-06,2.395827828819624,2,NB
2025-05-30 16:47:51.273,-8.615614118439817e-06,2.698837205159379,2,NB
2025-05-30 16:47:51.281,-2.034340466226128e-05,3.01728190081442,2,NB
2025-05-30 16:47:51.289,-3.153774764088941e-05,3.3503002033142444,2,NB
2025-05-30 16:47:51.296,-4.217916819461742e-05,3.696374392161429,2,NB
2025-05-30 16:47:51.304,-5.221130942767589e-05,4.053354110359313,2,NB
2025-05-30 16:47:51.312,-6.154218094947078e-05,4.418502768687303,2,NB
2025-05-30 16:47:51.320,-7.004813720821246e-05,4.788565432660156,2,NB
2025-05-30 16:47:51.328,-7.758031165974857e-05,5.15985588654509,2,NB
2025-05-30 16:47:51.335,-8.397308235038475e-05,5.52835988995246,2,NB
2025-05-30 16:47:51.343,-8.905403659638348e-05,5.889851065752258,2,NB
2025-05-30 16:47:51.351,-9.265486379347388e-05,6.240015407769179,2,NB
2025-05-30 16:47:51.359,-9.462263594478415e-05,6.574580092909695,2,NB
2025-05-30 16:47:51.367,-9.483100202594906e-05,6.88944213782639,2,NB
2025-05-30 16:47:51.375,-9.319087759300096e-05,7.180792457578653,2,NB
2025-05-30 16:47:51.382,-8.966022335502787e-05,7.445231054825472,2,NB
2025-05-30 16:47:51.390,-8.425248514906584e-05,7.679869376918691,2,NB
2025-05-30 16:47:51.398,-7.704325967552326e-05,7.88241630605305,2,NB
2025-05-30 16:47:51.406,-6.817479393959247e-05,8.051244776282646,2,NB
2025-05-30 16:47:51.414,-5.7858009503731895e-05,8.185436624341408,2,NB
2025-05-30 16:47:51.421,-4.63718210324875e-05,8.284803964358527,2,NB
2025-05-30 16:47:51.429,-3.4059570901374034e-05,8.349886118157395,2,NB
2025-05-30 16:47:51.437,-2.132245148299403e-05,8.38192192382568,2,NB
2025-05-30 16:47:51.445,-8.609877278275747e-06,8.382798076301949,2,NB
2025-05-30 16:47:51.453,3.5930778083322338e-06,8.354975012673941,2,NB
2025-05-30 16:47:51.460,1.4780871842440663e-05,8.301392725397264,2,NB
2025-05-30 16:47:51.468,2.444483108777533e-05,8.225359744171891,2,NB
2025-05-30 16:47:51.476,3.209201139611748e-05,8.130429332231554,2,NB
2025-05-30 16:47:51.484,3.7264862485437136e-05,8.020267639305064,2,NB
2025-05-30 16:47:51.492,3.956088652071799e-05,7.898519077618408,2,NB
2025-05-30 16:47:51.500,3.8651406898968776e-05,7.768674480090088,2,NB
2025-05-30 16:47:51.507,3.4298503169598234e-05,7.633947616960422,2,NB
2025-05-30 16:47:51.515,2.636914000449001e-05,7.4971653649013295,2,NB
2025-05-30 16:47:51.523,1.4845557602743354e-05,7.360676243068613,2,NB
2025-05-30 16:47:51.531,-1.6886519505679257e-07,7.226281181968293,2,NB
2025-05-30 16:47:51.539,-1.844882425655376e-05,7.095189323935691,2,NB
2025-05-30 16:47:51.546,-3.965165469831695e-05,6.968000434321308,2,NB
2025-05-30 16:47:51.554,-6.332725431958794e-05,6.844714204235539,2,NB
2025-05-30 16:47:51.562,-8.893309420629002e-05,6.7247654234360565,2,NB
2025-05-30 16:47:51.570,-0.0001158537338143,6.607082764561457,2,NB
2025-05-30 16:47:51.578,-0.0001434239596571,6.490167809849639,2,NB
2025-05-30 16:47:51.585,-0.0001709544453653,6.37219002571021,2,NB
2025-05-30 16:47:51.593,-0.0001977586995391,6.251092698143904,2,NB
2025-05-30 16:47:51.601,-0.0002231799965989,6.124704419509926,2,NB
2025-05-30 16:47:51.609,-0.0002466169551295,5.990850586520399,2,NB
2025-05-30 16:47:51.617,-0.000267546450646,5.847459538817986,2,NB
2025-05-30 16:47:51.625,-0.0002855426485265,5.692658429598319,2,NB
2025-05-30 16:47:51.632,-0.000300291126608,5.524854645994427,2,NB
2025-05-30 16:47:51.640,-0.0003115973222324,5.342799536261769,2,NB
2025-05-30 16:47:51.648,-0.0003193888797738,5.145632286687203,2,NB
2025-05-30 16:47:51.656,-0.0003237118742985,4.932902953269394,2,NB
2025-05-30 16:47:51.664,-0.0003247213093703,4.704574824737076,2,NB
2025-05-30 16:47:51.671,-0.0003226666875968,4.461007410334632,2,NB
2025-05-30 16:47:51.679,-0.0003178737794076,4.20292234296374,2,NB
2025-05-30 16:47:51.687,-0.0003107239143721,3.931355301522935,2,NB
2025-05-30 16:47:51.695,-0.0003016321644851,3.6475976325226105,2,NB
2025-05-30 16:47:51.703,-0.0002910257052773,3.353131659598783,2,NB
2025-05-30 16:47:51.711,-0.0002793234802262,3.049563705924708,2,NB
2025-05-30 16:47:51.718,-0.0002669180975842,2.7385586366091674,2,NB
2025-05-30 16:47:51.726,-0.0002541606765672,2.421779291091526,2,NB
2025-05-30 16:47:51.734,-0.0002413491419671,2.100833568015783,2,NB
2025-05-30 16:47:51.742,-0.0002287202506215,1.7772312044267502,2,NB
2025-05-30 16:47:51.750,-0.000216445427028,1.4523515159124596,2,NB
2025-05-30 16:47:51.757,-0.000204630295132,1.1274225881734172,2,NB
2025-05-30 16:47:51.765,-0.0001933176244283,0.8035116797384966,2,NB
2025-05-30 16:47:51.773,-0.0001824932654828,0.4815259480309229,2,NB
2025-05-30 16:47:51.781,-0.0001720945363057,0.1622220746488284,2,NB
2025-05-30 16:47:51.789,-0.0001620204391465,-0.1537770421498225,2,NB
2025-05-30 16:47:51.796,-0.000152143038741,-0.4659606307681478,2,NB
2025-05-30 16:47:51.804,-0.000142319318327,-0.773905659262699,2,NB
2025-05-30 16:47:51.812,-0.0001324028484851,-1.077251942398282,2,NB
2025-05-30 16:47:51.820,-0.0001222546548117,-1.3756788225408767,2,NB
2025-05-30 16:47:51.828,-0.0001117527515377,-1.668885237924573,2,NB
2025-05-30 16:47:51.836,-0.0001007999167118,-1.956574623540278,2,NB
2025-05-30 16:47:51.843,-8.932941700244941e-05,-2.238445639636782,2,NB
2025-05-30 16:47:51.851,-7.730854087379318e-05,-2.514189210673608,2,NB
2025-05-30 16:47:51.859,-6.473995356902064e-05,-2.7834918102274115,2,NB
2025-05-30 16:47:51.867,-5.166101870665484e-05,-3.046044383891521,2,NB
2025-05-30 16:47:51.875,-3.814131304595439e-05,-3.301555810818231,2,NB
2025-05-30 16:47:51.882,-2.4278593088108573e-05,-3.5497694117114587,2,NB
2025-05-30 16:47:51.890,-1.0193485738890532e-05,-3.790480751843648,2,NB
2025-05-30 16:47:51.898,3.97679322564297e-06,-4.023554883705819,2,NB
2025-05-30 16:47:51.906,1.8085330121029787e-05,-4.248941236323671,2,NB
2025-05-30 16:47:51.914,3.198258876247335e-05,-4.46668458678945,2,NB
2025-05-30 16:47:51.921,4.552321447391627e-05,-4.6769309254065545,2,NB
2025-05-30 16:47:51.929,5.857213523280788e-05,-4.879927507434228,2,NB
2025-05-30 16:47:51.937,7.100961555474762e-05,-5.076016913959445,2,NB
2025-05-30 16:47:51.945,8.273504778902701e-05,-5.2656254611446345,2,NB
2025-05-30 16:47:51.953,9.366938688237716e-05,-5.44924674770884,2,NB
2025-05-30 16:47:51.961,0.0001037562090012,-5.627421474855465,2,NB
2025-05-30 16:47:51.968,0.0001129614131163,-5.80071488815148,2,NB
2025-05-30 16:47:51.976,0.0001212716315863,-5.969693274471123,2,NB
2025-05-30 16:47:51.984,0.0001286914933729,-6.134900914249224,2,NB
2025-05-30 16:47:51.992,0.000135239977231,-6.296838764314732,2,NB
2025-05-30 16:47:52.000,0.0001409461770456,-6.455945953867053,2,NB
2025-05-30 16:47:52.007,0.0001458448559077,-6.612584936161622,2,NB
2025-05-30 16:47:52.015,0.0001499721657762,-6.767030867717548,2,NB
2025-05-30 16:47:52.023,0.0001533618436034,-6.919465498077375,2,NB
2025-05-30 16:47:52.031,0.0001560420887118,-7.0699755555614,2,NB
2025-05-30 16:47:52.039,0.0001580332302513,-7.218555316716483,2,NB
2025-05-30 16:47:52.046,0.0001593462346903,-7.365112762209701,2,NB
2025-05-30 16:47:52.054,0.0001599820710977,-7.509478469429357,2,NB
2025-05-30 16:47:52.062,0.0001599319268324,-7.651416195419705,2,NB
2025-05-30 16:47:52.070,0.0001591782395794,-7.790633983444502,2,NB
2025-05-30 16:47:52.078,0.0001576964830831,-7.926794594216833,2,NB
2025-05-30 16:47:52.086,0.0001554576147649,-8.059524120037645,2,NB
2025-05-30 16:47:52.093,0.0001524310650673,-8.188417779075037,2,NB
2025-05-30 16:47:52.101,0.0001485881223001,-8.313042092582176,2,NB
2025-05-30 16:47:52.109,0.0001439055443955,-8.432932899813492,2,NB
2025-05-30 16:47:52.117,0.000138369211724,-8.547588944827929,2,NB
2025-05-30 16:47:52.125,0.0001319776242802,-8.6564610653733,2,NB
2025-05-30 16:47:52.132,0.0001247450433191,-8.758937324181565,2,NB
2025-05-30 16:47:52.140,0.0001167040829141,-8.854324746440314,2,NB
2025-05-30 16:47:52.148,0.0001079075717111,-8.94182865699368,2,NB
2025-05-30 16:47:52.156,9.84295299057554e-05,-9.020530931402986,2,NB
2025-05-30 16:47:52.164,8.836514137926517e-05,-9.089368765000566,2,NB
2025-05-30 16:47:52.171,7.782964588056343e-05,-9.147115799213408,2,NB
2025-05-30 16:47:52.179,6.695613061760561e-05,-9.192367598045395,2,NB
2025-05-30 16:47:52.187,5.5892263721177904e-05,-9.223533512756736,2,NB
2025-05-30 16:47:52.195,4.479608243279084e-05,-9.23883688764336,2,NB
2025-05-30 16:47:52.203,3.3831024801961024e-05,-9.236325331821575,2,NB
2025-05-30 16:47:52.211,2.3160471373655348e-05,-9.213892408053525,2,NB
2025-05-30 16:47:52.218,1.2942130582219536e-05,-9.169311575897304,2,NB
2025-05-30 16:47:52.226,3.322634866114264e-06,-9.100282589799807,2,NB
2025-05-30 16:47:52.234,-5.567302079266941e-06,-9.004489824818284,2,NB
2025-05-30 16:47:52.242,-1.361686967553933e-05,-8.879671229925572,2,NB
2025-05-30 16:47:52.250,-2.0738053189017037e-05,-8.723695845154499,2,NB
2025-05-30 16:47:52.257,-2.686726660543604e-05,-8.534647114813643,2,NB
2025-05-30 16:47:52.265,-3.1965623906712463e-05,-8.310908628051688,2,NB
2025-05-30 16:47:52.273,-3.601782017663307e-05,-8.051248460316188,2,NB
2025-05-30 16:47:52.281,-3.902969528193722e-05,-7.754898014800943,2,NB
2025-05-30 16:47:52.289,-4.10246945956112e-05,-7.4216212075845025,2,NB
2025-05-30 16:47:52.296,-4.2039593339439066e-05,-7.051770028012672,2,NB
2025-05-30 16:47:52.304,-4.211996357336292e-05,-6.646322945980463,2,NB
2025-05-30 16:47:52.312,-4.131590159133412e-05,-6.206903323706032,2,NB
2025-05-30 16:47:52.320,-3.9678486591975685e-05,-5.735775897043476,2,NB
2025-05-30 16:47:52.328,-3.725731966963731e-05,-5.235820472483438,2,NB
2025-05-30 16:47:52.336,-3.409932504676277e-05,-4.710483166890325,2,NB
2025-05-30 16:47:52.343,-3.0248814236624436e-05,-4.163706705448522,2,NB
2025-05-30 16:47:52.351,-2.5748645218303327e-05,-3.5998423946644595,2,NB
2025-05-30 16:47:52.359,-2.064218378013251e-05,-3.023547319968459,2,NB
2025-05-30 16:47:52.367,-1.4975720681187406e-05,-2.439671020427742,2,NB
2025-05-30 16:47:52.375,-8.801016822224416e-06,-1.8531363282241875,2,NB
2025-05-30 16:47:52.382,-2.1777062374171163e-06,-1.2688192142944654,2,NB
2025-05-30 16:47:52.390,4.82466396167528e-06,-0.6914323649309863,2,NB
2025-05-30 16:47:52.398,1.212516882654974e-05,-0.1254168587000121,2,NB
2025-05-30 16:47:52.406,1.963084992129508e-05,0.4251542371303887,2,NB
2025-05-30 16:47:52.414,2.723709975827758e-05,0.9566572269904366,2,NB
2025-05-30 16:47:52.421,3.48292320208267e-05,1.4659817710224388,2,NB
2025-05-30 16:47:52.429,4.2285218199632766e-05,1.9505759955213544,2,NB
2025-05-30 16:47:52.437,4.947939876302482e-05,2.408472069229024,2,NB
2025-05-30 16:47:52.445,5.6286871435627966e-05,2.8382923855761883,2,NB
2025-05-30 16:47:52.453,6.258823398551051e-05,3.2392372290045337,2,NB
2025-05-30 16:47:52.461,6.82743807001088e-05,3.611055459195406,2,NB
2025-05-30 16:47:52.468,7.325108871390025e-05,3.9540003040079488,2,NB
2025-05-30 16:47:52.476,7.744316996460636e-05,4.268772796464721,2,NB
2025-05-30 16:47:52.484,8.079800413657106e-05,4.556455713191561,2,NB
2025-05-30 16:47:52.492,8.328830669176699e-05,4.81844106434408,2,NB
2025-05-30 16:47:52.500,8.49140234059455e-05,5.0563542424136845,2,NB
2025-05-30 16:47:52.507,8.570327834084316e-05,5.271977855492185,2,NB
2025-05-30 16:47:52.515,8.571233569270793e-05,5.467178052267366,2,NB
2025-05-30 16:47:52.523,8.502456740588227e-05,5.643835805720712,2,NB
2025-05-30 16:47:52.531,8.374844787388621e-05,5.80378518784857,2,NB
2025-05-30 16:47:52.539,8.201462457450516e-05,5.948760175980016,2,NB
2025-05-30 16:47:52.546,7.997213921919136e-05,6.080351023989889,2,NB
2025-05-30 16:47:52.554,7.77838980311441e-05,6.199970749371658,2,NB
2025-05-30 16:47:52.562,7.562151212325285e-05,6.308831861724509,2,NB
2025-05-30 16:47:52.570,7.36596495482862e-05,6.407933105425671,2,NB
2025-05-30 16:47:52.578,7.207005923527606e-05,6.498055706675237,2,NB
2025-05-30 16:47:52.586,7.101544336341321e-05,6.579768389382825,2,NB
2025-05-30 16:47:52.593,7.064336826884797e-05,6.6534402429897455,2,NB
2025-05-30 16:47:52.601,7.10804141047331e-05,6.719260383837499,2,NB
2025-05-30 16:47:52.609,7.242676943775503e-05,6.777263250773535,2,NB
2025-05-30 16:47:52.617,7.47514779366507e-05,6.827358311873954,2,NB
2025-05-30 16:47:52.625,7.808853941756665e-05,6.869362919977881,2,NB
2025-05-30 16:47:52.632,8.24340558932284e-05,6.903037023657643,2,NB
2025-05-30 16:47:52.640,8.774459413025277e-05,6.928118406357465,2,NB
2025-05-30 16:47:52.648,9.393690888501158e-05,6.944357090581277,2,NB
2025-05-30 16:47:52.656,0.000100889134994,6.95154751980191,2,NB
2025-05-30 16:47:52.664,0.0001084435116346,6.949557141956203,2,NB
2025-05-30 16:47:52.671,0.0001164106484613,6.938350092908786,2,NB
2025-05-30 16:47:52.679,0.000124575281469,6.918004839081362,2,NB
2025-05-30 16:47:52.687,0.0001327033972428,6.888724894715636,2,NB
2025-05-30 16:47:52.695,0.000140550529115,6.850842072206936,2,NB
2025-05-30 16:47:52.703,0.0001478709494885,6.80481212952448,2,NB
2025-05-30 16:47:52.711,0.0001544274015047,6.751203114882465,2,NB
2025-05-30 16:47:52.718,0.0001600009330632,6.6906771423407045,2,NB
2025-05-30 16:47:52.726,0.0001644003216707,6.623966731051351,2,NB
2025-05-30 16:47:52.734,0.0001674705244426,6.55184717623787,2,NB
2025-05-30 16:47:52.742,0.0001690995877177,6.475106668674824,2,NB
2025-05-30 16:47:52.750,0.0001692235406956,6.394516027105128,2,NB
2025-05-30 16:47:52.757,0.0001678289674079,6.310799947323464,2,NB
2025-05-30 16:47:52.765,0.0001649531381709,6.22461159958121,2,NB
2025-05-30 16:47:52.773,0.0001606817350178,6.136512224476802,2,NB
2025-05-30 16:47:52.781,0.0001551443350142,6.046957095431434,2,NB
2025-05-30 16:47:52.789,0.0001485079508536,5.956288848074897,2,NB
2025-05-30 16:47:52.796,0.0001409690651922,5.864738740616174,2,NB
2025-05-30 16:47:52.804,0.0001327446965117,5.77243592215229,2,NB
2025-05-30 16:47:52.812,0.000124063066879,5.679424267824575,2,NB
2025-05-30 16:47:52.820,0.0001151544043397,5.585685816502169,2,NB
2025-05-30 16:47:52.828,0.0001062423300677,5.491169350740183,2,NB
2025-05-30 16:47:52.836,9.75361793296061e-05,5.395822226329539,2,NB
2025-05-30 16:47:52.843,8.922449960798435e-05,5.299623224704317,2,NB
2025-05-30 16:47:52.851,8.146986434234309e-05,5.202613995101984,2,NB
2025-05-30 16:47:52.859,7.440504014955889e-05,5.10492659577527,2,NB
2025-05-30 16:47:52.867,6.813045377072656e-05,5.006804745804058,2,NB
2025-05-30 16:47:52.875,6.271283461322564e-05,4.908616660594364,2,NB
2025-05-30 16:47:52.882,5.818488231569832e-05,4.810857752094838,2,NB
2025-05-30 16:47:52.890,5.454583902505418e-05,4.714142006230864,2,NB
2025-05-30 16:47:52.898,5.1762907783965535e-05,4.619181477248665,2,NB
2025-05-30 16:47:52.906,4.977350233070768e-05,4.526754031644173,2,NB
2025-05-30 16:47:52.914,4.8488313932219874e-05,4.437660199350484,2,NB
2025-05-30 16:47:52.921,4.779514934067542e-05,4.352670707804223,2,NB
2025-05-30 16:47:52.929,4.7563451757336345e-05,4.272466943092274,2,NB
2025-05-30 16:47:52.937,4.764937410624402e-05,4.197577159486765,2,NB
2025-05-30 16:47:52.945,4.790123327569374e-05,4.128311705932316,2,NB
2025-05-30 16:47:52.953,4.816513605222883e-05,4.064700825417304,2,NB
2025-05-30 16:47:52.961,4.829053474931057e-05,4.0064386938435925,2,NB
2025-05-30 16:47:52.968,4.8135453680046654e-05,3.952837296913562,2,NB
2025-05-30 16:47:52.976,4.757114830722117e-05,3.9027935042032977,2,NB
2025-05-30 16:47:52.984,4.648602943722712e-05,3.854772297568756,2,NB
2025-05-30 16:47:52.992,4.478878002888308e-05,3.8068085520004207,2,NB
2025-05-30 16:47:53.000,4.24106633585138e-05,3.7565290577163415,2,NB
2025-05-30 16:47:53.007,3.930704358242736e-05,3.701195626838559,2,NB
2025-05-30 16:47:53.015,3.5458126142801294e-05,3.6377691703661967,2,NB
2025-05-30 16:47:53.023,3.086890020809002e-05,3.5629935935281427,2,NB
2025-05-30 16:47:53.031,2.556824993202298e-05,3.47349728010448,2,NB
2025-05-30 16:47:53.039,1.960722016549357e-05,3.36590887033108,2,NB
2025-05-30 16:47:53.046,1.3056488679686128e-05,3.2369830487727573,2,NB
2025-05-30 16:47:53.054,6.003186611671176e-06,3.083731226700688,2,NB
2025-05-30 16:47:53.062,-1.452726359748328e-06,2.903551408101628,2,NB
2025-05-30 16:47:53.070,-9.2023101197593e-06,2.694351237037402,2,NB
2025-05-30 16:47:53.078,-1.7131514257139794e-05,2.4546582821396146,2,NB
2025-05-30 16:47:53.086,-2.5124903478234032e-05,2.183712040083322,2,NB
2025-05-30 16:47:53.093,-3.30691083254338e-05,1.8815329213762049,2,NB
2025-05-30 16:47:53.101,-4.085590709979769e-05,1.5489645720077423,2,NB
2025-05-30 16:47:53.109,-4.838487845048234e-05,1.1876872047369438,2,NB
2025-05-30 16:47:53.117,-5.556559420823855e-05,0.8002010624546649,2,NB
2025-05-30 16:47:53.125,-6.231934783172346e-05,0.3897806020499433,2,NB
2025-05-30 16:47:53.132,-6.858043470878784e-05,-0.0395986361474984,2,NB
2025-05-30 16:47:53.140,-7.429701619646013e-05,-0.4833573119939177,2,NB
2025-05-30 16:47:53.148,-7.943160965226142e-05,-0.9364296115236538,2,NB
2025-05-30 16:47:53.156,-8.396125202045938e-05,-1.3933958375765387,2,NB
2025-05-30 16:47:53.164,-8.787738523464088e-05,-1.8486251062188412,2,NB
2025-05-30 16:47:53.171,-9.118550842493888e-05,-2.296422875329045,2,NB
2025-05-30 16:47:53.179,-9.390463547650403e-05,-2.731178152064538,2,NB
2025-05-30 16:47:53.187,-9.606658779510916e-05,-3.1475055443440723,2,NB
2025-05-30 16:47:53.195,-9.77151421886504e-05,-3.54037779564119,2,NB
2025-05-30 16:47:53.203,-9.89050435889462e-05,-3.905245027543959,2,NB
2025-05-30 16:47:53.211,-9.970088291642808e-05,-4.238137570662014,2,NB
2025-05-30 16:47:53.218,-0.0001001758326669,-4.5357499616030506,2,NB
2025-05-30 16:47:53.226,-0.0001004102276049,-4.795504400548944,2,NB
2025-05-30 16:47:53.234,-0.0001004899759681,-5.015592681637078,2,NB
2025-05-30 16:47:53.242,-0.0001005047883348,-5.194996306806703,2,NB
2025-05-30 16:47:53.250,-0.0001005462170859,-5.333485153267324,2,NB
2025-05-30 16:47:53.257,-0.0001007055092956,-5.431595669341286,2,NB
2025-05-30 16:47:53.265,-0.0001010712897596,-5.490590111161663,2,NB
2025-05-30 16:47:53.273,-0.0001017271083332,-5.512398792816737,2,NB
2025-05-30 16:47:53.281,-0.0001027489061942,-5.4995476943958375,2,NB
2025-05-30 16:47:53.289,-0.0001042024782204,-5.4550740479073,2,NB
2025-05-30 16:47:53.296,-0.0001061410323681,-5.382432696809692,2,NB
2025-05-30 16:47:53.304,-0.0001086029705492,-5.285396101875692,2,NB
2025-05-30 16:47:53.312,-0.0001116100377225,-5.167950849972492,2,NB
2025-05-30 16:47:53.320,-0.0001151660037125,-5.034193426649364,2,NB
2025-05-30 16:47:53.328,-0.0001192560445382,-4.8882278609399,2,NB
2025-05-30 16:47:53.336,-0.0001238469547816,-4.734067667318728,2,NB
2025-05-30 16:47:53.343,-0.0001288882372556,-4.57554431316637,2,NB
2025-05-30 16:47:53.351,-0.0001343140061435,-4.416224234430627,2,NB
2025-05-30 16:47:53.359,-0.0001400455537968,-4.259336201357774,2,NB
2025-05-30 16:47:53.367,-0.0001459943947562,-4.107710591314537,2,NB
2025-05-30 16:47:53.375,-0.0001520656009568,-3.9637318486249167,2,NB
2025-05-30 16:47:53.382,-0.0001581612577058,-3.829305093819873,2,NB
2025-05-30 16:47:53.390,-0.0001641838900028,-3.7058374787545754,2,NB
2025-05-30 16:47:53.398,-0.0001700397304085,-3.594234466215243,2,NB
2025-05-30 16:47:53.406,-0.0001756417219233,-3.494910749830045,2,NB
2025-05-30 16:47:53.414,-0.0001809121713704,-3.4078150415402497,2,NB
2025-05-30 16:47:53.421,-0.0001857849898433,-3.33246746730402,2,NB
2025-05-30 16:47:53.429,-0.0001902074763426,-3.2680078580396867,2,NB
2025-05-30 16:47:53.437,-0.0001941416183743,-3.213252833494073,2,NB
2025-05-30 16:47:53.445,-0.0001975648988123,-3.166759281099139,2,NB
2025-05-30 16:47:53.453,-0.0002004706116368,-3.1268916517800878,2,NB
2025-05-30 16:47:53.461,-0.0002028677003343,-3.091890439809527,2,NB
2025-05-30 16:47:53.468,-0.0002047801419227,-3.0599392831801016,2,NB
2025-05-30 16:47:53.476,-0.0002062459070362,-3.0292283079856235,2,NB
2025-05-30 16:47:53.484,-0.0002073155325522,-2.9980116354039894,2,NB
2025-05-30 16:47:53.492,-0.0002080503482279,-2.9646573596056087,2,NB
2025-05-30 16:47:53.500,-0.000208520403067,-2.9276887700455982,2,NB
2025-05-30 16:47:53.507,-0.000208802140973,-2.885816106400616,2,NB
2025-05-30 16:47:53.515,-0.000208975878911,-2.837958667956573,2,NB
2025-05-30 16:47:53.523,-0.0002091231444863,-2.7832576181989186,2,NB
2025-05-30 16:47:53.531,-0.0002093239336319,-2.7210802962566247,2,NB
2025-05-30 16:47:53.539,-0.0002096539529696,-2.651017238533344,2,NB
2025-05-30 16:47:53.546,-0.0002101819152396,-2.572873401414723,2,NB
2025-05-30 16:47:53.554,-0.0002109669597621,-2.486655243686966,2,NB
2025-05-30 16:47:53.562,-0.0002120562728602,-2.392555367253568,2,NB
2025-05-30 16:47:53.570,-0.0002134829851395,-2.2909363237437166,2,NB
2025-05-30 16:47:53.578,-0.0002152644229949,-2.1823149768200447,2,NB
2025-05-30 16:47:53.586,-0.000217400790207,-2.067348483857568,2,NB
2025-05-30 16:47:53.593,-0.0002198743514588,-1.94682256144303,2,NB
2025-05-30 16:47:53.601,-0.0002226491825668,-1.8216422718430272,2,NB
2025-05-30 16:47:53.609,-0.0002256715417427,-1.6928251553967308,2,NB
2025-05-30 16:47:53.617,-0.000228870901931,-1.5614961706792103,2,NB
2025-05-30 16:47:53.625,-0.0002321616660145,-1.428883614460599,2,NB
2025-05-30 16:47:53.632,-0.0002354455643721,-1.2963149930565152,2,NB
2025-05-30 16:47:53.640,-0.0002386147080678,-1.165211713457036,2,NB
2025-05-30 16:47:53.648,-0.0002415552411843,-1.0370814562562705,2,NB
2025-05-30 16:47:53.656,-0.0002441515030636,-0.913507177687191,2,NB
2025-05-30 16:47:53.664,-0.0002462905762797,-0.796131858946369,2,NB
2025-05-30 16:47:53.671,-0.0002478670600696,-0.6866383700315194,2,NB
2025-05-30 16:47:53.679,-0.0002487878729188,-0.586724129595046,2,NB
2025-05-30 16:47:53.687,-0.0002489768534564,-0.4980706015515478,2,NB
2025-05-30 16:47:53.695,-0.0002483788973241,-0.4223080485895744,2,NB
2025-05-30 16:47:53.703,-0.0002469633425415,-0.3609763374018122,2,NB
2025-05-30 16:47:53.711,-0.0002447263084846,-0.3154829363200806,2,NB
2025-05-30 16:47:53.718,-0.0002416917262286,-0.28705953803797,2,NB
2025-05-30 16:47:53.726,-0.0002379108834598,-0.2767189531893064,2,NB
2025-05-30 16:47:53.734,-0.0002334604221527,-0.2852140364431992,2,NB
2025-05-30 16:47:53.742,-0.0002284388327435,-0.3130004200633456,2,NB
2025-05-30 16:47:53.750,-0.0002229615801646,-0.3602047467917538,2,NB
2025-05-30 16:47:53.757,-0.0002171550984747,-0.4265999261508152,2,NB
2025-05-30 16:47:53.765,-0.0002111499974381,-0.5115886997767122,2,NB
2025-05-30 16:47:53.773,-0.0002050738971856,-0.6141965104305097,2,NB
2025-05-30 16:47:53.781,-0.0001990443226429,-0.7330743493566978,2,NB
2025-05-30 16:47:53.789,-0.0001931620604222,-0.866511930646856,2,NB
2025-05-30 16:47:53.796,-0.0001875053295527,-1.0124612222661595,2,NB
2025-05-30 16:47:53.804,-0.0001821250551825,-1.1685700509048582,2,NB
2025-05-30 16:47:53.812,-0.000177041464605,-1.3322251845657491,2,NB
2025-05-30 16:47:53.820,-0.0001722421494721,-1.5006039796193766,2,NB
2025-05-30 16:47:53.828,-0.0001676816586907,-1.670733364425662,2,NB
2025-05-30 16:47:53.836,-0.0001632826051482,-1.8395546339625792,2,NB
2025-05-30 16:47:53.843,-0.0001589381895912,-2.0039922673526034,2,NB
2025-05-30 16:47:53.851,-0.000154515978313,-2.16102477164952,2,NB
2025-05-30 16:47:53.859,-0.0001498627403487,-2.307755418214084,2,NB
2025-05-30 16:47:53.867,-0.0001448101677802,-2.4414806855771527,2,NB
2025-05-30 16:47:53.875,-0.0001391813451667,-2.559754261220689,2,NB
2025-05-30 16:47:53.882,-0.0001327978531426,-2.660444583292048,2,NB
2025-05-30 16:47:53.890,-0.0001254873628785,-2.741784114279755,2,NB
2025-05-30 16:47:53.898,-0.0001170915162335,-2.802408818190115,2,NB
2025-05-30 16:47:53.906,-0.0001074738146168,-2.8413866413975644,2,NB
2025-05-30 16:47:53.914,-9.652717064992268e-05,-2.8582341534081417,2,NB
2025-05-30 16:47:53.921,-8.418071723271624e-05,-2.8529208685990968,2,NB
2025-05-30 16:47:53.929,-7.040543153683277e-05,-2.825861132000952,2,NB
2025-05-30 16:47:53.937,-5.521814222459035e-05,-2.777893806425496,2,NB
2025-05-30 16:47:53.945,-3.868357068797456e-05,-2.710250342384311,2,NB
2025-05-30 16:47:53.953,-2.0914208234392196e-05,-2.6245121433915743,2,NB
2025-05-30 16:47:53.961,-2.0680144277771327e-06,-2.522558454066267,2,NB
2025-05-30 16:47:53.968,1.7655913459517702e-05,-2.4065062942996227,2,NB
2025-05-30 16:47:53.976,3.802344070221333e-05,-2.278644236063073,2,NB
2025-05-30 16:47:53.984,5.877295626052924e-05,-2.141362061535736,2,NB
2025-05-30 16:47:53.992,7.962407350012506e-05,-1.9970785366114416,2,NB
2025-05-30 16:47:54.000,0.0001002871503242,-1.84816966394515,2,NB
2025-05-30 16:47:54.007,0.0001204733125794,-1.6968998285710482,2,NB
2025-05-30 16:47:54.015,0.0001399046692372,-1.5453582055940822,2,NB
2025-05-30 16:47:54.023,0.0001583244128398,-1.3954026561631605,2,NB
2025-05-30 16:47:54.031,0.0001755065041778,-1.2486130914677929,2,NB
2025-05-30 16:47:54.039,0.0001912646466823,-1.10625593787886,2,NB
2025-05-30 16:47:54.046,0.0002054602644772,-0.9692609010676329,2,NB
2025-05-30 16:47:54.054,0.0002180092096619,-0.8382107227698996,2,NB
2025-05-30 16:47:54.062,0.0002288869406154,-0.713344077702004,2,NB
2025-05-30 16:47:54.070,0.0002381319354969,-0.5945712027823449,2,NB
2025-05-30 16:47:54.078,0.0002458471352556,-0.4815013227079883,2,NB
2025-05-30 16:47:54.086,0.0002521992498099,-0.3734804700046258,2,NB
2025-05-30 16:47:54.093,0.0002574158108886,-0.2696379202625821,2,NB
2025-05-30 16:47:54.101,0.0002617799162036,-0.168939188181587,2,NB
2025-05-30 16:47:54.109,0.0002656226825949,-0.0702433604038682,2,NB
2025-05-30 16:47:54.117,0.0002693135103701,0.0276375265438405,2,NB
2025-05-30 16:47:54.125,0.000273248356448,0.1258793292786028,2,NB
2025-05-30 16:47:54.132,0.0002778363169241,0.2255890235545846,2,NB
2025-05-30 16:47:54.140,0.0002834849183133,0.3277523120271454,2,NB
2025-05-30 16:47:54.148,0.0002905845873147,0.4331874089161034,2,NB
2025-05-30 16:47:54.156,0.000299492796503,0.542506563920426,2,NB
2025-05-30 16:47:54.164,0.0003105183881494,0.6560866265783366,2,NB
2025-05-30 16:47:54.171,0.0003239065939585,0.7740496548802055,2,NB
2025-05-30 16:47:54.179,0.0003398252851429,0.896254228985105,2,NB
2025-05-30 16:47:54.187,0.0003583529539278,1.0222977398897424,2,NB
2025-05-30 16:47:54.195,0.0003794688223634,1.1515294938831502,2,NB
2025-05-30 16:47:54.203,0.0004030453362151,1.2830740298929677,2,NB
2025-05-30 16:47:54.211,0.0004288431869164,1.4158636204695827,2,NB
2025-05-30 16:47:54.218,0.0004565089470745,1.5486785502724032,2,NB
2025-05-30 16:47:54.226,0.0004855754153098,1.6801934610279443,2,NB
2025-05-30 16:47:54.234,0.0005154648326344,1.809027827548399,2,NB
2025-05-30 16:47:54.242,0.0005454952235129,1.933798484576759,2,NB
2025-05-30 16:47:54.250,0.0005748901896925,2.053172057241576,2,NB
2025-05-30 16:47:54.257,0.0006027924960749,2.1659151607312324,2,NB
2025-05-30 16:47:54.265,0.0006282816872103,2.270940331249053,2,NB
2025-05-30 16:47:54.273,0.0006503957496215,2.3673458329904817,2,NB
2025-05-30 16:47:54.281,0.0006681565423038,2.4544477547731383,2,NB
2025-05-30 16:47:54.289,0.0006805984347768,2.531803159909773,2,NB
2025-05-30 16:47:54.296,0.00068679936318,2.599223469528708,2,NB
2025-05-30 16:47:54.304,0.0006859133393285,2.6567777183775423,2,NB
2025-05-30 16:47:54.312,0.0006772033123911,2.704785794348086,2,NB
2025-05-30 16:47:54.320,0.0006600731778925,2.743802232721832,2,NB
2025-05-30 16:47:54.328,0.000634097641014,2.774591562826369,2,NB
2025-05-30 16:47:54.336,0.0005990485680899,2.798096578370352,2,NB
2025-05-30 16:47:54.343,0.0005549164340674,2.8154011986512626,2,NB
2025-05-30 16:47:54.351,0.0005019255409041,2.8276897792245466,2,NB
2025-05-30 16:47:54.359,0.0004405418504276,2.836204798048536,2,NB
2025-05-30 16:47:54.367,0.0003714725142616,2.842204783579048,2,NB
2025-05-30 16:47:54.375,0.0002956564746903,2.846924178962072,2,NB
2025-05-30 16:47:54.382,0.0002142458678206,2.851536577495732,2,NB
2025-05-30 16:47:54.390,0.000128578403593,2.857122451919301,2,NB
2025-05-30 16:47:54.398,4.014142705197788e-05,2.8646421694154465,2,NB
2025-05-30 16:47:54.406,-4.947104925512355e-05,2.8749147673344995,2,NB
2025-05-30 16:47:54.414,-0.0001386064894155,2.8886026826567868,2,NB
2025-05-30 16:47:54.421,-0.0002256048702414,2.906202388893288,2,NB
2025-05-30 16:47:54.429,-0.0003088500929618,2.9280406967896355,2,NB
2025-05-30 16:47:54.437,-0.0003868192276986,2.954276318642412,2,NB
2025-05-30 16:47:54.445,-0.0004581272148835,2.984906181636637,2,NB
2025-05-30 16:47:54.453,-0.0005215650077609,3.0197759031260034,2,NB
2025-05-30 16:47:54.461,-0.000576129661774,3.058593804156826,2,NB
2025-05-30 16:47:54.468,-0.0006210454758602,3.1009478270180546,2,NB
2025-05-30 16:47:54.476,-0.0006557758758832,3.14632472878384,2,NB
2025-05-30 16:47:54.484,-0.0006800262462717,3.194130936504642,2,NB
2025-05-30 16:47:54.492,-0.0006937383417853,3.2437144598596017,2,NB
2025-05-30 16:47:54.500,-0.0006970772421135,3.2943872527310054,2,NB
2025-05-30 16:47:54.507,-0.0006904120481686,3.3454473911106835,2,NB
2025-05-30 16:47:54.515,-0.0006742916643749,3.396200395601668,2,NB
2025-05-30 16:47:54.523,-0.0006494170728957,3.445978985236088,2,NB
2025-05-30 16:47:54.531,-0.0006166114928972,3.4941605210179847,2,NB
2025-05-30 16:47:54.539,-0.0005767897418204,3.5401813981806742,2,NB
2025-05-30 16:47:54.547,-0.0005309279886479,3.583547691839354,2,NB
2025-05-30 16:47:54.554,-0.0004800349244463,3.623841466954856,2,NB
2025-05-30 16:47:54.562,-0.0004251251862807,3.66072233902281,2,NB
2025-05-30 16:47:54.570,-0.0003671956698032,3.6939241126870535,2,NB
2025-05-30 16:47:54.578,-0.0003072051654421,3.723246614152203,2,NB
2025-05-30 16:47:54.586,-0.0002460575639583,3.748543143622315,2,NB
2025-05-30 16:47:54.593,-0.0001845887068018,3.769704276870592,2,NB
2025-05-30 16:47:54.601,-0.0001235568029592,3.786639012076275,2,NB
2025-05-30 16:47:54.609,-6.36361816934274e-05,3.7992544636293215,2,NB
2025-05-30 16:47:54.617,-5.413991962947647e-06,3.807435428828441,2,NB
2025-05-30 16:47:54.625,5.061067794863782e-05,3.8110251864466944,2,NB
2025-05-30 16:47:54.632,0.0001040258538268,3.809808829478021,2,NB
2025-05-30 16:47:54.640,0.0001545044697466,3.803500296005753,2,NB
2025-05-30 16:47:54.648,0.00020180137936,3.791734051026122,2,NB
2025-05-30 16:47:54.656,0.0002457499510915,3.7740620985678497,2,NB
2025-05-30 16:47:54.664,0.0002862585180716,3.749956682680062,2,NB
2025-05-30 16:47:54.672,0.0003233068659985,3.71881868726501,2,NB
2025-05-30 16:47:54.679,0.0003569428462041,3.679991389140323,2,NB
2025-05-30 16:47:54.687,0.0003872791034731,3.6327788781545776,2,NB
2025-05-30 16:47:54.695,0.0004144898282179,3.5764681574661976,2,NB
2025-05-30 16:47:54.703,0.0004388073847292,3.510353701384034,2,NB
2025-05-30 16:47:54.711,0.0004605186234551,3.433763095652377,2,NB
2025-05-30 16:47:54.718,0.0004799606535994,3.3460823216718087,2,NB
2025-05-30 16:47:54.726,0.0004975158432472,3.2467792685453287,2,NB
2025-05-30 16:47:54.734,0.0005136058421287,3.1354241608518225,2,NB
2025-05-30 16:47:54.742,0.0005286844786865,3.0117057747525164,2,NB
2025-05-30 16:47:54.750,0.0005432294245726,2.8754425783360227,2,NB
2025-05-30 16:47:54.757,0.0005577325108133,2.726588264334989,2,NB
2025-05-30 16:47:54.765,0.0005726885456492,2.5652315262975214,2,NB
2025-05-30 16:47:54.773,0.0005885824859408,2.391590340004884,2,NB
2025-05-30 16:47:54.781,0.0006058748841339,2.206001425174722,2,NB
2025-05-30 16:47:54.789,0.0006249856595018,2.008905949407046,2,NB
2025-05-30 16:47:54.797,0.0006462764098925,1.8008328634163642,2,NB
2025-05-30 16:47:54.804,0.0006700316933562,1.5823814895736077,2,NB
2025-05-30 16:47:54.812,0.0006964399687088,1.3542050955051494,2,NB
2025-05-30 16:47:54.820,0.000725575146483,1.1169971491272468,2,NB
2025-05-30 16:47:54.828,0.0007573798864316,0.8714817563800963,2,NB
2025-05-30 16:47:54.836,0.0007916518294892,0.6184094256176813,2,NB
2025-05-30 16:47:54.843,0.0008280338785558,0.3585588032160776,2,NB
2025-05-30 16:47:54.851,0.0008660094865296,0.092744430639305,2,NB
2025-05-30 16:47:54.859,0.0009049037058379,-0.1781700509004559,2,NB
2025-05-30 16:47:54.867,0.0009438905159141,-0.4532544089331021,2,NB
2025-05-30 16:47:54.875,0.0009820066796547,-0.7314916948970951,2,NB
2025-05-30 16:47:54.882,0.0010181720925256,-1.011757495775991,2,NB
2025-05-30 16:47:54.890,0.0010512162856097,-1.2928007648004385,2,NB
2025-05-30 16:47:54.898,0.0010799104347466,-1.5732284527622296,2,NB
2025-05-30 16:47:54.906,0.0011030039231944,-1.8514960123137945,2,NB
2025-05-30 16:47:54.914,0.001119264226958,-2.1259055479368056,2,NB
2025-05-30 16:47:54.922,0.0011275186821005,-2.3946129585297102,2,NB
2025-05-30 16:47:54.929,0.0011266965962557,-2.6556448979820546,2,NB
2025-05-30 16:47:54.937,0.0011158701799339,-2.9069257986390475,2,NB
2025-05-30 16:47:54.945,0.0010942928338123,-3.1463146042129035,2,NB
2025-05-30 16:47:54.953,0.0010614333727331,-3.371650280665421,2,NB
2025-05-30 16:47:54.961,0.001017004793223,-3.580804646410748,2,NB
2025-05-30 16:47:54.968,0.0009609862428474,-3.771740610616346,2,NB
2025-05-30 16:47:54.976,0.0008936369676264,-3.942573550961319,2,NB
2025-05-30 16:47:54.984,0.0008155012165246,-4.091633318085472,2,NB
2025-05-30 16:47:54.992,0.0007274033677758,-4.217524235174639,2,NB
2025-05-30 16:47:55.000,0.0006304328929169,-4.319180469716115,2,NB
2025-05-30 16:47:55.007,0.0005259191773344,-4.395914283536865,2,NB
2025-05-30 16:47:55.015,0.0004153966810331,-4.447454905932226,2,NB
2025-05-30 16:47:55.023,0.000300561457159,-4.473976110699029,2,NB
2025-05-30 16:47:55.031,0.000183220605982,-4.47611099587196,2,NB
2025-05-30 16:47:55.039,6.523674746753392e-05,-4.454952945688407,2,NB
2025-05-30 16:47:55.047,-5.153002194857072e-05,-4.412042277373245,2,NB
2025-05-30 16:47:55.054,-0.0001652800031516,-4.349338621847245,2,NB
2025-05-30 16:47:55.062,-0.0002743288866544,-4.269179638107028,2,NB
2025-05-30 16:47:55.070,-0.0003771573313484,-4.174227191325433,2,NB
2025-05-30 16:47:55.078,-0.0004724529575903,-4.0674026047567615,2,NB
2025-05-30 16:47:55.086,-0.0005591430671007,-3.951812997329984,2,NB
2025-05-30 16:47:55.093,-0.0006364169667337,-3.830671024893306,2,NB
2025-05-30 16:47:55.101,-0.0007037373852766,-3.7072105479230335,2,NB
2025-05-30 16:47:55.109,-0.0007608410848036,-3.58460085387842,2,NB
2025-05-30 16:47:55.117,-0.0008077293233721,-3.465862073265519,2,NB
2025-05-30 16:47:55.125,-0.0008446492841802,-3.3537843517645545,2,NB
2025-05-30 16:47:55.132,-0.0008720679329802,-3.2508531835620715,2,NB
2025-05-30 16:47:55.140,-0.0008906399996535,-3.159183078581386,2,NB
2025-05-30 16:47:55.148,-0.0009011719057502,-3.08046143324612,2,NB
2025-05-30 16:47:55.156,-0.000904583485006,-3.015904109938872,2,NB
2025-05-30 16:47:55.164,-0.0009018692784375,-2.9662238239327627,2,NB
2025-05-30 16:47:55.172,-0.0008940610416721,-2.9316120186131496,2,NB
2025-05-30 16:47:55.179,-0.000882192893202,-2.911734513557128,2,NB
2025-05-30 16:47:55.187,-0.0008672702726453,-2.905740859543254,2,NB
2025-05-30 16:47:55.195,-0.0008502435826073,-2.9122870372102376,2,NB
2025-05-30 16:47:55.203,-0.0008319870726148,-2.9295708842369765,2,NB
2025-05-30 16:47:55.211,-0.0008132832126688,-2.955379413395392,2,NB
2025-05-30 16:47:55.218,-0.0007948125310513,-2.9871469726301303,2,NB
2025-05-30 16:47:55.226,-0.0007771486793937,-3.0220229852252305,2,NB
2025-05-30 16:47:55.234,-0.0007607583219716,-3.056947790150161,2,NB
2025-05-30 16:47:55.242,-0.0007460052865737,-3.0887348882777603,2,NB
2025-05-30 16:47:55.250,-0.0007331582522205,-3.1141577049320928,2,NB
2025-05-30 16:47:55.257,-0.0007224011242855,-3.1300388187251595,2,NB
2025-05-30 16:47:55.265,-0.0007138452066671,-3.1333394906662475,2,NB
2025-05-30 16:47:55.273,-0.0007075423310755,-3.121247258548097,2,NB
2025-05-30 16:47:55.281,-0.0007034982103473,-3.09125933669085,2,NB
2025-05-30 16:47:55.289,-0.0007016853961371,-3.0412595752703084,2,NB
2025-05-30 16:47:55.297,-0.000702055312677,-2.9695867839718564,2,NB
2025-05-30 16:47:55.304,-0.0007045489222981,-2.875092315922905,2,NB
2025-05-30 16:47:55.312,-0.0007091056866434,-2.757184953553725,2,NB
2025-05-30 16:47:55.320,-0.0007156706150557,-2.6158613586614683,2,NB
2025-05-30 16:47:55.328,-0.0007241992972613,-2.4517206633952777,2,NB
2025-05-30 16:47:55.336,-0.0007346608756074,-2.265962194713774,2,NB
2025-05-30 16:47:55.343,-0.0007470389348911,-2.060365833283314,2,NB
2025-05-30 16:47:55.351,-0.000761330305145,-1.8372550860032448,2,NB
2025-05-30 16:47:55.359,-0.0007775418147368,-1.5994435682070438,2,NB
2025-05-30 16:47:55.367,-0.0007956851123575,-1.3501662112141304,2,NB
2025-05-30 16:47:55.375,-0.0008157697805982,-1.092997095418745,2,NB
2025-05-30 16:47:55.382,-0.0008377950622051,-0.8317563244411283,2,NB
2025-05-30 16:47:55.390,-0.0008617405988089,-0.5704087784316407,2,NB
2025-05-30 16:47:55.398,-0.0008875566276395,-0.3129579012292715,2,NB
2025-05-30 16:47:55.406,-0.0009151540692285,-0.0633378772031314,2,NB
2025-05-30 16:47:55.414,-0.0009443948663949,0.1746923709602688,2,NB
2025-05-30 16:47:55.422,-0.0009750828508777,0.3976499905065618,2,NB
2025-05-30 16:47:55.429,-0.0010069553876372,0.6024206324746401,2,NB
2025-05-30 16:47:55.437,-0.0010396761103865,0.7863396500514375,2,NB
2025-05-30 16:47:55.445,-0.0010728291887976,0.94725963336007,2,NB
2025-05-30 16:47:55.453,-0.0011059156964399,1.0836023826737955,2,NB
2025-05-30 16:47:55.461,-0.0011383527188282,1.1943940259436554,2,NB
2025-05-30 16:47:55.468,-0.0011694758228577,1.2792826322920716,2,NB
2025-05-30 16:47:55.476,-0.0011985454116052,1.3385383236653836,2,NB
2025-05-30 16:47:55.484,-0.0012247573292846,1.3730365086085756,2,NB
2025-05-30 16:47:55.492,-0.0012472578540598,1.384225430342537,2,NB
2025-05-30 16:47:55.500,-0.0012651629266496,1.374079716766077,2,NB
2025-05-30 16:47:55.507,-0.0012775811688299,1.3450420229067883,2,NB
2025-05-30 16:47:55.515,-0.0012836400190078,1.2999551458193557,2,NB
2025-05-30 16:47:55.523,-0.0012825141708553,1.241987151308283,2,NB
2025-05-30 16:47:55.531,-0.0012734554182094,1.1745520731864258,2,NB
2025-05-30 16:47:55.539,-0.0012558229500975,1.1012286298077916,2,NB
2025-05-30 16:47:55.547,-0.0012291130675559,1.0256791578669433,2,NB
2025-05-30 16:47:55.554,-0.0011929871727092,0.9515706085415088,2,NB
2025-05-30 16:47:55.562,-0.0011472967115761,0.8824990178894275,2,NB
2025-05-30 16:47:55.570,-0.0010921036061741,0.8219183959824928,2,NB
2025-05-30 16:47:55.578,-0.0010276946940683,0.7730745268127096,2,NB
2025-05-30 16:47:55.586,-0.0009545888603443,0.7389437809570186,2,NB
2025-05-30 16:47:55.593,-0.0008735358613431,0.7221767574039218,2,NB
2025-05-30 16:47:55.601,-0.0007855062220626,0.7250464242556486,2,NB
2025-05-30 16:47:55.609,-0.000691672003681,0.7494004418369832,2,NB
2025-05-30 16:47:55.617,-0.0005933787051331,0.796617527383135,2,NB
2025-05-30 16:47:55.625,-0.0004921090964724,0.8675680345142202,2,NB
2025-05-30 16:47:55.632,-0.0003894403461214,0.96257932785668,2,NB
2025-05-30 16:47:55.640,-0.0002869963296869,1.0814069742348749,2,NB
2025-05-30 16:47:55.648,-0.0001863974071301,1.223213182118134,2,NB
2025-05-30 16:47:55.656,-8.92101378642393e-05,1.386554238941385,2,NB
2025-05-30 16:47:55.664,3.1006702339613465e-06,1.5693788722365998,2,NB
2025-05-30 16:47:55.672,8.92154632104732e-05,1.769039463580426,2,NB
2025-05-30 16:47:55.679,0.0001679972711188,1.9823178590090824,2,NB
2025-05-30 16:47:55.687,0.0002385215754443,2.2054671430092387,2,NB
2025-05-30 16:47:55.695,0.000300097887737,2.434270184549552,2,NB
2025-05-30 16:47:55.703,0.0003522826992484,2.6641150484117,2,NB
2025-05-30 16:47:55.711,0.0003948839148857,2.890086539871348,2,NB
2025-05-30 16:47:55.718,0.0004279572411095,3.107072280116499,2,NB
2025-05-30 16:47:55.726,0.000451795244861,3.3098808644825213,2,NB
2025-05-30 16:47:55.734,0.0004669099759356,3.4933689007650472,2,NB
2025-05-30 16:47:55.742,0.0004740101747599,3.652573115470986,2,NB
2025-05-30 16:47:55.750,0.0004739741647517,3.7828432964089433,2,NB
2025-05-30 16:47:55.757,0.0004678195399595,3.8799716413897625,2,NB
2025-05-30 16:47:55.765,0.0004566707056286,3.940314116095915,2,NB
2025-05-30 16:47:55.773,0.0004417252305204,3.9608996782345542,2,NB
2025-05-30 16:47:55.781,0.0004242198590762,3.9395236708046055,2,NB
2025-05-30 16:47:55.789,0.0004053969418385,3.874822285192431,2,NB
2025-05-30 16:47:55.797,0.0003864719818416,3.7663257012103215,2,NB
2025-05-30 16:47:55.804,0.0003686029471691,3.614488281464402,2,NB
2025-05-30 16:47:55.812,0.0003528619542827,3.420694988323408,2,NB
2025-05-30 16:47:55.820,0.0003402098881981,3.187243965527029,2,NB
2025-05-30 16:47:55.828,0.0003314744927204,2.9173059546040427,2,NB
2025-05-30 16:47:55.836,0.0003273324127169,2.6148618783089126,2,NB
2025-05-30 16:47:55.843,0.0003282955779198,2.284620501896361,2,NB
2025-05-30 16:47:55.851,0.0003347021925748,1.9319185619971029,2,NB
2025-05-30 16:47:55.859,0.0003467124723383,1.5626061213321705,2,NB
2025-05-30 16:47:55.867,0.0003643091784478,1.1829201650798291,2,NB
2025-05-30 16:47:55.875,0.0003873029375434,0.7993496095819299,2,NB
2025-05-30 16:47:55.882,0.0004153422759385,0.4184949569867154,2,NB
2025-05-30 16:47:55.890,0.0004479282117063,0.0469258114768076,2,NB
2025-05-30 16:47:55.898,0.0004844331228308,-0.3089606120854499,2,NB
2025-05-30 16:47:55.906,0.0005241234426333,-0.6430769917200257,2,NB
2025-05-30 16:47:55.914,0.0005661855359731,-0.9497765929947468,2,NB
2025-05-30 16:47:55.922,0.000609753915637,-1.2239745433583342,2,NB
2025-05-30 16:47:55.929,0.0006539408159133,-1.4612573191138174,2,NB
2025-05-30 16:47:55.937,0.0006978660739165,-1.6579783501783711,2,NB
2025-05-30 16:47:55.945,0.0007406862574339,-1.811337932694824,2,NB
2025-05-30 16:47:55.953,0.0007816219857046,-1.9194459204813057,2,NB
2025-05-30 16:47:55.961,0.0008199824161481,-1.9813659313140224,2,NB
2025-05-30 16:47:55.968,0.0008551859498972,-1.997140049088072,2,NB
2025-05-30 16:47:55.976,0.0008867763625192,-1.967793233490594,2,NB
2025-05-30 16:47:55.984,0.0009144337700071,-1.8953168808945584,2,NB
2025-05-30 16:47:55.992,0.0009379800548841,-1.782631237987454,2,NB
2025-05-30 16:47:56.000,0.0009573785904088,-1.6335266792417729,2,NB
2025-05-30 16:47:56.007,0.0009727283215372,-1.452584239924683,2,NB
2025-05-30 16:47:56.015,0.0009842524857019,-1.2450762548840972,2,NB
2025-05-30 16:47:56.023,0.0009922824613388,-1.0168484851717503,2,NB
2025-05-30 16:47:56.031,0.00099723740293,-0.774185705973529,2,NB
2025-05-30 16:47:56.039,0.0009996004706873,-0.523663357175777,2,NB
2025-05-30 16:47:56.047,0.0009998926118571,-0.2719884880339103,2,NB
2025-05-30 16:47:56.054,0.000998644998135,-0.0258338172785941,2,NB
2025-05-30 16:47:56.062,0.0009963713453874,0.2083307642077139,2,NB
2025-05-30 16:47:56.070,0.0009935414117293,0.4244045386297001,2,NB
2025-05-30 16:47:56.078,0.0009905569677411,0.6168152200046114,2,NB
2025-05-30 16:47:56.086,0.0009877314364284,0.7806661536484184,2,NB
2025-05-30 16:47:56.093,0.000985274200983,0.9118666531145142,2,NB
2025-05-30 16:47:56.101,0.0009832803048563,1.0072410561642962,2,NB
2025-05-30 16:47:56.109,0.0009817259752728,1.0646126740091764,2,NB
2025-05-30 16:47:56.117,0.0009804701196428,1.0828595874874911,2,NB
2025-05-30 16:47:56.125,0.0009792616692458,1.0619401780941484,2,NB
2025-05-30 16:47:56.132,0.0009777523624164,1.0028873280812176,2,NB
2025-05-30 16:47:56.140,0.0009755142699766,0.9077713289301772,2,NB
2025-05-30 16:47:56.148,0.0009720610871262,0.7796326423713655,2,NB
2025-05-30 16:47:56.156,0.0009668719896441,0.6223867065709144,2,NB
2025-05-30 16:47:56.164,0.0009594167310967,0.4407039258715946,2,NB
2025-05-30 16:47:56.172,0.0009491806689178,0.2398687913850894,2,NB
2025-05-30 16:47:56.179,0.0009356885282289,0.0256227269374648,2,NB
2025-05-30 16:47:56.187,0.0009185258946564,-0.1960042781997052,2,NB
2025-05-30 16:47:56.195,0.0008973576344381,-0.4188679125202494,2,NB
2025-05-30 16:47:56.203,0.0008719426561897,-0.6368842390920366,2,NB
2025-05-30 16:47:56.211,0.0008421446468803,-0.8441995198373939,2,NB
2025-05-30 16:47:56.218,0.0008079386219692,-1.0353501071753914,2,NB
2025-05-30 16:47:56.226,0.0007694133029776,-1.205407768969563,2,NB
2025-05-30 16:47:56.234,0.0007267694614428,-1.3501063868971437,2,NB
2025-05-30 16:47:56.242,0.0006803144704576,-1.4659466704637658,2,NB
2025-05-30 16:47:56.250,0.0006304534300073,-1.5502763289089128,2,NB
2025-05-30 16:47:56.257,0.0005776773926245,-1.601344004800225,2,NB
2025-05-30 16:47:56.265,0.0005225493653064,-1.618326157964068,2,NB
2025-05-30 16:47:56.273,0.0004656888347217,-1.6013269593065846,2,NB
2025-05-30 16:47:56.281,0.0004077555245325,-1.551352077581097,2,NB
2025-05-30 16:47:56.289,0.0003494329723853,-1.4702579930636808,2,NB
2025-05-30 16:47:56.297,0.0002914123628038,-1.36067913653208,2,NB
2025-05-30 16:47:56.304,0.0002343769112021,-1.225935724312194,2,NB
2025-05-30 16:47:56.312,0.0001789869815275,-1.0699256354947422,2,NB
2025-05-30 16:47:56.320,0.0001258660419848,-0.8970040462427893,2,NB
2025-05-30 16:47:56.328,7.558752256167856e-05,-0.7118547858752723,2,NB
2025-05-30 16:47:56.336,2.8662635173665205e-05,-0.5193574991830807,2,NB
2025-05-30 16:47:56.343,-1.4470749376305072e-05,-0.3244546826167668,2,NB
2025-05-30 16:47:56.351,-5.3458007376509785e-05,-0.1320225064512761,2,NB
2025-05-30 16:47:56.359,-8.803619919668896e-05,0.0532509569292655,2,NB
2025-05-30 16:47:56.367,-0.0001180406847997,0.2269768984122871,2,NB
2025-05-30 16:47:56.375,-0.0001434094864577,0.3851636618168051,2,NB
2025-05-30 16:47:56.382,-0.0001641849421595,0.5242993040304511,2,NB
2025-05-30 16:47:56.390,-0.0001805122372353,0.6414174385391403,2,NB
2025-05-30 16:47:56.398,-0.0001926345185007,0.7341456544425239,2,NB
2025-05-30 16:47:56.406,-0.0002008844856312,0.8007364545450218,2,NB
2025-05-30 16:47:56.414,-0.0002056726052357,0.8400812433912948,2,NB
2025-05-30 16:47:56.422,-0.0002074723657014,0.8517083906995504,2,NB
2025-05-30 16:47:56.429,-0.000206803234298,0.835766778218467,2,NB
2025-05-30 16:47:56.437,-0.000204212153236,0.7929964974534213,2,NB
2025-05-30 16:47:56.445,-0.0002002545041268,0.7246885008136614,2,NB
2025-05-30 16:47:56.453,-0.000195475480116,0.6326350335178116,2,NB
2025-05-30 16:47:56.461,-0.0001903927337278,0.5190726188875697,2,NB
2025-05-30 16:47:56.468,-0.0001854810300191,0.3866192752534969,2,NB
2025-05-30 16:47:56.476,-0.0001811594591719,0.2382075436848956,2,NB
2025-05-30 16:47:56.484,-0.0001777815793041,0.0770148231058519,2,NB
2025-05-30 16:47:56.492,-0.0001756286847256,-0.0936075507664433,2,NB
2025-05-30 16:47:56.500,-0.0001749062337446,-0.2702050887888958,2,NB
2025-05-30 16:47:56.507,-0.0001757433273644,-0.4492894385055498,2,NB
2025-05-30 16:47:56.515,-0.0001781950087087,-0.627404879243329,2,NB
2025-05-30 16:47:56.523,-0.000182247054617,-0.8011908115917753,2,NB
2025-05-30 16:47:56.531,-0.0001878228564656,-0.9674391761192318,2,NB
2025-05-30 16:47:56.539,-0.000194791936908,-1.1231459416241307,2,NB
2025-05-30 16:47:56.547,-0.0002029796221265,-1.2655560614835513,2,NB
2025-05-30 16:47:56.554,-0.0002121773839336,-1.3922015900754792,2,NB
2025-05-30 16:47:56.562,-0.0002221533807086,-1.5009329540479326,2,NB
2025-05-30 16:47:56.570,-0.0002326627583437,-1.5899436529020698,2,NB
2025-05-30 16:47:56.578,-0.0002434573194711,-1.6577888858128995,2,NB
2025-05-30 16:47:56.586,-0.0002542942284373,-1.7033987406911906,2,NB
2025-05-30 16:47:56.593,-0.0002649434879168,-1.726086625859671,2,NB
2025-05-30 16:47:56.601,-0.0002751939978657,-1.7255535768493049,2,NB
2025-05-30 16:47:56.609,-0.0002848580859791,-1.7018889425107977,2,NB
2025-05-30 16:47:56.617,-0.00029377447835,-1.6555677652615588,2,NB
2025-05-30 16:47:56.625,-0.0003018097572884,-1.5874449478995545,2,NB
2025-05-30 16:47:56.632,-0.0003088584281281,-1.4987460797091383,2,NB
2025-05-30 16:47:56.640,-0.0003148417864832,-1.3910546140100462,2,NB
2025-05-30 16:47:56.648,-0.0003197058402451,-1.2662949743605585,2,NB
2025-05-30 16:47:56.656,-0.0003234185953279,-1.1267111268484589,2,NB
2025-05-30 16:47:56.664,-0.0003259670581191,-0.97484018597309,2,NB
2025-05-30 16:47:56.672,-0.0003273543302838,-0.8134807092435159,2,NB
2025-05-30 16:47:56.679,-0.0003275971502213,-0.645655467248773,2,NB
2025-05-30 16:47:56.687,-0.0003267241488603,-0.4745686377455687,2,NB
2025-05-30 16:47:56.695,-0.0003247749411847,-0.3035575502419652,2,NB
2025-05-30 16:47:56.703,-0.0003218000076157,-0.1360392901093984,2,NB
2025-05-30 16:47:56.711,-0.0003178611835959,0.0245473477274853,2,NB
2025-05-30 16:47:56.718,-0.0003130325096379,0.174803887308094,2,NB
2025-05-30 16:47:56.726,-0.0003074012023212,0.3114373380416818,2,NB
2025-05-30 16:47:56.734,-0.0003010685649738,0.4313274784840957,2,NB
2025-05-30 16:47:56.742,-0.000294150729113,0.5315950558220074,2,NB
2025-05-30 16:47:56.750,-0.0002867791611961,0.6096695073354415,2,NB
2025-05-30 16:47:56.757,-0.0002791008469125,0.6633546059923097,2,NB
2025-05-30 16:47:56.765,-0.0002712779883287,0.6908902245433565,2,NB
2025-05-30 16:47:56.773,-0.0002634869878871,0.6910082180240988,2,NB
2025-05-30 16:47:56.781,-0.0002559165073945,0.6629802661450506,2,NB
2025-05-30 16:47:56.789,-0.0002487644585182,0.6066554236192316,2,NB
2025-05-30 16:47:56.797,-0.0002422338334237,0.5224851352322577,2,NB
2025-05-30 16:47:56.804,-0.0002365272972669,0.4115336245733526,2,NB
2025-05-30 16:47:56.812,-0.0002318404949967,0.2754718930888993,2,NB
2025-05-30 16:47:56.820,-0.0002283541373585,0.1165540790376421,2,NB
2025-05-30 16:47:56.828,-0.0002262251207035,-0.0624243949757309,2,NB
2025-05-30 16:47:56.836,-0.000225577137617,-0.258186655534137,2,NB
2025-05-30 16:47:56.843,-0.0002264913883284,-0.4670510978890698,2,NB
2025-05-30 16:47:56.851,-0.0002289980879986,-0.6850230351486946,2,NB
2025-05-30 16:47:56.859,-0.0002330694970974,-0.9078985289172676,2,NB
2025-05-30 16:47:56.867,-0.0002386151910359,-1.131376985146238,2,NB
2025-05-30 16:47:56.875,-0.0002454802161315,-1.3511785926791722,2,NB
2025-05-30 16:47:56.882,-0.0002534466306855,-1.563162357785413,2,NB
2025-05-30 16:47:56.890,-0.0002622387052402,-1.7634403542249746,2,NB
2025-05-30 16:47:56.898,-0.0002715317833218,-1.948483866362104,2,NB
2025-05-30 16:47:56.906,-0.0002809645150633,-2.115217348576657,2,NB
2025-05-30 16:47:56.914,-0.0002901538988865,-2.261096548545797,2,NB
2025-05-30 16:47:56.922,-0.0002987123319303,-2.384167731154917,2,NB
2025-05-30 16:47:56.929,-0.0003062656999418,-2.483105676492771,2,NB
2025-05-30 16:47:56.937,-0.0003124714259042,-2.5572289867313067,2,NB
2025-05-30 16:47:56.945,-0.0003170353346803,-2.6064921888013663,2,NB
2025-05-30 16:47:56.953,-0.0003197262041094,-2.631455115038744,2,NB
2025-05-30 16:47:56.961,-0.0003203869979829,-2.633231027578141,2,NB
2025-05-30 16:47:56.968,-0.0003189420089429,-2.6134158735116237,2,NB
2025-05-30 16:47:56.976,-0.0003153994378067,-2.57400187544582,2,NB
2025-05-30 16:47:56.984,-0.0003098492612155,-2.517279340313044,2,NB
2025-05-30 16:47:56.992,-0.0003024565718046,-2.445731071891928,2,NB
2025-05-30 16:47:57.000,-0.0002934509022394,-2.361924063385778,2,NB
2025-05-30 16:47:57.007,-0.0002831123463975,-2.2684031972358363,2,NB
2025-05-30 16:47:57.015,-0.0002717555271107,-2.167591478134479,2,NB
2025-05-30 16:47:57.023,-0.0002597125786658,-2.061700881944413,2,NB
2025-05-30 16:47:57.031,-0.0002473162887679,-1.952657252696748,2,NB
2025-05-30 16:47:57.039,-0.0002348844042553,-1.8420418805715209,2,NB
2025-05-30 16:47:57.047,-0.0002227058993937,-1.7310515191144804,2,NB
2025-05-30 16:47:57.054,-0.0002110297756397,-1.6204777211169408,2,NB
2025-05-30 16:47:57.062,-0.0002000567286895,-1.5107055419093416,2,NB
2025-05-30 16:47:57.070,-0.0001899338016123,-1.4017309032979888,2,NB
2025-05-30 16:47:57.078,-0.0001807519698107,-1.2931952383898468,2,NB
2025-05-30 16:47:57.086,-0.0001725464921684,-1.1844354453982628,2,NB
2025-05-30 16:47:57.093,-0.0001652997924075,-1.0745466640490844,2,NB
2025-05-30 16:47:57.101,-0.0001589465619586,-0.9624549503898564,2,NB
2025-05-30 16:47:57.109,-0.0001533806881914,-0.8469965683454981,2,NB
2025-05-30 16:47:57.117,-0.0001484635451545,-0.7270003498677198,2,NB
2025-05-30 16:47:57.125,-0.0001440331729918,-0.6013694165748192,2,NB
2025-05-30 16:47:57.132,-0.0001399139028305,-0.4691585232668144,2,NB
2025-05-30 16:47:57.140,-0.0001359260115197,-0.3296433966630286,2,NB
2025-05-30 16:47:57.148,-0.0001318950002501,-0.1823787195872973,2,NB
2025-05-30 16:47:57.156,-0.0001276601161295,-0.0272418647439841,2,NB
2025-05-30 16:47:57.164,-0.0001230818093219,0.1355398887217022,2,NB
2025-05-30 16:47:57.172,-0.000118047924773,0.3053801425700558,2,NB
2025-05-30 16:47:57.179,-0.0001124785193405,0.4813427694614733,2,NB
2025-05-30 16:47:57.187,-0.0001063292467925,0.6621695602099339,2,NB
2025-05-30 16:47:57.195,-9.95932766414063e-05,0.8463248345427004,2,NB
2025-05-30 16:47:57.203,-9.230172952159545e-05,1.032054821966595,2,NB
2025-05-30 16:47:57.211,-8.452263217037513e-05,1.2174588261005064,2,NB
2025-05-30 16:47:57.218,-7.635842115671656e-05,1.4005685576902265,2,NB
2025-05-30 16:47:57.226,-6.794205661150881e-05,1.579431606401546,2,NB
2025-05-30 16:47:57.234,-5.943184533623191e-05,1.7521948470548263,2,NB
2025-05-30 16:47:57.242,-5.1005116471800605e-05,1.9171836484458344,2,NB
2025-05-30 16:47:57.250,-4.285094169139272e-05,2.072973059508256,2,NB
2025-05-30 16:47:57.257,-3.5162144546966884e-05,2.218447656992909,2,NB
2025-05-30 16:47:57.265,-2.8126898658745026e-05,2.3528474019031704,2,NB
2025-05-30 16:47:57.273,-2.192027001519052e-05,2.475797608666779,2,NB
2025-05-30 16:47:57.281,-1.6696112518717482e-05,2.587321924292745,2,NB
2025-05-30 16:47:57.289,-1.2579773911120025e-05,2.6878380015193017,2,NB
2025-05-30 16:47:57.297,-9.66209726515444e-06,2.778136301399144,2,NB
2025-05-30 16:47:57.304,-7.995178134833456e-06,2.8593431540773304,2,NB
2025-05-30 16:47:57.312,-7.590222857041543e-06,2.932869819619078,2,NB
2025-05-30 16:47:57.320,-8.41765200205109e-06,3.000349804300321,2,NB
2025-05-30 16:47:57.328,-1.040935753219796e-05,3.063567087835228,2,NB
2025-05-30 16:47:57.336,-1.3462815161631366e-05,3.124378194121578,2,NB
2025-05-30 16:47:57.343,-1.744661318754174e-05,3.184631186480828,2,NB
2025-05-30 16:47:57.351,-2.2206900550181404e-05,3.2460846885470795,2,NB
2025-05-30 16:47:57.359,-2.7574272480392315e-05,3.3103299339745864,2,NB
2025-05-30 16:47:57.367,-3.337067537523547e-05,3.3787186506565137,2,NB
2025-05-30 16:47:57.375,-3.941599718571966e-05,3.4522993092330605,2,NB
2025-05-30 16:47:57.382,-4.553410181492566e-05,3.5317639283681874,2,NB
2025-05-30 16:47:57.390,-5.155815856098546e-05,3.6174072426220176,2,NB
2025-05-30 16:47:57.398,-5.733519702919647e-05,3.7090996141204458,2,NB
2025-05-30 16:47:57.406,-6.272986010458306e-05,3.806274621856689,2,NB
2025-05-30 16:47:57.414,-6.762731825462261e-05,3.9079318106470144,2,NB
2025-05-30 16:47:57.422,-7.193527133433732e-05,4.012654641250134,2,NB
2025-05-30 16:47:57.429,-7.558494692356795e-05,4.118643262913701,2,NB
2025-05-30 16:47:57.437,-7.853103137390633e-05,4.223761332613063,2,NB
2025-05-30 16:47:57.445,-8.075052813385858e-05,4.325595730607875,2,NB
2025-05-30 16:47:57.453,-8.224060524552025e-05,4.421527664839178,2,NB
2025-05-30 16:47:57.461,-8.301555893758705e-05,4.508813309493944,2,NB
2025-05-30 16:47:57.468,-8.310307997664326e-05,4.5846717812765645,2,NB
2025-05-30 16:47:57.476,-8.254006266734911e-05,4.6463779260610805,2,NB
2025-05-30 16:47:57.484,-8.136824205449056e-05,4.691357085103867,2,NB
2025-05-30 16:47:57.492,-7.962998044273955e-05,4.717278756067546,2,NB
2025-05-30 16:47:57.500,-7.736453936596373e-05,4.722145883431238,2,NB
2025-05-30 16:47:57.508,-7.460514638560666e-05,4.704376431142171,2,NB
2025-05-30 16:47:57.515,-7.137708429845669e-05,4.6628739360096,2,NB
2025-05-30 16:47:57.523,-6.76969098284866e-05,4.597083940014399,2,NB
2025-05-30 16:47:57.531,-6.357277876925336e-05,4.50703357015869,2,NB
2025-05-30 16:47:57.539,-5.90057296066876e-05,4.393352076992781,2,NB
2025-05-30 16:47:57.547,-5.3991672448762376e-05,4.257270843768697,2,NB
2025-05-30 16:47:57.554,-4.852377309133012e-05,4.100602210527051,2,NB
2025-05-30 16:47:57.562,-4.25949285663973e-05,3.925697379606484,2,NB
2025-05-30 16:47:57.570,-3.620008586661483e-05,3.735384621598115,2,NB
2025-05-30 16:47:57.578,-2.9338236758036695e-05,3.53288991161733,2,NB
2025-05-30 16:47:57.586,-2.201401621254192e-05,3.321742924427018,2,NB
2025-05-30 16:47:57.593,-1.423893360582973e-05,3.105671948052755,2,NB
2025-05-30 16:47:57.601,-6.032359662693041e-06,2.8884917046479126,2,NB
2025-05-30 16:47:57.609,2.5775574278228878e-06,2.6739882810260305,2,NB
2025-05-30 16:47:57.617,1.1552911594852598e-05,2.465805375851952,2,NB
2025-05-30 16:47:57.625,2.0844995442478828e-05,2.267335889816588,2,NB
2025-05-30 16:47:57.633,3.03933685029045e-05,2.0816225538144555,2,NB
2025-05-30 16:47:57.640,4.012532409373102e-05,1.9112708428649705,2,NB
2025-05-30 16:47:57.648,4.995603409249279e-05,1.758376886635628,2,NB
