Timestamp,GSR_Filtered,PPG_Filtered
2025-05-08 13:02:47.633,2.5697734101259885e-05,-147.0893362738999
2025-05-08 13:02:47.641,1.2000624462952089e-05,-150.05021367154933
2025-05-08 13:02:47.649,-1.786408335177288e-06,-152.97838830882026
2025-05-08 13:02:47.657,-1.5346549893961863e-05,-155.907615063
2025-05-08 13:02:47.664,-2.8370096247682832e-05,-158.87573534078876
2025-05-08 13:02:47.672,-4.055999778167484e-05,-161.92363086153009
2025-05-08 13:02:47.680,-5.163702490496423e-05,-165.09395852110757
2025-05-08 13:02:47.688,-6.134450461614711e-05,-168.4296886337914
2025-05-08 13:02:47.696,-6.945258165805992e-05,-171.97247784650932
2025-05-08 13:02:47.703,-7.576196043224903e-05,-175.7609167667197
2025-05-08 13:02:47.711,-8.010708545170483e-05,-179.82870049821494
2025-05-08 13:02:47.719,-8.235872034456796e-05,-184.2027774824741
2025-05-08 13:02:47.727,-8.24258899746095e-05,-188.90153793901607
2025-05-08 13:02:47.735,-8.025715891025162e-05,-193.93310744099668
2025-05-08 13:02:47.742,-7.58412340448078e-05,-199.293813432825
2025-05-08 13:02:47.750,-6.920690132763133e-05,-204.96689251697467
2025-05-08 13:02:47.758,-6.042233776878819e-05,-210.92150388597275
2025-05-08 13:02:47.766,-4.959387963428774e-05,-217.11210920246964
2025-05-08 13:02:47.774,-3.686436707056191e-05,-223.4782714698166
2025-05-08 13:02:47.782,-2.24112038634438e-05,-229.94491501912196
2025-05-08 13:02:47.789,-6.444255426973794e-06,-236.42307580444603
2025-05-08 13:02:47.797,1.0796327602106333e-05,-242.81115599746505
2025-05-08 13:02:47.805,2.904231079835634e-05,-248.99667977564
2025-05-08 13:02:47.813,4.7999603275461445e-05,-254.85852868955783
2025-05-08 13:02:47.821,6.735058550855609e-05,-260.2696156735838
2025-05-08 13:02:47.828,8.675669079021867e-05,-265.0999373297556
2025-05-08 13:02:47.836,0.0001058614580955,-269.2199253566939
2025-05-08 13:02:47.844,0.0001242943263802,-272.50400077096583
2025-05-08 13:02:47.852,0.0001416754660981,-274.8342197807322
2025-05-08 13:02:47.860,0.0001576219040844,-276.10388874044315
2025-05-08 13:02:47.867,0.0001717550746302,-276.22101844543283
2025-05-08 13:02:47.875,0.0001837097500575,-275.11148597080546
2025-05-08 13:02:47.883,0.0001931441195102,-272.7217760816828
2025-05-08 13:02:47.891,0.0001997506353076,-269.02118453454085
2025-05-08 13:02:47.899,0.0002032671405121,-264.0033826178461
2025-05-08 13:02:47.907,0.0002034877122139,-257.68726574869214
2025-05-08 13:02:47.914,0.0002002725864381,-250.11703781229127
2025-05-08 13:02:47.922,0.0001935564794841,-241.3615154543287
2025-05-08 13:02:47.930,0.0001833546230249,-231.51267051080288
2025-05-08 13:02:47.938,0.0001697659339698,-220.68346187535525
2025-05-08 13:02:47.946,0.0001529729580828,-209.00503823321768
2025-05-08 13:02:47.953,0.0001332385090787,-196.62341848122293
2025-05-08 13:02:47.961,0.0001108991960796,-183.69577602488195
2025-05-08 13:02:47.969,8.635624361532206e-05,-170.38646572204985
2025-05-08 13:02:47.977,6.006414453437846e-05,-156.86293775121715
2025-05-08 13:02:47.985,3.251774429897348e-05,-143.29168130228737
2025-05-08 13:02:47.992,4.238346090810201e-06,-129.83433329214526
2025-05-08 13:02:48.000,-2.4240622478911293e-05,-116.64407417449598
2025-05-08 13:02:48.008,-5.238790171936813e-05,-103.86241543043978
2025-05-08 13:02:48.016,-7.968823267138731e-05,-91.61646269710944
2025-05-08 13:02:48.024,-0.00010565536715,-80.01671595432335
2025-05-08 13:02:48.032,-0.0001298439396809,-69.86280237268558
2025-05-08 13:02:48.039,-0.0001518599252662,-60.27271761894635
2025-05-08 13:02:48.047,-0.0001713694374071,-51.3254361964731
2025-05-08 13:02:48.055,-0.0001881056448888,-43.08185448128981
2025-05-08 13:02:48.063,-0.0002018736148058,-35.58444742785305
2025-05-08 13:02:48.071,-0.0002125529460929,-28.857441418204782
2025-05-08 13:02:48.078,-0.0002200981565268,-22.907464291989392
2025-05-08 13:02:48.086,-0.0002245369037302,-17.724620975548007
2025-05-08 13:02:48.094,-0.0002259662107829,-13.283933419518643
2025-05-08 13:02:48.102,-0.00022454690718,-9.5470768411834
2025-05-08 13:02:48.110,-0.0002204965013319,-6.4643405108531935
2025-05-08 13:02:48.117,-0.0002140806962152,-3.97674036875586
2025-05-08 13:02:48.125,-0.0002056037586203,-2.018212361423512
2025-05-08 13:02:48.133,-0.0001953979596488,-0.5178192225665376
2025-05-08 13:02:48.141,-0.000183812322383,0.5980908756702413
2025-05-08 13:02:48.149,-0.0001712009438696,1.4038282030974851
2025-05-08 13:02:48.157,-0.0001579112037416,1.972454046439569
2025-05-08 13:02:48.164,-0.0001442722293034,2.374059237405532
2025-05-08 13:02:48.172,-0.0001305840460218,2.67425670921789
2025-05-08 13:02:48.180,-0.0001171078787905,2.932907055276747
2025-05-08 13:02:48.188,-0.0001040580591398,3.2030873707701617
2025-05-08 13:02:48.196,-9.159593687531753e-05,3.5303056629417657
2025-05-08 13:02:48.203,-7.982611405806671e-05,3.95195606219456
2025-05-08 13:02:48.211,-6.879522974200964e-05,4.497004143951059
2025-05-08 13:02:48.219,-5.8493414410222206e-05,5.18588700806628
2025-05-08 13:02:48.227,-4.88583849368552e-05,6.030609421136702
2025-05-08 13:02:48.235,-3.978196961247371e-05,7.035015304955944
2025-05-08 13:02:48.242,-3.111867596394878e-05,8.195213086856839
2025-05-08 13:02:48.250,-2.269579074541749e-05,9.500133791220051
2025-05-08 13:02:48.258,-1.432445754313305e-05,10.932202069683676
2025-05-08 13:02:48.266,-5.811192205430226e-06,12.468102419979909
2025-05-08 13:02:48.274,3.0306772327564856e-06,14.079625375166962
2025-05-08 13:02:48.282,1.23701455846781e-05,15.734581177043578
2025-05-08 13:02:48.289,2.23487262191939e-05,17.39777108601628
2025-05-08 13:02:48.297,3.30721585200242e-05,19.032008733604087
2025-05-08 13:02:48.305,4.460401339647015e-05,20.59918553052422
2025-05-08 13:02:48.313,5.696148790500548e-05,22.061374893457923
2025-05-08 13:02:48.321,7.011355653575296e-05,23.38196980466999
2025-05-08 13:02:48.328,8.398149965252473e-05,24.52684690059623
2025-05-08 13:02:48.336,9.844167258573972e-05,25.46554790587529
2025-05-08 13:02:48.344,0.0001133302389846,26.172465878432185
2025-05-08 13:02:48.352,0.0001284494956911,26.628019580897643
2025-05-08 13:02:48.360,0.0001435753657918,26.81979458693054
2025-05-08 13:02:48.367,0.0001584656112097,26.743624768277897
2025-05-08 13:02:48.375,0.0001728683032732,26.404582934540176
2025-05-08 13:02:48.383,0.0001865301022018,25.817844989835127
2025-05-08 13:02:48.391,0.0001992039549468,25.00938842336101
2025-05-08 13:02:48.399,0.0002106559234654,24.01648365691338
2025-05-08 13:02:48.407,0.0002206709762891,22.887936101720825
2025-05-08 13:02:48.414,0.0002290576888812,21.684038056149596
2025-05-08 13:02:48.422,0.0002356518900719,20.47619306655637
2025-05-08 13:02:48.430,0.0002403193593375,19.34618124937465
2025-05-08 13:02:48.438,0.0002429577221072,18.38504239714204
2025-05-08 13:02:48.446,0.0002434977080129,17.69156440316997
2025-05-08 13:02:48.453,0.0002419039314383,17.370377443097958
2025-05-08 13:02:48.461,0.000238175327211,17.52966910964805
2025-05-08 13:02:48.469,0.0002323453299828,18.278551826218195
2025-05-08 13:02:48.477,0.0002244818276113,19.724130737580072
2025-05-08 13:02:48.485,0.0002146868510718,21.96833713497677
2025-05-08 13:02:48.492,0.0002030958908436,25.10460846562829
2025-05-08 13:02:48.500,0.0001898766588955,29.214510201032198
2025-05-08 13:02:48.508,0.0001752270626036,34.36440639636675
2025-05-08 13:02:48.516,0.0001593721572232,40.60229382779213
2025-05-08 13:02:48.524,0.000142559933139,47.95491843141463
2025-05-08 13:02:48.532,0.0001250559617508,56.4252918577676
2025-05-08 13:02:48.539,0.0001071370965582,65.99072000483189
2025-05-08 13:02:48.547,8.908453038917468e-05,76.60144437152259
2025-05-08 13:02:48.555,7.11765333216106e-05,88.17998122464685
2025-05-08 13:02:48.563,5.368117293170534e-05,100.62122339890864
2025-05-08 13:02:48.571,3.684928152676073e-05,113.79334578743064
2025-05-08 13:02:48.578,2.0907897069832837e-05,127.539529149265
2025-05-08 13:02:48.586,6.054368565684712e-06,141.68048879948873
2025-05-08 13:02:48.594,-7.54871633975657e-06,156.0177661476339
2025-05-08 13:02:48.602,-1.9777653425643712e-05,170.33771299759573
2025-05-08 13:02:48.610,-3.055069171074758e-05,184.41607205636427
2025-05-08 13:02:48.617,-3.982997221290209e-05,198.0230331824778
2025-05-08 13:02:48.625,-4.76222775353853e-05,210.92862440423804
2025-05-08 13:02:48.633,-5.397855332928078e-05,222.90828041766952
2025-05-08 13:02:48.641,-5.8992181405677074e-05,233.74841980707168
2025-05-08 13:02:48.649,-6.279600370591559e-05,243.25185620658624
2025-05-08 13:02:48.657,-6.55581176156372e-05,251.2428685531151
2025-05-08 13:02:48.664,-6.747648725188983e-05,257.5717619055155
2025-05-08 13:02:48.672,-6.877244318605929e-05,262.11876335291055
2025-05-08 13:02:48.680,-6.968317513492924e-05,264.7971174273821
2025-05-08 13:02:48.688,-7.045335865904127e-05,265.55527189253934
2025-05-08 13:02:48.696,-7.132609765696808e-05,264.3780769322137
2025-05-08 13:02:48.703,-7.253340881248548e-05,261.2869571260024
2025-05-08 13:02:48.711,-7.428652107400502e-05,256.33905422305384
2025-05-08 13:02:48.719,-7.676631122539997e-05,249.62537746315823
2025-05-08 13:02:48.727,-8.011424374847754e-05,241.2680349409088
2025-05-08 13:02:48.735,-8.442422723908336e-05,231.416652385234
2025-05-08 13:02:48.742,-8.973583648701219e-05,220.2441131900725
2025-05-08 13:02:48.750,-9.602936659882086e-05,207.9417744404209
2025-05-08 13:02:48.758,-0.0001032231582659,194.71432732392725
2025-05-08 13:02:48.766,-0.0001111735379245,180.7744764328201
2025-05-08 13:02:48.774,-0.0001196775564033,166.3376111905116
2025-05-08 13:02:48.782,-0.0001284785212838,151.61663449840924
2025-05-08 13:02:48.789,-0.0001372741522775,136.81709951781
2025-05-08 13:02:48.797,-0.000145727080701,122.1327863417672
2025-05-08 13:02:48.805,-0.0001534773578068,107.74182738769368
2025-05-08 13:02:48.813,-0.0001601565874083,93.80346493646316
2025-05-08 13:02:48.821,-0.0001654032111817,80.45549763411015
2025-05-08 13:02:48.828,-0.0001688783449377,67.81244616674742
2025-05-08 13:02:48.836,-0.0001702814269928,55.96444281012074
2025-05-08 13:02:48.844,-0.0001693648471347,44.97682607473863
2025-05-08 13:02:48.852,-0.0001659467140723,34.890400957068344
2025-05-08 13:02:48.860,-0.0001599209948294,25.722307905408176
2025-05-08 13:02:48.867,-0.0001512643983183,17.467429858719512
2025-05-08 13:02:48.875,-0.0001400395524949,10.100256780429543
2025-05-08 13:02:48.883,-0.0001263942272081,3.5771209817846312
2025-05-08 13:02:48.891,-0.0001105565777443,-2.1612859524152386
2025-05-08 13:02:48.899,-9.282662273710964e-05,-7.187202964636615
2025-05-08 13:02:48.907,-7.356441787511701e-05,-11.582980602677935
2025-05-08 13:02:48.914,-5.317562662776046e-05,-15.438231725134266
2025-05-08 13:02:48.922,-3.2095382674991315e-05,-18.847022104170264
2025-05-08 13:02:48.930,-1.0771435696031353e-05,-21.90516179807942
2025-05-08 13:02:48.938,1.035245174053547e-05,-24.707648010858374
2025-05-08 13:02:48.946,3.085200820762036e-05,-27.346299774554726
2025-05-08 13:02:48.953,5.033617532824996e-05,-29.907614665124488
2025-05-08 13:02:48.961,6.845853601947918e-05,-32.470868313038
2025-05-08 13:02:48.969,8.492609864569848e-05,-35.10646904030909
2025-05-08 13:02:48.977,9.950523290043643e-05,-37.87457280727144
2025-05-08 13:02:48.985,0.0001120246910121,-40.82395796028461
2025-05-08 13:02:48.992,0.0001223757957086,-43.99115512563584
2025-05-08 13:02:49.000,0.0001305100445614,-47.39982500052204
2025-05-08 13:02:49.008,0.0001364345427151,-51.06037566697072
2025-05-08 13:02:49.016,0.0001402057839223,-54.96981122809594
2025-05-08 13:02:49.024,0.0001419223293486,-59.11180478482598
2025-05-08 13:02:49.032,0.0001417168995366,-63.45699071333584
2025-05-08 13:02:49.039,0.0001397483223052,-67.9634734966274
2025-05-08 13:02:49.047,0.0001361936847499,-72.57755260342645
2025-05-08 13:02:49.055,0.0001312409379746,-77.23466467596876
2025-05-08 13:02:49.063,0.0001250821254336,-81.86054517700161
2025-05-08 13:02:49.071,0.0001179073672252,-86.37261128279499
2025-05-08 13:02:49.078,0.0001098997148415,-90.681565885137
2025-05-08 13:02:49.086,0.0001012309595287,-94.6932188696474
2025-05-08 13:02:49.094,9.20584328061184e-05,-98.31051628566776
2025-05-08 13:02:49.102,8.25228080202901e-05,-101.43576067871768
2025-05-08 13:02:49.110,7.274689850184644e-05,-103.9729969434904
2025-05-08 13:02:49.117,6.283542556005924e-05,-105.83052795589576
2025-05-08 13:02:49.125,5.2875699042593855e-05,-106.92351348536124
2025-05-08 13:02:49.133,4.293914156696348e-05,-107.17659512255987
2025-05-08 13:02:49.141,3.308359340145984e-05,-106.52647991639157
2025-05-08 13:02:49.149,2.3356322046178436e-05,-104.9244068724632
2025-05-08 13:02:49.157,1.379760788448586e-05,-102.33841419164298
2025-05-08 13:02:49.164,4.444699585830638e-06,-98.75532182984097
2025-05-08 13:02:49.172,-4.66414586471104e-06,-94.18234423411889
2025-05-08 13:02:49.180,-1.3485889294462872e-05,-88.64825238860008
2025-05-08 13:02:49.188,-2.1969591064358755e-05,-82.20401281481124
2025-05-08 13:02:49.196,-3.005432513651353e-05,-74.92284390177389
2025-05-08 13:02:49.203,-3.7668415767905306e-05,-66.89964660922851
2025-05-08 13:02:49.211,-4.473013154796319e-05,-58.24978663647906
2025-05-08 13:02:49.219,-5.1149785080072256e-05,-49.107227775708594
2025-05-08 13:02:49.227,-5.68330217843812e-05,-39.62204037648901
2025-05-08 13:02:49.235,-6.168497675046103e-05,-29.957333518872893
2025-05-08 13:02:49.242,-6.561493987562097e-05,-20.28568345297605
2025-05-08 13:02:49.250,-6.854117552068064e-05,-10.785152949746278
2025-05-08 13:02:49.258,-7.039557093897251e-05,-1.63501532476482
2025-05-08 13:02:49.266,-7.112782754147859e-05,6.988687930484851
2025-05-08 13:02:49.274,-7.070895833741171e-05,14.917616554023938
2025-05-08 13:02:49.282,-6.913391281061245e-05,21.99548352929082
2025-05-08 13:02:49.289,-6.6423216086107e-05,28.082145932648704
2025-05-08 13:02:49.297,-6.262358137530894e-05,33.05729731370009
2025-05-08 13:02:49.305,-5.78075304291529e-05,36.82363647446344
2025-05-08 13:02:49.313,-5.207212489387451e-05,39.30940494629151
2025-05-08 13:02:49.321,-4.553694975590105e-05,40.47020748492468
2025-05-08 13:02:49.328,-3.834148377662142e-05,40.29005559182318
2025-05-08 13:02:49.336,-3.064195551928228e-05,38.78160229318208
2025-05-08 13:02:49.344,-2.2607744239638496e-05,35.985565881054626
2025-05-08 13:02:49.352,-1.4417353238993106e-05,31.96936967568376
2025-05-08 13:02:49.360,-6.253961366027881e-06,26.825052742214783
2025-05-08 13:02:49.367,1.6994489819618795e-06,20.66653162397886
2025-05-08 13:02:49.375,9.26538092718249e-06,13.626314451268613
2025-05-08 13:02:49.383,1.6277491116247096e-05,5.851785395984672
2025-05-08 13:02:49.391,2.258652147850552e-05,-2.498811214224732
2025-05-08 13:02:49.399,2.8066256922973207e-05,-11.260552026675755
2025-05-08 13:02:49.407,3.2619145393257344e-05,-20.26604572271197
2025-05-08 13:02:49.414,3.6181138781226384e-05,-29.349543754720443
2025-05-08 13:02:49.422,3.872530653051636e-05,-38.35083035287492
2025-05-08 13:02:49.430,4.0263841375224806e-05,-47.11878530865367
2025-05-08 13:02:49.438,4.084821570949952e-05,-55.51453018076857
2025-05-08 13:02:49.446,4.056743425975837e-05,-63.41408798433972
2025-05-08 13:02:49.453,3.954451133198776e-05,-70.71050712854361
2025-05-08 13:02:49.461,3.7931428065989725e-05,-77.31542138907248
2025-05-08 13:02:49.469,3.590288384510814e-05,-83.16003813094272
2025-05-08 13:02:49.477,3.3649166685467426e-05,-88.19556603187895
2025-05-08 13:02:49.485,3.1368453730247786e-05,-92.39311053518786
2025-05-08 13:02:49.492,2.9258826225733823e-05,-95.74307968641084
2025-05-08 13:02:49.500,2.7510248572795765e-05,-98.25415455360468
2025-05-08 13:02:49.508,2.6296729742902045e-05,-99.9518869326919
2025-05-08 13:02:49.516,2.576888158411813e-05,-100.87699247687762
2025-05-08 13:02:49.524,2.6047133355840727e-05,-101.08340986497434
2025-05-08 13:02:49.532,2.7215943139790115e-05,-100.63619634203933
2025-05-08 13:02:49.539,2.931941497506293e-05,-99.60932721508804
2025-05-08 13:02:49.547,3.2358734621790554e-05,-98.08346202105234
2025-05-08 13:02:49.555,3.629175559305337e-05,-96.14373350950258
2025-05-08 13:02:49.563,4.103490194132573e-05,-93.87760774497232
2025-05-08 13:02:49.571,4.646732118874367e-05,-91.37285500402662
2025-05-08 13:02:49.578,5.243696920222016e-05,-88.71566219336935
2025-05-08 13:02:49.586,5.876811663226666e-05,-85.9889086968494
2025-05-08 13:02:49.594,6.52696851512276e-05,-83.27061927998258
2025-05-08 13:02:49.602,7.174383998483785e-05,-80.6326003001211
2025-05-08 13:02:49.610,7.799433757487291e-05,-78.13925929090746
2025-05-08 13:02:49.617,8.383421778246006e-05,-75.84660324048933
2025-05-08 13:02:49.625,8.909252384465036e-05,-73.80140770168177
2025-05-08 13:02:49.633,9.361982537230358e-05,-72.04054729493095
2025-05-08 13:02:49.641,9.7292407117184e-05,-70.59047813132328
2025-05-08 13:02:49.649,0.0001000150666088,-69.46686404741396
2025-05-08 13:02:49.657,0.000101722535142,-68.674341081324
2025-05-08 13:02:49.664,0.0001023795975746,-68.20641802809035
2025-05-08 13:02:49.672,0.0001019800360736,-68.04551482102733
2025-05-08 13:02:49.680,0.0001005445609069,-68.163144478373
2025-05-08 13:02:49.688,9.811791765471946e-05,-68.52024799878605
2025-05-08 13:02:49.696,9.476537523502104e-05,-69.06769446506
2025-05-08 13:02:49.703,9.056880367531096e-05,-69.74696033453198
2025-05-08 13:02:49.711,8.562254567603868e-05,-70.4910021205346
2025-05-08 13:02:49.719,8.002927296598242e-05,-71.22533514082843
2025-05-08 13:02:49.727,7.38959986717402e-05,-71.86932756516822
2025-05-08 13:02:49.735,6.733039192445629e-05,-72.33771359164896
2025-05-08 13:02:49.742,6.043751224912842e-05,-72.54232230423032
2025-05-08 13:02:49.750,5.331705044446488e-05,-72.39400982781378
2025-05-08 13:02:49.758,4.6061131112058966e-05,-71.8047721500349
2025-05-08 13:02:49.766,3.875270106876314e-05,-70.69000489064727
2025-05-08 13:02:49.774,3.146449876707995e-05,-68.9708649441894
2025-05-08 13:02:49.782,2.425857357668147e-05,-66.57667795409479
2025-05-08 13:02:49.789,1.7186301179595435e-05,-63.44732570419716
2025-05-08 13:02:49.797,1.0288823037537766e-05,-59.53553946179503
2025-05-08 13:02:49.805,3.597824335352704e-06,-54.80901976924623
2025-05-08 13:02:49.813,-2.863443777749692e-06,-49.252300765558864
2025-05-08 13:02:49.821,-9.078995397787968e-06,-42.86827829226844
2025-05-08 13:02:49.828,-1.5038890974902474e-05,-35.67932608121221
2025-05-08 13:02:49.836,-2.073805890644684e-05,-27.727933299382286
2025-05-08 13:02:49.844,-2.617523822631423e-05,-19.076809462029644
2025-05-08 13:02:49.852,-3.135210950062758e-05,-9.808418804934734
2025-05-08 13:02:49.860,-3.627266469276798e-05,-0.0239250054725221
2025-05-08 13:02:49.867,-4.094284833190023e-05,10.158452127681947
2025-05-08 13:02:49.875,-4.537048262759716e-05,20.60564461571749
2025-05-08 13:02:49.883,-4.95654690683472e-05,31.17246371916475
2025-05-08 13:02:49.891,-5.354023937895325e-05,41.704780697773295
2025-05-08 13:02:49.899,-5.731041032777453e-05,52.04307580900555
2025-05-08 13:02:49.907,-6.089558056361887e-05,62.02625417442191
2025-05-08 13:02:49.914,-6.432019415252101e-05,71.49561439415298
2025-05-08 13:02:49.922,-6.761438541782157e-05,80.29884716011446
2025-05-08 13:02:49.930,-7.081471359603406e-05,88.29393705105669
2025-05-08 13:02:49.938,-7.39646941122319e-05,95.35284144197048
2025-05-08 13:02:49.946,-7.711503621483756e-05,101.36482608159471
2025-05-08 13:02:49.953,-8.032350439582507e-05,106.23934724039314
2025-05-08 13:02:49.961,-8.365433339485293e-05,109.90838507334476
2025-05-08 13:02:49.969,-8.717714340506504e-05,112.3281514586757
2025-05-08 13:02:49.977,-9.09653229453201e-05,113.48011735947148
2025-05-08 13:02:49.985,-9.509387114186586e-05,113.3713288206158
2025-05-08 13:02:49.993,-9.96367181046272e-05,112.03400601559788
2025-05-08 13:02:50.000,-0.0001046635707638,109.52444516109458
2025-05-08 13:02:50.008,-0.0001102363608874,105.92126747303796
2025-05-08 13:02:50.016,-0.0001164054008476,101.323081558977
2025-05-08 13:02:50.024,-0.0001232053797895,95.84564476544458
2025-05-08 13:02:50.032,-0.0001306513568626,89.6186242420564
2025-05-08 13:02:50.039,-0.0001387349278034,82.78206928649386
2025-05-08 13:02:50.047,-0.0001474207551465,75.48271258812063
2025-05-08 13:02:50.055,-0.0001566436595195,67.87021924044375
2025-05-08 13:02:50.063,-0.0001663064688476,60.093499034111645
2025-05-08 13:02:50.071,-0.0001762788130496,52.29718997937569
2025-05-08 13:02:50.078,-0.0001863970334172,44.61840982382649
2025-05-08 13:02:50.086,-0.0001964653481114,37.18385823593886
2025-05-08 13:02:50.094,-0.0002062583782247,30.107336092385868
2025-05-08 13:02:50.102,-0.0002155250931917,23.487730730722493
2025-05-08 13:02:50.110,-0.0002239941809316,17.407497889334728
2025-05-08 13:02:50.118,-0.0002313807884033,11.931653098486333
2025-05-08 13:02:50.125,-0.0002373945140599,7.1072681963183095
2025-05-08 13:02:50.133,-0.0002417484673,2.963453023965749
2025-05-08 13:02:50.141,-0.000244169144041,-0.4882113012335142
2025-05-08 13:02:50.149,-0.0002444068049858,-3.252832456250784
2025-05-08 13:02:50.157,-0.000242245987224,-5.35101399527736
2025-05-08 13:02:50.164,-0.0002375157338865,-6.817369174342382
2025-05-08 13:02:50.172,-0.000230099094083,-7.698804626852032
2025-05-08 13:02:50.180,-0.0002199414296125,-8.052637809152772
2025-05-08 13:02:50.188,-0.0002070570690684,-7.944610577312979
2025-05-08 13:02:50.196,-0.0001915338766548,-7.44685761133347
2025-05-08 13:02:50.203,-0.0001735353544923,-6.635883017675764
2025-05-08 13:02:50.211,-0.0001532999748861,-5.590591712707205
2025-05-08 13:02:50.219,-0.0001311375436085,-4.390414545030847
2025-05-08 13:02:50.227,-0.0001074225263867,-3.113557985267651
2025-05-08 13:02:50.235,-8.258442705539958e-05,-1.835401014199246
2025-05-08 13:02:50.243,-5.709548465388314e-05,-0.6270539625781073
2025-05-08 13:02:50.250,-3.145615267186427e-05,0.4459131527569795
2025-05-08 13:02:50.258,-6.179020316278588e-06,1.3245714961435149
2025-05-08 13:02:50.266,1.8228005082236568e-05,1.9575672358131515
2025-05-08 13:02:50.274,4.127836404992329e-05,2.301895783645204
2025-05-08 13:02:50.282,6.252251050318626e-05,2.323526206576749
2025-05-08 13:02:50.289,8.156185866575711e-05,1.9978864404477523
2025-05-08 13:02:50.297,9.806046353955908e-05,1.3102194642695926
2025-05-08 13:02:50.305,0.0001117540600127,0.255818903832947
2025-05-08 13:02:50.313,0.000122456245817,-1.1598501773046603
2025-05-08 13:02:50.321,0.0001300617363609,-2.921143020084324
2025-05-08 13:02:50.328,0.0001345467431723,-5.0023411015363015
2025-05-08 13:02:50.336,0.0001359666315203,-7.367877943297811
2025-05-08 13:02:50.344,0.0001344510969227,-9.972694220489432
2025-05-08 13:02:50.352,0.0001301971656222,-12.762734640836593
2025-05-08 13:02:50.360,0.0001234603723212,-15.67560105501158
2025-05-08 13:02:50.368,0.0001145445015445,-18.64137687634923
2025-05-08 13:02:50.375,0.0001037902992792,-21.583636871794223
2025-05-08 13:02:50.383,9.15635714855264e-05,-24.42065354860898
2025-05-08 13:02:50.391,7.824308809536065e-05,-27.06680660702899
2025-05-08 13:02:50.399,6.420870745310378e-05,-29.43419527489908
2025-05-08 13:02:50.407,4.9830128737640586e-05,-31.43444493167208
2025-05-08 13:02:50.414,3.545667026634593e-05,-32.98068954308665
2025-05-08 13:02:50.422,2.140845914796023e-05,-33.98970046923678
2025-05-08 13:02:50.430,7.969393379219437e-06,-34.3841207042512
2025-05-08 13:02:50.438,-4.61782104365224e-06,-34.09475219378371
2025-05-08 13:02:50.446,-1.6154369458557052e-05,-33.062833285050786
2025-05-08 13:02:50.453,-2.6485742143710464e-05,-31.242234372247623
2025-05-08 13:02:50.461,-3.550003105821342e-05,-28.601493183951774
2025-05-08 13:02:50.469,-4.312446421511072e-05,-25.125607629460283
2025-05-08 13:02:50.477,-4.932068751915287e-05,-20.81750426023356
2025-05-08 13:02:50.485,-5.407940029041535e-05,-15.699104607855595
2025-05-08 13:02:50.493,-5.741496327800946e-05,-9.811920100552069
2025-05-08 13:02:50.500,-5.936052770059094e-05,-3.217118853551774
2025-05-08 13:02:50.508,-5.996410742742123e-05,4.00497596868191
2025-05-08 13:02:50.516,-5.928586246292184e-05,11.755976904630325
2025-05-08 13:02:50.524,-5.739669688356841e-05,19.92111074495347
2025-05-08 13:02:50.532,-5.43781068924928e-05,28.371460178766075
2025-05-08 13:02:50.539,-5.032305167316714e-05,36.96672020921765
2025-05-08 13:02:50.547,-4.533746964816653e-05,45.55839833191798
2025-05-08 13:02:50.555,-3.954194331193355e-05,53.99336692810465
2025-05-08 13:02:50.563,-3.30729631782254e-05,62.117659034853325
2025-05-08 13:02:50.571,-2.6083294154936605e-05,69.7803855913493
2025-05-08 13:02:50.578,-1.8741104681870915e-05,76.83764419360665
2025-05-08 13:02:50.586,-1.122772797409012e-05,83.15628683634672
2025-05-08 13:02:50.594,-3.734123314655768e-06,88.61741731101615
2025-05-08 13:02:50.602,3.543745732781215e-06,93.11949779335444
2025-05-08 13:02:50.610,1.0410316396782745e-05,96.58095831714368
2025-05-08 13:02:50.618,1.6676292799039433e-05,98.94222162209007
2025-05-08 13:02:50.625,2.2164664950849645e-05,100.16707835288872
2025-05-08 13:02:50.633,2.671659987168483e-05,100.24337264541488
2025-05-08 13:02:50.641,3.019695412454761e-05,99.1829845157095
2025-05-08 13:02:50.649,3.2499187667261094e-05,97.02112187771267
2025-05-08 13:02:50.657,3.354948979493587e-05,93.81496020263896
2025-05-08 13:02:50.664,3.330995908954468e-05,89.64169065380645
2025-05-08 13:02:50.672,3.1780710908033224e-05,84.59605702198574
2025-05-08 13:02:50.680,2.9000818405902303e-05,78.78747721313829
2025-05-08 13:02:50.688,2.50480268867134e-05,72.3368559212978
2025-05-08 13:02:50.696,2.0037216901311475e-05,65.37320122986827
2025-05-08 13:02:50.703,1.4117629466735662e-05,58.03015924906863
2025-05-08 13:02:50.711,7.468907395216275e-06,50.44257777047014
2025-05-08 13:02:50.719,2.960501986954112e-07,42.743202755387095
2025-05-08 13:02:50.727,-7.176573699393278e-06,35.05960087873816
2025-05-08 13:02:50.735,-1.4711965015424551e-05,27.51138802745564
2025-05-08 13:02:50.743,-2.206773905616703e-05,20.207828350916515
2025-05-08 13:02:50.750,-2.900358621451556e-05,13.245851933730693
2025-05-08 13:02:50.758,-3.528861771428828e-05,6.708522139516687
2025-05-08 13:02:50.766,-4.070826378736627e-05,0.6639668436246094
2025-05-08 13:02:50.774,-4.507043775855648e-05,-4.835228247623145
2025-05-08 13:02:50.782,-4.821076080263168e-05,-9.752180669252455
2025-05-08 13:02:50.789,-4.999673169119932e-05,-14.065456036161743
2025-05-08 13:02:50.797,-5.0330811527475415e-05,-17.76843681652168
2025-05-08 13:02:50.805,-4.915246352287639e-05,-20.86836369073201
2025-05-08 13:02:50.813,-4.643921670603703e-05,-23.38510421545409
2025-05-08 13:02:50.821,-4.220679922266266e-05,-25.34970716340021
2025-05-08 13:02:50.828,-3.650833862036152e-05,-26.80280222107906
2025-05-08 13:02:50.836,-2.943259915915334e-05,-27.79290384628587
2025-05-08 13:02:50.844,-2.1101245366026596e-05,-28.374675223053423
2025-05-08 13:02:50.852,-1.1665168262090026e-05,-28.60720366525343
2025-05-08 13:02:50.860,-1.2999500213091091e-06,-28.55233281477245
2025-05-08 13:02:50.868,9.799427289429385e-06,-28.27308988868529
2025-05-08 13:02:50.875,2.1424476484818276e-05,-27.83223839942311
2025-05-08 13:02:50.883,3.3359489716354345e-05,-27.290978552510573
2025-05-08 13:02:50.891,4.538795981145949e-05,-26.70780926067502
2025-05-08 13:02:50.899,5.7298891106038256e-05,-26.137557729747115
2025-05-08 13:02:50.907,6.889278847068202e-05,-25.630575182341204
2025-05-08 13:02:50.914,7.998715728766341e-05,-25.232090780327614
2025-05-08 13:02:50.922,9.042138780277936e-05,-24.98171044568663
2025-05-08 13:02:50.930,0.0001000609317343,-24.913043271913104
2025-05-08 13:02:50.938,0.0001088007065678,-25.05343570917041
2025-05-08 13:02:50.946,0.0001165676833805,-25.42379276464931
2025-05-08 13:02:50.953,0.0001233226275578,-26.038466076895908
2025-05-08 13:02:50.961,0.0001290609690381,-26.90519081516764
2025-05-08 13:02:50.969,0.0001338127807533,-28.025056762090017
2025-05-08 13:02:50.977,0.0001376418420094,-29.392503426719216
2025-05-08 13:02:50.985,0.0001406437591695,-30.995334310122438
2025-05-08 13:02:50.993,0.0001429431107711,-32.81475116796877
2025-05-08 13:02:51.000,0.0001446895813995,-34.82541492160402
2025-05-08 13:02:51.008,0.0001460530595188,-36.99554538844653
2025-05-08 13:02:51.016,0.0001472177210725,-39.287076864674106
2025-05-08 13:02:51.024,0.0001483752154041,-41.65589044480893
2025-05-08 13:02:51.032,0.0001497171874886,-44.052146481397294
2025-05-08 13:02:51.039,0.0001514274613114,-46.42074149535698
2025-05-08 13:02:51.047,0.0001536742477133,-48.70191292619996
2025-05-08 13:02:51.055,0.0001566027378884,-50.83201222420726
2025-05-08 13:02:51.063,0.0001603284220908,-52.74446189472805
2025-05-08 13:02:51.071,0.000164931442147,-54.37090527680867
2025-05-08 13:02:51.078,0.0001704522481468,-55.64254925344326
2025-05-08 13:02:51.086,0.0001768887846222,-56.49169003758427
2025-05-08 13:02:51.094,0.0001841953800596,-56.8534010527309
2025-05-08 13:02:51.102,0.0001922834562166,-56.667350229294186
2025-05-08 13:02:51.110,0.0002010241110177,-55.879702363381
2025-05-08 13:02:51.118,0.0002102525615119,-54.445051204464434
2025-05-08 13:02:51.125,0.0002197743623951,-52.32831636672263
2025-05-08 13:02:51.133,0.0002293732420764,-49.50653271231776
2025-05-08 13:02:51.141,0.0002388203235672,-45.97045521208133
2025-05-08 13:02:51.149,0.0002478844232689,-41.72590104581761
2025-05-08 13:02:51.157,0.0002563430489329,-36.79475332021848
2025-05-08 13:02:51.164,0.0002639936508595,-31.215557524602573
2025-05-08 13:02:51.172,0.0002706646201913,-25.04365274554676
2025-05-08 13:02:51.180,0.0002762254791307,-18.35079449322948
2025-05-08 13:02:51.188,0.00028059568244,-11.224244258300375
2025-05-08 13:02:51.196,0.000283751470937,-3.765321861904829
2025-05-08 13:02:51.203,0.0002857302996401,3.912560698945617
2025-05-08 13:02:51.211,0.0002866324833755,11.686342021650344
2025-05-08 13:02:51.219,0.0002866198228701,19.42616630086736
2025-05-08 13:02:51.227,0.0002859110907866,26.998565633209708
2025-05-08 13:02:51.235,0.0002847743939121,34.269867285758764
2025-05-08 13:02:51.243,0.0002835165803963,41.10971038584563
2025-05-08 13:02:51.250,0.0002824699919201,47.39454834467417
2025-05-08 13:02:51.258,0.0002819769556465,53.01101082296376
2025-05-08 13:02:51.266,0.0002823725020345,57.859002436112135
2025-05-08 13:02:51.274,0.0002839659140177,61.85442458225566
2025-05-08 13:02:51.282,0.0002870218437811,64.93142131642053
2025-05-08 13:02:51.289,0.0002917418265717,67.04406932855655
2025-05-08 13:02:51.297,0.0002982470497407,68.16745478923426
2025-05-08 13:02:51.305,0.0003065632102459,68.29810488928908
2025-05-08 13:02:51.313,0.0003166082354056,67.45376799655287
2025-05-08 13:02:51.321,0.0003281835594038,65.67256214033809
2025-05-08 13:02:51.328,0.0003409695437715,63.01153572904202
2025-05-08 13:02:51.336,0.000354525504543,59.54470586076701
2025-05-08 13:02:51.344,0.0003682946633183,55.360657357518015
2025-05-08 13:02:51.352,0.00038161417606,50.55979905211626
2025-05-08 13:02:51.360,0.0003937302149466,45.25138247790051
2025-05-08 13:02:51.368,0.0004038178886865,39.55039183235378
2025-05-08 13:02:51.375,0.0004110055900339,33.57441304959032
2025-05-08 13:02:51.383,0.0004144031614138,27.440584401697464
2025-05-08 13:02:51.391,0.0004131330770886,21.26272183175395
2025-05-08 13:02:51.399,0.0004063636604987,15.148699925044331
2025-05-08 13:02:51.407,0.0003933431963182,9.198154856206449
2025-05-08 13:02:51.414,0.0003734336668629,3.5005596379960484
2025-05-08 13:02:51.422,0.0003461427505058,-1.8662946523207389
2025-05-08 13:02:51.430,0.0003111526743052,-6.837394531103744
2025-05-08 13:02:51.438,0.0002683445223241,-11.361175274928314
2025-05-08 13:02:51.446,0.0002178166724471,-15.399780647041885
2025-05-08 13:02:51.453,0.0001598961739479,-18.928936890312908
2025-05-08 13:02:51.461,9.514209001798832e-05,-21.93747726074413
2025-05-08 13:02:51.469,2.434011618048517e-05,-24.42656165962868
2025-05-08 13:02:51.477,-5.151185326081059e-05,-26.408641841556683
2025-05-08 13:02:51.485,-0.0001312271076061,-27.906226251443343
2025-05-08 13:02:51.493,-0.0002134618646925,-28.950499882630357
2025-05-08 13:02:51.500,-0.0002967542983141,-29.579853817105345
2025-05-08 13:02:51.508,-0.0003795693214766,-29.838376516373412
2025-05-08 13:02:51.516,-0.0004603472439897,-29.774354717146863
2025-05-08 13:02:51.524,-0.000537554178371,-29.43882621917198
2025-05-08 13:02:51.532,-0.0006097319422081,-28.884220230097068
2025-05-08 13:02:51.539,-0.0006755452041921,-28.16311356945547
2025-05-08 13:02:51.547,-0.0007338237456228,-27.32712325139497
2025-05-08 13:02:51.555,-0.0007835979591556,-26.42594808283236
2025-05-08 13:02:51.563,-0.0008241260792604,-25.506564246051767
2025-05-08 13:02:51.571,-0.0008549121159884,-24.61257268950945
2025-05-08 13:02:51.578,-0.0008757140034477,-23.783689810512893
2025-05-08 13:02:51.586,-0.0008865420129483,-23.055367617013527
2025-05-08 13:02:51.594,-0.0008876479535015,-22.458525483806127
2025-05-08 13:02:51.602,-0.0008795060602151,-22.019372891234124
2025-05-08 13:02:51.610,-0.0008627867661686,-21.75930121603686
2025-05-08 13:02:51.618,-0.00083832478854,-21.6948227466402
2025-05-08 13:02:51.625,-0.0008070831465374,-21.83753658068833
2025-05-08 13:02:51.633,-0.0007701148613069,-22.19410383981776
2025-05-08 13:02:51.641,-0.0007285241385964,-22.76621855867332
2025-05-08 13:02:51.649,-0.0006834287642263,-23.550565467435653
2025-05-08 13:02:51.657,-0.0006359252368075,-24.538761430845256
2025-05-08 13:02:51.664,-0.0005870578570732,-25.71728322990972
2025-05-08 13:02:51.672,-0.0005377926490284,-27.067390345843812
2025-05-08 13:02:51.680,-0.0004889966521229,-28.56505708760838
2025-05-08 13:02:51.688,-0.0004414228201817,-30.180933453608827
2025-05-08 13:02:51.696,-0.0003957005023668,-31.88035820774513
2025-05-08 13:02:51.703,-0.000352331262037,-33.62345048218113
2025-05-08 13:02:51.711,-0.0003116895953356,-35.365307539347256
2025-05-08 13:02:51.719,-0.000274027933589,-37.05633593412023
2025-05-08 13:02:51.727,-0.0002394851779013,-38.64274107884525
2025-05-08 13:02:51.735,-0.000208097965811,-40.0671960703674
2025-05-08 13:02:51.743,-0.0001798139193793,-41.269704622516905
2025-05-08 13:02:51.750,-0.0001545062300319,-42.18866519607891
2025-05-08 13:02:51.758,-0.000131989044538,-42.76213417195055
2025-05-08 13:02:51.766,-0.0001120332015812,-42.92927550684425
2025-05-08 13:02:51.774,-9.438192148730888e-05,-42.63197316160952
2025-05-08 13:02:51.782,-7.876606812980937e-05,-41.81657119192681
2025-05-08 13:02:51.789,-6.491858869165085e-05,-40.43569529988884
2025-05-08 13:02:51.797,-5.2587716903888674e-05,-38.45009947652843
2025-05-08 13:02:51.805,-4.154852073533868e-05,-35.830472762294335
2025-05-08 13:02:51.813,-3.161239522857927e-05,-32.559134755944044
2025-05-08 13:02:51.821,-2.2634145565987768e-05,-28.631544915922632
2025-05-08 13:02:51.828,-1.451637262012724e-05,-24.05755044102073
2025-05-08 13:02:51.836,-7.210960787206478e-06,-18.862300967170448
2025-05-08 13:02:51.844,-7.1757292077003e-07,-13.0867656599346
2025-05-08 13:02:51.852,4.920823681717281e-06,-6.787799473703963
2025-05-08 13:02:51.860,9.625246811164109e-06,-0.037720099059781
2025-05-08 13:02:51.868,1.3290515307876568e-05,7.076625103190732
2025-05-08 13:02:51.875,1.5797164990758243e-05,14.4553028301664
2025-05-08 13:02:51.883,1.7024903752955104e-05,21.987227476781523
2025-05-08 13:02:51.891,1.686691862940789e-05,29.552542247118176
2025-05-08 13:02:51.899,1.5244234203831144e-05,37.0253844432854
2025-05-08 13:02:51.907,1.211922784788149e-05,44.276952751318575
2025-05-08 13:02:51.914,7.507349116140435e-06,51.178778492613546
2025-05-08 13:02:51.922,1.4861046078397723e-06,57.60609093302023
2025-05-08 13:02:51.930,-5.799497070361581e-06,63.44115958969845
2025-05-08 13:02:51.938,-1.4135574357871875e-05,68.57649455172525
2025-05-08 13:02:51.946,-2.3242242506929897e-05,72.91778934816304
2025-05-08 13:02:51.953,-3.278051642303289e-05,76.38649975999817
2025-05-08 13:02:51.961,-4.236274725333694e-05,78.92196577306103
2025-05-08 13:02:51.969,-5.156592704050508e-05,80.4830019088999
2025-05-08 13:02:51.977,-5.9947136035480095e-05,81.04890249866915
2025-05-08 13:02:51.985,-6.706039937912387e-05,80.6198319448005
2025-05-08 13:02:51.993,-7.247420934085704e-05,79.21659441092906
2025-05-08 13:02:52.000,-7.57889318302646e-05,76.87980144848389
2025-05-08 13:02:52.008,-7.665327457909642e-05,73.66847863750836
2025-05-08 13:02:52.016,-7.477899771118912e-05,69.65817235657408
2025-05-08 13:02:52.024,-6.995312017302729e-05,64.93863445672503
2025-05-08 13:02:52.032,-6.204700476636307e-05,59.61117527482014
2025-05-08 13:02:52.039,-5.102186772847292e-05,53.78578370347042
2025-05-08 13:02:52.047,-3.693044399020059e-05,47.57811680826839
2025-05-08 13:02:52.055,-1.99147421442444e-05,41.10646085911926
2025-05-08 13:02:52.063,-2.0004069288360146e-07,34.488760949851155
2025-05-08 13:02:52.071,2.191449591536836e-05,27.83980812728047
2025-05-08 13:02:52.078,4.6067982111469886e-05,21.26866177580383
2025-05-08 13:02:52.086,7.185197955096241e-05,14.876371622396304
2025-05-08 13:02:52.094,9.882580506872228e-05,8.754048888079147
2025-05-08 13:02:52.102,0.0001265321420765,2.981320559430825
2025-05-08 13:02:52.110,0.0001545122349028,-2.3748148055066958
2025-05-08 13:02:52.118,0.0001823200973387,-7.260726248937483
2025-05-08 13:02:52.125,0.0002095353150607,-11.636494821191212
2025-05-08 13:02:52.133,0.0002357741491642,-15.475885610581866
2025-05-08 13:02:52.141,0.0002606987485343,-18.76597996021498
2025-05-08 13:02:52.149,0.0002840243492088,-21.506508446642865
2025-05-08 13:02:52.157,0.0003055243779575,-23.70893091920025
2025-05-08 13:02:52.164,0.0003250333869907,-25.395313320836145
2025-05-08 13:02:52.172,0.0003424477386425,-26.597052209734773
2025-05-08 13:02:52.180,0.0003577239586879,-27.353497038262923
2025-05-08 13:02:52.188,0.0003708747118471,-27.710517553748524
2025-05-08 13:02:52.196,0.0003819624343611,-27.71905945039227
2025-05-08 13:02:52.203,0.0003910907845655,-27.433725947791327
2025-05-08 13:02:52.211,0.0003983942315068,-26.911416645675786
2025-05-08 13:02:52.219,0.0004040262596791,-26.21004815954232
2025-05-08 13:02:52.227,0.0004081467840747,-25.38737402570469
2025-05-08 13:02:52.235,0.0004109094401765,-24.499914510425796
2025-05-08 13:02:52.243,0.0004124494619249,-23.60200057448654
2025-05-08 13:02:52.250,0.0004128728769382,-22.744930600870493
2025-05-08 13:02:52.258,0.0004122476856142,-21.976233808620503
2025-05-08 13:02:52.266,0.0004105975408056,-21.33903071719228
2025-05-08 13:02:52.274,0.0004078982720622,-20.871478708097403
2025-05-08 13:02:52.282,0.0004040774744838,-20.60628971746343
2025-05-08 13:02:52.289,0.000399017309721,-20.570307391819306
2025-05-08 13:02:52.297,0.0003925605826507,-20.784132596644035
2025-05-08 13:02:52.305,0.0003845199975899,-21.261788864937145
2025-05-08 13:02:52.313,0.0003746902567344,-22.010423029682155
2025-05-08 13:02:52.321,0.0003628623952939,-23.030040662531874
2025-05-08 13:02:52.329,0.0003488395181659,-24.313280760430853
2025-05-08 13:02:52.336,0.0003324529538012,-25.845239069209327
2025-05-08 13:02:52.344,0.0003135777903087,-27.603354175286928
2025-05-08 13:02:52.352,0.0002921468022707,-29.55737469280807
2025-05-08 13:02:52.360,0.0002681618903943,-31.669429189516407
2025-05-08 13:02:52.368,0.0002417023157338,-33.894222619689245
2025-05-08 13:02:52.375,0.000212929203296,-36.17938369894747
2025-05-08 13:02:52.383,0.0001820860095367,-38.46598665688934
2025-05-08 13:02:52.391,0.0001494948804547,-40.68926800346572
2025-05-08 13:02:52.399,0.0001155490458026,-42.77955428523981
2025-05-08 13:02:52.407,8.070158141718154e-05,-44.66341031672535
2025-05-08 13:02:52.414,4.545103550530444e-05,-46.26500917919401
2025-05-08 13:02:52.422,1.0324575759218674e-05,-47.50771562343249
2025-05-08 13:02:52.430,-2.4140532616702576e-05,-48.315863741201575
2025-05-08 13:02:52.438,-5.7416189154469154e-05,-48.61669833106953
2025-05-08 13:02:52.446,-8.900247212106673e-05,-48.34243781732148
2025-05-08 13:02:52.454,-0.0001184454268543,-47.4324055017289
2025-05-08 13:02:52.461,-0.0001453527267196,-45.83516600443756
2025-05-08 13:02:52.469,-0.0001694064293265,-43.51059566147445
2025-05-08 13:02:52.477,-0.0001903722213733,-40.43181003590409
2025-05-08 13:02:52.485,-0.0002081047722928,-36.58686912942311
2025-05-08 13:02:52.493,-0.000222549091645,-31.98018179231365
2025-05-08 13:02:52.500,-0.0002337380691516,-26.63353550610172
2025-05-08 13:02:52.508,-0.0002417866174693,-20.58668624595985
2025-05-08 13:02:52.516,-0.0002468829990894,-13.897455388006687
2025-05-08 13:02:52.524,-0.0002492779968088,-6.641296245641438
2025-05-08 13:02:52.532,-0.0002492726060855,1.0896887893981997
2025-05-08 13:02:52.539,-0.0002472049131833,9.188279141875062
2025-05-08 13:02:52.547,-0.0002434367889952,17.534192161924654
2025-05-08 13:02:52.555,-0.0002383409805405,25.996620051891497
2025-05-08 13:02:52.563,-0.00023228912274,34.43718250236488
2025-05-08 13:02:52.571,-0.0002256411162767,42.71321106928323
2025-05-08 13:02:52.579,-0.0002187362059376,50.68126532495903
2025-05-08 13:02:52.586,-0.0002118859395362,58.2007686084958
2025-05-08 13:02:52.594,-0.0002053690190228,65.13764352097091
2025-05-08 13:02:52.602,-0.0001994279243158,71.36782463592266
2025-05-08 13:02:52.610,-0.0001942671237796,76.7805284372217
2025-05-08 13:02:52.618,-0.0001900526716631,81.28116819957683
2025-05-08 13:02:52.625,-0.0001869130086944,84.79381407103926
2025-05-08 13:02:52.633,-0.0001849408058907,87.26311542377661
2025-05-08 13:02:52.641,-0.0001841956967068,88.65562280105934
2025-05-08 13:02:52.649,-0.0001847077044495,88.96046951782245
2025-05-08 13:02:52.657,-0.000186481092082,88.18939707041181
2025-05-08 13:02:52.664,-0.0001894982743445,86.37613283726824
2025-05-08 13:02:52.672,-0.000193723385161,83.57515198686605
2025-05-08 13:02:52.680,-0.0001991051197842,79.85987701140922
2025-05-08 13:02:52.688,-0.0002055785706436,75.32038696747745
2025-05-08 13:02:52.696,-0.0002130659209412,70.06072360467749
2025-05-08 13:02:52.704,-0.0002214760215795,64.19589259544048
2025-05-08 13:02:52.711,-0.0002307030367207,57.84866476843962
2025-05-08 13:02:52.719,-0.0002406244830321,51.14628454284687
2025-05-08 13:02:52.727,-0.0002510990786578,44.21719081677289
2025-05-08 13:02:52.735,-0.0002619648332541,37.18784972405493
2025-05-08 13:02:52.743,-0.000273037750332,30.17978944028984
2025-05-08 13:02:52.750,-0.0002841114117394,23.30691521133076
2025-05-08 13:02:52.758,-0.0002949576200112,16.673168689055355
2025-05-08 13:02:52.766,-0.000305328221184,10.370580214979617
2025-05-08 13:02:52.774,-0.0003149582115942,4.477746610991026
2025-05-08 13:02:52.782,-0.0003235702031981,-0.9412490015144068
2025-05-08 13:02:52.789,-0.0003308802477707,-5.837474212308829
2025-05-08 13:02:52.797,-0.0003366049164129,-10.177354210645843
2025-05-08 13:02:52.805,-0.0003404694432258,-13.942474160486316
2025-05-08 13:02:52.813,-0.0003422166873088,-17.129013264605486
2025-05-08 13:02:52.821,-0.0003416166137996,-19.746855105257847
2025-05-08 13:02:52.829,-0.0003384759112367,-21.81842489639374
2025-05-08 13:02:52.836,-0.0003326472665734,-23.377307965653845
2025-05-08 13:02:52.844,-0.0003240377600008,-24.4667051746452
2025-05-08 13:02:52.852,-0.0003126158465493,-25.1377802382188
2025-05-08 13:02:52.860,-0.0002984164495475,-25.44795124326556
2025-05-08 13:02:52.868,-0.000281543781963,-25.45917437866736
2025-05-08 13:02:52.875,-0.0002621716253435,-25.23626229769712
2025-05-08 13:02:52.883,-0.0002405409299248,-24.845272995227937
2025-05-08 13:02:52.891,-0.0002169547501964,-24.351997954593003
2025-05-08 13:02:52.899,-0.0001917706857068,-23.82057095564555
2025-05-08 13:02:52.907,-0.0001653911333365,-23.31221167330035
2025-05-08 13:02:52.914,-0.0001382517577892,-22.884111348000417
2025-05-08 13:02:52.922,-0.0001108086617811,-22.58846165807576
2025-05-08 13:02:52.930,-8.35247985846565e-05,-22.4716227134433
2025-05-08 13:02:52.938,-5.6856195218841485e-05,-22.5734220248392
2025-05-08 13:02:52.946,-3.12385185548814e-05,-22.9265735412135
2025-05-08 13:02:52.954,-7.0744432907039205e-06,-23.55620448992696
2025-05-08 13:02:52.961,1.527777869000136e-05,-24.47947782604523
2025-05-08 13:02:52.969,3.5514184309476114e-05,-25.70529954191868
2025-05-08 13:02:52.977,5.339308491805779e-05,-27.23410276789208
2025-05-08 13:02:52.985,6.874093625120071e-05,-29.057704294611472
2025-05-08 13:02:52.993,8.145595735740478e-05,-31.159233584387547
2025-05-08 13:02:53.000,9.150946068429896e-05,-33.51313917383479
2025-05-08 13:02:53.008,9.894494054896883e-05,-36.08528221958726
2025-05-08 13:02:53.016,0.0001038750384112,-38.83313139562311
2025-05-08 13:02:53.024,0.0001064765616218,-41.70607700547083
2025-05-08 13:02:53.032,0.000106983779009,-44.64588463772847
2025-05-08 13:02:53.039,0.0001056802535092,-47.58730962301842
2025-05-08 13:02:53.047,0.000102889500896,-50.458892661908045
2025-05-08 13:02:53.055,9.896478643388116e-05,-53.18395409204879
2025-05-08 13:02:53.063,9.427838971714092e-05,-55.68179926697452
2025-05-08 13:02:53.071,8.921068359608396e-05,-57.86914047451909
2025-05-08 13:02:53.079,8.413938708210167e-05,-59.661731908344535
2025-05-08 13:02:53.086,7.942936357326489e-05,-60.97620373153905
2025-05-08 13:02:53.094,7.542333518589193e-05,-61.73206967019632
2025-05-08 13:02:53.102,7.243384889964703e-05,-61.85387039080382
2025-05-08 13:02:53.110,7.073673894800737e-05,-61.2734027849676
2025-05-08 13:02:53.118,7.05661868668736e-05,-59.9319739184291
2025-05-08 13:02:53.125,7.211132282984215e-05,-57.78260855148299
2025-05-08 13:02:53.133,7.55141895996052e-05,-54.79213155968786
2025-05-08 13:02:53.141,8.086883923571097e-05,-50.943041986210304
2025-05-08 13:02:53.149,8.822135441710273e-05,-46.23509445139332
2025-05-08 13:02:53.157,9.757065370542512e-05,-40.68650668959612
2025-05-08 13:02:53.164,0.0001088700161734,-34.33471933046425
2025-05-08 13:02:53.172,0.0001220293097167,-27.23664569265785
2025-05-08 13:02:53.180,0.0001369179105659,-19.468365032917035
2025-05-08 13:02:53.188,0.0001533682781265,-11.124231827847504
2025-05-08 13:02:53.196,0.0001711801341404,-2.3153954394877543
2025-05-08 13:02:53.204,0.0001901251887571,6.83225209254412
2025-05-08 13:02:53.211,0.0002099523310584,16.180658532169367
2025-05-08 13:02:53.219,0.0002303931590725,25.5826594890578
2025-05-08 13:02:53.227,0.0002511677005694,34.885406140189886
2025-05-08 13:02:53.235,0.0002719901920461,43.93406863629984
2025-05-08 13:02:53.243,0.0002925748249744,52.57569711235042
2025-05-08 13:02:53.250,0.0003126414124015,60.66311293257858
2025-05-08 13:02:53.258,0.00033192096377,68.05869884057316
2025-05-08 13:02:53.266,0.000350161178498,74.63795831510693
2025-05-08 13:02:53.274,0.0003671318789458,80.2927216344024
2025-05-08 13:02:53.282,0.0003826304011235,84.93388863035776
2025-05-08 13:02:53.289,0.0003964869477949,88.49361531452575
2025-05-08 13:02:53.297,0.0004085698850999,90.92687268588666
2025-05-08 13:02:53.305,0.0004187909325913,92.212330087067
2025-05-08 13:02:53.313,0.0004271101603108,92.35254130164572
2025-05-08 13:02:53.321,0.0004335406681908,91.37343792956575
2025-05-08 13:02:53.329,0.000438152785895,89.32316019124404
2025-05-08 13:02:53.336,0.0004410775985014,86.27027905242295
2025-05-08 13:02:53.344,0.000442509578425,82.30148445680292
2025-05-08 13:02:53.352,0.0004427080880678,77.5188316774415
2025-05-08 13:02:53.360,0.0004419975038255,72.03665066405075
2025-05-08 13:02:53.368,0.0004407656817796,65.97823129259069
2025-05-08 13:02:53.375,0.0004394604289532,59.47240043326149
2025-05-08 13:02:53.383,0.0004385835884172,52.65010487068096
2025-05-08 13:02:53.391,0.0004386823414895,45.6411077204962
2025-05-08 13:02:53.399,0.0004403374005736,38.5708956683209
2025-05-08 13:02:53.407,0.0004441478977237,31.557880830887484
2025-05-08 13:02:53.414,0.0004507129419135,24.710965126450013
2025-05-08 13:02:53.422,0.0004606100069166,18.127517616833316
2025-05-08 13:02:53.430,0.0004743705132217,11.891797226080728
2025-05-08 13:02:53.438,0.0004924531736038,6.073835384971662
2025-05-08 13:02:53.446,0.0005152158740929,0.7287762484581802
2025-05-08 13:02:53.454,0.0005428870507318,-4.1033431754805925
2025-05-08 13:02:53.461,0.0005755376880087,-8.397403856679855
2025-05-08 13:02:53.469,0.0006130551975004,-12.142648162627657
2025-05-08 13:02:53.477,0.0006551205258001,-15.341805608076582
2025-05-08 13:02:53.485,0.0007011898807444,-18.009956087248998
2025-05-08 13:02:53.493,0.0007504824470389,-20.173188517366427
2025-05-08 13:02:53.500,0.0008019753809867,-21.867113118014057
2025-05-08 13:02:53.508,0.0008544072255541,-23.13528360109641
2025-05-08 13:02:53.516,0.0009062906702998,-24.027581650870385
2025-05-08 13:02:53.524,0.0009559352973111,-24.598610579989536
2025-05-08 13:02:53.532,0.001001480608799,-24.906138332306615
2025-05-08 13:02:53.539,0.0010409392321538,-25.009622459247502
2025-05-08 13:02:53.547,0.0010722497550508,-24.968841719795392
2025-05-08 13:02:53.555,0.0010933381708137,-24.842650927001973
2025-05-08 13:02:53.563,0.001102186429946,-24.687867940496872
2025-05-08 13:02:53.571,0.0010969061174663,-24.558294602854485
2025-05-08 13:02:53.579,0.0010758148296736,-24.503867220183675
2025-05-08 13:02:53.586,0.0010375124320844,-24.569927139397397
2025-05-08 13:02:53.594,0.0009809540689693,-24.796598275701783
2025-05-08 13:02:53.602,0.0009055165986851,-25.218256233069013
2025-05-08 13:02:53.610,0.000811055092375,-25.86307300681236
2025-05-08 13:02:53.618,0.0006979461896621,-26.752622155988536
2025-05-08 13:02:53.625,0.0005671154461264,-27.901531702220723
2025-05-08 13:02:53.633,0.0004200462982546,-29.31717568711976
2025-05-08 13:02:53.641,0.0002587688953492,-30.99940005807382
2025-05-08 13:02:53.649,8.582781759733229e-05,-32.94028403660585
2025-05-08 13:02:53.657,-9.577137910045108e-05,-35.12394398819062
2025-05-08 13:02:53.664,-0.0002826358130086,-37.52639265979047
2025-05-08 13:02:53.672,-0.0004710770621784,-40.11547206976915
2025-05-08 13:02:53.680,-0.0006572179937995,-42.85088291463663
2025-05-08 13:02:53.688,-0.0008371106513767,-45.6843367119892
2025-05-08 13:02:53.696,-0.0010068605483665,-48.55985869200944
2025-05-08 13:02:53.704,-0.0011627523460135,-51.41426941318659
2025-05-08 13:02:53.711,-0.0013013718300148,-54.17787102120106
2025-05-08 13:02:53.719,-0.0014197193070193,-56.77535988484085
2025-05-08 13:02:53.727,-0.0015153099636737,-59.126981013036655
2025-05-08 13:02:53.735,-0.0015862573225887,-61.14993127183275
2025-05-08 13:02:53.743,-0.0016313366461767,-62.76000818310263
2025-05-08 13:02:53.750,-0.0016500259307405,-63.873489318810336
2025-05-08 13:02:53.758,-0.0016425229649751,-64.40921444392596
2025-05-08 13:02:53.766,-0.0016097377888475,-64.2908291625883
2025-05-08 13:02:53.774,-0.001553260771021,-63.44913554713269
2025-05-08 13:02:53.782,-0.0014753074030103,-61.82448282332344
2025-05-08 13:02:53.789,-0.0013786417649443,-59.36912044525846
2025-05-08 13:02:53.797,-0.0012664814409001,-56.04942763167069
2025-05-08 13:02:53.805,-0.0011423874382601,-51.84792842652437
2025-05-08 13:02:53.813,-0.0010101433596309,-46.7650002644478
2025-05-08 13:02:53.821,-0.0008736286262657,-40.82018736851232
2025-05-08 13:02:53.829,-0.0007366908881419,-34.05303835352229
2025-05-08 13:02:53.836,-0.0006030228117162,-26.52340014219329
2025-05-08 13:02:53.844,-0.0004760481621764,-18.311117412075035
2025-05-08 13:02:53.852,-0.0003588214921175,-9.515107665756895
2025-05-08 13:02:53.860,-0.0002539448894007,-0.2518057698592201
2025-05-08 13:02:53.868,-0.0001635042499221,9.347002671731
2025-05-08 13:02:53.875,-8.902653974469471e-05,19.13691372435521
2025-05-08 13:02:53.883,-3.1458561783300525e-05,28.964132739077712
2025-05-08 13:02:53.891,8.833126443100226e-06,38.66910358897661
2025-05-08 13:02:53.899,3.204227366451705e-05,48.090426320173165
2025-05-08 13:02:53.907,3.888478059588013e-05,57.06893489292552
2025-05-08 13:02:53.914,3.054470277998457e-05,65.4517969348604
2025-05-08 13:02:53.922,8.607219289536883e-06,73.09649364061805
2025-05-08 13:02:53.930,-2.5018325452322884e-05,79.8745404222063
2025-05-08 13:02:53.938,-6.818201828536476e-05,85.67481760962295
2025-05-08 13:02:53.946,-0.0001185802358108,90.40639505780258
2025-05-08 13:02:53.954,-0.0001738424058711,94.00075424484596
2025-05-08 13:02:53.961,-0.0002316144696085,96.41333536315676
2025-05-08 13:02:53.969,-0.0002896361439792,97.62436378797928
2025-05-08 13:02:53.977,-0.0003458095050229,97.63893878125852
2025-05-08 13:02:53.985,-0.0003982569122983,96.48639591435094
2025-05-08 13:02:53.993,-0.0004453668462205,94.2189820598055
2025-05-08 13:02:54.000,-0.0004858268148437,90.90990661445583
2025-05-08 13:02:54.008,-0.0005186430803111,86.65085377488371
2025-05-08 13:02:54.016,-0.0005431475202207,81.54905735359579
2025-05-08 13:02:54.024,-0.0005589924422739,75.72405125556044
2025-05-08 13:02:54.032,-0.0005661345949339,69.30421508632921
2025-05-08 13:02:54.039,-0.0005648099555789,62.42323548100168
2025-05-08 13:02:54.047,-0.0005555011191103,55.216599939180334
2025-05-08 13:02:54.055,-0.0005388992262454,47.81823175791058
2025-05-08 13:02:54.063,-0.0005158623346335,40.3573627652796
2025-05-08 13:02:54.071,-0.0004873719690235,32.955725759856826
2025-05-08 13:02:54.079,-0.0004544893727657,25.72513169033389
2025-05-08 13:02:54.086,-0.0004183128060929,18.765478515631724
2025-05-08 13:02:54.094,-0.0003799371177933,12.163220203762764
2025-05-08 13:02:54.102,-0.0003404167210922,5.990306243776836
2025-05-08 13:02:54.110,-0.000300732984534,0.3035850645407686
2025-05-08 13:02:54.118,-0.000261766876099,-4.855350519524045
2025-05-08 13:02:54.125,-0.0002242774785064,-9.45991079596352
2025-05-08 13:02:54.133,-0.0001888867537821,-13.497895067400512
2025-05-08 13:02:54.141,-0.0001560706969608,-16.970569253353382
2025-05-08 13:02:54.149,-0.0001261567845894,-19.89149338313552
2025-05-08 13:02:54.157,-9.932739824477444e-05,-22.285159351220067
2025-05-08 13:02:54.164,-7.562870346448724e-05,-24.18549887740205
2025-05-08 13:02:54.172,-5.498429297764404e-05,-25.63431884643517
2025-05-08 13:02:54.180,-3.721273870384319e-05,-26.679716420604542
2025-05-08 13:02:54.188,-2.2048029782120644e-05,-27.37451989662074
2025-05-08 13:02:54.196,-9.161730347753714e-06,-27.77479362176556
2025-05-08 13:02:54.204,1.8143834536565176e-06,-27.93843682253175
2025-05-08 13:02:54.211,1.1266418689966408e-05,-27.92389737324143
2025-05-08 13:02:54.219,1.9578265916204012e-05,-27.78901278302976
2025-05-08 13:02:54.227,2.7114147212103583e-05,-27.58998243102602
2025-05-08 13:02:54.235,3.420437360586241e-05,-27.38046771763634
2025-05-08 13:02:54.243,4.11345977329981e-05,-27.2108106504667
2025-05-08 13:02:54.250,4.81386130829591e-05,-27.127356695142588
2025-05-08 13:02:54.258,5.539455281043511e-05,-27.171864658231936
2025-05-08 13:02:54.266,6.302417193978028e-05,-27.380985013996337
2025-05-08 13:02:54.274,7.10947762994939e-05,-27.7857884444033
2025-05-08 13:02:54.282,7.962330392696326e-05,-28.411328363163832
2025-05-08 13:02:54.289,8.858205581776729e-05,-29.276224695189864
2025-05-08 13:02:54.297,9.790559034085645e-05,-30.392260969204177
2025-05-08 13:02:54.305,0.0001074983275531,-31.76399257895022
2025-05-08 13:02:54.313,0.0001172424520001,-33.38837054783843
2025-05-08 13:02:54.321,0.0001270057528593,-35.254391913733855
2025-05-08 13:02:54.329,0.0001366490959167,-37.34279452067826
2025-05-08 13:02:54.336,0.0001460332803942,-39.62582013374733
2025-05-08 13:02:54.344,0.0001550250927352,-42.067074955901965
2025-05-08 13:02:54.352,0.000163502427007,-44.62152041237293
2025-05-08 13:02:54.360,0.0001713583957747,-47.23562910407128
2025-05-08 13:02:54.368,0.0001785044046295,-49.84774080029096
2025-05-08 13:02:54.375,0.0001848722068425,-52.38865100847789
2025-05-08 13:02:54.383,0.0001904149910656,-54.78245989092456
2025-05-08 13:02:54.391,0.0001951075841201,-56.9477020720524
2025-05-08 13:02:54.399,0.0001989458725756,-58.79876829476763
2025-05-08 13:02:54.407,0.0002019455611784,-60.24761817369167
2025-05-08 13:02:54.414,0.0002041403936712,-61.20576983119814
2025-05-08 13:02:54.422,0.0002055799627953,-61.5865374996786
2025-05-08 13:02:54.430,0.0002063272321209,-61.3074728633668
2025-05-08 13:02:54.438,0.000206455883754,-60.2929507343012
2025-05-08 13:02:54.446,0.0002060475939582,-58.47682543575768
2025-05-08 13:02:54.454,0.000205189324368,-55.80507188844648
2025-05-08 13:02:54.461,0.000203970700794,-52.23831575955376
2025-05-08 13:02:54.469,0.0002024815356248,-47.75415099111325
2025-05-08 13:02:54.477,0.0002008095343983,-42.34914129644213
2025-05-08 13:02:54.485,0.0001990382130158,-36.04040533193975
2025-05-08 13:02:54.493,0.0001972450399154,-28.866693496575955
2025-05-08 13:02:54.500,0.0001954998077665,-20.888877672014047
2025-05-08 13:02:54.508,0.0001938632321544,-12.189793370653238
2025-05-08 13:02:54.516,0.000192385770408,-2.8733960793617377
2025-05-08 13:02:54.524,0.0001911066520958,6.936780831637921
2025-05-08 13:02:54.532,0.0001900531135555,17.099851559907346
2025-05-08 13:02:54.539,0.0001892398317442,27.46044309021913
2025-05-08 13:02:54.547,0.0001886685572167,37.85212867665405
2025-05-08 13:02:54.555,0.000188327951559,48.101332203826495
2025-05-08 13:02:54.563,0.0001881936404923,58.03158356658981
2025-05-08 13:02:54.571,0.0001882284994259,67.46798735087786
2025-05-08 13:02:54.579,0.0001883831928229,76.24175487168206
2025-05-08 13:02:54.586,0.0001885969917055,84.19464376950741
2025-05-08 13:02:54.594,0.0001887988944213,91.1831503059009
2025-05-08 13:02:54.602,0.0001889090739616,97.0823072956212
2025-05-08 13:02:54.610,0.0001888406703411,101.78895496000771
2025-05-08 13:02:54.618,0.0001885019386598,105.22437221619604
2025-05-08 13:02:54.625,0.0001877987524623,107.33618103693487
2025-05-08 13:02:54.633,0.0001866374480921,108.09946525886626
2025-05-08 13:02:54.641,0.0001849279792666,107.51707611750588
2025-05-08 13:02:54.649,0.000182587332649,105.6191282773434
2025-05-08 13:02:54.657,0.0001795431354877,102.4617206432466
2025-05-08 13:02:54.665,0.0001757373663238,98.12494433008916
2025-05-08 13:02:54.672,0.0001711300603453,92.71026457201825
2025-05-08 13:02:54.680,0.0001657028832947,86.3373830756784
2025-05-08 13:02:54.688,0.0001594624330734,79.14070167796979
2025-05-08 13:02:54.696,0.0001524431174767,71.26551680444251
2025-05-08 13:02:54.704,0.0001447094509542,62.86407710943395
2025-05-08 13:02:54.711,0.0001363576139031,54.091634079340864
2025-05-08 13:02:54.719,0.0001275161256122,45.102607815076766
2025-05-08 13:02:54.727,0.0001183454971784,36.04697840089085
2025-05-08 13:02:54.735,0.0001090367538656,27.0669980816032
2025-05-08 13:02:54.743,9.980874746775223e-05,18.294301856310916
2025-05-08 13:02:54.750,9.090421793326269e-05,9.847475015749342
2025-05-08 13:02:54.758,8.258460905490224e-05,1.8301165252462224
2025-05-08 13:02:54.766,7.512369428035777e-05,-5.670582168791952
2025-05-08 13:02:54.774,6.88001240777037e-05,-12.584741611423697
2025-05-08 13:02:54.782,6.388906383185018e-05,-18.86019741367121
2025-05-08 13:02:54.790,6.0653148611654216e-05,-24.46243173480296
2025-05-08 13:02:54.797,5.933303567510866e-05,-29.37407498401417
2025-05-08 13:02:54.805,6.0137884363552655e-05,-33.59402886805261
2025-05-08 13:02:54.813,6.32361330043214e-05,-37.13626843869204
2025-05-08 13:02:54.821,6.87469704659948e-05,-40.02838455142184
2025-05-08 13:02:54.829,7.67329130248858e-05,-42.30992926217067
2025-05-08 13:02:54.836,8.719389233357273e-05,-44.03062538755622
2025-05-08 13:02:54.844,0.0001000632349955,-45.24849803850961
2025-05-08 13:02:54.852,0.0001152058664882,-46.027980765193405
2025-05-08 13:02:54.860,0.0001324190005099,-46.43804241762231
2025-05-08 13:02:54.868,0.000151435478584,-46.55037334561757
2025-05-08 13:02:54.875,0.0001719298041603,-46.43766155105781
2025-05-08 13:02:54.883,0.0001935267717196,-46.17198127307954
2025-05-08 13:02:54.891,0.0002158124268085,-45.82330862722072
2025-05-08 13:02:54.899,0.0002383469125497,-45.45817170857965
2025-05-08 13:02:54.907,0.0002606785778611,-45.13843635070969
2025-05-08 13:02:54.915,0.0002823585799625,-44.920223794177815
2025-05-08 13:02:54.922,0.0003029551585644,-44.85295307238226
2025-05-08 13:02:54.930,0.0003220668157982,-44.978499090993736
2025-05-08 13:02:54.938,0.0003393337797377,-45.33045719459924
2025-05-08 13:02:54.946,0.0003544473101289,-45.93350641848989
2025-05-08 13:02:54.954,0.0003671565848275,-46.802866453905125
2025-05-08 13:02:54.961,0.0003772730683274,-47.94384735355016
2025-05-08 13:02:54.969,0.0003846724044593,-49.3514958318773
2025-05-08 13:02:54.977,0.0003892939914846,-51.01034727251603
2025-05-08 13:02:54.985,0.0003911384882188,-52.89429780386885
2025-05-08 13:02:54.993,0.000390263564411,-54.96661558243504
2025-05-08 13:02:55.000,0.0003867782482793,-57.1801142721296
2025-05-08 13:02:55.008,0.0003808362406369,-59.4775141927689
2025-05-08 13:02:55.016,0.00037262856092,-61.79201734859456
2025-05-08 13:02:55.024,0.0003623758687069,-64.04812122993195
2025-05-08 13:02:55.032,0.0003503207684474,-66.16269269822914
2025-05-08 13:02:55.040,0.0003367203587858,-68.04631732543808
2025-05-08 13:02:55.047,0.0003218392348421,-69.60493130318302
2025-05-08 13:02:55.055,0.0003059430958017,-70.74173264467196
2025-05-08 13:02:55.063,0.0002892930546652,-71.35935619507683
2025-05-08 13:02:55.071,0.0002721406951949,-71.36228340987114
2025-05-08 13:02:55.079,0.0002547238757198,-70.65944355786861
2025-05-08 13:02:55.086,0.0002372632427775,-69.16694867698203
2025-05-08 13:02:55.094,0.0002199593912598,-66.8108910629035
2025-05-08 13:02:55.102,0.000202990592876,-63.530120155622015
2025-05-08 13:02:55.110,0.00018651101181,-59.27890625602026
2025-05-08 13:02:55.118,0.0001706493352805,-54.02939235452044
2025-05-08 13:02:55.125,0.0001555077665537,-47.77373317999926
2025-05-08 13:02:55.133,0.000141161357529,-40.52582290437788
2025-05-08 13:02:55.141,0.0001276576955032,-32.32252005911246
2025-05-08 13:02:55.149,0.0001150170019305,-23.224290152602705
2025-05-08 13:02:55.157,0.0001032327457475,-13.31520295155551
2025-05-08 13:02:55.165,9.227290767049402e-05,-2.702241853064744
2025-05-08 13:02:55.172,8.2082029644369e-05,8.486093580386315
2025-05-08 13:02:55.180,7.258412154263061e-05,20.101885046104066
2025-05-08 13:02:55.188,6.368637817106932e-05,31.98055921914684
2025-05-08 13:02:55.196,5.528351967610343e-05,43.94425756559905
2025-05-08 13:02:55.204,4.726245755113242e-05,55.80572702568396
2025-05-08 13:02:55.211,3.950694254221726e-05,67.37262398440522
2025-05-08 13:02:55.219,3.190187260542383e-05,78.45210530071893
2025-05-08 13:02:55.227,2.433700458928493e-05,88.8555660944021
2025-05-08 13:02:55.235,1.670989697051843e-05,98.40337515601122
2025-05-08 13:02:55.243,8.927999752496973e-06,106.92945569684323
2025-05-08 13:02:55.250,9.098966626147452e-07,114.28556191273655
2025-05-08 13:02:55.258,-7.414209063286319e-06,120.34511047793684
2025-05-08 13:02:55.266,-1.610259366545141e-05,125.00644034108018
2025-05-08 13:02:55.274,-2.5202454704465395e-05,128.19539353654378
2025-05-08 13:02:55.282,-3.475040573639859e-05,129.86713337813714
2025-05-08 13:02:55.290,-4.477273207533101e-05,130.0071433807367
2025-05-08 13:02:55.297,-5.5285183114270495e-05,128.6313794022985
2025-05-08 13:02:55.305,-6.629220833437199e-05,125.7855775429734
2025-05-08 13:02:55.313,-7.77857023876728e-05,121.54374995779438
2025-05-08 13:02:55.321,-8.974345760564353e-05,116.0059286338355
2025-05-08 13:02:55.329,-0.0001021275920447,109.29524215017948
2025-05-08 13:02:55.336,-0.0001148832231053,101.55443144815617
2025-05-08 13:02:55.344,-0.0001279376131718,92.94192688452902
2025-05-08 13:02:55.352,-0.0001411999486239,83.6276197796208
2025-05-08 13:02:55.360,-0.0001545618387149,73.78846704853804
2025-05-08 13:02:55.368,-0.0001678985418017,63.60406734713064
2025-05-08 13:02:55.375,-0.0001810708555068,53.25234177497016
2025-05-08 13:02:55.383,-0.0001939275679917,42.90544208638235
2025-05-08 13:02:55.391,-0.0002063083737491,32.72599527977404
2025-05-08 13:02:55.399,-0.0002180471858923,22.863776208507694
2025-05-08 13:02:55.407,-0.0002289757826899,13.45288041007649
2025-05-08 13:02:55.415,-0.0002389276959044,4.609448646284891
2025-05-08 13:02:55.422,-0.0002477422179113,-3.5700263684371025
2025-05-08 13:02:55.430,-0.0002552684094002,-11.009801020081522
2025-05-08 13:02:55.438,-0.0002613690187679,-17.655398700806312
2025-05-08 13:02:55.446,-0.0002659242436506,-23.473570751310728
2025-05-08 13:02:55.454,-0.000268835273051,-28.451741251866988
2025-05-08 13:02:55.461,-0.0002700275720716,-32.59698828021286
2025-05-08 13:02:55.469,-0.0002694539091408,-35.93462305656767
2025-05-08 13:02:55.477,-0.0002670971420043,-38.50643415554968
2025-05-08 13:02:55.485,-0.0002629727533799,-40.36866677370258
2025-05-08 13:02:55.493,-0.0002571310756488,-41.58980710959386
2025-05-08 13:02:55.500,-0.0002496590910713,-42.24823955390758
2025-05-08 13:02:55.508,-0.0002406816533023,-42.429839993891065
2025-05-08 13:02:55.516,-0.0002303619523829,-42.225562558546365
2025-05-08 13:02:55.524,-0.0002189010415856,-41.72907004254491
2025-05-08 13:02:55.532,-0.0002065362623898,-41.0344505207607
2025-05-08 13:02:55.540,-0.000193538444496,-40.23405474736288
2025-05-08 13:02:55.547,-0.0001802078195893,-39.41648122256044
2025-05-08 13:02:55.555,-0.0001668686599065,-38.6647286468594
2025-05-08 13:02:55.563,-0.0001538627129318,-38.05452914535935
2025-05-08 13:02:55.571,-0.0001415415375212,-37.65287035100639
2025-05-08 13:02:55.579,-0.0001302578750831,-37.51671034552836
2025-05-08 13:02:55.586,-0.0001203562472841,-37.69188666839028
2025-05-08 13:02:55.594,-0.0001121630569648,-38.21221914535652
2025-05-08 13:02:55.602,-0.0001059765421112,-39.0988061068899
2025-05-08 13:02:55.610,-0.0001020569706971,-40.35951452450946
2025-05-08 13:02:55.618,-0.0001006174853633,-41.988666464208336
2025-05-08 13:02:55.625,-0.0001018160411745,-43.966926730704174
2025-05-08 13:02:55.633,-0.0001057489234696,-46.2613992802106
2025-05-08 13:02:55.641,-0.0001124463377314,-48.82594250406613
2025-05-08 13:02:55.649,-0.0001218704805332,-51.6017154206822
2025-05-08 13:02:55.657,-0.0001339163296507,-54.51796776996664
2025-05-08 13:02:55.665,-0.0001484151710002,-57.49308663025204
2025-05-08 13:02:55.672,-0.0001651406473807,-60.4359101733802
2025-05-08 13:02:55.680,-0.0001838168970375,-63.24731531449645
2025-05-08 13:02:55.688,-0.0002041281877397,-65.82208017284903
2025-05-08 13:02:55.696,-0.0002257293912804,-68.05101442873872
2025-05-08 13:02:55.704,-0.0002482566965248,-69.82334096162737
2025-05-08 13:02:55.711,-0.0002713380780074,-71.02930085348348
2025-05-08 13:02:55.719,-0.0002946031566164,-71.5629413667639
2025-05-08 13:02:55.727,-0.0003176921918033,-71.32503344495906
2025-05-08 13:02:55.735,-0.0003402640506631,-70.22605236293003
2025-05-08 13:02:55.743,-0.0003620031021389,-68.18914320256329
2025-05-08 13:02:55.750,-0.0003826250448904,-65.15298272254743
2025-05-08 13:02:55.758,-0.0004018816737203,-61.074441795274645
2025-05-08 13:02:55.766,-0.0004195645456425,-55.930948694981744
2025-05-08 13:02:55.774,-0.0004355074694964,-49.72245380270104
2025-05-08 13:02:55.782,-0.0004495877478595,-42.47290121318779
2025-05-08 13:02:55.790,-0.0004617261499787,-34.231122502577875
2025-05-08 13:02:55.797,-0.0004718856666434,-25.07108246647308
2025-05-08 13:02:55.805,-0.0004800691687443,-15.091425580259992
2025-05-08 13:02:55.813,-0.000486316150206,-4.414294582042715
2025-05-08 13:02:55.821,-0.0004906987811765,6.816582009310098
2025-05-08 13:02:55.829,-0.0004933175289986,18.438509588831256
2025-05-08 13:02:55.836,-0.0004942966215987,30.27310310393714
2025-05-08 13:02:55.844,-0.0004937796217493,42.13014086147538
2025-05-08 13:02:55.852,-0.0004919253318123,53.81189438761517
2025-05-08 13:02:55.860,-0.0004889041472303,65.11781121184511
2025-05-08 13:02:55.868,-0.0004848948510292,75.8494107709718
2025-05-08 13:02:55.875,-0.0004800817423034,85.81524210222935
2025-05-08 13:02:55.883,-0.0004746519464846,94.83574619717328
2025-05-08 13:02:55.891,-0.0004687927535665,102.74786615600291
2025-05-08 13:02:55.899,-0.000462688851844,109.40925469939826
2025-05-08 13:02:55.907,-0.0004565193589938,114.70194098574336
2025-05-08 13:02:55.915,-0.000450454596875,118.5353366038014
2025-05-08 13:02:55.922,-0.0004446526097863,120.84848336447766
2025-05-08 13:02:55.930,-0.0004392554861051,121.6114721675426
2025-05-08 13:02:55.938,-0.0004343856078795,120.82599164322052
2025-05-08 13:02:55.946,-0.0004301420176563,118.52499619098656
2025-05-08 13:02:55.954,-0.0004265971438872,114.77151409754995
2025-05-08 13:02:55.961,-0.0004237941402052,109.65664623637691
2025-05-08 13:02:55.969,-0.0004217450455217,103.29683312307776
2025-05-08 13:02:55.977,-0.0004204298637238,95.83049166349588
2025-05-08 13:02:55.985,-0.0004197965293111,87.41414183871836
2025-05-08 13:02:55.993,-0.000419761618034,78.21815714399264
2025-05-08 13:02:56.000,-0.0004202116149243,68.42228045707598
2025-05-08 13:02:56.008,-0.0004210045682658,58.21104908562065
2025-05-08 13:02:56.016,-0.0004219720125272,47.76926925177443
2025-05-08 13:02:56.024,-0.0004229211101889,37.27767168322759
2025-05-08 13:02:56.032,-0.0004236370285455,26.90886696581376
2025-05-08 13:02:56.040,-0.0004238856280601,16.82370270531418
2025-05-08 13:02:56.047,-0.0004234165907807,7.168105285177567
2025-05-08 13:02:56.055,-0.0004219671582667,-1.9295319180037425
2025-05-08 13:02:56.063,-0.0004192666748665,-10.360373604918523
2025-05-08 13:02:56.071,-0.0004150421330652,-18.03656200912873
2025-05-08 13:02:56.079,-0.0004090248700884,-24.89203210227265
2025-05-08 13:02:56.086,-0.0004009584481695,-30.88274236701413
2025-05-08 13:02:56.094,-0.0003906075712988,-35.98635701929399
2025-05-08 13:02:56.102,-0.0003777676889314,-40.20142881375269
2025-05-08 13:02:56.110,-0.0003622747663017,-43.546141751057085
2025-05-08 13:02:56.118,-0.0003440146021043,-46.05668002825002
2025-05-08 13:02:56.125,-0.0003229310545127,-47.78529348919983
2025-05-08 13:02:56.133,-0.0002990325759669,-48.798130833489815
2025-05-08 13:02:56.141,-0.0002723965341559,-49.17291023415565
2025-05-08 13:02:56.149,-0.000243170901396,-48.99649318906743
2025-05-08 13:02:56.157,-0.0002115730247793,-48.3624218364864
2025-05-08 13:02:56.165,-0.0001778853435059,-47.36847308327616
2025-05-08 13:02:56.172,-0.0001424480953449,-46.11427521308191
2025-05-08 13:02:56.180,-0.0001056492479044,-44.69902463431907
2025-05-08 13:02:56.188,-6.79120964707184e-05,-43.2193325308307
2025-05-08 13:02:56.196,-2.9681172115683965e-05,-41.76722377863104
2025-05-08 13:02:56.204,8.592736444795129e-06,-40.42830391768153
2025-05-08 13:02:56.211,4.646757617489504e-05,-39.28010447616774
2025-05-08 13:02:56.219,8.352421620332581e-05,-38.39061271596651
2025-05-08 13:02:56.227,0.0001193791462697,-37.816988999126885
2025-05-08 13:02:56.235,0.0001536951881218,-37.60447348254171
2025-05-08 13:02:56.243,0.0001861899061179,-37.785483669715695
2025-05-08 13:02:56.250,0.0002166415750068,-38.37890534377661
2025-05-08 13:02:56.258,0.000244892715213,-39.389581352673495
2025-05-08 13:02:56.266,0.000270851335898,-40.80800531593135
2025-05-08 13:02:56.274,0.0002944901316808,-42.610230206176176
2025-05-08 13:02:56.282,0.0003158439593315,-44.75800451504546
2025-05-08 13:02:56.290,0.0003350059745077,-47.19915090721245
2025-05-08 13:02:56.297,0.0003521228270123,-49.86820346788555
2025-05-08 13:02:56.305,0.0003673892772664,-52.687319461452
2025-05-08 13:02:56.313,0.0003810424978948,-55.56747961085846
2025-05-08 13:02:56.321,0.0003933561916864,-58.4099870448566
2025-05-08 13:02:56.329,0.0004046345437098,-61.108269125838696
2025-05-08 13:02:56.336,0.0004152059602704,-63.54997836808833
2025-05-08 13:02:56.344,0.0004254165220145,-65.61937870982295
2025-05-08 13:02:56.352,0.0004356230742175,-67.19999176765621
2025-05-08 13:02:56.360,0.0004461858858731,-68.17746478012972
2025-05-08 13:02:56.368,0.0004574608297331,-68.44260829185284
2025-05-08 13:02:56.375,0.0004697910679605,-67.89453793561671
2025-05-08 13:02:56.383,0.0004834982718299,-66.4438417401033
2025-05-08 13:02:56.391,0.0004988734574725,-64.0156830980273
2025-05-08 13:02:56.399,0.0005161675808671,-60.5527407659837
2025-05-08 13:02:56.407,0.0005355821013234,-56.0178818834936
2025-05-08 13:02:56.415,0.0005572597902494,-50.39646273099237
2025-05-08 13:02:56.422,0.0005812761272879,-43.69815534139288
2025-05-08 13:02:56.430,0.0006076316848954,-35.958206431185616
2025-05-08 13:02:56.438,0.0006362459509777,-27.238048427055364
2025-05-08 13:02:56.446,0.000666953073174,-17.625200331572326
2025-05-08 13:02:56.454,0.0006995000223454,-7.232418203026172
2025-05-08 13:02:56.461,0.0007335476536666,3.803919735420712
2025-05-08 13:02:56.469,0.0007686750680889,15.32618096019124
2025-05-08 13:02:56.477,0.0008043875316946,27.15855877802223
2025-05-08 13:02:56.485,0.0008401280209861,39.11079606705794
2025-05-08 13:02:56.493,0.0008752922784793,50.98245768366211
2025-05-08 13:02:56.500,0.0009092471124172,62.56763320029743
2025-05-08 13:02:56.508,0.0009413515477199,73.6599322641643
2025-05-08 13:02:56.516,0.0009709803146485,84.05762044266008
2025-05-08 13:02:56.524,0.000997549041165,93.568734669154
2025-05-08 13:02:56.532,0.0010205403976135,102.01601479361165
2025-05-08 13:02:56.540,0.0010395303335088,109.241491484944
2025-05-08 13:02:56.547,0.0010542134518722,115.11058075852166
2025-05-08 13:02:56.555,0.0010644264930512,119.51555137157467
2025-05-08 13:02:56.563,0.0010701688537847,122.37825263551473
2025-05-08 13:02:56.571,0.0010716190547357,123.65201598537924
2025-05-08 13:02:56.579,0.0010691460966335,123.32267285126872
2025-05-08 13:02:56.586,0.0010633147165276,121.4086627479706
2025-05-08 13:02:56.594,0.0010548836752725,117.96023767544972
2025-05-08 13:02:56.602,0.0010447963775122,113.05780049974685
2025-05-08 13:02:56.610,0.0010341633465736,106.80944458730876
2025-05-08 13:02:56.618,0.0010242363455286,99.34778832709576
2025-05-08 13:02:56.625,0.0010163742385662,90.82622020221125
2025-05-08 13:02:56.633,0.0010120009966745,81.41468691605796
2025-05-08 13:02:56.641,0.0010125565482925,71.29516817564105
2025-05-08 13:02:56.649,0.0010194414739206,60.656986836243206
2025-05-08 13:02:56.657,0.0010339568780956,49.69210227512447
2025-05-08 13:02:56.665,0.0010572411430128,38.59052842984183
2025-05-08 13:02:56.672,0.001090205623628,27.536006499579457
2025-05-08 13:02:56.680,0.0011334716228992,16.702046655952955
2025-05-08 13:02:56.688,0.0011873111631313,6.248434176487882
2025-05-08 13:02:56.696,0.0012515941612087,-3.6817257867893343
2025-05-08 13:02:56.704,0.0013257446521362,-12.964373024352694
2025-05-08 13:02:56.711,0.001408708694523,-21.496237550840497
2025-05-08 13:02:56.719,0.0014989364894024,-29.195958174781516
2025-05-08 13:02:56.727,0.0015943809725372,-36.004587574591085
2025-05-08 13:02:56.735,0.0016925146593338,-41.88551524644638
2025-05-08 13:02:56.743,0.00179036586937,-46.823855054833786
2025-05-08 13:02:56.750,0.0018845747111067,-50.82535633820378
2025-05-08 13:02:56.758,0.0019714684140815,-53.91490641002896
2025-05-08 13:02:56.766,0.0020471547647966,-56.13469782156496
2025-05-08 13:02:56.774,0.0021076315452794,-57.54213603790603
2025-05-08 13:02:56.782,0.0021489090305436,-58.20756247624564
2025-05-08 13:02:56.790,0.002167141825417,-58.21186452567066
2025-05-08 13:02:56.797,0.0021587656477192,-57.64403865203023
2025-05-08 13:02:56.805,0.0021206341173056,-56.59876547968829
2025-05-08 13:02:56.813,0.0020501502347486,-55.17404734764818
2025-05-08 13:02:56.821,0.0019453870987231,-53.46894977447535
2025-05-08 13:02:56.829,0.0018051925588522,-51.58147902801258
2025-05-08 13:02:56.836,0.0016292729016816,-49.606619037181325
2025-05-08 13:02:56.844,0.0014182512517768,-47.63454260865019
2025-05-08 13:02:56.852,0.0011736970990966,-45.74900466502304
2025-05-08 13:02:56.860,0.0008981242537776,-44.02591927663244
2025-05-08 13:02:56.868,0.0005949556034844,-42.53211780786787
2025-05-08 13:02:56.875,0.0002684542974263,-41.32428264699605
2025-05-08 13:02:56.883,-7.637761968731633e-05,-40.44804975710534
2025-05-08 13:02:56.891,-0.0004339305723479,-39.937273614877576
2025-05-08 13:02:56.899,-0.0007981446521369,-39.81344984945088
2025-05-08 13:02:56.907,-0.0011626868804775,-40.085293823940845
2025-05-08 13:02:56.915,-0.0015211413252669,-40.748477199932886
2025-05-08 13:02:56.922,-0.001867203749901,-41.7855288022786
2025-05-08 13:02:56.930,-0.0021948718645924,-43.16591042203747
2025-05-08 13:02:56.938,-0.0024986222967066,-44.84628209972821
2025-05-08 13:02:56.946,-0.0027735661948816,-46.77097445797328
2025-05-08 13:02:56.954,-0.0030155768854426,-48.87268736424426
2025-05-08 13:02:56.961,-0.0032213849842958,-51.07343421407408
2025-05-08 13:02:56.969,-0.0033886385196888,-53.2857491235336
2025-05-08 13:02:56.977,-0.0035159276830308,-55.41417009782796
2025-05-08 13:02:56.985,-0.0036027756494896,-57.3570047139626
2025-05-08 13:02:56.993,-0.0036495984166378,-59.00837607599035
2025-05-08 13:02:57.001,-0.0036576377426283,-60.26053598041111
2025-05-08 13:02:57.008,-0.0036288720103202,-61.00641972290416
2025-05-08 13:02:57.016,-0.0035659102446124,-61.142403276086064
2025-05-08 13:02:57.024,-0.0034718746428659,-60.57120928796719
2025-05-08 13:02:57.032,-0.0033502769024964,-59.204894230919855
2025-05-08 13:02:57.040,-0.0032048933666459,-56.96783591731012
2025-05-08 13:02:57.047,-0.0030396435588196,-53.79962940593148
2025-05-08 13:02:57.055,-0.0028584760640799,-49.65779097884781
2025-05-08 13:02:57.063,-0.0026652650062028,-44.52016523702794
2025-05-08 13:02:57.071,-0.0024637196468004,-38.38693017658675
2025-05-08 13:02:57.079,-0.0022573089347886,-31.282099890304867
2025-05-08 13:02:57.086,-0.0020492021620695,-23.254434548370043
2025-05-08 13:02:57.094,-0.001842226229556,-14.377682495412868
2025-05-08 13:02:57.102,-0.0016388394006451,-4.750099279916218
2025-05-08 13:02:57.110,-0.0014411208052959,5.506787483791386
2025-05-08 13:02:57.118,-0.0012507743389283,16.250171298016898
2025-05-08 13:02:57.126,-0.0010691450036691,27.31869271396488
2025-05-08 13:02:57.133,-0.0008972452485847,38.5358429490904
2025-05-08 13:02:57.141,-0.0007357885671784,49.713961199514
2025-05-08 13:02:57.149,-0.0005852275477688,60.65871503440915
2025-05-08 13:02:57.157,-0.0004457937388614,71.1739303263923
2025-05-08 13:02:57.165,-0.0003175370381141,81.0666191634435
2025-05-08 13:02:57.172,-0.0002003627600392,90.15204211003922
2025-05-08 13:02:57.180,-9.406500274178644e-05,98.25863575825828
2025-05-08 13:02:57.188,1.6446311631133654e-06,105.2326381285587
2025-05-08 13:02:57.196,8.711350292473928e-05,110.94225319168872
2025-05-08 13:02:57.204,0.0001627297494016,115.28121127712478
2025-05-08 13:02:57.211,0.0002289092136491,118.17160374705418
2025-05-08 13:02:57.219,0.0002860869456435,119.56589706437433
2025-05-08 13:02:57.227,0.0003347125155697,119.44806202165924
2025-05-08 13:02:57.235,0.0003752483123765,117.83378699261796
2025-05-08 13:02:57.243,0.0004081700247342,114.76977807968515
2025-05-08 13:02:57.251,0.0004339685357644,110.33218239450284
2025-05-08 13:02:57.258,0.0004531524645945,104.62420190575028
2025-05-08 13:02:57.266,0.0004662505972127,97.77299293803851
2025-05-08 13:02:57.274,0.000473813529053,89.92596934222742
2025-05-08 13:02:57.282,0.0004764140034547,81.24664470905465
2025-05-08 13:02:57.290,0.0004746456376231,71.91016022574736
2025-05-08 13:02:57.297,0.0004691199380828,62.09864968075927
2025-05-08 13:02:57.305,0.0004604616840438,51.996591828532445
2025-05-08 13:02:57.313,0.0004493028734079,41.78629324989458
2025-05-08 13:02:57.321,0.000436275482354,31.64363265148258
2025-05-08 13:02:57.329,0.0004220033100532,21.7341811047678
2025-05-08 13:02:57.336,0.0004070931902769,12.20979303322496
2025-05-08 13:02:57.344,0.0003921258633553,3.2057408884645358
2025-05-08 13:02:57.352,0.0003776468180441,-5.161556502921505
2025-05-08 13:02:57.360,0.0003641574321342,-12.796184953006891
2025-05-08 13:02:57.368,0.0003521067528562,-19.623760443314804
2025-05-08 13:02:57.376,0.0003418842412422,-25.59184475547991
2025-05-08 13:02:57.383,0.000333813745174,-30.66978484764744
2025-05-08 13:02:57.391,0.000328148885605,-34.84802481849795
2025-05-08 13:02:57.399,0.0003250699776788,-38.13695129355451
2025-05-08 13:02:57.407,0.0003246825726531,-40.56534169256013
2025-05-08 13:02:57.415,0.0003270176813274,-42.17849009020617
2025-05-08 13:02:57.422,0.0003320337145108,-43.03608740787277
2025-05-08 13:02:57.430,0.0003396201401838,-43.209931733136166
2025-05-08 13:02:57.438,0.0003496027934422,-42.781541012883565
2025-05-08 13:02:57.446,0.0003617506909408,-41.839734633349245
2025-05-08 13:02:57.454,0.0003757841236344,-40.47824296455778
2025-05-08 13:02:57.461,0.0003913837297133,-38.79339531167465
2025-05-08 13:02:57.469,0.0004082001589637,-36.88192738755995
2025-05-08 13:02:57.477,0.0004258638424566,-34.83893988789022
2025-05-08 13:02:57.485,0.0004439943374587,-32.75603047005556
2025-05-08 13:02:57.493,0.0004622087705432,-30.719612823410408
2025-05-08 13:02:57.501,0.0004801290356723,-28.8094289263846
2025-05-08 13:02:57.508,0.000497387568635,-27.09725429708604
2025-05-08 13:02:57.516,0.0005136316754308,-25.64579125580328
2025-05-08 13:02:57.524,0.0005285265226838,-24.507742038183306
2025-05-08 13:02:57.532,0.0005417569967806,-23.72505204490916
2025-05-08 13:02:57.540,0.0005530287021311,-23.32831351898562
2025-05-08 13:02:57.547,0.0005620683963331,-23.336321356753224
2025-05-08 13:02:57.555,0.0005686241512526,-23.755775363260945
2025-05-08 13:02:57.563,0.0005724654874485,-24.581126771343342
2025-05-08 13:02:57.571,0.0005733836678674,-25.794570911150945
2025-05-08 13:02:57.579,0.0005711922820729,-27.366192146500303
2025-05-08 13:02:57.586,0.0005657282310876,-29.2542711585286
2025-05-08 13:02:57.594,0.0005568532362157,-31.40576792512206
2025-05-08 13:02:57.602,0.0005444560134959,-33.75699591202787
2025-05-08 13:02:57.610,0.0005284552442015,-36.23450370396772
2025-05-08 13:02:57.618,0.0005088034222071,-38.75617927425163
2025-05-08 13:02:57.626,0.0004854915865255,-41.23258911433999
2025-05-08 13:02:57.633,0.0004585548569441,-43.56855941433523
2025-05-08 13:02:57.641,0.0004280785671541,-45.66499941156884
2025-05-08 13:02:57.649,0.0003942046386752,-47.42095804655194
2025-05-08 13:02:57.657,0.0003571377142139,-48.73589445664687
2025-05-08 13:02:57.665,0.0003171505336736,-49.51213100167993
2025-05-08 13:02:57.672,0.0002745880940478,-49.65744497886546
2025-05-08 13:02:57.680,0.0002298702198491,-49.08774258463919
2025-05-08 13:02:57.688,0.0001834922148706,-47.72974675135445
2025-05-08 13:02:57.696,0.0001360232604334,-45.52362002980104
2025-05-08 13:02:57.704,8.810220707909795e-05,-42.42543553367793
2025-05-08 13:02:57.711,4.043041026979668e-05,-38.409403905605394
2025-05-08 13:02:57.719,-6.238700185016469e-06,-33.469762997951264
2025-05-08 13:02:57.727,-5.1113550256174186e-05,-27.62224000345951
2025-05-08 13:02:57.735,-9.33819709900436e-05,-20.90500340562092
2025-05-08 13:02:57.743,-0.0001322323393606,-13.379034360303308
2025-05-08 13:02:57.751,-0.0001668781072669,-5.127863692256043
2025-05-08 13:02:57.758,-0.0001965853176743,3.7433589695841247
2025-05-08 13:02:57.766,-0.0002207024959439,13.10947410878416
2025-05-08 13:02:57.774,-0.0002386920899204,22.827584284938165
2025-05-08 13:02:57.782,-0.0002501624253028,32.73994820511087
2025-05-08 13:02:57.790,-0.0002548989549364,42.67743052241131
2025-05-08 13:02:57.797,-0.0002528934239754,52.463417242667866
2025-05-08 13:02:57.805,-0.0002443694593123,61.91808571977968
2025-05-08 13:02:57.813,-0.0002298030325296,70.86290116683436
2025-05-08 13:02:57.821,-0.0002099362510305,79.12519924786093
2025-05-08 13:02:57.829,-0.0001857830103459,86.54270729208092
2025-05-08 13:02:57.836,-0.0001586251980787,92.96785541633392
2025-05-08 13:02:57.844,-0.0001299983799661,98.27173353835715
2025-05-08 13:02:57.852,-0.0001016662213605,102.3475608373049
2025-05-08 13:02:57.860,-7.558329977062298e-05,105.11355031393624
2025-05-08 13:02:57.868,-5.384643881073927e-05,106.51507209418403
2025-05-08 13:02:57.876,-3.863522826613727e-05,106.5260441340193
2025-05-08 13:02:57.883,-3.214296254808145e-05,105.14950694285596
2025-05-08 13:02:57.891,-3.649978132805331e-05,102.4173686100848
2025-05-08 13:02:57.899,-5.369027564418191e-05,98.3893364542185
2025-05-08 13:02:57.907,-8.546820849640913e-05,93.15108064368414
2025-05-08 13:02:57.915,-0.0001332713071347,86.81170184100898
2025-05-08 13:02:57.922,-0.0001981393195853,79.50059811258507
2025-05-08 13:02:57.930,-0.0002806386687127,71.36384504643122
2025-05-08 13:02:57.938,-0.0003807970831696,62.56021651341903
2025-05-08 13:02:57.946,-0.0004980515657675,53.25698137483752
2025-05-08 13:02:57.954,-0.0006312129683503,43.62561357961538
2025-05-08 13:02:57.961,-0.0007784502010176,33.837549715292745
2025-05-08 13:02:57.969,-0.0009372966313729,24.060119657411484
2025-05-08 13:02:57.977,-0.0011046805100505,14.452763201744435
2025-05-08 13:02:57.985,-0.001276980330771,5.163629327058065
2025-05-08 13:02:57.993,-0.0014501049505828,-3.6733640049416096
2025-05-08 13:02:58.001,-0.0016195971221468,-11.94095183761641
2025-05-08 13:02:58.008,-0.0017807578978914,-19.540389058861606
2025-05-08 13:02:58.016,-0.0019287882104075,-26.39274550234676
2025-05-08 13:02:58.024,-0.0020589428387209,-32.43963189433884
2025-05-08 13:02:58.032,-0.0021666909751202,-37.64337657548011
2025-05-08 13:02:58.040,-0.0022478768205147,-41.986687923542114
2025-05-08 13:02:58.047,-0.0022988732190861,-45.471849674427766
2025-05-08 13:02:58.055,-0.0023167214170816,-48.11950566499205
2025-05-08 13:02:58.063,-0.0022992505938863,-49.96709684388176
2025-05-08 13:02:58.071,-0.0022451717511052,-51.06701680658259
2025-05-08 13:02:58.079,-0.0021541417211793,-51.48455282576501
2025-05-08 13:02:58.086,-0.0020267943782224,-51.29567768436004
2025-05-08 13:02:58.094,-0.0018647375384562,-50.584753964729806
2025-05-08 13:02:58.102,-0.0016705154699513,-49.442207234754136
2025-05-08 13:02:58.110,-0.0014475383501242,-47.9622182467689
2025-05-08 13:02:58.118,-0.0011999813863886,-46.24047726170188
2025-05-08 13:02:58.126,-0.0009326575990161,-44.3720363325742
2025-05-08 13:02:58.133,-0.0006508693683069,-42.44928819584305
2025-05-08 13:02:58.141,-0.000360244686855,-40.5600936514691
2025-05-08 13:02:58.149,-6.65645880143693e-05,-38.78607324334641
2025-05-08 13:02:58.157,0.0002244115647555,-37.201073911702245
2025-05-08 13:02:58.165,0.0005071163388169,-35.869817250340155
2025-05-08 13:02:58.172,0.0007763338457131,-34.846733160336576
2025-05-08 13:02:58.180,0.0010273431682899,-34.174981053297046
2025-05-08 13:02:58.188,0.0012560409383206,-33.88566023585502
2025-05-08 13:02:58.196,0.0014590394176878,-33.99721154098192
2025-05-08 13:02:58.204,0.0016337375196067,-34.515013440663985
2025-05-08 13:02:58.211,0.0017783633094042,-35.431177512259
2025-05-08 13:02:58.219,0.0018919876248336,-36.72454993624945
2025-05-08 13:02:58.227,0.0019745095355266,-38.36092735669431
2025-05-08 13:02:58.235,0.0020266153854749,-40.29349661761072
2025-05-08 13:02:58.243,0.0020497140856122,-42.46350829176684
2025-05-08 13:02:58.251,0.0020458521151005,-44.8011932591288
2025-05-08 13:02:58.258,0.0020176123361215,-47.2269296239567
2025-05-08 13:02:58.266,0.0019680011962731,-49.652663793561466
2025-05-08 13:02:58.274,0.0019003291310631,-51.98358447161165
2025-05-08 13:02:58.282,0.0018180889617107,-54.12004164215959
2025-05-08 13:02:58.290,0.0017248368479482,-55.95969445064692
2025-05-08 13:02:58.297,0.0016240799637305,-57.39986245691748
2025-05-08 13:02:58.305,0.0015191745460205,-58.3400443920398
2025-05-08 13:02:58.313,0.0014132373189745,-58.684557759311616
2025-05-08 13:02:58.321,0.0013090725268628,-58.3452419477208
2025-05-08 13:02:58.329,0.0012091159719093,-57.244157620765485
2025-05-08 13:02:58.336,0.0011153966222785,-55.31620669760359
2025-05-08 13:02:58.344,0.001029515588335,-52.511590954911775
2025-05-08 13:02:58.352,0.0009526415933137,-48.79802380274219
2025-05-08 13:02:58.360,0.0008855215034373,-44.16260968483475
2025-05-08 13:02:58.368,0.0008285040407613,-38.61330922707391
2025-05-08 13:02:58.376,0.0007815744827716,-32.17991590797774
2025-05-08 13:02:58.383,0.0007443979543248,-24.91448161901952
2025-05-08 13:02:58.391,0.0007163688339993,-16.891143740052996
2025-05-08 13:02:58.399,0.000696663818861,-8.205324756328588
2025-05-08 13:02:58.407,0.0006842963067647,1.0277037418138577
2025-05-08 13:02:58.415,0.000678169949263,10.674878499222086
2025-05-08 13:02:58.422,0.0006771294852799,20.58798643288501
2025-05-08 13:02:58.430,0.0006800072695932,30.606831456436897
2025-05-08 13:02:58.438,0.0006856642445072,40.56284602630133
2025-05-08 13:02:58.446,0.0006930244521241,50.28304873102088
2025-05-08 13:02:58.454,0.0007011025336117,59.59423409528486
2025-05-08 13:02:58.461,0.0007090239975804,68.32726955517107
2025-05-08 13:02:58.469,0.0007160383506409,76.32136779348221
2025-05-08 13:02:58.477,0.0007215254599205,83.42820064934412
2025-05-08 13:02:58.485,0.0007249957524265,89.51572380558487
2025-05-08 13:02:58.493,0.0007260850444384,94.47158939602272
2025-05-08 13:02:58.501,0.0007245449325625,98.20603635141856
2025-05-08 13:02:58.508,0.0007202297656843,100.65416530449374
2025-05-08 13:02:58.516,0.0007130812547304,101.77752558690943
2025-05-08 13:02:58.524,0.0007031117675544,101.56496546977404
2025-05-08 13:02:58.532,0.000690387303531,100.03272235731764
2025-05-08 13:02:58.540,0.0006750110520057,97.22375605957822
2025-05-08 13:02:58.547,0.0006571083170194,93.2063544077538
2025-05-08 13:02:58.555,0.0006368134448797,88.07206520531321
2025-05-08 13:02:58.563,0.0006142592288301,81.93303076578395
2025-05-08 13:02:58.571,0.0005895690941712,74.91882013563347
2025-05-08 13:02:58.579,0.0005628521955766,67.17286877806865
2025-05-08 13:02:58.586,0.000534201393673,58.84864546688197
2025-05-08 13:02:58.594,0.0005036939274172,50.10567113137638
2025-05-08 13:02:58.602,0.0004713944689747,41.10551439169322
2025-05-08 13:02:58.610,0.0004373601444554,32.007883767344104
2025-05-08 13:02:58.618,0.0004016470318353,22.96692749019678
2025-05-08 13:02:58.626,0.0003643176104349,14.127839147989569
2025-05-08 13:02:58.633,0.0003254486354145,5.623851803078696
2025-05-08 13:02:58.641,0.0002851389375218,-2.4263143637510542
2025-05-08 13:02:58.649,0.0002435166822127,-9.920504548971616
2025-05-08 13:02:58.657,0.0002007456491152,-16.774654586141523
2025-05-08 13:02:58.665,0.0001570301265985,-22.92377998944162
2025-05-08 13:02:58.672,0.000112618080531,-28.322436915346824
2025-05-08 13:02:58.680,6.780234926534977e-05,-32.94467841851017
2025-05-08 13:02:58.688,2.291971434933264e-05,-36.78354229358904
2025-05-08 13:02:58.696,-2.165222432914548e-05,-39.85011708339295
2025-05-08 13:02:58.704,-6.550039004979805e-05,-42.17224035039613
2025-05-08 13:02:58.711,-0.0001081837792657,-43.792888060845655
2025-05-08 13:02:58.719,-0.0001492431788082,-44.76831606562097
2025-05-08 13:02:58.727,-0.0001882129491967,-45.16601444537667
2025-05-08 13:02:58.735,-0.0002246346782189,-45.062533276125095
2025-05-08 13:02:58.743,-0.0002580723809254,-44.541234580627496
2025-05-08 13:02:58.751,-0.0002881287660171,-43.69002029965869
2025-05-08 13:02:58.758,-0.0003144619127722,-42.59908047751584
2025-05-08 13:02:58.766,-0.0003368015268507,-41.35869991287188
2025-05-08 13:02:58.774,-0.0003549638091188,-40.05715564280939
2025-05-08 13:02:58.782,-0.0003688639327868,-38.77873211437766
2025-05-08 13:02:58.790,-0.0003785252087031,-37.60187600019417
2025-05-08 13:02:58.797,-0.0003840842049734,-36.59750851023555
2025-05-08 13:02:58.805,-0.0003857913274829,-35.82750984994666
2025-05-08 13:02:58.813,-0.0003840066259742,-35.34338821424757
2025-05-08 13:02:58.821,-0.0003791908504335,-35.18514435648924
2025-05-08 13:02:58.829,-0.0003718920386514,-35.38034223063496
2025-05-08 13:02:58.836,-0.0003627281635705,-35.94339631042439
2025-05-08 13:02:58.844,-0.0003523666022019,-36.87508672295146
2025-05-08 13:02:58.852,-0.0003415013920919,-38.16231403235117
2025-05-08 13:02:58.860,-0.0003308293893345,-39.77810607207809
2025-05-08 13:02:58.868,-0.0003210265063111,-41.681889328536855
2025-05-08 13:02:58.876,-0.0003127251767832,-43.82003669895186
2025-05-08 13:02:58.883,-0.0003064940720338,-46.12670167921574
2025-05-08 13:02:58.891,-0.000302820879903,-48.52494593035815
2025-05-08 13:02:58.899,-0.0003020986844909,-50.92816255170535
2025-05-08 13:02:58.907,-0.0003046162028063,-53.2417911838076
2025-05-08 13:02:58.915,-0.0003105518984098,-55.36531331857518
2025-05-08 13:02:58.922,-0.00031997181569,-57.19450706750199
2025-05-08 13:02:58.930,-0.0003328308444021,-58.62393040341658
2025-05-08 13:02:58.938,-0.0003489770197153,-59.54959093000853
2025-05-08 13:02:58.946,-0.0003681584003691,-59.871749042686304
2025-05-08 13:02:58.954,-0.0003900320653548,-59.49779052826037
2025-05-08 13:02:58.961,-0.0004141748233321,-58.34509489604292
2025-05-08 13:02:58.969,-0.0004400953096896,-56.3438177619384
2025-05-08 13:02:58.977,-0.0004672472240451,-53.43950012297466
2025-05-08 13:02:58.985,-0.0004950435199725,-49.59541498918297
2025-05-08 13:02:58.993,-0.00052287139211,-44.794563077212935
2025-05-08 13:02:59.001,-0.0005501079100099,-39.04123442425111
2025-05-08 13:02:59.008,-0.0005761361213115,-32.36206193237417
2025-05-08 13:02:59.016,-0.0006003613890441,-24.80650583471605
2025-05-08 13:02:59.024,-0.0006222276425751,-16.44672447457005
2025-05-08 13:02:59.032,-0.0006412331222682,-7.37680597765279
2025-05-08 13:02:59.040,-0.0006569451119646,2.288643429679753
2025-05-08 13:02:59.047,-0.000669013108773,12.416536476179704
2025-05-08 13:02:59.055,-0.0006771798805845,22.857927002492215
2025-05-08 13:02:59.063,-0.0006812898902062,33.45115557361735
2025-05-08 13:02:59.071,-0.0006812946107735,44.02543737393009
2025-05-08 13:02:59.079,-0.0006772543358174,54.40479434246523
2025-05-08 13:02:59.086,-0.000669336221999,64.41221996460465
2025-05-08 13:02:59.094,-0.0006578084930791,73.87395542965322
2025-05-08 13:02:59.102,-0.0006430309537288,82.62375033586304
2025-05-08 13:02:59.110,-0.0006254421755837,90.50697996115514
2025-05-08 13:02:59.118,-0.0006055438898017,97.38449435635832
2025-05-08 13:02:59.126,-0.0005838832239864,103.13608205839392
2025-05-08 13:02:59.133,-0.0005610334585183,107.66344283372112
2025-05-08 13:02:59.141,-0.0005375739827207,110.8925791864086
2025-05-08 13:02:59.149,-0.0005140701513589,112.77553490418066
2025-05-08 13:02:59.157,-0.0004910537989903,113.2914300415468
2025-05-08 13:02:59.165,-0.0004690052315435,112.44676470416962
2025-05-08 13:02:59.172,-0.0004483375105624,110.27498795643903
2025-05-08 13:02:59.180,-0.0004293837296393,106.83535220752948
2025-05-08 13:02:59.188,-0.000412387770551,102.21109659041024
2025-05-08 13:02:59.196,-0.0003974987699607,96.5070241994853
2025-05-08 13:02:59.204,-0.0003847692772364,89.84655673003589
2025-05-08 13:02:59.211,-0.000374156888658,82.36836532005569
2025-05-08 13:02:59.219,-0.0003655290444486,74.22268765385448
2025-05-08 13:02:59.227,-0.0003586706728483,65.56744827622545
2025-05-08 13:02:59.235,-0.0003532944091299,56.56430144156239
2025-05-08 13:02:59.243,-0.0003490531465933,47.37471375846117
2025-05-08 13:02:59.251,-0.0003455546543154,38.156197659762654
2025-05-08 13:02:59.258,-0.0003423779094323,29.058796781098323
2025-05-08 13:02:59.266,-0.0003390906491651,20.221911272570548
2025-05-08 13:02:59.274,-0.0003352674794145,11.77153562159052
2025-05-08 13:02:59.282,-0.0003305077220976,3.817964524348689
2025-05-08 13:02:59.290,-0.0003244520903414,-3.5459954737476096
2025-05-08 13:02:59.297,-0.0003167972986576,-10.246288642279756
2025-05-08 13:02:59.305,-0.0003073078577272,-16.22834413616494
2025-05-08 13:02:59.313,-0.0002958245211832,-21.45729419368788
2025-05-08 13:02:59.321,-0.0002822690705622,-25.917702895362225
2025-05-08 13:02:59.329,-0.0002666453080635,-29.6128433799318
2025-05-08 13:02:59.337,-0.0002490362924005,-32.56357044375806
2025-05-08 13:02:59.344,-0.0002295980404055,-34.80684199860454
2025-05-08 13:02:59.352,-0.0002085501437506,-36.3939470002689
2025-05-08 13:02:59.360,-0.0001861639800354,-37.38849935590388
2025-05-08 13:02:59.368,-0.0001627493565916,-37.8642572185452
2025-05-08 13:02:59.376,-0.0001386404647389,-37.90282528606479
2025-05-08 13:02:59.383,-0.0001141819555953,-37.591294577075885
2025-05-08 13:02:59.391,-8.971582399400603e-05,-37.01987001454833
2025-05-08 13:02:59.399,-6.556964288423576e-05,-36.2795313620228
2025-05-08 13:02:59.407,-4.204654405418085e-05,-35.459767955082754
2025-05-08 13:02:59.415,-1.9417199117049818e-05,-34.646422539053816
2025-05-08 13:02:59.422,2.08607789609726e-06,-33.919674603204804
2025-05-08 13:02:59.430,2.2273104413921284e-05,-33.35218908622704
2025-05-08 13:02:59.438,4.09975809709284e-05,-33.00745236318045
2025-05-08 13:02:59.446,5.815700678662772e-05,-32.93831409996487
2025-05-08 13:02:59.454,7.369101066237068e-05,-33.18575090415625
2025-05-08 13:02:59.462,8.757839369299496e-05,-33.777865674799486
2025-05-08 13:02:59.469,9.983320560765696e-05,-34.729135066938824
2025-05-08 13:02:59.477,0.0001105001830879,-36.03991639858536
2025-05-08 13:02:59.485,0.0001196498677829,-37.69622445292345
2025-05-08 13:02:59.493,0.0001273736960796,-39.66978774331038
2025-05-08 13:02:59.501,0.0001337793145258,-41.91839266499061
2025-05-08 13:02:59.508,0.0001389863269616,-44.38652230073061
2025-05-08 13:02:59.516,0.0001431226248911,-47.006294233661
2025-05-08 13:02:59.524,0.0001463213944949,-49.69869833262646
2025-05-08 13:02:59.532,0.0001487188349671,-52.37513094327094
2025-05-08 13:02:59.540,0.0001504525664678,-54.93921613991864
2025-05-08 13:02:59.547,0.0001516606545873,-57.28889765235365
2025-05-08 13:02:59.555,0.0001524811341994,-59.31877685848781
2025-05-08 13:02:59.563,0.0001530518809507,-60.92266301662884
2025-05-08 13:02:59.571,0.0001535106549726,-61.99629200366928
2025-05-08 13:02:59.579,0.0001539951298334,-62.44015965164997
2025-05-08 13:02:59.587,0.0001546427208856,-62.16240587170022
2025-05-08 13:02:59.594,0.0001555900411127,-61.081676751653504
2025-05-08 13:02:59.602,0.0001569718389159,-59.12988440024277
2025-05-08 13:02:59.610,0.0001589193100744,-56.25477918319088
2025-05-08 13:02:59.618,0.0001615577239417,-52.42224679668036
2025-05-08 13:02:59.626,0.0001650033599205,-47.61824387184402
2025-05-08 13:02:59.633,0.0001693598121115,-41.85029083925778
2025-05-08 13:02:59.641,0.0001747137851235,-35.14844972303775
2025-05-08 13:02:59.649,0.0001811305694641,-27.56572726026377
2025-05-08 13:02:59.657,0.0001886494459901,-19.177859898782756
2025-05-08 13:02:59.665,0.0001972793127174,-10.082456245062655
2025-05-08 13:02:59.672,0.0002069948301131,-0.3974936609084284
2025-05-08 13:02:59.680,0.0002177333285859,9.740811945884236
2025-05-08 13:02:59.688,0.0002293926378137,20.180721497400235
2025-05-08 13:02:59.696,0.0002418299292235,30.758209801188432
2025-05-08 13:02:59.704,0.0002548616343345,41.30064066376426
2025-05-08 13:02:59.712,0.0002682644994357,51.63077890200244
2025-05-08 13:02:59.719,0.0002817778386792,61.57102391332259
2025-05-08 13:02:59.727,0.000295107041953,70.94773925886021
2025-05-08 13:02:59.735,0.0003079283782073,79.5955469289799
2025-05-08 13:02:59.743,0.0003198951088013,87.3614538762935
2025-05-08 13:02:59.751,0.000330644889066,94.1086821234375
2025-05-08 13:02:59.758,0.0003398083904772,99.7200822139468
2025-05-08 13:02:59.766,0.0003470190220681,104.10102273214312
2025-05-08 13:02:59.774,0.0003519235701286,107.18166564955308
2025-05-08 13:02:59.782,0.0003541935125633,108.9185577608498
2025-05-08 13:02:59.790,0.0003535367017965,109.29549169020146
2025-05-08 13:02:59.797,0.0003497090515284,108.32361498113428
2025-05-08 13:02:59.805,0.0003425258119881,106.0407916229496
2025-05-08 13:02:59.813,0.0003318719797998,102.51024593703204
2025-05-08 13:02:59.821,0.0003177113663596,97.81854295375751
2025-05-08 13:02:59.829,0.0003000938467301,92.07298121223523
2025-05-08 13:02:59.837,0.0002791603331048,85.39849238349123
2025-05-08 13:02:59.844,0.0002551450659292,77.93415649597661
2025-05-08 13:02:59.852,0.0002283748940107,69.82945128623956
2025-05-08 13:02:59.860,0.0001992653237013,61.240359006727246
2025-05-08 13:02:59.868,0.0001683132565851,52.32545385664357
2025-05-08 13:02:59.876,0.0001360865038789,43.24208827535241
2025-05-08 13:02:59.883,0.0001032103597088,34.1427870944853
2025-05-08 13:02:59.891,7.035171916835822e-05,25.171945618273448
2025-05-08 13:02:59.899,3.820140304856149e-05,16.462911871219696
2025-05-08 13:02:59.907,7.45544917678884e-06,8.135515394235103
2025-05-08 13:02:59.915,-2.120387484462229e-05,0.2940860031546731
2025-05-08 13:02:59.922,-4.712666765205843e-05,-6.974013247932105
2025-05-08 13:02:59.930,-6.971304548363152e-05,-13.599333190890324
2025-05-08 13:02:59.938,-8.842940785163163e-05,-19.530777209921308
2025-05-08 13:02:59.946,-0.0001028229713892,-24.735558093944327
2025-05-08 13:02:59.954,-0.0001125343010652,-29.19871248705509
2025-05-08 13:02:59.962,-0.0001173076247118,-32.922222406051944
2025-05-08 13:02:59.969,-0.0001169987573402,-35.92380050254607
2025-05-08 13:02:59.977,-0.0001115804895094,-38.235400113088026
2025-05-08 13:02:59.985,-0.0001011453134909,-39.90151279509583
2025-05-08 13:02:59.993,-8.590537714137593e-05,-40.97731522344393
2025-05-08 13:03:00.001,-6.618957362815555e-05,-41.52672433908162
2025-05-08 13:03:00.008,-4.243770078017971e-05,-41.62041487621704
2025-05-08 13:03:00.016,-1.519166189735355e-05,-41.333847266206405
2025-05-08 13:03:00.024,1.4916265278830587e-05,-40.745346854458
2025-05-08 13:03:00.032,4.717798959757461e-05,-39.93426779320213
2025-05-08 13:03:00.040,8.082679805002945e-05,-38.97926728839851
2025-05-08 13:03:00.047,0.0001150568573588,-37.95670845212933
2025-05-08 13:03:00.055,0.0001490445615331,-36.939203169204745
2025-05-08 13:03:00.063,0.0001819710992057,-35.99430040676681
2025-05-08 13:03:00.071,0.0002130454494326,-35.1833205086401
2025-05-08 13:03:00.079,0.0002415268842866,-34.560332402655355
2025-05-08 13:03:00.087,0.0002667460115912,-34.17126842843414
2025-05-08 13:03:00.094,0.0002881234571717,-34.05317070442101
2025-05-08 13:03:00.102,0.0003051854399897,-34.23356354260634
2025-05-08 13:03:00.110,0.0003175756872933,-34.72994824033844
2025-05-08 13:03:00.118,0.0003250633347096,-35.549419397970794
2025-05-08 13:03:00.126,0.0003275466440797,-36.68840542062062
2025-05-08 13:03:00.133,0.0003250525465978,-38.13253969565922
2025-05-08 13:03:00.141,0.0003177321798468,-39.85667269902078
2025-05-08 13:03:00.149,0.0003058527347522,-41.82503858211284
2025-05-08 13:03:00.157,0.0002897860613193,-43.99159226501741
2025-05-08 13:03:00.165,0.0002699945915809,-46.30053438686313
2025-05-08 13:03:00.172,0.0002470152032659,-48.68704136262415
2025-05-08 13:03:00.180,0.0002214416483765,-51.07821605203988
2025-05-08 13:03:00.188,0.0001939061134685,-53.39427102721772
2025-05-08 13:03:00.196,0.000165060401778,-55.54995108515577
2025-05-08 13:03:00.204,0.0001355571815942,-57.45619452940386
2025-05-08 13:03:00.212,0.0001060317574601,-59.02202396778386
2025-05-08 13:03:00.219,7.708487091618247e-05,-60.15664716654216
2025-05-08 13:03:00.227,4.926707724100119e-05,-60.77173720680429
2025-05-08 13:03:00.235,2.306523987696668e-05,-60.78384927026154
2025-05-08 13:03:00.243,-1.1083755142451072e-06,-60.1169194172464
2025-05-08 13:03:00.251,-2.2924041072806468e-05,-58.704779391043694
2025-05-08 13:03:00.258,-4.213933418956643e-05,-56.49361154074136
2025-05-08 13:03:00.266,-5.860070168584781e-05,-53.4442601887505
2025-05-08 13:03:00.274,-7.224195605379805e-05,-49.53431094395108
2025-05-08 13:03:00.282,-8.307998265610613e-05,-44.75984825501618
2025-05-08 13:03:00.290,-9.120805452339011e-05,-39.13680443759793
2025-05-08 13:03:00.297,-9.67872409302715e-05,-32.701820816189255
2025-05-08 13:03:00.305,-0.00010003644774,-25.512553570699225
2025-05-08 13:03:00.313,-0.0001012216218865,-17.64737316163299
2025-05-08 13:03:00.321,-0.0001006445796556,-9.204426325073191
2025-05-08 13:03:00.329,-9.863180698649942e-05,-0.3000528019504162
2025-05-08 13:03:00.337,-9.552348204462874e-05,8.933425815492125
2025-05-08 13:03:00.344,-9.166291431879576e-05,18.35050166150812
2025-05-08 13:03:00.352,-8.738657112179297e-05,27.795791508864703
2025-05-08 13:03:00.360,-8.301485247784091e-05,37.10777007929188
2025-05-08 13:03:00.368,-7.884377025652023e-05,46.12281205816935
2025-05-08 13:03:00.376,-7.513768592821258e-05,54.679412630088144
2025-05-08 13:03:00.383,-7.212326344131722e-05,62.62244512469331
2025-05-08 13:03:00.391,-6.998479892650267e-05,69.80730913904796
2025-05-08 13:03:00.399,-6.886109459418409e-05,76.10382371883739
2025-05-08 13:03:00.407,-6.884403921550096e-05,81.39972791826676
2025-05-08 13:03:00.415,-6.99790179988026e-05,85.60366502597935
2025-05-08 13:03:00.422,-7.22671776572721e-05,88.64754629103601
2025-05-08 13:03:00.430,-7.566942166030313e-05,90.48821414491722
2025-05-08 13:03:00.438,-8.011184266252451e-05,91.1083524801318
2025-05-08 13:03:00.446,-8.549216422273639e-05,90.5166211276524
2025-05-08 13:03:00.454,-9.168669830829932e-05,88.74702179955258
2025-05-08 13:03:00.462,-9.85573314977278e-05,85.85753195758228
2025-05-08 13:03:00.469,-0.0001059581070958,81.92806995138389
2025-05-08 13:03:00.477,-0.0001137410468645,77.05787812827683
2025-05-08 13:03:00.485,-0.0001217609415235,71.3624294694233
2025-05-08 13:03:00.493,-0.0001298789284657,64.96997695682292
2025-05-08 13:03:00.501,-0.0001379647648877,58.017872936591694
2025-05-08 13:03:00.508,-0.000145897791611,50.64878814852412
2025-05-08 13:03:00.516,-0.000153566664393,43.006957069840446
2025-05-08 13:03:00.524,-0.000160868002975,35.234568259829366
2025-05-08 13:03:00.532,-0.0001677041713603,27.46840618554431
2025-05-08 13:03:00.540,-0.000173980454147,19.83683540093243
2025-05-08 13:03:00.547,-0.0001796019318916,12.457199879439507
2025-05-08 13:03:00.555,-0.0001844703826666,5.433690734191277
2025-05-08 13:03:00.563,-0.000188481546846,-1.1442845485278812
2025-05-08 13:03:00.571,-0.0001915230878488,-7.20321800194051
2025-05-08 13:03:00.579,-0.000193473563663,-12.686107475275906
2025-05-08 13:03:00.587,-0.0001942026934689,-17.552575469455803
2025-05-08 13:03:00.594,-0.0001935731603612,-21.778537219474487
2025-05-08 13:03:00.602,-0.0001914441271336,-25.355466666846187
2025-05-08 13:03:00.610,-0.0001876765388224,-28.28931805977886
2025-05-08 13:03:00.618,-0.0001821401327966,-30.59916709580772
2025-05-08 13:03:00.626,-0.0001747218938705,-32.31563881982649
2025-05-08 13:03:00.633,-0.0001653355102374,-33.47919004773358
2025-05-08 13:03:00.641,-0.0001539312235538,-34.13831212404771
2025-05-08 13:03:00.649,-0.0001405053404477,-34.347715628676106
2025-05-08 13:03:00.657,-0.0001251086138854,-34.16655256029909
2025-05-08 13:03:00.665,-0.0001078527284548,-33.656723913722324
2025-05-08 13:03:00.672,-8.89142204445786e-05,-32.8813118328946
2025-05-08 13:03:00.680,-6.853530946446994e-05,-31.90316607064185
2025-05-08 13:03:00.688,-4.702130086045661e-05,-30.78366473255862
2025-05-08 13:03:00.696,-2.47344318184503e-05,-29.5816596274739
2025-05-08 13:03:00.704,-2.084273730645668e-06,-28.352607370812063
2025-05-08 13:03:00.712,2.0484938771926483e-05,-27.147879039035832
2025-05-08 13:03:00.719,4.250942444080904e-05,-26.01423396027444
2025-05-08 13:03:00.727,6.352257362895708e-05,-24.99343740392532
2025-05-08 13:03:00.735,8.307230100730486e-05,-24.12199770037556
2025-05-08 13:03:00.743,0.0001007380627902,-23.430995822588024
2025-05-08 13:03:00.751,0.0001161466632125,-22.945979768955517
2025-05-08 13:03:00.758,0.0001289861191239,-22.68689719726581
2025-05-08 13:03:00.766,0.0001390170087875,-22.668042584946924
2025-05-08 13:03:00.774,0.0001460808863832,-22.89799956653656
2025-05-08 13:03:00.782,0.0001501054929126,-23.379564794092104
2025-05-08 13:03:00.790,0.0001511066351623,-24.10964638621569
2025-05-08 13:03:00.797,0.0001491867357575,-25.079137423088955
2025-05-08 13:03:00.805,0.000144530178412,-26.272772602728278
2025-05-08 13:03:00.813,0.0001373956829583,-27.66898365549659
2025-05-08 13:03:00.821,0.0001281060447117,-29.239775964752788
2025-05-08 13:03:00.829,0.000117035662433,-30.95065461917544
2025-05-08 13:03:00.837,0.0001045963589274,-32.76063241963451
2025-05-08 13:03:00.844,9.122206840815246e-05,-34.62235482671812
2025-05-08 13:03:00.852,7.735302359282209e-05,-36.48237717988288
2025-05-08 13:03:00.860,6.34201132037899e-05,-38.2816275461416
2025-05-08 13:03:00.868,4.983007434772565e-05,-39.95608416462674
2025-05-08 13:03:00.876,3.695211238673704e-05,-41.43768965371608
2025-05-08 13:03:00.883,2.510640788158457e-05,-42.65551507048884
2025-05-08 13:03:00.891,1.455481310241926e-05,-43.537175816772645
2025-05-08 13:03:00.899,5.493909939871708e-06,-44.01048866251684
2025-05-08 13:03:00.907,-1.949468894109641e-06,-44.00534532262598
2025-05-08 13:03:00.915,-7.720170230363675e-06,-43.45576370342769
2025-05-08 13:03:00.922,-1.1834028090089556e-05,-42.30206383991365
2025-05-08 13:03:00.930,-1.4374527091043314e-05,-40.49310244427988
2025-05-08 13:03:00.938,-1.5486905225792515e-05,-37.988488680629146
2025-05-08 13:03:00.946,-1.5369914713237403e-05,-34.76069506514492
2025-05-08 13:03:00.954,-1.4265597717387136e-05,-30.796972009059687
2025-05-08 13:03:00.962,-1.244755244219144e-05,-26.100973112853964
2025-05-08 13:03:00.969,-1.020823926858252e-05,-20.694001368518077
2025-05-08 13:03:00.977,-7.845892121681179e-06,-14.615794215175208
2025-05-08 13:03:00.985,-5.651579026161624e-06,-7.924777963386997
2025-05-08 13:03:00.993,-3.896935252361435e-06,-0.6977392220494784
2025-05-08 13:03:01.001,-2.8230736558984127e-06,6.971117899651736
2025-05-08 13:03:01.008,-2.631124469216672e-06,14.971735709617631
2025-05-08 13:03:01.016,-3.474751050188055e-06,23.18036843480253
2025-05-08 13:03:01.024,-5.454846477220985e-06,31.46230257022864
2025-05-08 13:03:01.032,-8.616473242837548e-06,39.67505883174164
2025-05-08 13:03:01.040,-1.2947999237188567e-05,47.67197818046698
2025-05-08 13:03:01.047,-1.8382324567001735e-05,55.30607377194866
2025-05-08 13:03:01.055,-2.4800062906105556e-05,62.4340150272093
2025-05-08 13:03:01.063,-3.2034491566750506e-05,68.92010035107583
2025-05-08 13:03:01.071,-3.987799509031877e-05,74.64007202905401
2025-05-08 13:03:01.079,-4.808962394092979e-05,79.48463082730666
2025-05-08 13:03:01.087,-5.6403328986789615e-05,83.36251869056058
2025-05-08 13:03:01.094,-6.45364686801359e-05,86.20305514398015
2025-05-08 13:03:01.102,-7.219832990479244e-05,87.95803562728662
2025-05-08 13:03:01.110,-7.909859390154278e-05,88.60292676622815
2025-05-08 13:03:01.118,-8.495581680619835e-05,88.13732302854994
2025-05-08 13:03:01.126,-8.950601956655158e-05,86.58465970614517
2025-05-08 13:03:01.133,-9.251140512454534e-05,83.99120709107312
2025-05-08 13:03:01.141,-9.37690893220352e-05,80.42439855103083
2025-05-08 13:03:01.149,-9.311958460317772e-05,75.97056963584409
2025-05-08 13:03:01.157,-9.045463225055836e-05,70.73220530513922
2025-05-08 13:03:01.165,-8.572385817208523e-05,64.82480711964388
2025-05-08 13:03:01.172,-7.893965859529939e-05,58.373501384894205
2025-05-08 13:03:01.180,-7.017973485392216e-05,51.50951271349621
2025-05-08 13:03:01.188,-5.958680274974163e-05,44.36662552732192
2025-05-08 13:03:01.196,-4.736519898874817e-05,37.07774916252689
2025-05-08 13:03:01.204,-3.377437905500807e-05,29.77169117546252
2025-05-08 13:03:01.212,-1.9119597951313983e-05,22.57022901626634
2025-05-08 13:03:01.219,-3.7403091030957495e-06,15.585553350191676
2025-05-08 13:03:01.227,1.2003044834389404e-05,8.918137895478374
2025-05-08 13:03:01.235,2.774313252590116e-05,2.655071618700091
2025-05-08 13:03:01.243,4.31200175347134e-05,-3.1311296691850954
2025-05-08 13:03:01.251,5.779494242011111e-05,-8.383233089233055
2025-05-08 13:03:01.258,7.146296123028438e-05,-13.059536824430204
2025-05-08 13:03:01.266,8.386380230125087e-05,-17.133687700126476
2025-05-08 13:03:01.274,9.47903919689214e-05,-20.59411100129716
2025-05-08 13:03:01.282,0.0001040945637499,-23.44310437792884
2025-05-08 13:03:01.290,0.0001116896493709,-25.69565404887841
2025-05-08 13:03:01.297,0.0001175498838481,-27.378035185048383
2025-05-08 13:03:01.305,0.0001217067836699,-28.526259439795776
2025-05-08 13:03:01.313,0.0001242428123288,-29.184431281059
2025-05-08 13:03:01.321,0.0001252827491789,-29.40307131434952
2025-05-08 13:03:01.329,0.0001249832931565,-29.237459468735764
2025-05-08 13:03:01.337,0.0001235215816434,-28.746044089282805
2025-05-08 13:03:01.344,0.0001210834262883,-27.988955012075248
2025-05-08 13:03:01.352,0.0001178520923641,-27.02664998918944
2025-05-08 13:03:01.360,0.0001139983668257,-25.91871478358098
2025-05-08 13:03:01.368,0.0001096725107426,-24.72282825125817
2025-05-08 13:03:01.376,0.0001049985111906,-23.49389511708606
2025-05-08 13:03:01.383,0.0001000708542127,-22.28334123911992
2025-05-08 13:03:01.391,9.49538426897033e-05,-21.13855922026703
2025-05-08 13:03:01.399,8.968328777859136e-05,-20.10248651121557
2025-05-08 13:03:01.407,8.427021825985865e-05,-19.21329386393488
2025-05-08 13:03:01.415,7.870609632702057e-05,-18.504159300779836
2025-05-08 13:03:01.422,7.296893720127549e-05,-18.00310176058973
2025-05-08 13:03:01.430,6.702974055390666e-05,-17.73284930168959
2025-05-08 13:03:01.438,6.0858743542905095e-05,-17.710719137450898
2025-05-08 13:03:01.446,5.4431125985778086e-05,-17.948490726946094
2025-05-08 13:03:01.454,4.7731866646531206e-05,-18.45225843759238
2025-05-08 13:03:01.462,4.075946526634854e-05,-19.222256669850243
2025-05-08 13:03:01.469,3.352827297916214e-05,-20.25265746539575
2025-05-08 13:03:01.477,2.606927897944911e-05,-21.53134814484541
2025-05-08 13:03:01.485,1.8429382275694944e-05,-23.03970403627958
2025-05-08 13:03:01.493,1.0669361373243538e-05,-24.752378431845408
2025-05-08 13:03:01.501,2.8608673004913523e-06,-26.63713810669148
2025-05-08 13:03:01.508,-4.917206747621031e-06,-28.654777620535764
2025-05-08 13:03:01.516,-1.2582648953459073e-05,-30.759148792335782
2025-05-08 13:03:01.524,-2.005385713185074e-05,-32.89734283978532
2025-05-08 13:03:01.532,-2.7253530302886637e-05,-35.01006144076652
2025-05-08 13:03:01.540,-3.411193113991907e-05,-37.03220925341853
2025-05-08 13:03:01.547,-4.056957594617229e-05,-38.89373420341556
2025-05-08 13:03:01.555,-4.657925651081594e-05,-40.52073321259744
2025-05-08 13:03:01.563,-5.210734315904143e-05,-41.83683022242784
2025-05-08 13:03:01.571,-5.713435943013859e-05,-42.76482070320955
2025-05-08 13:03:01.579,-6.165485521532585e-05,-43.22856280754311
2025-05-08 13:03:01.587,-6.56766362185771e-05,-43.15508051391583
2025-05-08 13:03:01.594,-6.921943284992813e-05,-42.47682920025125
2025-05-08 13:03:01.602,-7.231311091492697e-05,-41.13405984853696
2025-05-08 13:03:01.610,-7.499553971320158e-05,-39.07720532191792
2025-05-08 13:03:01.618,-7.731024056306868e-05,-36.26920170671548
2025-05-08 13:03:01.626,-7.930394063567473e-05,-32.68765038187294
2025-05-08 13:03:01.633,-8.102415374290433e-05,-28.32672299762516
2025-05-08 13:03:01.641,-8.251690190852567e-05,-23.198712509196653
2025-05-08 13:03:01.649,-8.382467976696075e-05,-17.335139224447225
2025-05-08 13:03:01.657,-8.498474873651162e-05,-10.78733164538705
2025-05-08 13:03:01.665,-8.60278301942524e-05,-3.626417580383546
2025-05-08 13:03:01.673,-8.697724724346893e-05,4.057318869130217
2025-05-08 13:03:01.680,-8.784854381673758e-05,12.155735040620575
2025-05-08 13:03:01.688,-8.864958849102414e-05,20.544776305540783
2025-05-08 13:03:01.696,-8.938114917506803e-05,29.087037831531426
2025-05-08 13:03:01.704,-9.003790440186032e-05,37.63487999314352
2025-05-08 13:03:01.712,-9.060983791990212e-05,46.0340095915174
2025-05-08 13:03:01.719,-9.108394618147742e-05,54.12741568806911
2025-05-08 13:03:01.727,-9.144617367995492e-05,61.75952981304405
2025-05-08 13:03:01.735,-9.168347934157008e-05,68.78046671416462
2025-05-08 13:03:01.743,-9.178592871983178e-05,75.05019452097434
2025-05-08 13:03:01.751,-9.174870189513909e-05,80.44248274007124
2025-05-08 13:03:01.758,-9.157390599673282e-05,84.8484830150473
2025-05-08 13:03:01.766,-9.12720843051788e-05,88.17981084003985
2025-05-08 13:03:01.774,-9.086332103728478e-05,90.37101578053274
2025-05-08 13:03:01.782,-9.037785213880774e-05,91.38135225339812
2025-05-08 13:03:01.790,-8.985610758310288e-05,91.19579128172596
2025-05-08 13:03:01.798,-8.934812955034438e-05,89.82524438364413
2025-05-08 13:03:01.805,-8.891233307492119e-05,87.30600227061146
2025-05-08 13:03:01.813,-8.861360080538766e-05,83.69842169933618
2025-05-08 13:03:01.821,-8.852073080282156e-05,79.0849221240078
2025-05-08 13:03:01.829,-8.87032850671235e-05,73.56737841709922
2025-05-08 13:03:01.837,-8.922791586850982e-05,67.26401583035991
2025-05-08 13:03:01.844,-9.015427601237964e-05,60.30592783577332
2025-05-08 13:03:01.852,-9.153064683524e-05,52.83334614054871
2025-05-08 13:03:01.860,-9.338944291394244e-05,44.99179496790496
2025-05-08 13:03:01.868,-9.574277403878238e-05,36.92825890453883
2025-05-08 13:03:01.876,-9.857826183072208e-05,28.7874857687323
2025-05-08 13:03:01.883,-0.0001018553194029,20.70853378838872
2025-05-08 13:03:01.891,-0.000105502106703,12.821656779095845
2025-05-08 13:03:01.899,-0.000109413370799,5.245602945364973
2025-05-08 13:03:01.907,-0.0001134493687549,-1.914616618550728
2025-05-08 13:03:01.915,-0.0001174360505096,-8.56945372731105
2025-05-08 13:03:01.923,-0.000121166650219,-14.646026936206706
2025-05-08 13:03:01.930,-0.0001244047971183,-20.08880577417115
2025-05-08 13:03:01.938,-0.0001268892117059,-24.85979465264091
2025-05-08 13:03:01.946,-0.0001283400009731,-28.938250418398365
2025-05-08 13:03:01.954,-0.0001284665089172,-32.31997966149079
2025-05-08 13:03:01.962,-0.0001269766174979,-35.01627128051734
2025-05-08 13:03:01.969,-0.0001235873307433,-37.05252636693478
2025-05-08 13:03:01.977,-0.0001180364117803,-38.46665122341508
2025-05-08 13:03:01.985,-0.000110094772319,-39.30728039589741
2025-05-08 13:03:01.993,-9.957921896688994e-05,-39.63189516742559
2025-05-08 13:03:02.001,-8.636503266894472e-05,-39.50489928755401
2025-05-08 13:03:02.008,-7.039772602375382e-05,-38.99570810024821
2025-05-08 13:03:02.016,-5.170324109774405e-05,-38.17690004262044
2025-05-08 13:03:02.024,-3.0395846305514668e-05,-37.12247111755545
2025-05-08 13:03:02.032,-6.683055256610334e-06,-35.90622382286659
2025-05-08 13:03:02.040,1.913299689078072e-05,-34.60031258035573
2025-05-08 13:03:02.048,4.665813334678571e-05,-33.27395837262047
2025-05-08 13:03:02.055,7.541290035723666e-05,-31.992336469925423
2025-05-08 13:03:02.063,0.0001048435283064,-30.8156331961192
2025-05-08 13:03:02.071,0.0001343368571518,-29.79826098434637
2025-05-08 13:03:02.079,0.0001632387308454,-28.98821579316752
2025-05-08 13:03:02.087,0.0001908751013268,-28.42655749618756
2025-05-08 13:03:02.094,0.0002165748583236,-28.14699223856128
2025-05-08 13:03:02.102,0.000239693269509,-28.175535993181544
2025-05-08 13:03:02.110,0.0002596349041372,-28.53024057310919
2025-05-08 13:03:02.118,0.0002758750006292,-29.220966992527824
2025-05-08 13:03:02.126,0.0002879783777258,-30.24919605171963
2025-05-08 13:03:02.133,0.0002956151448965,-31.60787201204218
2025-05-08 13:03:02.141,0.0002985726272892,-33.28128183184498
2025-05-08 13:03:02.149,0.000296763080744,-35.24497922902817
2025-05-08 13:03:02.157,0.0002902269326909,-37.46576937824272
2025-05-08 13:03:02.165,0.0002791314450576,-39.90177589252536
2025-05-08 13:03:02.173,0.0002637648559197,-42.5026164413956
2025-05-08 13:03:02.180,0.0002445262179215,-45.20971650875058
2025-05-08 13:03:02.188,0.0002219113138078,-47.95679203204268
2025-05-08 13:03:02.196,0.0001964951927138,-50.67053069965099
2025-05-08 13:03:02.204,0.0001689120330283,-53.27149832350493
2025-05-08 13:03:02.212,0.0001398331877841,-55.67529087459928
2025-05-08 13:03:02.219,0.0001099443823993,-57.79394452805259
2025-05-08 13:03:02.227,7.992308676886979e-05,-59.53760560839798
2025-05-08 13:03:02.235,5.041706478116811e-05,-60.81644999049523
2025-05-08 13:03:02.243,2.2025016287710116e-05,-61.542827767667696
2025-05-08 13:03:02.251,-4.719926996488294e-06,-61.63359444540547
2025-05-08 13:03:02.258,-2.936329439511793e-05,-61.01257527080598
2025-05-08 13:03:02.266,-5.1538625060483705e-05,-59.61309537228886
2025-05-08 13:03:02.274,-7.097295537519964e-05,-57.38049602780539
2025-05-08 13:03:02.282,-8.748851976479487e-05,-54.27454748570208
2025-05-08 13:03:02.290,-0.0001010009029098,-50.27166217590794
2025-05-08 13:03:02.298,-0.0001115140133819,-45.36680961411562
2025-05-08 13:03:02.305,-0.0001191123486853,-39.57503639212218
2025-05-08 13:03:02.313,-0.0001239510898595,-32.932501702811926
2025-05-08 13:03:02.321,-0.0001262446015598,-25.49695092322609
2025-05-08 13:03:02.329,-0.000126253923151,-17.347566618706207
2025-05-08 13:03:02.337,-0.0001242738208263,-8.584157370874987
2025-05-08 13:03:02.344,-0.0001206199336303,0.6743307786380376
2025-05-08 13:03:02.352,-0.0001156164914209,10.291968831657035
2025-05-08 13:03:02.360,-0.0001095850143288,20.11862621556454
2025-05-08 13:03:02.368,-0.0001028343252684,29.993312722272044
2025-05-08 13:03:02.376,-9.565212351730428e-05,39.7479891832661
2025-05-08 13:03:02.383,-8.829828205678686e-05,49.21173262617896
2025-05-08 13:03:02.391,-8.099994767300442e-05,58.21512346717143
2025-05-08 13:03:02.399,-7.394844375350098e-05,66.59470932811692
2025-05-08 13:03:02.407,-6.729790380894732e-05,74.1973930689289
2025-05-08 13:03:02.415,-6.11655010278741e-05,80.88459205603662
2025-05-08 13:03:02.423,-5.563308714700896e-05,86.53602170654548
