Timestamp,GSR_Filtered,PPG_Filtered,FMS,Condition
2025-05-08 13:10:38.060,0.00012523393633,-28.654905741049514,3,NB
2025-05-08 13:10:38.068,-9.142369936309564e-05,-29.21383046190157,3,NB
2025-05-08 13:10:38.075,-0.0002795432748285,-29.4630397305534,3,NB
2025-05-08 13:10:38.083,-0.0004378647510253,-29.46494658555473,3,NB
2025-05-08 13:10:38.091,-0.0005660891972511,-29.284101732236,3,NB
2025-05-08 13:10:38.099,-0.0006648138732998,-28.98550463067259,3,NB
2025-05-08 13:10:38.107,-0.0007354410070863,-28.63296639103515,3,NB
2025-05-08 13:10:38.114,-0.0007800656910344,-28.287548463635083,3,NB
2025-05-08 13:10:38.122,-0.0008013486609644,-28.00609789229493,3,NB
2025-05-08 13:10:38.130,-0.0008023797989192,-27.83989710724845,3,NB
2025-05-08 13:10:38.138,-0.0007865380455929,-27.833443946318187,3,NB
2025-05-08 13:10:38.146,-0.0007573530522926,-28.02337583759662,3,NB
2025-05-08 13:10:38.154,-0.0007183733827105,-28.43755082501967,3,NB
2025-05-08 13:10:38.161,-0.0006730454281768,-29.094297290974072,3,NB
2025-05-08 13:10:38.169,-0.0006246064629906,-30.001843708544065,3,NB
2025-05-08 13:10:38.177,-0.0005759944736667,-31.157939393459017,3,NB
2025-05-08 13:10:38.185,-0.0005297765795866,-32.549676857218635,3,NB
2025-05-08 13:10:38.193,-0.0004880970512714,-34.153525812361224,3,NB
2025-05-08 13:10:38.200,-0.0004526451510368,-35.93558796760708,3,NB
2025-05-08 13:10:38.208,-0.0004246422896608,-37.85208029420693,3,NB
2025-05-08 13:10:38.216,-0.0004048473281336,-39.85005227245178,3,NB
2025-05-08 13:10:38.224,-0.00039357826765,-41.86833958543054,3,NB
2025-05-08 13:10:38.232,-0.0003907480735604,-43.83875269739335,3,NB
2025-05-08 13:10:38.239,-0.0003959119860403,-45.687493671431554,3,NB
2025-05-08 13:10:38.247,-0.0004083234137597,-47.33678845097827,3,NB
2025-05-08 13:10:38.255,-0.0004269954194731,-48.70671474084721,3,NB
2025-05-08 13:10:38.263,-0.0004507648816774,-49.71719775773913,3,NB
2025-05-08 13:10:38.271,-0.0004783566059288,-50.29013775742342,3,NB
2025-05-08 13:10:38.279,-0.0005084449254116,-50.35162476637135,3,NB
2025-05-08 13:10:38.286,-0.0005397106703083,-49.83418782235338,3,NB
2025-05-08 13:10:38.294,-0.000570891794584,-48.6790188046311,3,NB
2025-05-08 13:10:38.302,-0.0006008263956076,-46.83810518543894,3,NB
2025-05-08 13:10:38.310,-0.0006284873092585,-44.2762023207425,3,NB
2025-05-08 13:10:38.318,-0.0006530078866307,-40.97257471449964,3,NB
2025-05-08 13:10:38.325,-0.0006736989445275,-36.92243741700412,3,NB
2025-05-08 13:10:38.333,-0.0006900572213067,-32.138033576921345,3,NB
2025-05-08 13:10:38.341,-0.0007017659556439,-26.64929219420495,3,NB
2025-05-08 13:10:38.349,-0.0007086884344305,-20.504021157029165,3,NB
2025-05-08 13:10:38.357,-0.0007108555258009,-13.767604342237318,3,NB
2025-05-08 13:10:38.364,-0.0007084483249457,-6.522187399471736,3,NB
2025-05-08 13:10:38.372,-0.0007017770966585,1.1346458323660351,3,NB
2025-05-08 13:10:38.380,-0.0006912577039117,9.091686271206123,3,NB
2025-05-08 13:10:38.388,-0.000677386671904,17.226363926981193,3,NB
2025-05-08 13:10:38.396,-0.0006607159586992,25.407408589966614,3,NB
2025-05-08 13:10:38.404,-0.0006418283941362,33.49783644506691,3,NB
2025-05-08 13:10:38.411,-0.000621314615777,41.35817913248312,3,NB
2025-05-08 13:10:38.419,-0.0005997521819107,48.84986160115344,3,NB
2025-05-08 13:10:38.427,-0.0005776873843818,55.83862819931385,3,NB
2025-05-08 13:10:38.435,-0.0005556201250971,62.19791306190304,3,NB
2025-05-08 13:10:38.443,-0.0005339920655885,67.81205109485978,3,NB
2025-05-08 13:10:38.450,-0.0005131781142402,72.57922970913474,3,NB
2025-05-08 13:10:38.458,-0.0004934811850418,76.4140888066493,3,NB
2025-05-08 13:10:38.466,-0.0004751300483071,79.24988715490106,3,NB
2025-05-08 13:10:38.474,-0.0004582800000194,81.04016689640991,3,NB
2025-05-08 13:10:38.482,-0.0004430160036302,81.75986410831968,3,NB
2025-05-08 13:10:38.489,-0.00042935790665,81.4058315300418,3,NB
2025-05-08 13:10:38.497,-0.00041726730378,79.9967591752376,3,NB
2025-05-08 13:10:38.505,-0.0004066556074543,77.57249879930654,3,NB
2025-05-08 13:10:38.513,-0.0003973928937135,74.19281829101956,3,NB
2025-05-08 13:10:38.521,-0.0003893171140273,69.93563115342842,3,NB
2025-05-08 13:10:38.529,-0.0003822432994203,64.89476351362468,3,NB
2025-05-08 13:10:38.536,-0.0003759724291857,59.177335804703816,3,NB
2025-05-08 13:10:38.544,-0.0003702996896846,52.90084776535409,3,NB
2025-05-08 13:10:38.552,-0.0003650219063228,46.190063229605975,3,NB
2025-05-08 13:10:38.560,-0.0003599439910228,39.173795048373705,3,NB
2025-05-08 13:10:38.568,-0.0003548843058147,31.981690321823283,3,NB
2025-05-08 13:10:38.575,-0.0003496788983242,24.741112066292025,3,NB
2025-05-08 13:10:38.583,-0.0003441846150368,17.57420583150392,3,NB
2025-05-08 13:10:38.591,-0.000338281141757,10.595229140592892,3,NB
2025-05-08 13:10:38.599,-0.0003318720565691,3.908208605331363,3,NB
2025-05-08 13:10:38.607,-0.0003248850081452,-2.3950250800242627,3,NB
2025-05-08 13:10:38.614,-0.0003172711511658,-8.236389563568178,3,NB
2025-05-08 13:10:38.622,-0.0003090039810121,-13.552671578060709,3,NB
2025-05-08 13:10:38.630,-0.0003000777122037,-18.296211916620365,3,NB
2025-05-08 13:10:38.638,-0.0002905053400451,-22.435164396463072,3,NB
2025-05-08 13:10:38.646,-0.0002803165136142,-25.953350743433536,3,NB
2025-05-08 13:10:38.654,-0.0002695553317675,-28.84974349393015,3,NB
2025-05-08 13:10:38.661,-0.0002582781536167,-31.13761694426777,3,NB
2025-05-08 13:10:38.669,-0.0002465514923421,-32.84341179755173,3,NB
2025-05-08 13:10:38.677,-0.0002344500377318,-34.00536250283158,3,NB
2025-05-08 13:10:38.685,-0.000222054829845,-34.67193749617582,3,NB
2025-05-08 13:10:38.693,-0.0002094515850537,-34.90014187660618,3,NB
2025-05-08 13:10:38.700,-0.000196729157575,-34.75372979228799,3,NB
2025-05-08 13:10:38.708,-0.0001839781054984,-34.301370329638864,3,NB
2025-05-08 13:10:38.716,-0.0001712893210236,-33.61480636102024,3,NB
2025-05-08 13:10:38.724,-0.000158752680712,-32.76704097786429,3,NB
2025-05-08 13:10:38.732,-0.0001464556733126,-31.83058115378786,3,NB
2025-05-08 13:10:38.739,-0.0001344819701773,-30.875763448605284,3,NB
2025-05-08 13:10:38.747,-0.0001229099161665,-29.96918213238721,3,NB
2025-05-08 13:10:38.755,-0.0001118109367547,-29.17223627102645,3,NB
2025-05-08 13:10:38.763,-0.0001012478789894,-28.53980919518841,3,NB
2025-05-08 13:10:38.771,-9.127332903468774e-05,-28.119091428516807,3,NB
2025-05-08 13:10:38.779,-8.192797602810222e-05,-27.948556570118647,3,NB
2025-05-08 13:10:38.786,-7.323911953307499e-05,-28.057098746084392,3,NB
2025-05-08 13:10:38.794,-6.521944447847317e-05,-28.46333995445272,3,NB
2025-05-08 13:10:38.802,-5.786620997554784e-05,-29.175115780625475,3,NB
2025-05-08 13:10:38.810,-5.116100552391869e-05,-30.18914837716537,3,NB
2025-05-08 13:10:38.818,-4.507019774658388e-05,-31.490916073645185,3,NB
2025-05-08 13:10:38.825,-3.954611033094593e-05,-33.05472927348274,3,NB
2025-05-08 13:10:38.833,-3.452887439969704e-05,-34.84402215915636,3,NB
2025-05-08 13:10:38.841,-2.994880493877189e-05,-36.811868927041566,3,NB
2025-05-08 13:10:38.849,-2.572912637129513e-05,-38.90173159660584,3,NB
2025-05-08 13:10:38.857,-2.178887449008077e-05,-41.04844371474604,3,NB
2025-05-08 13:10:38.864,-1.8045820908304035e-05,-43.17943038798538,3,NB
2025-05-08 13:10:38.872,-1.4419289065075894e-05,-45.21615997406948,3,NB
2025-05-08 13:10:38.880,-1.0832754864838732e-05,-47.07581648041664,3,NB
2025-05-08 13:10:38.888,-7.21614920006357e-06,-48.67317436820634,3,NB
2025-05-08 13:10:38.896,-3.507802999095013e-06,-49.92264925943322,3,NB
2025-05-08 13:10:38.904,3.440027017525613e-07,-50.74048929555,3,NB
2025-05-08 13:10:38.911,4.37989943569193e-06,-51.047062993559855,3,NB
2025-05-08 13:10:38.919,8.628707337890343e-06,-50.76919085689685,3,NB
2025-05-08 13:10:38.927,1.3107110791661962e-05,-49.84246024813309,3,NB
2025-05-08 13:10:38.935,1.781970852942422e-05,-48.21345667149236,3,NB
2025-05-08 13:10:38.943,2.2759404503626134e-05,-45.84184019558104,3,NB
2025-05-08 13:10:38.950,2.7908100047236315e-05,-42.70219378277662,3,NB
2025-05-08 13:10:38.958,3.323764451234894e-05,-38.78557121397998,3,NB
2025-05-08 13:10:38.966,3.871100036375591e-05,-34.10067641163194,3,NB
2025-05-08 13:10:38.974,4.428357921238509e-05,-28.67461340494636,3,NB
2025-05-08 13:10:38.982,4.990470707323722e-05,-22.55315688746904,3,NB
2025-05-08 13:10:38.989,5.551917979236696e-05,-15.800507025864038,3,NB
2025-05-08 13:10:38.997,6.106887269616405e-05,-8.49850843690585,3,NB
2025-05-08 13:10:39.005,6.649437170357146e-05,-0.7453314297704605,3,NB
2025-05-08 13:10:39.013,7.17365960970853e-05,7.346367061747743,3,NB
2025-05-08 13:10:39.021,7.673838563420761e-05,15.651765837354631,3,NB
2025-05-08 13:10:39.029,8.144602654411912e-05,24.036629122483877,3,NB
2025-05-08 13:10:39.036,8.581069213103522e-05,32.36041026603085,3,NB
2025-05-08 13:10:39.044,8.978977422328533e-05,40.4796211305705,3,NB
2025-05-08 13:10:39.052,9.334808168057974e-05,48.25136696370679,3,NB
2025-05-08 13:10:39.060,9.645888179622425e-05,55.53693827358951,3,NB
2025-05-08 13:10:39.068,9.910475996959266e-05,62.20534698089127,3,NB
2025-05-08 13:10:39.075,0.0001012782727933,68.13669409547023,3,NB
2025-05-08 13:10:39.083,0.0001029823700512,73.22526040928871,3,NB
2025-05-08 13:10:39.091,0.0001042305624187,77.3822200816368,3,NB
2025-05-08 13:10:39.099,0.0001050468142623,80.53788923180642,3,NB
2025-05-08 13:10:39.107,0.0001054651451584,82.64343730846777,3,NB
2025-05-08 13:10:39.114,0.0001055289298842,83.67200749026277,3,NB
2025-05-08 13:10:39.122,0.0001052898948468,83.61921297500358,3,NB
2025-05-08 13:10:39.130,0.0001048068193294,82.50299791500815,3,NB
2025-05-08 13:10:39.138,0.0001041439625065,80.3628740573492,3,NB
2025-05-08 13:10:39.146,0.0001033692517895,77.25856591674007,3,NB
2025-05-08 13:10:39.154,0.0001025522844154,73.26811762012274,3,NB
2025-05-08 13:10:39.161,0.0001017622118695,68.48553254723738,3,NB
2025-05-08 13:10:39.169,0.0001010655951839,63.01803178583622,3,NB
2025-05-08 13:10:39.177,0.000100524337679,56.983028605279486,3,NB
2025-05-08 13:10:39.185,0.0001001938195248,50.5049231921568,3,NB
2025-05-08 13:10:39.193,0.0001001213730543,43.71182456099415,3,NB
2025-05-08 13:10:39.200,0.0001003452384184,36.73230485331251,3,NB
2025-05-08 13:10:39.208,0.0001008941043174,29.69228539796697,3,NB
2025-05-08 13:10:39.216,0.0001017872559935,22.712144363964647,3,NB
2025-05-08 13:10:39.224,0.0001030352478039,15.904123209640426,3,NB
2025-05-08 13:10:39.232,0.0001046409395019,9.370094164467398,3,NB
2025-05-08 13:10:39.239,0.0001066007090222,3.1997344909469816,3,NB
2025-05-08 13:10:39.247,0.0001089056675325,-2.530863900217016,3,NB
2025-05-08 13:10:39.255,0.0001115427326069,-7.760137965193235,3,NB
2025-05-08 13:10:39.263,0.0001144954512268,-12.441554863880231,3,NB
2025-05-08 13:10:39.271,0.0001177445025432,-16.543690538831196,3,NB
2025-05-08 13:10:39.279,0.0001212678491585,-20.049917696097367,3,NB
2025-05-08 13:10:39.286,0.0001250405433778,-22.957745719210504,3,NB
2025-05-08 13:10:39.294,0.0001290342297663,-25.27786280574122,3,NB
2025-05-08 13:10:39.302,0.0001332164159094,-27.032935648982384,3,NB
2025-05-08 13:10:39.310,0.000137549608147,-28.256224311032742,3,NB
2025-05-08 13:10:39.318,0.0001419904270773,-28.990069681180604,3,NB
2025-05-08 13:10:39.325,0.0001464888279071,-29.284308322701783,3,NB
2025-05-08 13:10:39.333,0.0001509875526166,-29.194664908290825,3,NB
2025-05-08 13:10:39.341,0.0001554219340632,-28.78116622345552,3,NB
2025-05-08 13:10:39.349,0.0001597201565531,-28.106613314982766,3,NB
2025-05-08 13:10:39.357,0.0001638040533419,-27.23514023393044,3,NB
2025-05-08 13:10:39.364,0.0001675904896161,-26.230879428668636,3,NB
2025-05-08 13:10:39.372,0.0001709933406965,-25.15674563366813,3,NB
2025-05-08 13:10:39.380,0.0001739260307433,-24.07334249948804,3,NB
2025-05-08 13:10:39.388,0.00017630454868,-23.037989596707707,3,NB
2025-05-08 13:10:39.396,0.0001780508071784,-22.103862109687427,3,NB
2025-05-08 13:10:39.404,0.0001790961593883,-21.31923174003528,3,NB
2025-05-08 13:10:39.411,0.0001793848404605,-20.72679520077936,3,NB
2025-05-08 13:10:39.419,0.0001788770687818,-20.36307624502233,3,NB
2025-05-08 13:10:39.427,0.0001775515481704,-20.257888387959326,3,NB
2025-05-08 13:10:39.435,0.0001754071705563,-20.43384820828371,3,NB
2025-05-08 13:10:39.443,0.0001724638047594,-20.9059331329744,3,NB
2025-05-08 13:10:39.450,0.0001687621246489,-21.681082629418352,3,NB
2025-05-08 13:10:39.458,0.0001643624647081,-22.75784740636901,3,NB
2025-05-08 13:10:39.466,0.0001593427268058,-24.12609717212354,3,NB
2025-05-08 13:10:39.474,0.0001537954327139,-25.766803297381895,3,NB
2025-05-08 13:10:39.482,0.0001478241079436,-27.651917953545272,3,NB
2025-05-08 13:10:39.489,0.0001415392473383,-29.74437552386801,3,NB
2025-05-08 13:10:39.497,0.0001350541270887,-31.99824491849525,3,NB
2025-05-08 13:10:39.505,0.0001284807045308,-34.359062512814965,3,NB
2025-05-08 13:10:39.513,0.0001219258087207,-36.76437448789808,3,NB
2025-05-08 13:10:39.521,0.0001154877828364,-39.14451419107493,3,NB
2025-05-08 13:10:39.529,0.0001092536972124,-41.42363467281938,3,NB
2025-05-08 13:10:39.536,0.0001032972107257,-43.52100882916322,3,NB
2025-05-08 13:10:39.544,9.76771196019134e-05,-45.35259974316152,3,NB
2025-05-08 13:10:39.552,9.243659752057884e-05,-46.83289215503217,3,NB
2025-05-08 13:10:39.560,8.760309998611321e-05,-47.87696290528809,3,NB
2025-05-08 13:10:39.568,8.318887985174774e-05,-48.40275421649667,3,NB
2025-05-08 13:10:39.575,7.919203999729969e-05,-48.33349944442057,3,NB
2025-05-08 13:10:39.583,7.559803358898242e-05,-47.6002371674412,3,NB
2025-05-08 13:10:39.591,7.238151203975303e-05,-46.14433699337189,3,NB
2025-05-08 13:10:39.599,6.95084155141342e-05,-43.91995008285181,3,NB
2025-05-08 13:10:39.607,6.693820021693841e-05,-40.89628995106745,3,NB
2025-05-08 13:10:39.614,6.462610029263265e-05,-37.05964538617904,3,NB
2025-05-08 13:10:39.622,6.252532937890302e-05,-32.41502796337298,3,NB
2025-05-08 13:10:39.630,6.058913708542679e-05,-26.9873621055024,3,NB
2025-05-08 13:10:39.638,5.8772648257365335e-05,-20.822136171819853,3,NB
2025-05-08 13:10:39.646,5.703442717594678e-05,-13.985448580410246,3,NB
2025-05-08 13:10:39.654,5.533772420253507e-05,-6.563403096658542,3,NB
2025-05-08 13:10:39.661,5.365137817561628e-05,1.339168573867337,3,NB
2025-05-08 13:10:39.669,5.1950363555156136e-05,9.600651894913964,3,NB
2025-05-08 13:10:39.677,5.021598636472763e-05,18.085228899328804,3,NB
2025-05-08 13:10:39.685,4.843574696118065e-05,26.64602994746509,3,NB
2025-05-08 13:10:39.693,4.660290018521266e-05,35.128768840226776,3,NB
2025-05-08 13:10:39.700,4.471575420521904e-05,43.37574818417508,3,NB
2025-05-08 13:10:39.708,4.277675812290607e-05,51.23010218014819,3,NB
2025-05-08 13:10:39.716,4.079143499273352e-05,58.540129830897165,3,NB
2025-05-08 13:10:39.724,3.876722121450927e-05,65.16356381741268,3,NB
2025-05-08 13:10:39.732,3.671227524760137e-05,70.97161950581831,3,NB
2025-05-08 13:10:39.739,3.4634318282286866e-05,75.85267485999566,3,NB
2025-05-08 13:10:39.747,3.25395669582104e-05,79.71544519885491,3,NB
2025-05-08 13:10:39.755,3.0431813560490545e-05,82.49153612429585,3,NB
2025-05-08 13:10:39.763,2.8311702514658605e-05,84.13728259534548,3,NB
2025-05-08 13:10:39.771,2.6176243647921928e-05,84.63481080193104,3,NB
2025-05-08 13:10:39.779,2.4018592830072148e-05,83.99229076458319,3,NB
2025-05-08 13:10:39.786,2.1828119531718093e-05,82.24337990089151,3,NB
2025-05-08 13:10:39.794,1.959076885147013e-05,79.44588956907887,3,NB
2025-05-08 13:10:39.802,1.7289713007054928e-05,75.67973629306394,3,NB
2025-05-08 13:10:39.810,1.490627452292304e-05,71.04426560732098,3,NB
2025-05-08 13:10:39.818,1.242109076408564e-05,65.65505807880697,3,NB
2025-05-08 13:10:39.825,9.81547746309444e-06,59.64034320934564,3,NB
2025-05-08 13:10:39.833,7.072937873026666e-06,53.13715707631834,3,NB
2025-05-08 13:10:39.841,4.180754563053382e-06,46.28738356360597,3,NB
2025-05-08 13:10:39.849,1.1315930542594046e-06,39.23381703175639,3,NB
2025-05-08 13:10:39.857,-2.074959149096383e-06,32.116376732193565,3,NB
2025-05-08 13:10:39.864,-5.4309976978020095e-06,25.06859088045912,3,NB
2025-05-08 13:10:39.872,-8.919130569013672e-06,18.21445194174082,3,NB
2025-05-08 13:10:39.880,-1.25116083740627e-05,11.665725335122495,3,NB
2025-05-08 13:10:39.888,-1.6169826926003174e-05,5.519772467811907,3,NB
2025-05-08 13:10:39.896,-1.984426392054872e-05,-0.1420732023847367,3,NB
2025-05-08 13:10:39.904,-2.3474899060738007e-05,-5.255560531173512,3,NB
2025-05-08 13:10:39.911,-2.6992151332116084e-05,-9.774010139472615,3,NB
2025-05-08 13:10:39.919,-3.031834869245644e-05,-13.668263106064824,3,NB
2025-05-08 13:10:39.927,-3.336972459329674e-05,-16.92613020653168,3,NB
2025-05-08 13:10:39.935,-3.605891305174197e-05,-19.551397339186806,3,NB
2025-05-08 13:10:39.943,-3.829789012640117e-05,-21.56245397306911,3,NB
2025-05-08 13:10:39.950,-4.0001285433811554e-05,-22.99061932836869,3,NB
2025-05-08 13:10:39.958,-4.108996369682028e-05,-23.87824551459165,3,NB
2025-05-08 13:10:39.966,-4.149475426224387e-05,-24.27667808819625,3,NB
2025-05-08 13:10:39.974,-4.116018714579825e-05,-24.2441526384767,3,NB
2025-05-08 13:10:39.982,-4.004807857505717e-05,-23.84370134907738,3,NB
2025-05-08 13:10:39.989,-3.8140798317933776e-05,-23.1411363736044,3,NB
2025-05-08 13:10:39.997,-3.544404636781069e-05,-22.203167738106945,3,NB
2025-05-08 13:10:40.005,-3.1988968773454374e-05,-21.09570282695963,3,NB
2025-05-08 13:10:40.013,-2.783345237229384e-05,-19.88236284113836,3,NB
2025-05-08 13:10:40.021,-2.3062456532316627e-05,-18.62323946343642,3,NB
2025-05-08 13:10:40.029,-1.7787267106529085e-05,-17.373902829168813,3,NB
2025-05-08 13:10:40.036,-1.2143593736921474e-05,-16.184660256344134,3,NB
2025-05-08 13:10:40.044,-6.288476159914153e-06,-15.10005447054856,3,NB
2025-05-08 13:10:40.052,-3.960176423371969e-07,-14.15858065452217,3,NB
2025-05-08 13:10:40.060,5.347976894742412e-06,-13.39259388887063,3,NB
2025-05-08 13:10:40.068,1.0752315540152885e-05,-12.828372685390574,3,NB
2025-05-08 13:10:40.075,1.562747562601199e-05,-12.48630052598828,3,NB
2025-05-08 13:10:40.083,1.979312007999185e-05,-12.381125703562493,3,NB
2025-05-08 13:10:40.091,2.308572321130498e-05,-12.522260328937207,3,NB
2025-05-08 13:10:40.099,2.536589145714931e-05,-12.914082051015018,3,NB
2025-05-08 13:10:40.107,2.65249190038048e-05,-13.556206686231237,3,NB
2025-05-08 13:10:40.114,2.6490114537787687e-05,-14.443706336136708,3,NB
2025-05-08 13:10:40.122,2.5228489686607425e-05,-15.567255373482316,3,NB
2025-05-08 13:10:40.130,2.274850005391824e-05,-16.91319550657411,3,NB
2025-05-08 13:10:40.138,1.909965945992682e-05,-18.4635205394706,3,NB
2025-05-08 13:10:40.146,1.4370015455988124e-05,-20.195790947971137,3,NB
2025-05-08 13:10:40.154,8.681678276334902e-06,-22.082997494431407,3,NB
2025-05-08 13:10:40.161,2.1847831512074843e-06,-24.09340132442914,3,NB
2025-05-08 13:10:40.169,-4.94962651285563e-06,-26.190384867934416,3,NB
2025-05-08 13:10:40.177,-1.2537290727882058e-05,-28.332352992443123,3,NB
2025-05-08 13:10:40.185,-2.0388533861590936e-05,-30.472726870128007,3,NB
2025-05-08 13:10:40.193,-2.8315770673586423e-05,-32.560073643087385,3,NB
2025-05-08 13:10:40.200,-3.614038218562274e-05,-34.538413002423184,3,NB
2025-05-08 13:10:40.208,-4.369869825180485e-05,-36.34773713752149,3,NB
2025-05-08 13:10:40.216,-5.0846896204361286e-05,-37.924773173769466,3,NB
2025-05-08 13:10:40.224,-5.746469536639304e-05,-39.20400733956136,3,NB
2025-05-08 13:10:40.232,-6.345779341931069e-05,-40.11897795957557,3,NB
2025-05-08 13:10:40.239,-6.875905084128743e-05,-40.60383036404821,3,NB
2025-05-08 13:10:40.247,-7.332848253668685e-05,-40.59511146196052,3,NB
2025-05-08 13:10:40.255,-7.715216038771079e-05,-40.0337657000296,3,NB
2025-05-08 13:10:40.263,-8.024016618706577e-05,-38.86727818015674,3,NB
2025-05-08 13:10:40.271,-8.262376101397239e-05,-37.05189568307927,3,NB
2025-05-08 13:10:40.279,-8.435195467259382e-05,-34.554843143178566,3,NB
2025-05-08 13:10:40.286,-8.548766767681782e-05,-31.35644264444336,3,NB
2025-05-08 13:10:40.294,-8.610367902677674e-05,-27.45203512860799,3,NB
2025-05-08 13:10:40.302,-8.627854645665829e-05,-22.853602502796097,3,NB
2025-05-08 13:10:40.310,-8.609267285804717e-05,-17.590990336756178,3,NB
2025-05-08 13:10:40.318,-8.562467421345592e-05,-11.712639267039965,3,NB
2025-05-08 13:10:40.325,-8.49481816823097e-05,-5.285746719542772,3,NB
2025-05-08 13:10:40.333,-8.412918455714563e-05,1.604200561562157,3,NB
2025-05-08 13:10:40.341,-8.322399272901634e-05,8.854558973618163,3,NB
2025-05-08 13:10:40.349,-8.22778681062479e-05,16.34733365053285,3,NB
2025-05-08 13:10:40.357,-8.132434509696089e-05,23.951635013534457,3,NB
2025-05-08 13:10:40.365,-8.038523169310175e-05,31.52673263957036,3,NB
2025-05-08 13:10:40.372,-7.94712556935948e-05,38.92562196468601,3,NB
2025-05-08 13:10:40.380,-7.858329589238988e-05,45.99899094290685,3,NB
2025-05-08 13:10:40.388,-7.77141162500881e-05,52.59944962590775,3,NB
2025-05-08 13:10:40.396,-7.685050268159523e-05,58.585867335400856,3,NB
2025-05-08 13:10:40.404,-7.59756875435043e-05,63.8276509863554,3,NB
2025-05-08 13:10:40.411,-7.50719365126419e-05,68.20879509035004,3,NB
2025-05-08 13:10:40.419,-7.412316653499406e-05,71.63153944107617,3,NB
2025-05-08 13:10:40.427,-7.311746202209567e-05,74.01948434580947,3,NB
2025-05-08 13:10:40.435,-7.204935951764276e-05,75.32003487240122,3,NB
2025-05-08 13:10:40.443,-7.092177859620377e-05,75.50607378824827,3,NB
2025-05-08 13:10:40.450,-6.97474886412471e-05,74.5767961116364,3,NB
2025-05-08 13:10:40.458,-6.855001713954407e-05,72.5576746037751,3,NB
2025-05-08 13:10:40.466,-6.736392488494107e-05,69.49956305615265,3,NB
2025-05-08 13:10:40.474,-6.623439656923248e-05,65.47698080120558,3,NB
2025-05-08 13:10:40.482,-6.521612111365263e-05,60.58565554304119,3,NB
2025-05-08 13:10:40.490,-6.43714641229594e-05,54.93943066888028,3,NB
2025-05-08 13:10:40.497,-6.376796428823184e-05,48.66666631854599,3,NB
2025-05-08 13:10:40.505,-6.347521559389209e-05,41.90627974522136,3,NB
2025-05-08 13:10:40.513,-6.356122688408331e-05,34.803579440896165,3,NB
2025-05-08 13:10:40.521,-6.408837872731129e-05,27.506049115776086,3,NB
2025-05-08 13:10:40.529,-6.510912354756477e-05,20.15923230493745,3,NB
2025-05-08 13:10:40.536,-6.666159759770254e-05,12.902856856023613,3,NB
2025-05-08 13:10:40.544,-6.87653314701606e-05,5.867321816693688,3,NB
2025-05-08 13:10:40.552,-7.141725843964072e-05,-0.8293515457507632,3,NB
2025-05-08 13:10:40.560,-7.458822605541664e-05,-7.084026443045718,3,NB
2025-05-08 13:10:40.568,-7.822021520751824e-05,-12.810361949948025,3,NB
2025-05-08 13:10:40.575,-8.222446170421444e-05,-17.940101486506922,3,NB
2025-05-08 13:10:40.583,-8.648065774965778e-05,-22.42373549142352,3,NB
2025-05-08 13:10:40.591,-9.083738438616672e-05,-26.230558341852607,3,NB
2025-05-08 13:10:40.599,-9.511389104764148e-05,-29.34816003982371,3,NB
2025-05-08 13:10:40.607,-9.910329527444644e-05,-31.781410557097107,3,NB
2025-05-08 13:10:40.615,-0.0001025772251433,-33.55100859892291,3,NB
2025-05-08 13:10:40.622,-0.000105291870228,-34.69167667752149,3,NB
2025-05-08 13:10:40.630,-0.0001069953454706,-35.25009070007951,3,NB
2025-05-08 13:10:40.638,-0.0001074362081441,-35.282634834968164,3,NB
2025-05-08 13:10:40.646,-0.0001063729033904,-34.85307140736343,3,NB
2025-05-08 13:10:40.654,-0.0001035838512373,-34.030211280511686,3,NB
2025-05-08 13:10:40.661,-9.88778303634043e-05,-32.88566297995069,3,NB
2025-05-08 13:10:40.669,-9.210426422773387e-05,-31.491729167310133,3,NB
2025-05-08 13:10:40.677,-8.316297660632629e-05,-29.91950747590889,3,NB
2025-05-08 13:10:40.685,-7.201295914850862e-05,-28.23723972526216,3,NB
2025-05-08 13:10:40.693,-5.867968620162429e-05,-26.50893969510529,3,NB
2025-05-08 13:10:40.700,-4.3260524460904605e-05,-24.79331552491125,3,NB
2025-05-08 13:10:40.708,-2.592781917058017e-05,-23.14298897139968,3,NB
2025-05-08 13:10:40.716,-6.929296233079521e-06,-21.60400074838463,3,NB
2025-05-08 13:10:40.724,1.3414498438307417e-05,-20.21557949987523,3,NB
2025-05-08 13:10:40.732,3.471589462211846e-05,-19.01014206674949,3,NB
2025-05-08 13:10:40.740,5.652897101075329e-05,-18.013484961536747,3,NB
2025-05-08 13:10:40.747,7.83614970767474e-05,-17.245121625152912,3,NB
2025-05-08 13:10:40.755,9.968966493527714e-05,-16.718717255903094,3,NB
2025-05-08 13:10:40.763,0.0001199751485483,-16.44257281519599,3,NB
2025-05-08 13:10:40.771,0.0001386838363143,-16.42011215368793,3,NB
2025-05-08 13:10:40.779,0.0001553054021644,-16.650330885644404,3,NB
2025-05-08 13:10:40.786,0.000169372747339,-17.1281723938128,3,NB
2025-05-08 13:10:40.794,0.0001804803015367,-17.844804821227907,3,NB
2025-05-08 13:10:40.802,0.0001883002229261,-18.78778268858348,3,NB
2025-05-08 13:10:40.810,0.0001925956462556,-19.941087407096543,3,NB
2025-05-08 13:10:40.818,0.0001932302732833,-21.285051943900644,3,NB
2025-05-08 13:10:40.825,0.0001901737914521,-22.79618572670055,3,NB
2025-05-08 13:10:40.833,0.0001835028538298,-24.446926027879684,3,NB
2025-05-08 13:10:40.841,0.0001733976351668,-26.20535103545878,3,NB
2025-05-08 13:10:40.849,0.0001601342590667,-28.03489711525487,3,NB
2025-05-08 13:10:40.857,0.0001440736317611,-29.894127958790445,3,NB
2025-05-08 13:10:40.865,0.0001256473887136,-31.736606028512757,3,NB
2025-05-08 13:10:40.872,0.0001053417513346,-33.51091667794619,3,NB
2025-05-08 13:10:40.880,8.368011297262709e-05,-35.16089236441411,3,NB
2025-05-08 13:10:40.888,6.120514992143233e-05,-36.626078426647176,3,NB
2025-05-08 13:10:40.896,3.8461210910165793e-05,-37.842473039954754,3,NB
2025-05-08 13:10:40.904,1.5977682595012743e-05,-38.743562400475845,3,NB
2025-05-08 13:10:40.911,-5.746060572263171e-06,-39.26165828401233,3,NB
2025-05-08 13:10:40.919,-2.625364540649025e-05,-39.32952936616928,3,NB
2025-05-08 13:10:40.927,-4.514230631873726e-05,-38.88230069227859,3,NB
2025-05-08 13:10:40.935,-6.207093973473924e-05,-37.85957816670323,3,NB
2025-05-08 13:10:40.943,-7.676557355729128e-05,-36.20773769999726,3,NB
2025-05-08 13:10:40.950,-8.902233387253809e-05,-33.8823025895027,3,NB
2025-05-08 13:10:40.958,-9.870808373862091e-05,-30.85031874409024,3,NB
2025-05-08 13:10:40.966,-0.0001057589783547,-27.09262644250118,3,NB
2025-05-08 13:10:40.974,-0.0001101772276725,-22.605920351614245,3,NB
2025-05-08 13:10:40.982,-0.0001120263829997,-17.404487348265103,3,NB
2025-05-08 13:10:40.990,-0.0001114254705722,-11.521514941453509,3,NB
2025-05-08 13:10:40.997,-0.0001085422852831,-5.009872188454846,3,NB
2025-05-08 13:10:41.005,-0.0001035861350588,2.0577199737749976,3,NB
2025-05-08 13:10:41.013,-9.68002943615595e-05,9.589191382476216,3,NB
2025-05-08 13:10:41.021,-8.845438766293488e-05,17.47433503110333,3,NB
2025-05-08 13:10:41.029,-7.883688411439442e-05,25.586736336354036,3,NB
2025-05-08 13:10:41.036,-6.824784644970826e-05,33.786394322801115,3,NB
2025-05-08 13:10:41.044,-5.699204344024872e-05,41.922976744536456,3,NB
2025-05-08 13:10:41.052,-4.53725085495292e-05,49.839619062016574,3,NB
2025-05-08 13:10:41.060,-3.368460977683271e-05,57.37714783583727,3,NB
2025-05-08 13:10:41.068,-2.2210688355983727e-05,64.37858423420771,3,NB
2025-05-08 13:10:41.075,-1.1215325965362982e-05,70.69376452646311,3,NB
2025-05-08 13:10:41.083,-9.413015994638684e-07,76.18390290009516,3,NB
2025-05-08 13:10:41.091,8.393721200295106e-06,80.72591855622129,3,NB
2025-05-08 13:10:41.099,1.65997911750912e-05,84.21635422085964,3,NB
2025-05-08 13:10:41.107,2.351663026029298e-05,86.57472688256004,3,NB
2025-05-08 13:10:41.115,2.901506915889329e-05,87.74617316144901,3,NB
2025-05-08 13:10:41.122,3.299805056759155e-05,87.70328018746126,3,NB
2025-05-08 13:10:41.130,3.5401263369669174e-05,86.44702675315811,3,NB
2025-05-08 13:10:41.138,3.619346597105603e-05,84.00679701398866,3,NB
2025-05-08 13:10:41.146,3.5376564940026815e-05,80.43946812935849,3,NB
2025-05-08 13:10:41.154,3.298549506764382e-05,75.8276118928445,3,NB
2025-05-08 13:10:41.161,2.908788814227917e-05,70.27688658178894,3,NB
2025-05-08 13:10:41.169,2.378345806389181e-05,63.91272715973091,3,NB
2025-05-08 13:10:41.177,1.7203009016200073e-05,56.87646809444132,3,NB
2025-05-08 13:10:41.185,9.506990324563662e-06,49.32105230381493,3,NB
2025-05-08 13:10:41.193,8.83554386821455e-07,41.40649144064585,3,NB
2025-05-08 13:10:41.200,-8.45388697097343e-06,33.29524665220797,3,NB
2025-05-08 13:10:41.208,-1.826957717208134e-05,25.14769530989565,3,NB
2025-05-08 13:10:41.216,-2.8308763231041692e-05,17.117838595842308,3,NB
2025-05-08 13:10:41.224,-3.830147255225354e-05,9.349388178575513,3,NB
2025-05-08 13:10:41.232,-4.796675763512364e-05,1.972348667768496,3,NB
2025-05-08 13:10:41.240,-5.701746062498612e-05,-4.899812583795113,3,NB
2025-05-08 13:10:41.247,-6.51655062953348e-05,-11.172344092390068,3,NB
2025-05-08 13:10:41.255,-7.21276555014277e-05,-16.77070120187206,3,NB
2025-05-08 13:10:41.263,-7.763159000588753e-05,-21.64134103863067,3,NB
2025-05-08 13:10:41.271,-8.142217935426926e-05,-25.751839216196167,3,NB
2025-05-08 13:10:41.279,-8.326778960477378e-05,-29.090369552486592,3,NB
2025-05-08 13:10:41.286,-8.296651164375982e-05,-31.66460821468277,3,NB
2025-05-08 13:10:41.294,-8.035220433270331e-05,-33.500139961259194,3,NB
2025-05-08 13:10:41.302,-7.530026241964938e-05,-34.63845618717972,3,NB
2025-05-08 13:10:41.310,-6.773302246138297e-05,-35.13464217923645,3,NB
2025-05-08 13:10:41.318,-5.762469269308404e-05,-35.054854415751,3,NB
2025-05-08 13:10:41.325,-4.5005625144483455e-05,-34.47368811071636,3,NB
2025-05-08 13:10:41.333,-2.996566817110593e-05,-33.47153084238613,3,NB
2025-05-08 13:10:41.341,-1.2656296202876471e-05,-32.13199045584679,3,NB
2025-05-08 13:10:41.349,6.708763597855241e-06,-30.53947500318806,3,NB
2025-05-08 13:10:41.357,2.78546217527544e-05,-28.776989857511648,3,NB
2025-05-08 13:10:41.365,5.0448180167050274e-05,-26.924202922376544,3,NB
2025-05-08 13:10:41.372,7.410304863607267e-05,-25.05581369394113,3,NB
2025-05-08 13:10:41.380,9.8386475997316e-05,-23.240246461869003,3,NB
2025-05-08 13:10:41.388,0.0001228282544535,-21.53867278299701,3,NB
2025-05-08 13:10:41.396,0.0001469314066174,-20.004354114578742,3,NB
2025-05-08 13:10:41.404,0.0001701843096347,-18.682282678330377,3,NB
2025-05-08 13:10:41.411,0.0001920738206289,-17.60908769894939,3,NB
2025-05-08 13:10:41.419,0.000212098976223,-16.813165500855376,3,NB
2025-05-08 13:10:41.427,0.0002297849128915,-16.314985848803268,3,NB
2025-05-08 13:10:41.435,0.000244696715433,-16.127523576709557,3,NB
2025-05-08 13:10:41.443,0.0002564528799007,-16.256764046127174,3,NB
2025-05-08 13:10:41.450,0.0002647379757587,-16.70223327276516,3,NB
2025-05-08 13:10:41.458,0.0002693139827808,-17.457508499074848,3,NB
2025-05-08 13:10:41.466,0.0002700297367936,-18.51067230118801,3,NB
2025-05-08 13:10:41.474,0.0002668279596632,-19.84468261602364,3,NB
2025-05-08 13:10:41.482,0.000259749441256,-21.43764187288359,3,NB
2025-05-08 13:10:41.490,0.000248934054465,-23.26296014238588,3,NB
2025-05-08 13:10:41.497,0.0002346184078528,-25.289419244798157,3,NB
2025-05-08 13:10:41.505,0.000217130072672,-27.48115643219021,3,NB
2025-05-08 13:10:41.513,0.0001968784619926,-29.797596921335494,3,NB
2025-05-08 13:10:41.521,0.0001743425889944,-32.193373591690104,3,NB
2025-05-08 13:10:41.529,0.0001500560881661,-34.61827902590277,3,NB
2025-05-08 13:10:41.536,0.0001245900455121,-37.01729929719589,3,NB
2025-05-08 13:10:41.544,9.853434776916138e-05,-39.330780141979886,3,NB
2025-05-08 13:10:41.552,7.247841140938114e-05,-41.4947741660408,3,NB
2025-05-08 13:10:41.560,4.699225369765421e-05,-43.44161243248945,3,NB
2025-05-08 13:10:41.568,2.260887210521743e-05,-45.10073524022589,3,NB
2025-05-08 13:10:41.575,-1.912176398589799e-07,-46.39980535207951,3,NB
2025-05-08 13:10:41.583,-2.099264399935441e-05,-47.26611275414263,3,NB
2025-05-08 13:10:41.591,-3.945465234786324e-05,-47.628263749319366,3,NB
2025-05-08 13:10:41.599,-5.531724801676864e-05,-47.41812947230213,3,NB
2025-05-08 13:10:41.607,-6.840409164048988e-05,-46.57301055009829,3,NB
2025-05-08 13:10:41.615,-7.86223943941923e-05,-45.03795652376191,3,NB
2025-05-08 13:10:41.622,-8.59601542456151e-05,-42.768161782530136,3,NB
2025-05-08 13:10:41.630,-9.04811187754291e-05,-39.73134518256476,3,NB
2025-05-08 13:10:41.638,-9.231790308775444e-05,-35.91000927660023,3,NB
2025-05-08 13:10:41.646,-9.16637559932457e-05,-31.30346816237553,3,NB
2025-05-08 13:10:41.654,-8.876353052760583e-05,-25.929531230829472,3,NB
2025-05-08 13:10:41.661,-8.390442458219647e-05,-19.8257342048805,3,NB
2025-05-08 13:10:41.669,-7.74069707750651e-05,-13.05001914913707,3,NB
2025-05-08 13:10:41.677,-6.961657573840859e-05,-5.680781577340246,3,NB
2025-05-08 13:10:41.685,-6.0895693778253047e-05,2.183775036536947,3,NB
2025-05-08 13:10:41.693,-5.16165335805755e-05,10.427009955407346,3,NB
2025-05-08 13:10:41.700,-4.215408027546515e-05,18.91594291436765,3,NB
2025-05-08 13:10:41.708,-3.287918555016449e-05,27.504047753093037,3,NB
2025-05-08 13:10:41.716,-2.4151529294600804e-05,36.03467736659287,3,NB
2025-05-08 13:10:41.724,-1.631236150510683e-05,44.345023314174895,3,NB
2025-05-08 13:10:41.732,-9.6770661493547e-06,52.27048451010497,3,NB
2025-05-08 13:10:41.740,-4.527732705294116e-06,59.6492953545007,3,NB
2025-05-08 13:10:41.747,-1.1060570323478428e-06,66.32724591352768,3,NB
2025-05-08 13:10:41.755,3.93017560530526e-07,72.16231647688873,3,NB
2025-05-08 13:10:41.763,-1.7348564787573128e-07,77.02904677531065,3,NB
2025-05-08 13:10:41.771,-2.8927980211562488e-06,80.82246665698369,3,NB
2025-05-08 13:10:41.779,-7.794187694190023e-06,83.46142995059152,3,NB
2025-05-08 13:10:41.786,-1.4848306625570316e-05,84.89121595414488,3,NB
2025-05-08 13:10:41.794,-2.396807585782612e-05,85.08529239791216,3,NB
2025-05-08 13:10:41.802,-3.501110675605703e-05,84.04616835176259,3,NB
2025-05-08 13:10:41.810,-4.7783663704402736e-05,81.80530358759546,3,NB
2025-05-08 13:10:41.818,-6.204612099207294e-05,78.42208037629317,3,NB
2025-05-08 13:10:41.825,-7.751975286970599e-05,73.98188253803139,3,NB
2025-05-08 13:10:41.833,-9.389455394009538e-05,68.59336277825649,3,NB
2025-05-08 13:10:41.841,-0.0001108376758721,62.385011118950914,3,NB
2025-05-08 13:10:41.849,-0.0001280020356302,55.50116306745574,3,NB
2025-05-08 13:10:41.857,-0.0001450346998548,48.09760494070235,3,NB
2025-05-08 13:10:41.865,-0.0001615847411356,40.33694482368109,3,NB
2025-05-08 13:10:41.872,-0.000177310359818,32.38392079984551,3,NB
2025-05-08 13:10:41.880,-0.000191885154544,24.400813605743743,3,NB
2025-05-08 13:10:41.888,-0.0002050035013045,16.543119380985363,3,NB
2025-05-08 13:10:41.896,-0.000216385062263,8.955620672096803,3,NB
2025-05-08 13:10:41.904,-0.0002257784908113,1.7689715004250577,3,NB
2025-05-08 13:10:41.911,-0.0002329644279588,-4.903113538387725,3,NB
2025-05-08 13:10:41.919,-0.0002377578978434,-10.96600410600328,3,NB
2025-05-08 13:10:41.927,-0.0002400102083276,-16.345599470449574,3,NB
2025-05-08 13:10:41.935,-0.0002396104484539,-20.98906897021532,3,NB
2025-05-08 13:10:41.943,-0.000236486650769,-24.86490843654479,3,NB
2025-05-08 13:10:41.950,-0.0002306066564499,-27.962356940904915,3,NB
2025-05-08 13:10:41.958,-0.0002219786883812,-30.29023829367608,3,NB
2025-05-08 13:10:41.966,-0.00021065160563,-31.875307782937565,3,NB
2025-05-08 13:10:41.974,-0.0001967147859461,-32.76019638304788,3,NB
2025-05-08 13:10:41.982,-0.0001802975646282,-33.00105195697934,3,NB
2025-05-08 13:10:41.990,-0.0001615681516784,-32.66497988998439,3,NB
2025-05-08 13:10:41.997,-0.0001407319574723,-31.82738436012979,3,NB
2025-05-08 13:10:42.005,-0.0001180292824365,-30.56930644955691,3,NB
2025-05-08 13:10:42.013,-9.3732368310363e-05,-28.97484701800612,3,NB
2025-05-08 13:10:42.021,-6.814185677241225e-05,-27.12875127241066,3,NB
2025-05-08 13:10:42.029,-4.158272493101352e-05,-25.11421890655795,3,NB
2025-05-08 13:10:42.036,-1.4399733283912168e-05,-23.01098921386537,3,NB
2025-05-08 13:10:42.044,1.3047656944903744e-05,-20.8937353530371,3,NB
2025-05-08 13:10:42.052,4.0390990854687495e-05,-18.8307866023773,3,NB
2025-05-08 13:10:42.060,6.725919789022438e-05,-16.88318255927711,3,NB
2025-05-08 13:10:42.068,9.328554501084249e-05,-15.10404935376866,3,NB
2025-05-08 13:10:42.075,0.0001181149032681,-13.538275511292309,3,NB
2025-05-08 13:10:42.083,0.0001414109594557,-12.222454514656214,3,NB
2025-05-08 13:10:42.091,0.0001628629958625,-11.185052702276607,3,NB
2025-05-08 13:10:42.099,0.0001821919304975,-10.446755146658091,3,NB
2025-05-08 13:10:42.107,0.0001991554104842,-10.02093874826272,3,NB
2025-05-08 13:10:42.115,0.0002135518479066,-9.91422102872581,3,NB
2025-05-08 13:10:42.122,0.0002252233671671,-10.12703498767931,3,NB
2025-05-08 13:10:42.130,0.0002340576935656,-10.654184769795917,3,NB
2025-05-08 13:10:42.138,0.0002399890546315,-11.485343542555352,3,NB
2025-05-08 13:10:42.146,0.0002429981899492,-12.605463584181132,3,NB
2025-05-08 13:10:42.154,0.0002431115738358,-13.995078708350269,3,NB
2025-05-08 13:10:42.161,0.0002403999509234,-15.6304903110636,3,NB
2025-05-08 13:10:42.169,0.0002349762706772,-17.483839959658713,3,NB
2025-05-08 13:10:42.177,0.0002269930866642,-19.52308296651593,3,NB
2025-05-08 13:10:42.185,0.0002166394637048,-21.71188820864136,3,NB
2025-05-08 13:10:42.193,0.0002041374145967,-24.009498998219016,3,NB
2025-05-08 13:10:42.200,0.0001897378714379,-26.37059754939484,3,NB
2025-05-08 13:10:42.208,0.0001737161879186,-28.745221052892315,3,NB
2025-05-08 13:10:42.216,0.0001563671710054,-31.07878016876608,3,NB
2025-05-08 13:10:42.224,0.000137999655345,-33.31223058007302,3,NB
2025-05-08 13:10:42.232,0.0001189306628327,-35.38244493155652,3,NB
2025-05-08 13:10:42.240,9.94792337086447e-05,-37.22282595426944,3,NB
2025-05-08 13:10:42.247,7.996007233729574e-05,-38.76419194485473,3,NB
2025-05-08 13:10:42.255,6.067720960335642e-05,-39.93595328237515,3,NB
2025-05-08 13:10:42.263,4.1917920298322526e-05,-40.66758374102178,3,NB
2025-05-08 13:10:42.271,2.3947124152497663e-05,-40.890373557716224,3,NB
2025-05-08 13:10:42.279,7.002445279625575e-06,-40.53943323829995,3,NB
2025-05-08 13:10:42.286,-8.709960631447563e-06,-39.55589875135625,3,NB
2025-05-08 13:10:42.294,-2.301874141744085e-05,-37.88927097690947,3,NB
2025-05-08 13:10:42.302,-3.578977893226379e-05,-35.49980602633439,3,NB
2025-05-08 13:10:42.310,-4.692763710872158e-05,-32.36085933953589,3,NB
2025-05-08 13:10:42.318,-5.6375949618912064e-05,-28.461076299800435,3,NB
2025-05-08 13:10:42.325,-6.41166831704376e-05,-23.806316435775557,3,NB
2025-05-08 13:10:42.333,-7.016823875878138e-05,-18.421197931543137,3,NB
2025-05-08 13:10:42.341,-7.458240738119286e-05,-12.35015475966257,3,NB
2025-05-08 13:10:42.349,-7.744029826261359e-05,-5.657910616479712,3,NB
2025-05-08 13:10:42.357,-7.884749486154112e-05,1.57070805556288,3,NB
2025-05-08 13:10:42.365,-7.892881785372614e-05,9.231673756228606,3,NB
2025-05-08 13:10:42.372,-7.78231363115695e-05,17.203399237945487,3,NB
2025-05-08 13:10:42.380,-7.567865772750587e-05,25.349110739205425,3,NB
2025-05-08 13:10:42.388,-7.264906550209628e-05,33.51991070019874,3,NB
2025-05-08 13:10:42.396,-6.889077535950266e-05,41.55845250821047,3,NB
2025-05-08 13:10:42.404,-6.456144125477264e-05,49.30311655320009,3,NB
2025-05-08 13:10:42.411,-5.981964305336251e-05,56.592547389811706,3,NB
2025-05-08 13:10:42.419,-5.482545192429314e-05,63.27038802141089,3,NB
2025-05-08 13:10:42.427,-4.974135964688775e-05,69.19003090492473,3,NB
2025-05-08 13:10:42.435,-4.473295152846943e-05,74.21919748815075,3,NB
2025-05-08 13:10:42.443,-3.9968736287579206e-05,78.24415969437364,3,NB
2025-05-08 13:10:42.450,-3.5618697977221766e-05,81.1734279449434,3,NB
2025-05-08 13:10:42.458,-3.185135218442731e-05,82.94075063458877,3,NB
2025-05-08 13:10:42.466,-2.8829321100831296e-05,83.50729843127772,3,NB
2025-05-08 13:10:42.474,-2.6703646881499703e-05,82.86294181639094,3,NB
2025-05-08 13:10:42.482,-2.5607207976009225e-05,81.02656994141702,3,NB
2025-05-08 13:10:42.490,-2.5647684932138628e-05,78.04544090446839,3,NB
2025-05-08 13:10:42.497,-2.6900568088157255e-05,73.9935955808011,3,NB
2025-05-08 13:10:42.505,-2.940274142417665e-05,68.9694068685263,3,NB
2025-05-08 13:10:42.513,-3.314721209176311e-05,63.09237153820846,3,NB
2025-05-08 13:10:42.521,-3.807953882802437e-05,56.499281056339015,3,NB
2025-05-08 13:10:42.529,-4.4096407787759614e-05,49.33992949450897,3,NB
2025-05-08 13:10:42.536,-5.104663455757266e-05,41.77253015785674,3,NB
2025-05-08 13:10:42.544,-5.873468948583468e-05,33.959017610833115,3,NB
2025-05-08 13:10:42.552,-6.692666455637905e-05,26.060408583416784,3,NB
2025-05-08 13:10:42.560,-7.535840585083107e-05,18.23238448326241,3,NB
2025-05-08 13:10:42.568,-8.374534147777427e-05,10.621240955693686,3,NB
2025-05-08 13:10:42.575,-9.179339532687937e-05,3.3603274256889653,3,NB
2025-05-08 13:10:42.583,-9.92103190505144e-05,-3.432926712641627,3,NB
2025-05-08 13:10:42.591,-0.0001057167737664,-9.65933109896771,3,NB
2025-05-08 13:10:42.599,-0.0001110565278275,-15.239559689651504,3,NB
2025-05-08 13:10:42.607,-0.0001150052196791,-20.1150720122958,3,NB
2025-05-08 13:10:42.615,-0.0001173772744765,-24.248346832286952,3,NB
2025-05-08 13:10:42.622,-0.0001180307395631,-27.622468577070563,3,NB
2025-05-08 13:10:42.630,-0.0001168699812822,-30.24012718659128,3,NB
2025-05-08 13:10:42.638,-0.0001138463283729,-32.12210830958166,3,NB
2025-05-08 13:10:42.646,-0.0001089568376681,-33.30536269378483,3,NB
2025-05-08 13:10:42.654,-0.0001022414161906,-33.84075118772381,3,NB
2025-05-08 13:10:42.661,-9.377859613155888e-05,-33.790565131718054,3,NB
2025-05-08 13:10:42.669,-8.368032729532531e-05,-33.22592136369557,3,NB
2025-05-08 13:10:42.677,-7.208619745270156e-05,-32.22412700496703,3,NB
2025-05-08 13:10:42.685,-5.915750520268786e-05,-30.8661020966455,3,NB
2025-05-08 13:10:42.693,-4.507159691063937e-05,-29.233938545301893,3,NB
2025-05-08 13:10:42.701,-3.001681830563397e-05,-27.40866224508351,3,NB
2025-05-08 13:10:42.708,-1.4188299934767104e-05,-25.468252216257625,3,NB
2025-05-08 13:10:42.716,2.2153757008580587e-06,-23.485956671185093,3,NB
2025-05-08 13:10:42.724,1.899472137230886e-05,-21.52893160253396,3,NB
2025-05-08 13:10:42.732,3.595127404793374e-05,-19.65721327433273,3,NB
2025-05-08 13:10:42.740,5.28890685306814e-05,-17.92302234707931,3,NB
2025-05-08 13:10:42.747,6.961576982837542e-05,-16.370384718138205,3,NB
2025-05-08 13:10:42.755,8.594354180709695e-05,-15.035042907255669,3,NB
2025-05-08 13:10:42.763,0.0001016897527619,-13.944622316533923,3,NB
2025-05-08 13:10:42.771,0.0001166776890518,-13.119009237217432,3,NB
2025-05-08 13:10:42.779,0.0001307374966998,-12.570892281102305,3,NB
2025-05-08 13:10:42.786,0.0001437075312263,-12.306416113547469,3,NB
2025-05-08 13:10:42.794,0.0001554361683048,-12.32589599194891,3,NB
2025-05-08 13:10:42.802,0.0001657839842815,-12.624543604555186,3,NB
2025-05-08 13:10:42.810,0.0001746261307568,-13.193158906784529,3,NB
2025-05-08 13:10:42.818,0.000181854715185,-14.018748835499885,3,NB
2025-05-08 13:10:42.826,0.0001873810271501,-15.08504165045383,3,NB
2025-05-08 13:10:42.833,0.0001911374868424,-16.372874858032688,3,NB
2025-05-08 13:10:42.841,0.0001930792268684,-17.860444826709596,3,NB
2025-05-08 13:10:42.849,0.0001931852494446,-19.523416885028727,3,NB
2025-05-08 13:10:42.857,0.0001914591287661,-21.334905451189197,3,NB
2025-05-08 13:10:42.865,0.0001879292535936,-23.26534410431573,3,NB
2025-05-08 13:10:42.872,0.0001826486287651,-25.2822749879218,3,NB
2025-05-08 13:10:42.880,0.0001756942773392,-27.350095066204908,3,NB
2025-05-08 13:10:42.888,0.0001671663067707,-29.42980310170866,3,NB
2025-05-08 13:10:42.896,0.0001571867141037,-31.47879541336587,3,NB
2025-05-08 13:10:42.904,0.000145897986797,-33.45076020282056,3,NB
2025-05-08 13:10:42.911,0.0001334614968394,-35.295719283051966,3,NB
2025-05-08 13:10:42.919,0.0001200556128972,-36.96026227935244,3,NB
2025-05-08 13:10:42.927,0.0001058734182076,-38.38801177506245,3,NB
2025-05-08 13:10:42.935,9.111994634733689e-05,-39.52034853393729,3,NB
2025-05-08 13:10:42.943,7.600891851451133e-05,-40.29741406515523,3,NB
2025-05-08 13:10:42.951,6.075905033088296e-05,-40.65939376200109,3,NB
2025-05-08 13:10:42.958,4.559005036851976e-05,-40.54806814091989,3,NB
2025-05-08 13:10:42.966,3.071841947864211e-05,-39.90860296737654,3,NB
2025-05-08 13:10:42.974,1.6353090351202053e-05,-38.69153202244889,3,NB
2025-05-08 13:10:42.982,2.6908918951884825e-06,-36.854869767671495,3,NB
2025-05-08 13:10:42.990,-1.0088148100920397e-05,-34.366276097488885,3,NB
2025-05-08 13:10:42.997,-2.18255388937612e-05,-31.20518265996873,3,NB
2025-05-08 13:10:43.005,-3.238885902635026e-05,-27.364780808058075,3,NB
2025-05-08 13:10:43.013,-4.1675794122771925e-05,-22.85376599335705,3,NB
2025-05-08 13:10:43.021,-4.96174387910738e-05,-17.69773309640601,3,NB
2025-05-08 13:10:43.029,-5.618072361205043e-05,-11.940122386052108,3,NB
2025-05-08 13:10:43.036,-6.136991113091484e-05,-5.642626847007173,3,NB
2025-05-08 13:10:43.044,-6.52271258458209e-05,1.115011483216624,3,NB
2025-05-08 13:10:43.052,-6.783184323884008e-05,8.235866139876286,3,NB
2025-05-08 13:10:43.060,-6.929919614840221e-05,15.60737469128132,3,NB
2025-05-08 13:10:43.068,-6.977692296847383e-05,23.103563253470597,3,NB
2025-05-08 13:10:43.076,-6.944083161575533e-05,30.58790657323132,3,NB
2025-05-08 13:10:43.083,-6.848878421052924e-05,37.91675019516936,3,NB
2025-05-08 13:10:43.091,-6.71333710749891e-05,44.94318985353178,3,NB
2025-05-08 13:10:43.099,-6.559358213689282e-05,51.52127542340686,3,NB
2025-05-08 13:10:43.107,-6.408587066678851e-05,57.51038437149997,3,NB
2025-05-08 13:10:43.115,-6.281505565432537e-05,62.77959427077936,3,NB
2025-05-08 13:10:43.122,-6.196555786103048e-05,67.21187682978375,3,NB
2025-05-08 13:10:43.130,-6.16934992646441e-05,70.70793780440277,3,NB
2025-05-08 13:10:43.138,-6.212015777962766e-05,73.18953831437686,3,NB
2025-05-08 13:10:43.146,-6.332712714760074e-05,74.60215308003406,3,NB
2025-05-08 13:10:43.154,-6.53533342087861e-05,74.91684893015974,3,NB
2025-05-08 13:10:43.161,-6.819389851305477e-05,74.13130107628228,3,NB
2025-05-08 13:10:43.169,-7.180072161084604e-05,72.26990314321063,3,NB
2025-05-08 13:10:43.177,-7.60846432223795e-05,69.38296755358347,3,NB
2025-05-08 13:10:43.185,-8.091897641420123e-05,65.54505324025473,3,NB
2025-05-08 13:10:43.193,-8.614423661068648e-05,60.85249552541856,3,NB
2025-05-08 13:10:43.201,-9.157389847046304e-05,55.42024631033326,3,NB
2025-05-08 13:10:43.208,-9.700101912367644e-05,49.378159783426845,3,NB
2025-05-08 13:10:43.216,-0.0001022055466805,42.86687846432492,3,NB
2025-05-08 13:10:43.224,-0.0001069621039175,36.033485865825945,3,NB
2025-05-08 13:10:43.232,-0.0001110480057729,29.02709521506507,3,NB
2025-05-08 13:10:43.240,-0.0001142512367734,21.99453886693077,3,NB
2025-05-08 13:10:43.247,-0.0001163780854251,15.076311033210494,3,NB
2025-05-08 13:10:43.255,-0.0001172601085622,8.402898340020029,3,NB
2025-05-08 13:10:43.263,-0.000116760089561,2.0916098442285995,3,NB
2025-05-08 13:10:43.271,-0.0001147766861395,-3.756008056809553,3,NB
2025-05-08 13:10:43.279,-0.0001112475478206,-9.056114415405284,3,NB
2025-05-08 13:10:43.286,-0.0001061507941548,-13.743845249724265,3,NB
2025-05-08 13:10:43.294,-9.950483789211416e-05,-17.77391234816144,3,NB
2025-05-08 13:10:43.302,-9.1366588246148e-05,-21.120553431669645,3,NB
2025-05-08 13:10:43.310,-8.182809964392972e-05,-23.77688029805906,3,NB
2025-05-08 13:10:43.318,-7.101178753566677e-05,-25.75369047791873,3,NB
2025-05-08 13:10:43.326,-5.906443774845266e-05,-27.07782273171798,3,NB
2025-05-08 13:10:43.333,-4.615037283128798e-05,-27.79014718432849,3,NB
2025-05-08 13:10:43.341,-3.24442718046213e-05,-27.943287006994503,3,NB
2025-05-08 13:10:43.349,-1.8124222721402303e-05,-27.59917047744601,3,NB
2025-05-08 13:10:43.357,-3.365572827328862e-06,-26.826510285414688,3,NB
2025-05-08 13:10:43.365,1.1663982830489533e-05,-25.69830153048396,3,NB
2025-05-08 13:10:43.372,2.6807816054367303e-05,-24.289421495301845,3,NB
2025-05-08 13:10:43.380,4.192219090553144e-05,-22.67440353642179,3,NB
2025-05-08 13:10:43.388,5.687651937933854e-05,-20.92544490635349,3,NB
2025-05-08 13:10:43.396,7.155214243694522e-05,-19.110694589935733,3,NB
2025-05-08 13:10:43.404,8.583981234939431e-05,-17.292852873997607,3,NB
2025-05-08 13:10:43.411,9.963616701823336e-05,-15.528099913642532,3,NB
2025-05-08 13:10:43.419,0.0001128396220654,-13.86535652040202,3,NB
2025-05-08 13:10:43.427,0.0001253462038394,-12.345867242572352,3,NB
2025-05-08 13:10:43.435,0.0001370458459749,-11.003083945996403,3,NB
2025-05-08 13:10:43.443,0.0001478195742832,-9.86281787650967,3,NB
2025-05-08 13:10:43.451,0.0001575378787307,-8.943619860209312,3,NB
2025-05-08 13:10:43.458,0.0001660604807667,-8.257342066135086,3,NB
2025-05-08 13:10:43.466,0.000173237641552,-7.809830740372276,3,NB
2025-05-08 13:10:43.474,0.0001789130754775,-7.601697582020884,3,NB
2025-05-08 13:10:43.482,0.0001829284191441,-7.629117971030272,3,NB
2025-05-08 13:10:43.490,0.0001851290763934,-7.884607011079164,3,NB
2025-05-08 13:10:43.497,0.0001853711286234,-8.357729181151596,3,NB
2025-05-08 13:10:43.505,0.000183528882036,-9.035704090175171,3,NB
2025-05-08 13:10:43.513,0.0001795025495768,-9.903879130636009,3,NB
2025-05-08 13:10:43.521,0.0001732255523254,-10.946049405790824,3,NB
2025-05-08 13:10:43.529,0.0001646709605274,-12.144615785705987,3,NB
2025-05-08 13:10:43.536,0.0001538566578269,-13.480582903124338,3,NB
2025-05-08 13:10:43.544,0.0001408488936968,-14.933409858894718,3,NB
2025-05-08 13:10:43.552,0.0001257639864206,-16.480736868919145,3,NB
2025-05-08 13:10:43.560,0.0001087680512844,-18.09802055105432,3,NB
2025-05-08 13:10:43.568,9.007475283901553e-05,-19.75811854995565,3,NB
2025-05-08 13:10:43.576,6.994120453676846e-05,-21.43087030865089,3,NB
2025-05-08 13:10:43.583,4.866224057783051e-05,-23.082724660768445,3,NB
2025-05-08 13:10:43.591,2.656334747225913e-05,-24.67646625866739,3,NB
2025-05-08 13:10:43.599,3.992579545564685e-06,-26.17109148357205,3,NB
2025-05-08 13:10:43.607,-1.8688183314465107e-05,-27.52188031883708,3,NB
2025-05-08 13:10:43.615,-4.1112247376700845e-05,-28.680703730443973,3,NB
2025-05-08 13:10:43.622,-6.291699493206454e-05,-29.596596531029743,3,NB
2025-05-08 13:10:43.630,-8.37523040244617e-05,-30.216613771103862,3,NB
2025-05-08 13:10:43.638,-0.0001032882371602,-30.48697479479605,3,NB
2025-05-08 13:10:43.646,-0.0001212218376382,-30.35448372455835,3,NB
2025-05-08 13:10:43.654,-0.0001372829434431,-29.76819890603209,3,NB
2025-05-08 13:10:43.661,-0.0001512389702595,-28.68130743863633,3,NB
2025-05-08 13:10:43.669,-0.0001628986629211,-27.053145093587965,3,NB
2025-05-08 13:10:43.677,-0.0001721148881168,-24.851287485058688,3,NB
2025-05-08 13:10:43.685,-0.0001787866169761,-22.053626150473782,3,NB
2025-05-08 13:10:43.693,-0.0001828602813444,-18.6503340545608,3,NB
2025-05-08 13:10:43.701,-0.000184330658809,-14.645619762985625,3,NB
2025-05-08 13:10:43.708,-0.0001832413638424,-10.059168847624733,3,NB
2025-05-08 13:10:43.716,-0.0001796849257634,-4.927175540912978,3,NB
2025-05-08 13:10:43.724,-0.0001738023346594,0.6971224262583445,3,NB
2025-05-08 13:10:43.732,-0.0001657818502024,6.743477468873648,3,NB
2025-05-08 13:10:43.740,-0.0001558568257664,13.125285388041243,3,NB
2025-05-08 13:10:43.747,-0.0001443023186905,19.740884316837302,3,NB
2025-05-08 13:10:43.755,-0.0001314303241492,26.47549708057021,3,NB
2025-05-08 13:10:43.763,-0.0001175835636599,33.20378424611337,3,NB
2025-05-08 13:10:43.771,-0.0001031278687517,39.79294426681274,3,NB
2025-05-08 13:10:43.779,-8.844332037313314e-05,46.10626756784117,3,NB
2025-05-08 13:10:43.786,-7.391442105621226e-05,52.00702493406324,3,NB
2025-05-08 13:10:43.794,-5.9919655727516746e-05,57.36254884741271,3,NB
2025-05-08 13:10:43.802,-4.682080223984868e-05,62.04835096311449,3,NB
2025-05-08 13:10:43.810,-3.4952294351067385e-05,65.95211089149866,3,NB
2025-05-08 13:10:43.818,-2.4610888689931784e-05,68.97737162786194,3,NB
2025-05-08 13:10:43.826,-1.6045911499951255e-05,71.0467856146964,3,NB
2025-05-08 13:10:43.833,-9.450457166575232e-06,72.1047722559967,3,NB
2025-05-08 13:10:43.841,-4.954006886754669e-06,72.11947192036335,3,NB
2025-05-08 13:10:43.849,-2.616951901441209e-06,71.08391176635794,3,NB
2025-05-08 13:10:43.857,-2.427414166168577e-06,69.01633340004595,3,NB
2025-05-08 13:10:43.865,-4.3006029965566415e-06,65.95966945849246,3,NB
2025-05-08 13:10:43.872,-8.080800461996088e-06,61.980193606222095,3,NB
2025-05-08 13:10:43.880,-1.3545966180294628e-05,57.16540406184809,3,NB
2025-05-08 13:10:43.888,-2.041488306720395e-05,51.62123273317346,3,NB
2025-05-08 13:10:43.896,-2.835670625732121e-05,45.4686987143337,3,NB
2025-05-08 13:10:43.904,-3.700270760184487e-05,38.84014505816352,3,NB
2025-05-08 13:10:43.911,-4.59599034361408e-05,31.875210600848373,3,NB
2025-05-08 13:10:43.919,-5.482609427761698e-05,24.71669387533396,3,NB
2025-05-08 13:10:43.927,-6.320564749355139e-05,17.506463950332265,3,NB
2025-05-08 13:10:43.935,-7.072517952348569e-05,10.381563926211063,3,NB
2025-05-08 13:10:43.943,-7.704821750778435e-05,3.4706377014365613,3,NB
2025-05-08 13:10:43.951,-8.188797688211628e-05,-3.10920935501256,3,NB
2025-05-08 13:10:43.958,-8.501755925765137e-05,-9.255028713548482,3,NB
2025-05-08 13:10:43.966,-8.627710169698792e-05,-14.880064548878403,3,NB
2025-05-08 13:10:43.974,-8.557764550145368e-05,-19.91517220776856,3,NB
2025-05-08 13:10:43.982,-8.290170090050034e-05,-24.30961031026113,3,NB
2025-05-08 13:10:43.990,-7.830064399975248e-05,-28.031221869450093,3,NB
2025-05-08 13:10:43.997,-7.18892122681429e-05,-31.06604160092988,3,NB
2025-05-08 13:10:44.005,-6.38374988188674e-05,-33.41738509633238,3,NB
2025-05-08 13:10:44.013,-5.436098179108958e-05,-35.10449027815257,3,NB
2025-05-08 13:10:44.021,-4.370922354719741e-05,-36.16079228412099,3,NB
2025-05-08 13:10:44.029,-3.2153904659095386e-05,-36.63191959834645,3,NB
2025-05-08 13:10:44.036,-1.997682072976437e-05,-36.57350197132009,3,NB
2025-05-08 13:10:44.044,-7.458388570999361e-06,-36.0488797063309,3,NB
2025-05-08 13:10:44.052,5.132889193100254e-06,-35.12679959694691,3,NB
2025-05-08 13:10:44.060,1.7549649646472726e-05,-33.87917561820421,3,NB
2025-05-08 13:10:44.068,2.9573327675011487e-05,-32.3789828995064,3,NB
2025-05-08 13:10:44.076,4.102006621966838e-05,-30.698342079867444,3,NB
2025-05-08 13:10:44.083,5.174474340177568e-05,-28.906838433905214,3,NB
2025-05-08 13:10:44.091,6.164300508698192e-05,-27.07010673351729,3,NB
2025-05-08 13:10:44.099,7.065123026518512e-05,-25.248699231280646,3,NB
2025-05-08 13:10:44.107,7.87444413698333e-05,-23.497240938984365,3,NB
2025-05-08 13:10:44.115,8.593230238615757e-05,-21.863864006849752,3,NB
2025-05-08 13:10:44.122,9.22534982063396e-05,-20.389901913068957,3,NB
2025-05-08 13:10:44.130,9.776893062798372e-05,-19.10981471476785,3,NB
2025-05-08 13:10:44.138,0.0001025542745549,-18.05130908553285,3,NB
2025-05-08 13:10:44.146,0.0001066924769587,-17.235611491157158,3,NB
2025-05-08 13:10:44.154,0.000110266716408,-16.677849774943986,3,NB
2025-05-08 13:10:44.161,0.0001133541855512,-16.387497694103516,3,NB
2025-05-08 13:10:44.169,0.0001160208876919,-16.368838541076848,3,NB
2025-05-08 13:10:44.177,0.0001183175267549,-16.621407782001285,3,NB
2025-05-08 13:10:44.185,0.0001202765316306,-17.140380442900693,3,NB
2025-05-08 13:10:44.193,0.0001219102583271,-17.916876478054636,3,NB
2025-05-08 13:10:44.201,0.0001232104236491,-18.938166192920647,3,NB
2025-05-08 13:10:44.208,0.0001241488203934,-20.187767537119736,3,NB
2025-05-08 13:10:44.216,0.0001246793232904,-21.645437268291182,3,NB
2025-05-08 13:10:44.224,0.0001247411053496,-23.287068140672545,3,NB
2025-05-08 13:10:44.232,0.0001242628718063,-25.08451392307664,3,NB
2025-05-08 13:10:44.240,0.0001231678331952,-27.00537273749733,3,NB
2025-05-08 13:10:44.247,0.0001213791061925,-29.012766476414328,3,NB
2025-05-08 13:10:44.255,0.0001188252391067,-31.065159464956828,3,NB
2025-05-08 13:10:44.263,0.0001154455870617,-33.11626268965916,3,NB
2025-05-08 13:10:44.271,0.0001111952996198,-35.11507050751533,3,NB
2025-05-08 13:10:44.279,0.0001060497284176,-37.006074577423874,3,NB
2025-05-08 13:10:44.286,0.000100008111829,-38.72969474380148,3,NB
2025-05-08 13:10:44.294,9.309643705751756e-05,-40.22295879683667,3,NB
2025-05-08 13:10:44.302,8.536939572108286e-05,-41.42045261024672,3,NB
2025-05-08 13:10:44.310,7.691132455291201e-05,-42.25554942304203,3,NB
2025-05-08 13:10:44.318,6.783598334997013e-05,-42.66191243353107,3,NB
2025-05-08 13:10:44.326,5.828501619383913e-05,-42.57524899836417,3,NB
2025-05-08 13:10:44.333,4.842499363156813e-05,-41.9352782911318,3,NB
2025-05-08 13:10:44.341,3.844302926390903e-05,-40.68785808721248,3,NB
2025-05-08 13:10:44.349,2.8541080436719063e-05,-38.7872012764468,3,NB
2025-05-08 13:10:44.357,1.8929164670656696e-05,-36.19809965269945,3,NB
2025-05-08 13:10:44.365,9.817834236473876e-06,-32.898062360507765,3,NB
2025-05-08 13:10:44.372,1.4103163067670935e-06,-28.87926990897209,3,NB
2025-05-08 13:10:44.380,-6.105290975018609e-06,-24.15024260343616,3,NB
2025-05-08 13:10:44.388,-1.25634649732769e-05,-18.737125142979107,3,NB
2025-05-08 13:10:44.396,-1.7828135194853182e-05,-12.684497301410536,3,NB
2025-05-08 13:10:44.404,-2.179879775265864e-05,-6.055634077944614,3,NB
2025-05-08 13:10:44.411,-2.441562822081166e-05,1.067842827291957,3,NB
2025-05-08 13:10:44.419,-2.5663307396481446e-05,8.586957523207138,3,NB
2025-05-08 13:10:44.427,-2.557329794959931e-05,16.387025488574924,3,NB
2025-05-08 13:10:44.435,-2.4224405445314377e-05,24.33993282284799,3,NB
2025-05-08 13:10:44.443,-2.174155796601691e-05,32.30700064717221,3,NB
2025-05-08 13:10:44.451,-1.8292785768426983e-05,40.14235772432161,3,NB
2025-05-08 13:10:44.458,-1.4084397490420904e-05,47.69671831857672,3,NB
2025-05-08 13:10:44.466,-9.354403770233405e-06,54.82144009028792,3,NB
2025-05-08 13:10:44.474,-4.36436347239183e-06,61.37271972106055,3,NB
2025-05-08 13:10:44.482,6.100168720711372e-07,67.21577304662696,3,NB
2025-05-08 13:10:44.490,5.289071618046506e-06,72.2288424708874,3,NB
2025-05-08 13:10:44.497,9.399629286493878e-06,76.30687772021851,3,NB
2025-05-08 13:10:44.505,1.2685219838881463e-05,79.36474655617472,3,NB
2025-05-08 13:10:44.513,1.4915604355952434e-05,81.33984948036762,3,NB
2025-05-08 13:10:44.521,1.589530437770291e-05,82.19403593036478,3,NB
2025-05-08 13:10:44.529,1.5470899344163264e-05,81.91474781947743,3,NB
2025-05-08 13:10:44.536,1.3536907346677265e-05,80.51534806858082,3,NB
2025-05-08 13:10:44.544,1.004007787715584e-05,78.0346253701679,3,NB
2025-05-08 13:10:44.552,4.981931180806626e-06,74.53550007910941,3,NB
2025-05-08 13:10:44.560,-1.580611183875939e-06,70.10298812877795,3,NB
2025-05-08 13:10:44.568,-9.536634233709998e-06,64.8415086427654,3,NB
2025-05-08 13:10:44.576,-1.8724738280096944e-05,58.87164509354118,3,NB
2025-05-08 13:10:44.583,-2.8938589232577464e-05,52.32648839446571,3,NB
2025-05-08 13:10:44.591,-3.993429388485216e-05,45.3477025013618,3,NB
2025-05-08 13:10:44.599,-5.143922532005286e-05,38.081458626523386,3,NB
2025-05-08 13:10:44.607,-6.316180115479973e-05,30.67438309179177,3,NB
2025-05-08 13:10:44.615,-7.480165835210604e-05,23.26965657860556,3,NB
2025-05-08 13:10:44.622,-8.605967393502276e-05,16.003389782270432,3,NB
2025-05-08 13:10:44.630,-9.664732913476398e-05,9.001383187313841,3,NB
2025-05-08 13:10:44.638,-0.000106294990313,2.376357949231024,3,NB
2025-05-08 13:10:44.646,-0.0001147587922396,-3.774278121000133,3,NB
2025-05-08 13:10:44.654,-0.0001218259658597,-9.370089514274396,3,NB
2025-05-08 13:10:44.661,-0.0001273186259493,-14.348680893615017,3,NB
2025-05-08 13:10:44.669,-0.0001310961717011,-18.66618059100079,3,NB
2025-05-08 13:10:44.677,-0.0001330565208463,-22.297167085639984,3,NB
2025-05-08 13:10:44.685,-0.0001331363947322,-25.234083630601543,3,NB
2025-05-08 13:10:44.693,-0.0001313108211348,-27.48620065665256,3,NB
2025-05-08 13:10:44.701,-0.0001275919617031,-29.07819637935154,3,NB
2025-05-08 13:10:44.708,-0.0001220273387284,-30.04843304929565,3,NB
2025-05-08 13:10:44.716,-0.0001146975460782,-30.447009575768387,3,NB
2025-05-08 13:10:44.724,-0.0001057135620719,-30.33367103402268,3,NB
2025-05-08 13:10:44.732,-9.521379451139248e-05,-29.77565217311855,3,NB
2025-05-08 13:10:44.740,-8.336095531213126e-05,-28.845525908119036,3,NB
2025-05-08 13:10:44.747,-7.033880181990594e-05,-27.61911941408356,3,NB
2025-05-08 13:10:44.755,-5.634872225360917e-05,-26.17355039652109,3,NB
2025-05-08 13:10:44.763,-4.160610382471887e-05,-24.585424975444543,3,NB
2025-05-08 13:10:44.771,-2.6336429512654884e-05,-22.929226967712143,3,NB
2025-05-08 13:10:44.779,-1.0771110567287668e-05,-21.275916739070777,3,NB
2025-05-08 13:10:44.786,4.856862269892219e-06,-19.69174673232865,3,NB
2025-05-08 13:10:44.794,2.0317314702274608e-05,-18.237290709931845,3,NB
2025-05-08 13:10:44.802,3.538716811463405e-05,-16.96667505523916,3,NB
2025-05-08 13:10:44.810,4.985441944543942e-05,-15.926993458371904,3,NB
2025-05-08 13:10:44.818,6.3521646544761e-05,-15.15788119345164,3,NB
2025-05-08 13:10:44.826,7.620890909892935e-05,-14.691222116968015,3,NB
2025-05-08 13:10:44.833,8.775598233239056e-05,-14.550960536206606,3,NB
2025-05-08 13:10:44.841,9.802392678884324e-05,-14.752991170792352,3,NB
2025-05-08 13:10:44.849,0.0001068960512415,-15.305103420676083,3,NB
2025-05-08 13:10:44.857,0.0001142783646587,-16.206960829622155,3,NB
2025-05-08 13:10:44.865,0.0001200996369569,-17.450102683481415,3,NB
2025-05-08 13:10:44.872,0.0001243111974793,-19.017961730055177,3,NB
2025-05-08 13:10:44.880,0.0001268865958286,-20.88589962133079,3,NB
2025-05-08 13:10:44.888,0.0001278212334869,-23.02126938636124,3,NB
2025-05-08 13:10:44.896,0.0001271320486685,-25.383521544938112,3,NB
2025-05-08 13:10:44.904,0.0001248573035315,-27.92437686635736,3,NB
2025-05-08 13:10:44.911,0.0001210564849511,-30.58809378524518,3,NB
2025-05-08 13:10:44.919,0.0001158102904148,-33.3118616768641,3,NB
2025-05-08 13:10:44.927,0.00010922063217,-36.02635220921607,3,NB
2025-05-08 13:10:44.935,0.0001014105584047,-38.65645956867297,3,NB
2025-05-08 13:10:44.943,9.25239626621926e-05,-41.12225636034536,3,NB
2025-05-08 13:10:44.951,8.272493429157213e-05,-43.34018540566125,3,NB
2025-05-08 13:10:44.958,7.219659555243713e-05,-45.22449862286632,3,NB
2025-05-08 13:10:44.966,6.113927658576568e-05,-46.68894294364418,3,NB
2025-05-08 13:10:44.974,4.9767898865304135e-05,-47.64868019437424,3,NB
2025-05-08 13:10:44.982,3.83084713699462e-05,-48.02241359304899,3,NB
2025-05-08 13:10:44.990,2.699365134686424e-05,-47.73467863958334,3,NB
2025-05-08 13:10:44.997,1.6057382268230043e-05,-46.71824146037193,3,NB
2025-05-08 13:10:45.005,5.728693847077854e-06,-44.91653393344631,3,NB
2025-05-08 13:10:45.013,-3.775169464653461e-06,-42.28604304343108,3,NB
2025-05-08 13:10:45.021,-1.225603707596136e-05,-38.79856278247847,3,NB
2025-05-08 13:10:45.029,-1.9542172511471705e-05,-34.44321136843281,3,NB
2025-05-08 13:10:45.037,-2.549527133932296e-05,-29.228115326833677,3,NB
2025-05-08 13:10:45.044,-3.001659229622059e-05,-23.18166562429342,3,NB
2025-05-08 13:10:45.052,-3.305170108075341e-05,-16.35325983503376,3,NB
2025-05-08 13:10:45.060,-3.459339071318372e-05,-8.813458246867974,3,NB
2025-05-08 13:10:45.068,-3.468253719567587e-05,-0.653500508123239,3,NB
2025-05-08 13:10:45.076,-3.340689365717679e-05,8.015847807272538,3,NB
2025-05-08 13:10:45.083,-3.0898021882602814e-05,17.066123467646673,3,NB
2025-05-08 13:10:45.091,-2.7326648101869832e-05,26.353645686125983,3,NB
2025-05-08 13:10:45.099,-2.2896730082710832e-05,35.72259680898692,3,NB
2025-05-08 13:10:45.107,-1.7838502026905352e-05,45.008625040310726,3,NB
2025-05-08 13:10:45.115,-1.2400770650929138e-05,54.04286573895035,3,NB
2025-05-08 13:10:45.122,-6.842759985557997e-06,62.65625662339053,3,NB
2025-05-08 13:10:45.130,-1.4258017896426591e-06,70.68400586993431,3,NB
2025-05-08 13:10:45.138,3.594869147031228e-06,77.97006147435418,3,NB
2025-05-08 13:10:45.146,7.977994095877693e-06,84.37142596705203,3,NB
2025-05-08 13:10:45.154,1.150362694957738e-05,89.7621629284598,3,NB
2025-05-08 13:10:45.162,1.397969351010436e-05,94.03695074030024,3,NB
2025-05-08 13:10:45.169,1.5247544607209354e-05,97.1140543158594,3,NB
2025-05-08 13:10:45.177,1.5186327167197656e-05,98.937606561661,3,NB
2025-05-08 13:10:45.185,1.3716083730375178e-05,99.47911713183196,3,NB
2025-05-08 13:10:45.193,1.0799586009229207e-05,98.73815549158306,3,NB
2025-05-08 13:10:45.201,6.442990322474148e-06,96.74218705378472,3,NB
2025-05-08 13:10:45.208,6.954479263152988e-07,93.54557370695149,3,NB
2025-05-08 13:10:45.216,-6.35220318670759e-06,89.22778187946518,3,NB
2025-05-08 13:10:45.224,-1.4569581468827264e-05,83.89087088890521,3,NB
2025-05-08 13:10:45.232,-2.3789708178050803e-05,77.65636033759053,3,NB
2025-05-08 13:10:45.240,-3.3812772140883906e-05,70.6615965687841,3,NB
2025-05-08 13:10:45.247,-4.44107572504143e-05,63.05575379557012,3,NB
2025-05-08 13:10:45.255,-5.533296124928216e-05,54.99561488493299,3,NB
2025-05-08 13:10:45.263,-6.6312361599443e-05,46.64127970860748,3,NB
2025-05-08 13:10:45.271,-7.707268065385198e-05,38.15194559941662,3,NB
2025-05-08 13:10:45.279,-8.733591500080316e-05,29.68189523760969,3,NB
2025-05-08 13:10:45.287,-9.68300580976388e-05,21.376812967186435,3,NB
2025-05-08 13:10:45.294,-0.0001052967622786,13.370532049516555,3,NB
2025-05-08 13:10:45.302,-0.0001124987244382,5.782293787187792,3,NB
2025-05-08 13:10:45.310,-0.0001182266023333,-1.2854240463748317,3,NB
2025-05-08 13:10:45.318,-0.0001223052640674,-7.748476293488304,3,NB
2025-05-08 13:10:45.326,-0.0001245991562416,-13.542007742595532,3,NB
2025-05-08 13:10:45.333,-0.0001250165600525,-18.62081196652717,3,NB
2025-05-08 13:10:45.341,-0.0001235125014535,-22.959125217522327,3,NB
2025-05-08 13:10:45.349,-0.0001200901244839,-26.54990624987714,3,NB
2025-05-08 13:10:45.357,-0.0001148004525914,-29.40366678563946,3,NB
2025-05-08 13:10:45.365,-0.0001077406149817,-31.54692739741176,3,NB
2025-05-08 13:10:45.372,-9.905072056904408e-05,-33.02037974882172,3,NB
2025-05-08 13:10:45.380,-8.890957541123128e-05,-33.87683848832606,3,NB
2025-05-08 13:10:45.388,-7.752939495847602e-05,-34.179064878646,3,NB
2025-05-08 13:10:45.396,-6.514962254268258e-05,-33.99753983695538,3,NB
2025-05-08 13:10:45.404,-5.202995501059392e-05,-33.408256935097064,3,NB
2025-05-08 13:10:45.412,-3.844269422406713e-05,-32.49059661122734,3,NB
2025-05-08 13:10:45.419,-2.466460314568864e-05,-31.325331967679105,3,NB
2025-05-08 13:10:45.427,-1.0968549510295012e-05,-29.992804693103235,3,NB
2025-05-08 13:10:45.435,2.3846817191994768e-06,-28.571297471860888,3,NB
2025-05-08 13:10:45.443,1.515399570191794e-05,-27.13561732869873,3,NB
2025-05-08 13:10:45.451,2.7124650491654556e-05,-25.755893249287087,3,NB
2025-05-08 13:10:45.458,3.811369948194688e-05,-24.49658159044515,3,NB
2025-05-08 13:10:45.466,4.7974034400948593e-05,-23.41566463137588,3,NB
2025-05-08 13:10:45.474,5.659694029529954e-05,-22.564021401494347,3,NB
2025-05-08 13:10:45.482,6.391315466700344e-05,-21.98494582340808,3,NB
2025-05-08 13:10:45.490,6.989249227564841e-05,-21.71378529022506,3,NB
2025-05-08 13:10:45.497,7.454215413927508e-05,-21.77767301034363,3,NB
2025-05-08 13:10:45.505,7.790388356198908e-05,-22.195329668825572,3,NB
2025-05-08 13:10:45.513,8.005016368665239e-05,-22.976913964241493,3,NB
2025-05-08 13:10:45.521,8.107967065542177e-05,-24.12390710094197,3,NB
2025-05-08 13:10:45.529,8.111220486377694e-05,-25.629022995002487,3,NB
2025-05-08 13:10:45.537,8.028332120817017e-05,-27.476143372352865,3,NB
2025-05-08 13:10:45.544,7.873886905737742e-05,-29.640284639483017,3,NB
2025-05-08 13:10:45.552,7.662963546055245e-05,-32.087610904570575,3,NB
2025-05-08 13:10:45.560,7.41062624389753e-05,-34.77551433103681,3,NB
2025-05-08 13:10:45.568,7.131458268525762e-05,-37.65278964949809,3,NB
2025-05-08 13:10:45.576,6.83914891396262e-05,-40.659933714516775,3,NB
2025-05-08 13:10:45.583,6.546142413896465e-05,-43.72960310495251,3,NB
2025-05-08 13:10:45.591,6.263354439683221e-05,-46.78726263632121,3,NB
2025-05-08 13:10:45.599,5.999959004403153e-05,-49.75205506680981,3,NB
2025-05-08 13:10:45.607,5.763246020929145e-05,-52.53791711850028,3,NB
2025-05-08 13:10:45.615,5.558547480717524e-05,-55.05495920042878,3,NB
2025-05-08 13:10:45.622,5.389228277444493e-05,-57.2111160404231,3,NB
2025-05-08 13:10:45.630,5.256736120543159e-05,-58.9140630775083,3,NB
2025-05-08 13:10:45.638,5.160703774641995e-05,-60.07337934577464,3,NB
2025-05-08 13:10:45.646,5.099096012249253e-05,-60.60292224297884,3,NB
2025-05-08 13:10:45.654,5.068393155743745e-05,-60.42336370489362,3,NB
2025-05-08 13:10:45.662,5.063802877373668e-05,-59.4648216989694,3,NB
2025-05-08 13:10:45.669,5.07949198179606e-05,-57.66950650058551,3,NB
2025-05-08 13:10:45.677,5.1088301698155366e-05,-54.99428887629464,3,NB
2025-05-08 13:10:45.685,5.144638228347607e-05,-51.41308804595408,3,NB
2025-05-08 13:10:45.693,5.179433665773103e-05,-46.91897206655673,3,NB
2025-05-08 13:10:45.701,5.205667473288896e-05,-41.52586289630021,3,NB
2025-05-08 13:10:45.708,5.2159464070770506e-05,-35.26974347573482,3,NB
2025-05-08 13:10:45.716,5.2032359260294405e-05,-28.209275035191254,3,NB
2025-05-08 13:10:45.724,5.1610396666883946e-05,-20.425749485348163,3,NB
2025-05-08 13:10:45.732,5.08355208110712e-05,-12.0223237652831,3,NB
2025-05-08 13:10:45.740,4.965781603277825e-05,-3.1225096140645543,3,NB
2025-05-08 13:10:45.747,4.803642452429188e-05,6.132077755331964,3,NB
2025-05-08 13:10:45.755,4.594013940580307e-05,15.584676611800328,3,NB
2025-05-08 13:10:45.763,4.334766946369752e-05,25.06697350213236,3,NB
2025-05-08 13:10:45.771,4.02475807000448e-05,34.4032371833496,3,NB
2025-05-08 13:10:45.779,3.663792919271805e-05,43.41486520659503,3,NB
2025-05-08 13:10:45.787,3.252561017174421e-05,51.92519363049018,3,NB
2025-05-08 13:10:45.794,2.7925459879830937e-05,59.76440344130804,3,NB
2025-05-08 13:10:45.802,2.2859159850372016e-05,66.7743475799082,3,NB
2025-05-08 13:10:45.810,1.7354007776028363e-05,72.81312072623254,3,NB
2025-05-08 13:10:45.818,1.1441635132383462e-05,77.7592004455185,3,NB
2025-05-08 13:10:45.826,5.1567690314697496e-06,81.51500277708956,3,NB
2025-05-08 13:10:45.833,-1.4638458450998462e-06,84.00971721794934,3,NB
2025-05-08 13:10:45.841,-8.382230327021477e-06,85.20131427383949,3,NB
2025-05-08 13:10:45.849,-1.5559506344243076e-05,85.07765191910453,3,NB
2025-05-08 13:10:45.857,-2.295562832577922e-05,83.65664375190514,3,NB
2025-05-08 13:10:45.865,-3.052839396948595e-05,80.98548950904292,3,NB
2025-05-08 13:10:45.872,-3.82317352937265e-05,77.1390060074834,3,NB
2025-05-08 13:10:45.880,-4.601347108907544e-05,72.21713165255713,3,NB
2025-05-08 13:10:45.888,-5.3812869722629065e-05,66.34170870856482,3,NB
2025-05-08 13:10:45.896,-6.155845190438301e-05,59.65267315067845,3,NB
2025-05-08 13:10:45.904,-6.916644353947195e-05,52.30380104544471,3,NB
2025-05-08 13:10:45.912,-7.654020388733487e-05,44.45817238272266,3,NB
2025-05-08 13:10:45.919,-8.357083783681757e-05,36.28351786673507,3,NB
2025-05-08 13:10:45.927,-9.013906871842968e-05,27.94761153482781,3,NB
2025-05-08 13:10:45.935,-9.6118306078567e-05,19.61386273897395,3,NB
2025-05-08 13:10:45.943,-0.0001013786980256,11.437245827636414,3,NB
2025-05-08 13:10:45.951,-0.0001057918269154,3.5606858617604744,3,NB
2025-05-08 13:10:45.958,-0.0001092356278651,-3.8880049058380974,3,NB
2025-05-08 13:10:45.966,-0.0001115991290765,-10.798570985419596,3,NB
2025-05-08 13:10:45.974,-0.0001127867423248,-17.080096206603436,3,NB
2025-05-08 13:10:45.982,-0.0001127220116091,-22.662109834804667,3,NB
2025-05-08 13:10:45.990,-0.0001113508607856,-27.4950267118446,3,NB
2025-05-08 13:10:45.997,-0.0001086444076636,-31.549955139812788,3,NB
2025-05-08 13:10:46.005,-0.0001046013441935,-34.817926438927856,3,NB
2025-05-08 13:10:46.013,-9.924976957660024e-05,-37.30861667621316,3,NB
2025-05-08 13:10:46.021,-9.26482552068202e-05,-39.048643585528296,3,NB
2025-05-08 13:10:46.029,-8.488586537419985e-05,-40.07952999057585,3,NB
2025-05-08 13:10:46.037,-7.60808968326118e-05,-40.45542910436247,3,NB
2025-05-08 13:10:46.044,-6.637823383248996e-05,-40.24070708748941,3,NB
2025-05-08 13:10:46.052,-5.594539239042835e-05,-39.507474526889744,3,NB
2025-05-08 13:10:46.060,-4.496748786420001e-05,-38.33315148777032,3,NB
2025-05-08 13:10:46.068,-3.3641466059728305e-05,-36.798141025654616,3,NB
2025-05-08 13:10:46.076,-2.2169975892763447e-05,-34.98367411725992,3,NB
2025-05-08 13:10:46.083,-1.0755238740795086e-05,-32.96987551336606,3,NB
2025-05-08 13:10:46.091,4.067879690010586e-07,-30.83408568661847,3,NB
2025-05-08 13:10:46.099,1.113172231724901e-05,-28.649459492054447,3,NB
2025-05-08 13:10:46.107,2.125137785853824e-05,-26.483848004885026,3,NB
2025-05-08 13:10:46.115,3.061758227565719e-05,-24.398956832216207,3,NB
2025-05-08 13:10:46.122,3.910513350196106e-05,-22.44976253186681,3,NB
2025-05-08 13:10:46.130,4.661387099299815e-05,-20.684159047008105,3,NB
2025-05-08 13:10:46.138,5.3069868611272064e-05,-19.142798614542237,3,NB
2025-05-08 13:10:46.146,5.842577427982815e-05,-17.85908665040842,3,NB
2025-05-08 13:10:46.154,6.266033069765493e-05,-16.85928776159722,3,NB
2025-05-08 13:10:46.162,6.577711198576073e-05,-16.162700274594705,3,NB
2025-05-08 13:10:46.169,6.780250615641545e-05,-15.781859393062566,3,NB
2025-05-08 13:10:46.177,6.87829741527455e-05,-15.722734101446129,3,NB
2025-05-08 13:10:46.185,6.878164542220623e-05,-15.984889924305396,3,NB
2025-05-08 13:10:46.193,6.787438081312041e-05,-16.561598252041122,3,NB
2025-05-08 13:10:46.201,6.614552178612604e-05,-17.439882688373014,3,NB
2025-05-08 13:10:46.208,6.368360271551508e-05,-18.600503237726887,3,NB
2025-05-08 13:10:46.216,6.057730641650193e-05,-20.01788957176916,3,NB
2025-05-08 13:10:46.224,5.691190568505617e-05,-21.66004452532377,3,NB
2025-05-08 13:10:46.232,5.276637881391139e-05,-23.48844781777936,3,NB
2025-05-08 13:10:46.240,4.821132709452173e-05,-25.457997255621144,3,NB
2025-05-08 13:10:46.247,4.330776146391756e-05,-27.51702987831948,3,NB
2025-05-08 13:10:46.255,3.81067662014928e-05,-29.607468273254188,3,NB
2025-05-08 13:10:46.263,3.264999224490717e-05,-31.6651373125708,3,NB
2025-05-08 13:10:46.271,2.697088337464008e-05,-33.62029367522592,3,NB
2025-05-08 13:10:46.279,2.109649704541451e-05,-35.39840465080973,3,NB
2025-05-08 13:10:46.287,1.5049749550012137e-05,-36.92120394327942,3,NB
2025-05-08 13:10:46.294,8.851893686471154e-06,-38.10804070017719,3,NB
2025-05-08 13:10:46.302,2.525027009749206e-06,-38.87752412501597,3,NB
2025-05-08 13:10:46.310,-3.905569439018912e-06,-39.14945027261415,3,NB
2025-05-08 13:10:46.318,-1.0409448220236573e-05,-38.84698060824368,3,NB
2025-05-08 13:10:46.326,-1.6949529167172744e-05,-37.89902438988116,3,NB
2025-05-08 13:10:46.333,-2.348127382936679e-05,-36.24275977021439,3,NB
2025-05-08 13:10:46.341,-2.995257828587662e-05,-33.826212641743275,3,NB
2025-05-08 13:10:46.349,-3.630440671804181e-05,-30.610798626352285,3,NB
2025-05-08 13:10:46.357,-4.247212603669535e-05,-26.57372319578505,3,NB
2025-05-08 13:10:46.365,-4.838743653962376e-05,-21.71012860726396,3,NB
2025-05-08 13:10:46.372,-5.39807370224564e-05,-16.03487494960544,3,NB
2025-05-08 13:10:46.380,-5.918373811162943e-05,-9.583846747402117,3,NB
2025-05-08 13:10:46.388,-6.393215870928132e-05,-2.414686645593716,3,NB
2025-05-08 13:10:46.396,-6.816838379306864e-05,5.393126241271425,3,NB
2025-05-08 13:10:46.404,-7.184398037071051e-05,13.73891398866486,3,NB
2025-05-08 13:10:46.412,-7.492194063098036e-05,22.502187486716103,3,NB
2025-05-08 13:10:46.419,-7.737847322938621e-05,31.544787382415898,3,NB
2025-05-08 13:10:46.427,-7.920414974428167e-05,40.713748623021765,3,NB
2025-05-08 13:10:46.435,-8.040427883124543e-05,49.84482501784584,3,NB
2025-05-08 13:10:46.443,-8.09985156306957e-05,58.7665773839874,3,NB
2025-05-08 13:10:46.451,-8.101984585347033e-05,67.30489885363959,3,NB
2025-05-08 13:10:46.458,-8.05131401175649e-05,75.28782557272763,3,NB
2025-05-08 13:10:46.466,-7.953344505882553e-05,82.55046190668253,3,NB
2025-05-08 13:10:46.474,-7.814410930828096e-05,88.93983769209021,3,NB
2025-05-08 13:10:46.482,-7.641479001787113e-05,94.31951194620032,3,NB
2025-05-08 13:10:46.490,-7.441937625098578e-05,98.57374321438488,3,NB
2025-05-08 13:10:46.497,-7.22338789487331e-05,101.61106132324812,3,NB
2025-05-08 13:10:46.505,-6.993432930928511e-05,103.36709810393114,3,NB
2025-05-08 13:10:46.513,-6.759468589590244e-05,103.80656453780792,3,NB
2025-05-08 13:10:46.521,-6.528471163936627e-05,102.92429719758496,3,NB
2025-05-08 13:10:46.529,-6.306778261418961e-05,100.7453359182487,3,NB
2025-05-08 13:10:46.537,-6.099862789529596e-05,97.32403523422674,3,NB
2025-05-08 13:10:46.544,-5.912104977956537e-05,92.7422520927004,3,NB
2025-05-08 13:10:46.552,-5.746572446260912e-05,87.10668960473578,3,NB
2025-05-08 13:10:46.560,-5.60482246859135e-05,80.54550924972057,3,NB
2025-05-08 13:10:46.568,-5.486742147768679e-05,73.20435047079586,3,NB
2025-05-08 13:10:46.576,-5.390441913514301e-05,65.24191588827844,3,NB
2025-05-08 13:10:46.583,-5.312218339456804e-05,56.82529179178803,3,NB
2025-05-08 13:10:46.591,-5.246603495030448e-05,48.12517700967221,3,NB
2025-05-08 13:10:46.599,-5.1865162269372255e-05,39.31118900675348,3,NB
2025-05-08 13:10:46.607,-5.123523791446786e-05,30.547404829557017,3,NB
2025-05-08 13:10:46.615,-5.048211637615391e-05,21.98827731374332,3,NB
2025-05-08 13:10:46.622,-4.950647335010394e-05,13.77504502128429,3,NB
2025-05-08 13:10:46.630,-4.820913027234165e-05,6.032729037009449,3,NB
2025-05-08 13:10:46.638,-4.649670111463713e-05,-1.132217590141903,3,NB
2025-05-08 13:10:46.646,-4.42871146747067e-05,-7.633569986827833,3,NB
2025-05-08 13:10:46.654,-4.151453098318237e-05,-13.406290845821989,3,NB
2025-05-08 13:10:46.662,-3.813320948395231e-05,-18.40680453298637,3,NB
2025-05-08 13:10:46.669,-3.411999847931398e-05,-22.612624624960027,3,NB
2025-05-08 13:10:46.677,-2.9475273779928542e-05,-26.02139359525021,3,NB
2025-05-08 13:10:46.685,-2.422233013280784e-05,-28.649409634634168,3,NB
2025-05-08 13:10:46.693,-1.840539671664609e-05,-30.52972783829772,3,NB
2025-05-08 13:10:46.701,-1.2086578150094418e-05,-31.709931115196195,3,NB
2025-05-08 13:10:46.708,-5.342088441351453e-06,-32.24967022724313,3,NB
2025-05-08 13:10:46.716,1.7418543709269927e-06,-32.21807252151152,3,NB
2025-05-08 13:10:46.724,9.073146835247506e-06,-31.691115450523693,3,NB
2025-05-08 13:10:46.732,1.655766458572188e-05,-30.74905424364775,3,NB
2025-05-08 13:10:46.740,2.4102668525534766e-05,-29.473983535891783,3,NB
2025-05-08 13:10:46.747,3.161961191136779e-05,-27.947600886101974,3,NB
2025-05-08 13:10:46.755,3.902626873635057e-05,-26.249226482992515,3,NB
2025-05-08 13:10:46.763,4.624816055537519e-05,-24.454118537711093,3,NB
2025-05-08 13:10:46.771,5.3219309305763314e-05,-22.632108511271955,3,NB
2025-05-08 13:10:46.779,5.988238618781798e-05,-20.846565050136423,3,NB
2025-05-08 13:10:46.787,6.618836009101878e-05,-19.153680921396017,3,NB
2025-05-08 13:10:46.794,7.209577257331152e-05,-17.602063932074596,3,NB
2025-05-08 13:10:46.802,7.756977960276731e-05,-16.232601298575354,3,NB
2025-05-08 13:10:46.810,8.258110311715205e-05,-15.078557621350738,3,NB
2025-05-08 13:10:46.818,8.710502828351535e-05,-14.165859824466606,3,NB
2025-05-08 13:10:46.826,9.112056583305288e-05,-13.513518330020954,3,NB
2025-05-08 13:10:46.833,9.460987401454194e-05,-13.134132427096487,3,NB
2025-05-08 13:10:46.841,9.755800284818522e-05,-13.034429226154396,3,NB
2025-05-08 13:10:46.849,9.995298601314098e-05,-13.21578961610194,3,NB
2025-05-08 13:10:46.857,0.0001017862646102,-13.674721009441036,3,NB
2025-05-08 13:10:46.865,0.0001030533841028,-14.403245015551583,3,NB
2025-05-08 13:10:46.872,0.0001037548629461,-15.389178078523988,3,NB
2025-05-08 13:10:46.880,0.0001038970924382,-16.616294042583313,3,NB
2025-05-08 13:10:46.888,0.0001034931038612,-18.064369016190543,3,NB
2025-05-08 13:10:46.896,0.0001025630535957,-19.70912023716902,3,NB
2025-05-08 13:10:46.904,0.0001011343425598,-21.52206134798882,3,NB
2025-05-08 13:10:46.912,9.92413783385683e-05,-23.47030604802964,3,NB
2025-05-08 13:10:46.919,9.692505820511812e-05,-25.516360009534424,3,NB
2025-05-08 13:10:46.927,9.423207403258075e-05,-27.617946790172187,3,NB
2025-05-08 13:10:46.935,9.121412852512034e-05,-29.72791688228482,3,NB
2025-05-08 13:10:46.943,8.792712837547757e-05,-31.79428972684661,3,NB
2025-05-08 13:10:46.951,8.443039500357942e-05,-33.76047630554267,3,NB
2025-05-08 13:10:46.958,8.078591041127394e-05,-35.56572473206168,3,NB
2025-05-08 13:10:46.966,7.705759558926403e-05,-37.145823140740376,3,NB
2025-05-08 13:10:46.974,7.331060283904069e-05,-38.43408330002151,3,NB
2025-05-08 13:10:46.982,6.961059211639013e-05,-39.36261508565631,3,NB
2025-05-08 13:10:46.990,6.602295561833755e-05,-39.86388669942191,3,NB
2025-05-08 13:10:46.997,6.261195462337441e-05,-39.87254890601152,3,NB
2025-05-08 13:10:47.005,5.943973809434334e-05,-39.3274842882584,3,NB
2025-05-08 13:10:47.013,5.656522353943933e-05,-38.174025388638135,3,NB
2025-05-08 13:10:47.021,5.404283661673024e-05,-36.36626948892342,3,NB
2025-05-08 13:10:47.029,5.1921126234724245e-05,-33.86940360640448,3,NB
2025-05-08 13:10:47.037,5.024129549626985e-05,-30.66194199281376,3,NB
2025-05-08 13:10:47.044,4.903571461125928e-05,-26.73777091010845,3,NB
2025-05-08 13:10:47.052,4.8326508561128686e-05,-22.107892527547392,3,NB
2025-05-08 13:10:47.060,4.81243384117658e-05,-16.801762083799655,3,NB
2025-05-08 13:10:47.068,4.842751761966101e-05,-10.868120418076208,3,NB
2025-05-08 13:10:47.076,4.922161225537446e-05,-4.37523774983217,3,NB
2025-05-08 13:10:47.083,5.047964468932065e-05,2.589496005692613,3,NB
2025-05-08 13:10:47.091,5.216294136904346e-05,9.920674621123537,3,NB
2025-05-08 13:10:47.099,5.422256195891026e-05,17.496684274767293,3,NB
2025-05-08 13:10:47.107,5.660116812802832e-05,25.182197813101865,3,NB
2025-05-08 13:10:47.115,5.92351608035096e-05,32.831302098013715,3,NB
2025-05-08 13:10:47.122,6.205692227072738e-05,40.29117382812418,3,NB
2025-05-08 13:10:47.130,6.499702214654949e-05,47.40618943637509,3,NB
2025-05-08 13:10:47.138,6.798627294086123e-05,54.02232904630774,3,NB
2025-05-08 13:10:47.146,7.095754872595982e-05,59.99171466193191,3,NB
2025-05-08 13:10:47.154,7.38473081315338e-05,65.1771101431902,3,NB
2025-05-08 13:10:47.162,7.659678937042185e-05,69.45620607772213,3,NB
2025-05-08 13:10:47.169,7.915286931577043e-05,72.72551693353056,3,NB
2025-05-08 13:10:47.177,8.146859999560321e-05,74.90373087399955,3,NB
2025-05-08 13:10:47.185,8.350345362567159e-05,75.93437379371562,3,NB
2025-05-08 13:10:47.193,8.522332103062551e-05,75.78767741978224,3,NB
2025-05-08 13:10:47.201,8.660031775924752e-05,74.46157519016842,3,NB
2025-05-08 13:10:47.208,8.761245731786053e-05,71.98178719218063,3,NB
2025-05-08 13:10:47.216,8.824325183865212e-05,68.4009946337759,3,NB
2025-05-08 13:10:47.224,8.848129744075377e-05,63.79714297824832,3,NB
2025-05-08 13:10:47.232,8.831989495155426e-05,58.27094893210372,3,NB
2025-05-08 13:10:47.240,8.775674707992576e-05,51.94271809065008,3,NB
2025-05-08 13:10:47.247,8.679376122115037e-05,44.948605707770994,3,NB
2025-05-08 13:10:47.255,8.543697355340331e-05,37.43647167833496,3,NB
2025-05-08 13:10:47.263,8.369659573831089e-05,29.56149178156177,3,NB
2025-05-08 13:10:47.271,8.158717116955103e-05,21.48169038252708,3,NB
2025-05-08 13:10:47.279,7.912781412805257e-05,13.3535554265864,3,NB
2025-05-08 13:10:47.287,7.634249317533538e-05,5.3278853798288175,3,NB
2025-05-08 13:10:47.294,7.326031036751164e-05,-2.453999229420264,3,NB
2025-05-08 13:10:47.302,6.991572104000149e-05,-9.863568606480491,3,NB
2025-05-08 13:10:47.310,6.634863553098084e-05,-16.787834603086207,3,NB
2025-05-08 13:10:47.318,6.260434468780019e-05,-23.131480225494144,3,NB
2025-05-08 13:10:47.326,5.873321559826799e-05,-28.81833541830804,3,NB
2025-05-08 13:10:47.333,5.479011281109268e-05,-33.79219325752354,3,NB
2025-05-08 13:10:47.341,5.083351328902698e-05,-38.01698529876138,3,NB
2025-05-08 13:10:47.349,4.6924300228317454e-05,-41.47635670789275,3,NB
2025-05-08 13:10:47.357,4.3124241252712485e-05,-44.1727002848529,3,NB
2025-05-08 13:10:47.365,3.949417974639045e-05,-46.1257231385635,3,NB
2025-05-08 13:10:47.373,3.6091993456611386e-05,-47.370630356543145,3,NB
2025-05-08 13:10:47.380,3.297040104933327e-05,-47.95601650080018,3,NB
2025-05-08 13:10:47.388,3.017472398265156e-05,-47.94155827571637,3,NB
2025-05-08 13:10:47.396,2.7740736710980427e-05,-47.39560051050077,3,NB
2025-05-08 13:10:47.404,2.5692761610840025e-05,-46.39272304434898,3,NB
2025-05-08 13:10:47.412,2.4042183228774643e-05,-45.01136864822853,3,NB
2025-05-08 13:10:47.419,2.2786558541098563e-05,-43.33160227346474,3,NB
2025-05-08 13:10:47.427,2.1909464065809655e-05,-41.433060226551376,3,NB
2025-05-08 13:10:47.435,2.138113458413933e-05,-39.393134888864296,3,NB
2025-05-08 13:10:47.443,2.11598372956821e-05,-37.28542689199228,3,NB
2025-05-08 13:10:47.451,2.119383854945357e-05,-35.178482783454335,3,NB
2025-05-08 13:10:47.458,2.1423783286524663e-05,-33.13482271329166,3,NB
2025-05-08 13:10:47.466,2.178530778163242e-05,-31.21025004204685,3,NB
2025-05-08 13:10:47.474,2.2211722477057304e-05,-29.45342346823263,3,NB
2025-05-08 13:10:47.482,2.2636622853991956e-05,-27.905662693764544,3,NB
2025-05-08 13:10:47.490,2.299630965475374e-05,-26.600951117655267,3,NB
2025-05-08 13:10:47.498,2.3231924302083448e-05,-25.56609382470632,3,NB
2025-05-08 13:10:47.505,2.32912300902252e-05,-24.820986384872256,3,NB
2025-05-08 13:10:47.513,2.312999378247674e-05,-24.378949771044255,3,NB
2025-05-08 13:10:47.521,2.2712944899544742e-05,-24.247088998598574,3,NB
2025-05-08 13:10:47.529,2.2014310613545728e-05,-24.426637730638305,3,NB
2025-05-08 13:10:47.537,2.1017942303386157e-05,-24.91325780255335,3,NB
2025-05-08 13:10:47.544,1.971706514628759e-05,-25.697271018971108,3,NB
2025-05-08 13:10:47.552,1.8113694418545254e-05,-26.763810204716563,3,NB
2025-05-08 13:10:47.560,1.621777138191751e-05,-28.09288683101597,3,NB
2025-05-08 13:10:47.568,1.4046077778477146e-05,-29.65938303509714,3,NB
2025-05-08 13:10:47.576,1.1620991182340632e-05,-31.43298593745344,3,NB
2025-05-08 13:10:47.583,8.96914397917143e-06,-33.37809127922566,3,NB
2025-05-08 13:10:47.591,6.120046846160881e-06,-35.45371103435216,3,NB
2025-05-08 13:10:47.599,3.104733616297641e-06,-37.61342534218499,3,NB
2025-05-08 13:10:47.607,-4.552130797492714e-08,-39.80542247916481,3,NB
2025-05-08 13:10:47.615,-3.3003688989227694e-06,-41.9726713551313,3,NB
2025-05-08 13:10:47.623,-6.631398761124288e-06,-44.05326899731908,3,NB
2025-05-08 13:10:47.630,-1.001297231610262e-05,-45.98100061246263,3,NB
2025-05-08 13:10:47.638,-1.342285744973798e-05,-47.68614217052316,3,NB
2025-05-08 13:10:47.646,-1.6842655028405545e-05,-49.096525246486216,3,NB
2025-05-08 13:10:47.654,-2.0258016226996663e-05,-50.13887143583233,3,NB
2025-05-08 13:10:47.662,-2.365865757420667e-05,-50.74038949340024,3,NB
2025-05-08 13:10:47.669,-2.703818780670528e-05,-50.830613010989545,3,NB
2025-05-08 13:10:47.677,-3.039376687437508e-05,-50.3434406117196,3,NB
2025-05-08 13:10:47.685,-3.3725622634322986e-05,-49.21932503642333,3,NB
2025-05-08 13:10:47.693,-3.703645483059818e-05,-47.40754292665572,3,NB
2025-05-08 13:10:47.701,-4.033075883347397e-05,-44.86846441185752,3,NB
2025-05-08 13:10:47.708,-4.361410329257718e-05,-41.57573163817701,3,NB
2025-05-08 13:10:47.716,-4.689239635609506e-05,-37.5182489452158,3,NB
2025-05-08 13:10:47.724,-5.017117446240466e-05,-32.701885209325326,3,NB
2025-05-08 13:10:47.732,-5.345494598069764e-05,-27.150791461643674,3,NB
2025-05-08 13:10:47.740,-5.674661924178966e-05,-20.908244563132367,3,NB
2025-05-08 13:10:47.748,-6.004704085344283e-05,-14.036940513399026,3,NB
2025-05-08 13:10:47.755,-6.335466574421296e-05,-6.618678616923543,3,NB
2025-05-08 13:10:47.763,-6.666537524649746e-05,1.2466003547466362,3,NB
2025-05-08 13:10:47.771,-6.997245384490763e-05,9.442433565838044,3,NB
2025-05-08 13:10:47.779,-7.326672912274518e-05,17.838097094075014,3,NB
2025-05-08 13:10:47.787,-7.653687308968978e-05,26.29146401301778,3,NB
2025-05-08 13:10:47.794,-7.976985662969593e-05,34.6523871343368,3,NB
2025-05-08 13:10:47.802,-8.295154244005873e-05,42.7665079646933,3,NB
2025-05-08 13:10:47.810,-8.60673957185338e-05,50.47937082172987,3,NB
2025-05-08 13:10:47.818,-8.910328617877694e-05,57.6407031120692,3,NB
2025-05-08 13:10:47.826,-9.204634992174764e-05,64.10871056089667,3,NB
2025-05-08 13:10:47.833,-9.488587544831993e-05,69.75423047867683,3,NB
2025-05-08 13:10:47.841,-9.761417484776518e-05,74.46458741871338,3,NB
2025-05-08 13:10:47.849,-0.0001002273991097,78.14700393854086,3,NB
2025-05-08 13:10:47.857,-0.0001027262557401,80.73143438633295,3,NB
2025-05-08 13:10:47.865,-0.0001051165875453,82.17271108183745,3,NB
2025-05-08 13:10:47.873,-0.0001074097736911,82.45191898810691,3,NB
2025-05-08 13:10:47.880,-0.0001096229180032,81.5769456997314,3,NB
2025-05-08 13:10:47.888,-0.0001117787949778,79.5821867820877,3,NB
2025-05-08 13:10:47.896,-0.0001139055310828,76.52742050597831,3,NB
2025-05-08 13:10:47.904,-0.0001160360075538,72.4958991107423,3,NB
2025-05-08 13:10:47.912,-0.0001182069808824,67.59173424646225,3,NB
2025-05-08 13:10:47.919,-0.0001204579283147,61.93668072044225,3,NB
2025-05-08 13:10:47.927,-0.0001228296376594,55.66644389901791,3,NB
2025-05-08 13:10:47.935,-0.0001253625731651,48.92665122099831,3,NB
2025-05-08 13:10:47.943,-0.0001280950617619,41.86863676785232,3,NB
2025-05-08 13:10:47.951,-0.0001310613560936,34.6451895989354,3,NB
2025-05-08 13:10:47.958,-0.0001342896419648,27.406411851916705,3,NB
2025-05-08 13:10:47.966,-0.0001378000675562,20.29582199917012,3,NB
2025-05-08 13:10:47.974,-0.000141602879449,13.446822966123158,3,NB
2025-05-08 13:10:47.982,-0.0001456967555896,6.979635074538736,3,NB
2025-05-08 13:10:47.990,-0.0001500674272967,0.9987711131869624,3,NB
2025-05-08 13:10:47.998,-0.0001546866807947,-4.408893543196225,3,NB
2025-05-08 13:10:48.005,-0.0001595118231514,-9.175427758990256,3,NB
2025-05-08 13:10:48.013,-0.0001644856876264,-13.252524717528376,3,NB
2025-05-08 13:10:48.021,-0.0001695372391493,-16.611574277941052,3,NB
2025-05-08 13:10:48.029,-0.0001745828219306,-19.243166884506596,3,NB
2025-05-08 13:10:48.037,-0.0001795280682617,-21.156085441256643,3,NB
2025-05-08 13:10:48.044,-0.0001842704607234,-22.37585513595398,3,NB
2025-05-08 13:10:48.052,-0.0001887025098856,-22.942930957576397,3,NB
2025-05-08 13:10:48.060,-0.0001927154768955,-22.91060854284261,3,NB
2025-05-08 13:10:48.068,-0.0001962035360935,-22.34274611792945,3,NB
2025-05-08 13:10:48.076,-0.0001990682381224,-21.311383919572098,3,NB
2025-05-08 13:10:48.083,-0.0002012231002188,-19.89434294931109,3,NB
2025-05-08 13:10:48.091,-0.0002025981189502,-18.172877688949143,3,NB
2025-05-08 13:10:48.099,-0.0002031439731395,-16.22944799774807,3,NB
2025-05-08 13:10:48.107,-0.000202835662685,-14.145664371155746,3,NB
2025-05-08 13:10:48.115,-0.000201675315646,-12.000448632929022,3,NB
2025-05-08 13:10:48.123,-0.0001996939025217,-9.868439525377058,3,NB
2025-05-08 13:10:48.130,-0.0001969516450663,-7.818660106798228,3,NB
2025-05-08 13:10:48.138,-0.0001935370095957,-5.913451873884856,3,NB
2025-05-08 13:10:48.146,-0.0001895643060824,-4.207669560028821,3,NB
2025-05-08 13:10:48.154,-0.0001851700250586,-2.748121015807556,3,NB
2025-05-08 13:10:48.162,-0.0001805081086314,-1.5732287794733213,3,NB
2025-05-08 13:10:48.169,-0.0001757443813985,-0.7128841299111732,3,NB
2025-05-08 13:10:48.177,-0.0001710503826883,-0.188460724034542,3,NB
2025-05-08 13:10:48.185,-0.0001665968532076,-0.0129534022000805,3,NB
2025-05-08 13:10:48.193,-0.0001625471385091,-0.1912083570511845,3,NB
2025-05-08 13:10:48.201,-0.0001590507784836,-0.7202134772184607,3,NB
2025-05-08 13:10:48.208,-0.0001562375559572,-1.589422089263254,3,NB
2025-05-08 13:10:48.216,-0.0001542122778408,-2.781089238279644,3,NB
2025-05-08 13:10:48.224,-0.0001530505567715,-4.270606699039203,3,NB
2025-05-08 13:10:48.232,-0.0001527958392466,-6.026830657730877,3,NB
2025-05-08 13:10:48.240,-0.0001534578663397,-8.012403966555189,3,NB
2025-05-08 13:10:48.248,-0.0001550126430894,-10.184082546864277,3,NB
2025-05-08 13:10:48.255,-0.0001574038580164,-12.49308240217724,3,NB
2025-05-08 13:10:48.263,-0.0001605455841033,-14.885469330641872,3,NB
2025-05-08 13:10:48.271,-0.0001643260323615,-17.302617383256543,3,NB
2025-05-08 13:10:48.279,-0.0001686121066062,-19.681764060618093,3,NB
2025-05-08 13:10:48.287,-0.0001732545015769,-21.95668992615184,3,NB
2025-05-08 13:10:48.294,-0.0001780930853663,-24.05854758822912,3,NB
2025-05-08 13:10:48.302,-0.0001829623086934,-25.91685983884356,3,NB
2025-05-08 13:10:48.310,-0.0001876963887415,-27.46069924257496,3,NB
2025-05-08 13:10:48.318,-0.0001921340331963,-28.620051900157737,3,NB
2025-05-08 13:10:48.326,-0.0001961225210368,-29.327356857058074,3,NB
2025-05-08 13:10:48.333,-0.000199521051646,-29.519200204431623,3,NB
2025-05-08 13:10:48.341,-0.0002022033867453,-29.138129950670763,3,NB
2025-05-08 13:10:48.349,-0.0002040598910302,-28.1345449353932,3,NB
2025-05-08 13:10:48.357,-0.0002049991018699,-26.46859918190499,3,NB
2025-05-08 13:10:48.365,-0.0002049489387699,-24.112052932409483,3,NB
2025-05-08 13:10:48.373,-0.0002038576221643,-21.049993961673305,3,NB
2025-05-08 13:10:48.380,-0.000201694320688,-17.282348336059545,3,NB
2025-05-08 13:10:48.388,-0.0001984494924677,-12.825099174903244,3,NB
2025-05-08 13:10:48.396,-0.0001941348419365,-7.711135603906123,3,NB
2025-05-08 13:10:48.404,-0.0001887828030369,-1.9906621597112677,3,NB
2025-05-08 13:10:48.412,-0.00018244549687,4.268888664118844,3,NB
2025-05-08 13:10:48.419,-0.0001751931736845,10.983481606302394,3,NB
2025-05-08 13:10:48.427,-0.0001671121886846,18.053662635163064,3,NB
2025-05-08 13:10:48.435,-0.0001583025568156,25.366300522766256,3,NB
2025-05-08 13:10:48.443,-0.0001488751073796,32.796861016183364,3,NB
2025-05-08 13:10:48.451,-0.0001389482591981,40.21216461243309,3,NB
2025-05-08 13:10:48.458,-0.0001286444846484,47.47355589435837,3,NB
2025-05-08 13:10:48.466,-0.0001180866039732,54.44039151153025,3,NB
2025-05-08 13:10:48.474,-0.0001073941019355,60.9737363239783,3,NB
2025-05-08 13:10:48.482,-9.667966281427802e-05,66.94014396002837,3,NB
2025-05-08 13:10:48.490,-8.604608993589831e-05,72.21538987394129,3,NB
2025-05-08 13:10:48.498,-7.55837347350921e-05,76.68802248534601,3,NB
2025-05-08 13:10:48.505,-6.536851890776606e-05,80.26260142416614,3,NB
2025-05-08 13:10:48.513,-5.546059446933013e-05,82.86250127591985,3,NB
2025-05-08 13:10:48.521,-4.590365148300677e-05,84.43217420166837,3,NB
2025-05-08 13:10:48.529,-3.6724852653375486e-05,84.93878477658478,3,NB
2025-05-08 13:10:48.537,-2.793534841388192e-05,84.37315445804434,3,NB
2025-05-08 13:10:48.544,-1.9531305859722823e-05,82.74998012625424,3,NB
2025-05-08 13:10:48.552,-1.1495369954351033e-05,80.10731982219426,3,NB
2025-05-08 13:10:48.560,-3.7984657362335934e-06,76.50536771616298,3,NB
2025-05-08 13:10:48.568,3.598154530092421e-06,72.0245680369798,3,NB
2025-05-08 13:10:48.576,1.0740715620239311e-05,66.76314281843271,3,NB
2025-05-08 13:10:48.583,1.7680667773378857e-05,60.83412968454155,3,NB
2025-05-08 13:10:48.591,2.4472465089140352e-05,54.36204254482053,3,NB
2025-05-08 13:10:48.599,3.1171450158583834e-05,47.47927934105873,3,NB
2025-05-08 13:10:48.607,3.783190968735699e-05,40.32240653634877,3,NB
2025-05-08 13:10:48.615,4.45053530943326e-05,33.02844985297654,3,NB
2025-05-08 13:10:48.623,5.12390526624765e-05,25.731315146789782,3,NB
2025-05-08 13:10:48.630,5.807487036804357e-05,18.55845281761941,3,NB
2025-05-08 13:10:48.638,6.50483835390456e-05,11.627864570275294,3,NB
2025-05-08 13:10:48.646,7.218830943495554e-05,5.045533569543099,3,NB
2025-05-08 13:10:48.654,7.951621805173128e-05,-1.0966609362187512,3,NB
2025-05-08 13:10:48.662,8.704651320565318e-05,-6.7225046014303125,3,NB
2025-05-08 13:10:48.669,9.478665441421648e-05,-11.772466003977426,3,NB
2025-05-08 13:10:48.677,0.0001027375863659,-16.204173737636314,3,NB
2025-05-08 13:10:48.685,0.000110894338869,-19.992373673465764,3,NB
2025-05-08 13:10:48.693,0.0001192467580363,-23.128404308828404,3,NB
2025-05-08 13:10:48.701,0.0001277803289879,-25.61924217679837,3,NB
2025-05-08 13:10:48.708,0.0001364770513704,-27.486180217247306,3,NB
2025-05-08 13:10:48.716,0.0001453163312984,-28.76320963225338,3,NB
2025-05-08 13:10:48.724,0.0001542758567042,-29.495180049430324,3,NB
2025-05-08 13:10:48.732,0.0001633324272839,-29.73581392916029,3,NB
2025-05-08 13:10:48.740,0.0001724627150131,-29.545649321628165,3,NB
2025-05-08 13:10:48.748,0.0001816439363396,-28.9899806386526,3,NB
2025-05-08 13:10:48.755,0.0001908544224091,-28.136860447349505,3,NB
2025-05-08 13:10:48.763,0.0002000740788444,-27.05521685369583,3,NB
2025-05-08 13:10:48.771,0.0002092847315008,-25.81313128644954,3,NB
2025-05-08 13:10:48.779,0.0002184703591054,-24.47631089376608,3,NB
2025-05-08 13:10:48.787,0.000227617217643,-23.106778811957767,3,NB
2025-05-08 13:10:48.794,0.0002367138646881,-21.761794738411204,3,NB
2025-05-08 13:10:48.802,0.0002457510945473,-20.493007991835743,3,NB
2025-05-08 13:10:48.810,0.0002547217970467,-19.34583597241133,3,NB
2025-05-08 13:10:48.818,0.000263620754081,-18.359052965775547,3,NB
2025-05-08 13:10:48.826,0.0002724443886624,-17.564567805046163,3,NB
2025-05-08 13:10:48.833,0.0002811904812172,-16.98736416527736,3,NB
2025-05-08 13:10:48.841,0.00028985786735,-16.645574287327896,3,NB
2025-05-08 13:10:48.849,0.0002984461303033,-16.550655715732486,3,NB
2025-05-08 13:10:48.857,0.0003069552999747,-16.7076411294674,3,NB
2025-05-08 13:10:48.865,0.0003153855687074,-17.11543343254981,3,NB
2025-05-08 13:10:48.873,0.000323737032237,-17.767121788475364,3,NB
2025-05-08 13:10:48.880,0.000332009462244,-18.650299013995763,3,NB
2025-05-08 13:10:48.888,0.0003402021150159,-19.747366432844863,3,NB
2025-05-08 13:10:48.896,0.0003483135788352,-21.035818625957862,3,NB
2025-05-08 13:10:48.904,0.0003563416609506,-22.488507161126076,3,NB
2025-05-08 13:10:48.912,0.0003642833134063,-24.073888970608976,3,NB
2025-05-08 13:10:48.919,0.0003721345956413,-25.756271179149607,3,NB
2025-05-08 13:10:48.927,0.0003798906706579,-27.49606947437715,3,NB
2025-05-08 13:10:48.935,0.0003875458307037,-29.250101187854916,3,NB
2025-05-08 13:10:48.943,0.000395093547831,-30.971936804506367,3,NB
2025-05-08 13:10:48.951,0.0004025265443679,-32.61233440921036,3,NB
2025-05-08 13:10:48.958,0.000409836878259,-34.1197804740365,3,NB
2025-05-08 13:10:48.966,0.0004170160383687,-35.441157342607475,3,NB
2025-05-08 13:10:48.974,0.0004240550451672,-36.52255282191489,3,NB
2025-05-08 13:10:48.982,0.0004309445527005,-37.31022057313792,3,NB
2025-05-08 13:10:48.990,0.0004376749483383,-37.75169171175949,3,NB
2025-05-08 13:10:48.998,0.0004442364474664,-37.79702848115996,3,NB
2025-05-08 13:10:49.005,0.0004506191809956,-37.4002004438805,3,NB
2025-05-08 13:10:49.013,0.0004568132742673,-36.5205528267676,3,NB
2025-05-08 13:10:49.021,0.0004628089166089,-35.124326032617475,3,NB
2025-05-08 13:10:49.029,0.0004685964214012,-33.1861755316164,3,NB
2025-05-08 13:10:49.037,0.0004741662770414,-30.690633049709767,3,NB
2025-05-08 13:10:49.044,0.0004795091896001,-27.633443857147007,3,NB
2025-05-08 13:10:49.052,0.000484616118266,-24.022711659519047,3,NB
2025-05-08 13:10:49.060,0.0004894783048409,-19.879782634363764,3,NB
2025-05-08 13:10:49.068,0.0004940872985928,-15.239803913677488,3,NB
2025-05-08 13:10:49.076,0.0004984349776992,-10.15189946088742,3,NB
2025-05-08 13:10:49.083,0.00050251356833,-4.678917767147532,3,NB
2025-05-08 13:10:49.091,0.000506315662146,1.1032792245342729,3,NB
2025-05-08 13:10:49.099,0.0005098342326447,7.106998644596533,3,NB
2025-05-08 13:10:49.107,0.0005130626503956,13.234363311506405,3,NB
2025-05-08 13:10:49.115,0.0005159946967965,19.37939390660046,3,NB
2025-05-08 13:10:49.123,0.0005186245755832,25.430476992776853,3,NB
2025-05-08 13:10:49.130,0.0005209469209553,31.273149118252277,3,NB
2025-05-08 13:10:49.138,0.0005229568008785,36.79310949521004,3,NB
2025-05-08 13:10:49.146,0.0005246497139056,41.879359348509134,3,NB
2025-05-08 13:10:49.154,0.0005260215777457,46.42735591455016,3,NB
2025-05-08 13:10:49.162,0.0005270687078249,50.34206395141634,3,NB
2025-05-08 13:10:49.169,0.0005277877842294,53.54078795316526,3,NB
2025-05-08 13:10:49.177,0.0005281758057091,55.95567419717067,3,NB
2025-05-08 13:10:49.185,0.0005282300298504,57.53578312466016,3,NB
2025-05-08 13:10:49.193,0.0005279478990831,58.2486488665804,3,NB
2025-05-08 13:10:49.201,0.0005273269528678,58.08126318056043,3,NB
2025-05-08 13:10:49.208,0.0005263647271794,57.04044460484356,3,NB
2025-05-08 13:10:49.216,0.000525058643243,55.15257902234694,3,NB
2025-05-08 13:10:49.224,0.0005234058883513,52.46274372435303,3,NB
2025-05-08 13:10:49.232,0.000521403292459,49.03325212084062,3,NB
2025-05-08 13:10:49.240,0.0005190472050655,44.941679192188914,3,NB
2025-05-08 13:10:49.248,0.000516333377622,40.27844750004324,3,NB
2025-05-08 13:10:49.255,0.0005132568572798,35.14406918038626,3,NB
2025-05-08 13:10:49.263,0.0005098118981937,29.64615020480644,3,NB
2025-05-08 13:10:49.271,0.0005059918967643,23.89626898570901,3,NB
2025-05-08 13:10:49.279,0.0005017893571073,18.006842084038965,3,NB
2025-05-08 13:10:49.287,0.0004971958926503,12.088085600763163,3,NB
2025-05-08 13:10:49.294,0.0004922022690533,6.24517228578059,3,NB
2025-05-08 13:10:49.302,0.000486798492625,0.575672156368147,3,NB
2025-05-08 13:10:49.310,0.0004809739470594,-4.832650721616977,3,NB
2025-05-08 13:10:49.318,0.000474717579668,-9.90362981514427,3,NB
2025-05-08 13:10:49.326,0.0004680181363634,-14.57403893679809,3,NB
2025-05-08 13:10:49.333,0.0004608644425105,-18.79446780674385,3,NB
2025-05-08 13:10:49.341,0.0004532457244527,-22.529730027101653,3,NB
2025-05-08 13:10:49.349,0.0004451519641421,-25.758820053959965,3,NB
2025-05-08 13:10:49.357,0.0004365742769191,-28.47445085338682,3,NB
2025-05-08 13:10:49.365,0.0004275053002163,-30.68221674658983,3,NB
2025-05-08 13:10:49.373,0.0004179395789111,-32.39943615725012,3,NB
2025-05-08 13:10:49.380,0.0004078739313209,-33.65373636923801,3,NB
2025-05-08 13:10:49.388,0.0003973077785598,-34.48144690770491,3,NB
2025-05-08 13:10:49.396,0.0003862434192419,-34.92586981298591,3,NB
2025-05-08 13:10:49.404,0.0003746862314455,-35.03549403693537,3,NB
2025-05-08 13:10:49.412,0.0003626447845134,-34.86221770266336,3,NB
2025-05-08 13:10:49.419,0.0003501308447321,-34.45963635411248,3,NB
2025-05-08 13:10:49.427,0.0003371592612485,-33.88144795694587,3,NB
2025-05-08 13:10:49.435,0.0003237477217515,-33.18001670284224,3,NB
2025-05-08 13:10:49.443,0.0003099163714526,-32.40512803479177,3,NB
2025-05-08 13:10:49.451,0.0002956872936789,-31.60295717157694,3,NB
2025-05-08 13:10:49.458,0.0002810838558523,-30.815263177434023,3,NB
2025-05-08 13:10:49.466,0.0002661299306198,-30.07881069158078,3,NB
2025-05-08 13:10:49.474,0.0002508490082604,-29.425012162415204,3,NB
2025-05-08 13:10:49.482,0.0002352632229869,-28.87977513552996,3,NB
2025-05-08 13:10:49.490,0.0002193923221644,-28.46353208146731,3,NB
2025-05-08 13:10:49.498,0.0002032526134766,-28.19142462471911,3,NB
2025-05-08 13:10:49.505,0.0001868559304227,-28.073610009077587,3,NB
2025-05-08 13:10:49.513,0.000170208660889,-28.1156553154742,3,NB
2025-05-08 13:10:49.521,0.0001533108866368,-28.31898438502416,3,NB
2025-05-08 13:10:49.529,0.0001361556830675,-28.68134356749829,3,NB
2025-05-08 13:10:49.537,0.000118728628333,-29.19725521411421,3,NB
2025-05-08 13:10:49.544,0.0001010075685162,-29.85843209361478,3,NB
2025-05-08 13:10:49.552,8.296268106857955e-05,-30.654131397661768,3,NB
2025-05-08 13:10:49.560,6.455687185342883e-05,-31.57143342265647,3,NB
2025-05-08 13:10:49.568,4.574653201012566e-05,-32.59543703365465,3,NB
2025-05-08 13:10:49.576,2.648266949490408e-05,-33.709371276100605,3,NB
2025-05-08 13:10:49.583,6.712416767790642e-06,-34.894629649201626,3,NB
2025-05-08 13:10:49.591,-1.3619099038220783e-05,-36.13074025167697,3,NB
2025-05-08 13:10:49.599,-3.456655360418043e-05,-37.395290938021525,3,NB
2025-05-08 13:10:49.607,-5.618193802184264e-05,-38.66383349297997,3,NB
2025-05-08 13:10:49.615,-7.851185150716023e-05,-39.909794396157054,3,NB
2025-05-08 13:10:49.623,-0.0001015946563442,-41.10442180915437,3,NB
2025-05-08 13:10:49.630,-0.0001254575930791,-42.216798829464125,3,NB
2025-05-08 13:10:49.638,-0.0001501139678884,-43.21395173084403,3,NB
2025-05-08 13:10:49.646,-0.0001755605351373,-44.06107882352706,3,NB
2025-05-08 13:10:49.654,-0.0002017752056103,-44.72192076236279,3,NB
2025-05-08 13:10:49.662,-0.0002287152139904,-45.15928672334865,3,NB
2025-05-08 13:10:49.669,-0.0002563158772051,-45.33574305220879,3,NB
2025-05-08 13:10:49.677,-0.0002844900677056,-45.21446203622358,3,NB
2025-05-08 13:10:49.685,-0.0003131285122078,-44.7602187199289,3,NB
2025-05-08 13:10:49.693,-0.0003421010067095,-43.94051361610649,3,NB
2025-05-08 13:10:49.701,-0.0003712586127531,-42.72678926385712,3,NB
2025-05-08 13:10:49.709,-0.0004004368682132,-41.09569940877905,3,NB
2025-05-08 13:10:49.716,-0.0004294600089424,-39.030381695914095,3,NB
2025-05-08 13:10:49.724,-0.0004581461562604,-36.521678727035045,3,NB
2025-05-08 13:10:49.732,-0.0004863133806818,-33.56924863857846,3,NB
2025-05-08 13:10:49.740,-0.0005137865058845,-30.1825054109286,3,NB
2025-05-08 13:10:49.748,-0.0005404044704138,-26.38133120338223,3,NB
2025-05-08 13:10:49.755,-0.0005660280199179,-22.196508248858013,3,NB
2025-05-08 13:10:49.763,-0.0005905474618948,-17.66982619490145,3,NB
2025-05-08 13:10:49.771,-0.0006138901802035,-12.85383202029907,3,NB
2025-05-08 13:10:49.779,-0.0006360275801648,-7.8112033855156255,3,NB
2025-05-08 13:10:49.787,-0.0006569811191219,-2.613741909792015,3,NB
2025-05-08 13:10:49.794,-0.0006768270738667,2.6590003288252237,3,NB
2025-05-08 13:10:49.802,-0.0006956997071096,7.921430659530529,3,NB
2025-05-08 13:10:49.810,-0.0007137925216022,13.083915144913911,3,NB
2025-05-08 13:10:49.818,-0.0007313573335308,18.055005534573965,3,NB
2025-05-08 13:10:49.826,-0.0007487009567809,22.743819556000407,3,NB
2025-05-08 13:10:49.834,-0.0007661793663524,27.06249104913026,3,NB
2025-05-08 13:10:49.841,-0.0007841893015993,30.92860111051037,3,NB
2025-05-08 13:10:49.849,-0.0008031573763101,34.267500321499746,3,NB
2025-05-08 13:10:49.857,-0.0008235268787654,37.01443542395365,3,NB
2025-05-08 13:10:49.865,-0.0008457425577372,39.11640133875351,3,NB
2025-05-08 13:10:49.873,-0.0008702337752298,40.53365079688322,3,NB
2025-05-08 13:10:49.880,-0.0008973964475752,41.24080843248361,3,NB
2025-05-08 13:10:49.888,-0.0009275742142338,41.22755313873923,3,NB
2025-05-08 13:10:49.896,-0.0009610393123044,40.49885082963655,3,NB
2025-05-08 13:10:49.904,-0.0009979737141298,39.07473841799387,3,NB
2025-05-08 13:10:49.912,-0.0010384511873013,36.9896777403951,3,NB
2025-05-08 13:10:49.919,-0.0010824210330088,34.2915143408148,3,NB
2025-05-08 13:10:49.927,-0.0011296943332283,31.040089640281405,3,NB
2025-05-08 13:10:49.935,-0.0011799335812733,27.305565480233685,3,NB
2025-05-08 13:10:49.943,-0.0012326465777033,23.166527024276785,3,NB
2025-05-08 13:10:49.951,-0.0012871854393612,18.70793351716573,3,NB
2025-05-08 13:10:49.959,-0.0013427514896614,14.018986667363489,3,NB
2025-05-08 13:10:49.966,-0.0013984066709629,9.190983871456757,3,NB
2025-05-08 13:10:49.974,-0.0014530919446351,4.315218683428023,3,NB
2025-05-08 13:10:49.982,-0.0015056529229729,-0.5190155654138584,3,NB
2025-05-08 13:10:49.990,-0.0015548727134035,-5.226270716081794,3,NB
2025-05-08 13:10:49.998,-0.001599511655673,-9.726597301567832,3,NB
2025-05-08 13:10:50.005,-0.001638353305436,-13.946975195105592,3,NB
2025-05-08 13:10:50.013,-0.0016702556736022,-17.82249850432783,3,NB
2025-05-08 13:10:50.021,-0.0016942063826301,-21.2973001963688,3,NB
2025-05-08 13:10:50.029,-0.0017093800631121,-24.325209986753112,3,NB
2025-05-08 13:10:50.037,-0.0017151960021717,-26.87014665384046,3,NB
2025-05-08 13:10:50.044,-0.0017113737859175,-28.90625304929688,3,NB
2025-05-08 13:10:50.052,-0.0016979844681886,-30.417788539851664,3,NB
2025-05-08 13:10:50.060,-0.0016754946633658,-31.398799290838188,3,NB
2025-05-08 13:10:50.068,-0.0016448009172012,-31.852591535766404,3,NB
2025-05-08 13:10:50.076,-0.0016072517695589,-31.791036630222223,3,NB
2025-05-08 13:10:50.084,-0.0015646550970654,-31.2337391573458,3,NB
2025-05-08 13:10:50.091,-0.0015192686188044,-30.20710058197764,3,NB
2025-05-08 13:10:50.099,-0.0014737718669944,-28.74331095321009,3,NB
2025-05-08 13:10:50.107,-0.0014312184648286,-26.879300011850827,3,NB
2025-05-08 13:10:50.115,-0.0013949682076741,-24.65567691153592,3,NB
2025-05-08 13:10:50.123,-0.0013685991982321,-22.115684794439154,3,NB
2025-05-08 13:10:50.130,-0.0013558011216782,-19.304192882869494,3,NB
2025-05-08 13:10:50.138,-0.0013602516379785,-16.26674476960636,3,NB
2025-05-08 13:10:50.146,-0.0013854787846257,-13.048677417065845,3,NB
2025-05-08 13:10:50.154,-0.0014347131880022,-9.6943211986083,3,NB
2025-05-08 13:10:50.162,-0.0015107347352604,-6.246287310759037,3,NB
2025-05-08 13:10:50.169,-0.0016157191176663,-2.7448452160584624,3,NB
2025-05-08 13:10:50.177,-0.0017510902756754,0.7726104096910268,3,NB
2025-05-08 13:10:50.185,-0.0019173852103231,4.272006331335753,3,NB
2025-05-08 13:10:50.193,-0.0021141378312344,7.722956000713417,3,NB
2025-05-08 13:10:50.201,-0.0023397884487523,11.09904953848353,3,NB
2025-05-08 13:10:50.209,-0.0025916251522073,14.37807502141341,3,NB
2025-05-08 13:10:50.216,-0.002865762621951,17.5421774015458,3,NB
2025-05-08 13:10:50.224,-0.0031571628848473,20.57796056183749,3,NB
2025-05-08 13:10:50.232,-0.003459701151737,23.47653673350992,3,NB
2025-05-08 13:10:50.240,-0.0037662782333104,26.233525901913502,3,NB
2025-05-08 13:10:50.248,-0.004068979237989,28.849006053190298,3,NB
2025-05-08 13:10:50.255,-0.0043592764234897,31.32741329963749,3,NB
2025-05-08 13:10:50.263,-0.0046282722172358,33.677389193128896,3,NB
2025-05-08 13:10:50.271,-0.0048669764697055,35.91157101412229,3,NB
2025-05-08 13:10:50.279,-0.0050666099051832,38.046319633933855,3,NB
2025-05-08 13:10:50.287,-0.0052189234975796,40.10137882301056,3,NB
2025-05-08 13:10:50.294,-0.0053165211865931,42.09945974978102,3,NB
2025-05-08 13:10:50.302,-0.0053531711048498,44.065744995854985,3,NB
2025-05-08 13:10:50.310,-0.0053240886131858,46.02730777895872,3,NB
2025-05-08 13:10:50.318,-0.0052261733961559,48.012444253918005,3,NB
2025-05-08 13:10:50.326,-0.0050581831373245,50.04991973585074,3,NB
2025-05-08 13:10:50.334,-0.0048208282808392,52.16813339211584,3,NB
2025-05-08 13:10:50.341,-0.00451677640736,54.39421026545798,3,NB
2025-05-08 13:10:50.349,-0.0041505609468378,56.75303426127162,3,NB
2025-05-08 13:10:50.357,-0.0037283970144468,59.26624076264189,3,NB
2025-05-08 13:10:50.365,-0.0032579160679442,61.95119260315194,3,NB
2025-05-08 13:10:50.373,-0.0027478391289697,64.81996797555968,3,NB
2025-05-08 13:10:50.380,-0.0022076136148905,67.87839320441519,3,NB
2025-05-08 13:10:50.388,-0.0016470402329706,71.12515686375012,3,NB
2025-05-08 13:10:50.396,-0.0010759140038806,74.55104416824005,3,NB
2025-05-08 13:10:50.404,-0.0005036984677781,78.13833159899215,3,NB
2025-05-08 13:10:50.412,6.075397526673415e-05,81.86038105199093,3,NB
2025-05-08 13:10:50.419,0.0006094284626254,85.68147017182405,3,NB
2025-05-08 13:10:50.427,0.0011353183479847,89.55689078707368,3,NB
2025-05-08 13:10:50.435,0.0016325409954228,93.43334043653894,3,NB
2025-05-08 13:10:50.443,0.0020964017353373,97.24962294047668,3,NB
2025-05-08 13:10:50.451,0.0025234106132622,100.93766305346205,3,NB
2025-05-08 13:10:50.459,0.0029112577521963,104.42382781999125,3,NB
2025-05-08 13:10:50.466,0.003258753922535,107.63053387667632,3,NB
2025-05-08 13:10:50.474,0.003565743209924,110.47810626817032,3,NB
2025-05-08 13:10:50.482,0.0038329945660265,112.88684111654511,3,NB
2025-05-08 13:10:50.490,0.0040620786863811,114.77921249035712,3,NB
2025-05-08 13:10:50.498,0.0042552361859345,116.08215382476868,3,NB
2025-05-08 13:10:50.505,0.0044152424304379,116.7293369348442,3,NB
2025-05-08 13:10:50.513,0.0045452736083391,116.66336759308496,3,NB
2025-05-08 13:10:50.521,0.0046487777476876,115.83781617930924,3,NB
2025-05-08 13:10:50.529,0.0047293535153705,114.21900521211236,3,NB
2025-05-08 13:10:50.537,0.0047906388769014,111.78748256639102,3,NB
2025-05-08 13:10:50.544,0.0048362110607695,108.53911958056206,3,NB
2025-05-08 13:10:50.552,0.0048694987373929,104.48578657168002,3,NB
2025-05-08 13:10:50.560,0.0048937068809904,99.6555738542296,3,NB
2025-05-08 13:10:50.568,0.0049117544407924,94.09254342352928,3,NB
2025-05-08 13:10:50.576,0.0049262247015047,87.85601416540263,3,NB
2025-05-08 13:10:50.584,0.0049393280506511,81.01940091304857,3,NB
2025-05-08 13:10:50.591,0.0049528767817327,73.66864404170568,3,NB
2025-05-08 13:10:50.599,0.0049682715165711,65.90028080433855,3,NB
2025-05-08 13:10:50.607,0.0049864987789185,57.819221627200434,3,NB
2025-05-08 13:10:50.615,0.0050081391604253,49.53630362711001,3,NB
2025-05-08 13:10:50.623,0.0050333853799866,41.16569939428118,3,NB
2025-05-08 13:10:50.630,0.0050620693562674,32.822261513539345,3,NB
2025-05-08 13:10:50.638,0.005093697224261,24.618882471686693,3,NB
2025-05-08 13:10:50.646,0.0051274910783225,16.663945786341298,3,NB
2025-05-08 13:10:50.654,0.0051624361388554,9.058937786584066,3,NB
2025-05-08 13:10:50.662,0.0051973320027401,1.8962809575189543,3,NB
2025-05-08 13:10:50.669,0.0052308466247142,-4.742560339690536,3,NB
2025-05-08 13:10:50.677,0.005261571675995,-10.788662081315204,3,NB
2025-05-08 13:10:50.685,0.0052880779343907,-16.186882603914782,3,NB
2025-05-08 13:10:50.693,0.0053089693768697,-20.89674777104908,3,NB
2025-05-08 13:10:50.701,0.0053229346723593,-24.89297347412641,3,NB
2025-05-08 13:10:50.709,0.0053287948122283,-28.1656295158729,3,NB
2025-05-08 13:10:50.716,0.0053255456725986,-30.71995752286168,3,NB
2025-05-08 13:10:50.724,0.0053123943816206,-32.575862757614225,3,NB
2025-05-08 13:10:50.732,0.0052887884722661,-33.76710558102759,3,NB
2025-05-08 13:10:50.740,0.0052544369436019,-34.34022299433644,3,NB
2025-05-08 13:10:50.748,0.0052093225374804,-34.35321436696147,3,NB
2025-05-08 13:10:50.755,0.0051537047691207,-33.87402832958264,3,NB
2025-05-08 13:10:50.763,0.0050881135324977,-32.97889002352222,3,NB
2025-05-08 13:10:50.771,0.0050133334267857,-31.750509510118597,3,NB
2025-05-08 13:10:50.779,0.0049303792859635,-30.27621313666528,3,NB
2025-05-08 13:10:50.787,0.0048404636841816,-28.64603994125023,3,NB
2025-05-08 13:10:50.794,0.0047449573814621,-26.95084463082498,3,NB
2025-05-08 13:10:50.802,0.0046453437499149,-25.280447155303094,3,NB
2025-05-08 13:10:50.810,0.004543168210869,-23.721866331850038,3,NB
2025-05-08 13:10:50.818,0.0044399836834045,-22.357671325620466,3,NB
2025-05-08 13:10:50.826,0.0043372930607252,-21.264480140205023,3,NB
2025-05-08 13:10:50.834,0.0042364898322403,-20.51162879367517,3,NB
2025-05-08 13:10:50.841,0.0041387981660742,-20.160028833219563,3,NB
2025-05-08 13:10:50.849,0.0040452140437272,-20.261224621624784,3,NB
2025-05-08 13:10:50.857,0.003956449350901,-20.85665578659749,3,NB
2025-05-08 13:10:50.865,0.0038728811050173,-21.97712470878976,3,NB
2025-05-08 13:10:50.873,0.0037945081722214,-23.642464217362768,3,NB
2025-05-08 13:10:50.880,0.0037209178689361,-25.861396948233605,3,NB
2025-05-08 13:10:50.888,0.0036512647897195,-28.63157518085952,3,NB
2025-05-08 13:10:50.896,0.0035842641135599,-31.93978838547133,3,NB
2025-05-08 13:10:50.904,0.0035182015286149,-35.762325076815166,3,NB
2025-05-08 13:10:50.912,0.0034509617164389,-40.065475708376745,3,NB
2025-05-08 13:10:50.919,0.0033800769439537,-44.80616404071511,3,NB
2025-05-08 13:10:50.927,0.0033027966286529,-49.93269545815737,3,NB
2025-05-08 13:10:50.935,0.0032161777182346,-55.38561188006189,3,NB
2025-05-08 13:10:50.943,0.0031171943785366,-61.09864402760692,3,NB
2025-05-08 13:10:50.951,0.0030028639248706,-66.99975270249215,3,NB
2025-05-08 13:10:50.959,0.0028703843546088,-73.01225127817445,3,NB
2025-05-08 13:10:50.966,0.0027172774524499,-79.0560016970963,3,NB
2025-05-08 13:10:50.974,0.0025415304038673,-85.04867584060132,3,NB
2025-05-08 13:10:50.982,0.0023417282631494,-90.90707315843326,3,NB
2025-05-08 13:10:50.990,0.0021171695228003,-96.54848391711826,3,NB
2025-05-08 13:10:50.998,0.0018679574146694,-101.89208539407142,3,NB
2025-05-08 13:10:51.005,0.0015950604060376,-106.86035588028544,3,NB
2025-05-08 13:10:51.013,0.0013003366041925,-111.3804885544458,3,NB
2025-05-08 13:10:51.021,0.0009865184277661,-115.385784269961,3,NB
2025-05-08 13:10:51.029,0.000657155914639,-118.8169991912693,3,NB
2025-05-08 13:10:51.037,0.0003165193621031,-121.6236201940515,3,NB
2025-05-08 13:10:51.044,-3.053547272949706e-05,-123.7650382059994,3,NB
2025-05-08 13:10:51.052,-0.0003787338328331,-125.21158744209544,3,NB
2025-05-08 13:10:51.060,-0.0007225719748721,-125.94541703888288,3,NB
2025-05-08 13:10:51.068,-0.0010565207750295,-125.96116119467756,3,NB
2025-05-08 13:10:51.076,-0.0013752318179507,-125.26637486403828,3,NB
2025-05-08 13:10:51.084,-0.0016737346265322,-123.881704603715,3,NB
2025-05-08 13:10:51.091,-0.0019476144641415,-121.84076853649847,3,NB
2025-05-08 13:10:51.099,-0.0021931618049947,-119.1897257079321,3,NB
2025-05-08 13:10:51.107,-0.002407486831748,-115.98652335199785,3,NB
2025-05-08 13:10:51.115,-0.0025885948666018,-112.29982059655606,3,NB
2025-05-08 13:10:51.123,-0.0027354212421714,-108.20759859840535,3,NB
2025-05-08 13:10:51.130,-0.0028478266002697,-103.79547950348125,3,NB
2025-05-08 13:10:51.138,-0.0029265557948272,-99.15478933916648,3,NB
2025-05-08 13:10:51.146,-0.0029731653066176,-94.38041222628244,3,NB
2025-05-08 13:10:51.154,-0.0029899252700706,-89.5684943767808,3,NB
2025-05-08 13:10:51.162,-0.0029797028792553,-84.81406548141311,3,NB
2025-05-08 13:10:51.169,-0.0029458341531312,-80.20865164909392,3,NB
2025-05-08 13:10:51.177,-0.0028919908972743,-75.8379575417621,3,NB
2025-05-08 13:10:51.185,-0.0028220492967519,-71.77969543483114,3,NB
2025-05-08 13:10:51.193,-0.0027399659770604,-68.10163548962909,3,NB
2025-05-08 13:10:51.201,-0.0026496665889589,-64.85994460696577,3,NB
2025-05-08 13:10:51.209,-0.0025549509774335,-62.09787108710224,3,NB
2025-05-08 13:10:51.216,-0.0024594177641265,-59.8448193820548,3,NB
2025-05-08 13:10:51.224,-0.0023664097591448,-58.11584408956491,3,NB
2025-05-08 13:10:51.232,-0.0022789801537089,-56.9115757389085,3,NB
2025-05-08 13:10:51.240,-0.002199878081817,-56.21857368577588,3,NB
2025-05-08 13:10:51.248,-0.0021315509895909,-56.0100844414654,3,NB
2025-05-08 13:10:51.255,-0.0020761603717399,-56.24716788213868,3,NB
2025-05-08 13:10:51.263,-0.0020356068490524,-56.8801398343087,3,NB
2025-05-08 13:10:51.271,-0.0020115602803332,-57.85026822296663,3,NB
2025-05-08 13:10:51.279,-0.0020054906261005,-59.09165185073576,3,NB
2025-05-08 13:10:51.287,-0.0020186956039896,-60.53320630587912,3,NB
2025-05-08 13:10:51.294,-0.0020523217933949,-62.100680612201,3,NB
2025-05-08 13:10:51.302,-0.0021073767251894,-63.71863095251128,3,NB
2025-05-08 13:10:51.310,-0.0021847305288478,-65.31228383285325,3,NB
2025-05-08 13:10:51.318,-0.0022851067612486,-66.80922995374596,3,NB
2025-05-08 13:10:51.326,-0.002409063001059,-68.14090124713618,3,NB
2025-05-08 13:10:51.334,-0.0025569626217748,-69.24379638453766,3,NB
2025-05-08 13:10:51.341,-0.0027289398552938,-70.0604338899945,3,NB
2025-05-08 13:10:51.349,-0.00292486082851,-70.54002611805586,3,NB
2025-05-08 13:10:51.357,-0.0031442837050213,-70.63888110961094,3,NB
2025-05-08 13:10:51.365,-0.0033864214140808,-70.32055207716263,3,NB
2025-05-08 13:10:51.373,-0.0036501107081878,-69.5557654082157,3,NB
2025-05-08 13:10:51.380,-0.0039337914062688,-68.32216709195318,3,NB
2025-05-08 13:10:51.388,-0.0042354995208782,-66.60393393591568,3,NB
2025-05-08 13:10:51.396,-0.0045528773817878,-64.39129951667387,3,NB
2025-05-08 13:10:51.404,-0.0048832027642816,-61.68004530261302,3,NB
2025-05-08 13:10:51.412,-0.0052234374293434,-58.47100475410259,3,NB
2025-05-08 13:10:51.419,-0.0055702935186962,-54.76962257390439,3,NB
2025-05-08 13:10:51.427,-0.0059203141374481,-50.58560295090382,3,NB
2025-05-08 13:10:51.435,-0.0062699624467465,-45.93267008322613,3,NB
2025-05-08 13:10:51.443,-0.0066157119544507,-40.82845210468024,3,NB
2025-05-08 13:10:51.451,-0.0069541298064664,-35.29448651722576,3,NB
2025-05-08 13:10:51.459,-0.007281945152524,-29.356332179354578,3,NB
2025-05-08 13:10:51.466,-0.0075960962831439,-23.043760676218845,3,NB
2025-05-08 13:10:51.474,-0.0078937530121988,-16.39098934853178,3,NB
2025-05-08 13:10:51.482,-0.0081723141632616,-9.436910171774784,3,NB
2025-05-08 13:10:51.490,-0.0084293832969741,-2.225263732937717,3,NB
2025-05-08 13:10:51.498,-0.0086627283717718,5.195293745197488,3,NB
2025-05-08 13:10:51.505,-0.008870232540137,12.771279759095671,3,NB
2025-05-08 13:10:51.513,-0.0090498437446685,20.444674144230017,3,NB
2025-05-08 13:10:51.521,-0.0091995303730378,28.15343967568757,3,NB
2025-05-08 13:10:51.529,-0.0093172491790895,35.83229413014433,3,NB
2025-05-08 13:10:51.537,-0.0094009301726885,43.41373777890772,3,NB
2025-05-08 13:10:51.544,-0.0094484814074251,50.82932346160023,3,NB
2025-05-08 13:10:51.552,-0.0094578147742889,58.0111393392928,3,NB
2025-05-08 13:10:51.560,-0.0094268922625538,64.89345826559347,3,NB
2025-05-08 13:10:51.568,-0.0093537907832317,71.41449352824388,3,NB
2025-05-08 13:10:51.576,-0.0092367825251207,77.51818946431773,3,NB
2025-05-08 13:10:51.584,-0.0090744268327614,83.15596790182559,3,NB
2025-05-08 13:10:51.591,-0.0088656686922345,88.28834803651861,3,NB
2025-05-08 13:10:51.599,-0.0086099380638447,92.88635844190364,3,NB
2025-05-08 13:10:51.607,-0.0083072435452805,96.93266538700288,3,NB
2025-05-08 13:10:51.615,-0.0079582533052874,100.42235121213736,3,NB
2025-05-08 13:10:51.623,-0.0075643561202655,103.363289698042,3,NB
2025-05-08 13:10:51.630,-0.0071276959507062,105.77608150398788,3,NB
