Timestamp,GSR_Filtered,PPG_Filtered
2025-06-04 15:48:58.098,-0.0005271146457907,-157.3108571120871
2025-06-04 15:48:58.105,-0.0009691573860983,-156.0501313144289
2025-06-04 15:48:58.113,-0.0014035861281236,-155.32934537850656
2025-06-04 15:48:58.121,-0.0018242625343887,-155.12907103577604
2025-06-04 15:48:58.129,-0.0022253750803536,-155.41892261254554
2025-06-04 15:48:58.137,-0.0026016357860855,-156.15839686612847
2025-06-04 15:48:58.144,-0.0029484497551002,-157.2978957968503
2025-06-04 15:48:58.152,-0.0032620505216108,-158.77990411932808
2025-06-04 15:48:58.160,-0.0035395964084505,-160.540292585391
2025-06-04 15:48:58.168,-0.0037792253726227,-162.50971856660436
2025-06-04 15:48:58.176,-0.0039800680924048,-164.61509596745347
2025-06-04 15:48:58.183,-0.004142221214121,-166.78110741396466
2025-06-04 15:48:58.191,-0.0042666845879605,-168.93173254904673
2025-06-04 15:48:58.199,-0.0043552678724146,-170.99176702223693
2025-06-04 15:48:58.207,-0.0044104730344646,-172.88830731565605
2025-06-04 15:48:58.215,-0.0044353599888755,-174.5521769072054
2025-06-04 15:48:58.223,-0.004433402867246,-175.91926951894985
2025-06-04 15:48:58.230,-0.0044083441880505,-176.93178547548337
2025-06-04 15:48:58.238,-0.004364053553996,-177.53933768591656
2025-06-04 15:48:58.246,-0.0043043964893817,-177.699904663948
2025-06-04 15:48:58.254,-0.0042331177661666,-177.38060950445694
2025-06-04 15:48:58.262,-0.0041537422448406,-176.55830599260634
2025-06-04 15:48:58.269,-0.0040694950363943,-175.21995611392222
2025-06-04 15:48:58.277,-0.0039832417304851,-173.3627871598623
2025-06-04 15:48:58.285,-0.003897448523907,-170.994221302948
2025-06-04 15:48:58.293,-0.0038141612995334,-168.1315758058402
2025-06-04 15:48:58.301,-0.0037350020235648,-164.8015377457063
2025-06-04 15:48:58.308,-0.0036611802650838,-161.03942307595076
2025-06-04 15:48:58.316,-0.0035935172827353,-156.8882358090678
2025-06-04 15:48:58.324,-0.0035324800409306,-152.39754889408573
2025-06-04 15:48:58.332,-0.0034782226715148,-147.62223379640258
2025-06-04 15:48:58.340,-0.0034306331507317,-142.62107068880132
2025-06-04 15:48:58.348,-0.0033893831873466,-137.45527535603762
2025-06-04 15:48:58.355,-0.0033539794593798,-132.18698223334113
2025-06-04 15:48:58.363,-0.00332381438477,-126.87772528184952
2025-06-04 15:48:58.371,-0.0032982145824188,-121.58695950300768
2025-06-04 15:48:58.379,-0.0032764851494353,-116.37066567641013
2025-06-04 15:48:58.387,-0.0032579479512633,-111.28007926406286
2025-06-04 15:48:58.394,-0.0032419723354579,-106.36058129342088
2025-06-04 15:48:58.402,-0.003227997010387,-101.65078440707497
2025-06-04 15:48:58.410,-0.003215542241704,-97.18184121810948
2025-06-04 15:48:58.418,-0.0032042119908598,-92.9769947877686
2025-06-04 15:48:58.426,-0.0031936861393408,-89.05138267683827
2025-06-04 15:48:58.433,-0.0031837035181166,-85.4120969167731
2025-06-04 15:48:58.441,-0.003174037116528,-82.05849277618037
2025-06-04 15:48:58.449,-0.0031644635549321,-78.98272981828538
2025-06-04 15:48:58.457,-0.003154729564081,-76.17051997013834
2025-06-04 15:48:58.465,-0.0031445186889,-73.6020496616235
2025-06-04 15:48:58.473,-0.0031334216306542,-71.25303697082587
2025-06-04 15:48:58.480,-0.003120913517437,-69.09588044674388
2025-06-04 15:48:58.488,-0.003106340971125,-67.10085405865037
2025-06-04 15:48:58.496,-0.0030889211791681,-65.38743390484254
2025-06-04 15:48:58.504,-0.0030677542961105,-63.547189813246135
2025-06-04 15:48:58.512,-0.0030418493559892,-61.55093871226248
2025-06-04 15:48:58.519,-0.0030101625053919,-59.37176812893212
2025-06-04 15:48:58.527,-0.0029716449766336,-56.98603770350552
2025-06-04 15:48:58.535,-0.0029252971455173,-54.37425868484905
2025-06-04 15:48:58.543,-0.0028702245289041,-51.5218262792212
2025-06-04 15:48:58.551,-0.0028056917200366,-48.419586185513566
2025-06-04 15:48:58.558,-0.0027311708546409,-45.06422345667335
2025-06-04 15:48:58.566,-0.0026463819733586,-41.45846866606807
2025-06-04 15:48:58.574,-0.0025513233865106,-37.61112293711827
2025-06-04 15:48:58.582,-0.0024462907943724,-33.53690945108445
2025-06-04 15:48:58.590,-0.002331884494625,-29.256164354787987
2025-06-04 15:48:58.598,-0.0022090045145652,-24.794384365956223
2025-06-04 15:48:58.605,-0.0020788339169843,-20.181651690456853
2025-06-04 15:48:58.613,-0.0019428108912944,-15.45195905467237
2025-06-04 15:48:58.621,-0.0018025906241448,-10.642458714925969
2025-06-04 15:48:58.629,-0.0016599983166053,-5.792659298192208
2025-06-04 15:48:58.637,-0.0015169749825855,-0.9435933790153992
2025-06-04 15:48:58.644,-0.0013755178020377,3.863023021758536
2025-06-04 15:48:58.652,-0.0012376168831613,8.585620118775198
2025-06-04 15:48:58.660,-0.0011051903859134,13.18357696764284
2025-06-04 15:48:58.668,-0.000980020098606,17.61798351397721
2025-06-04 15:48:58.676,-0.0008636897114173,21.85235131382951
2025-06-04 15:48:58.683,-0.0007575281416309,25.853264613851383
2025-06-04 15:48:58.691,-0.000662560317953,29.59096555307188
2025-06-04 15:48:58.699,-0.0005794678503149,33.039868842873744
2025-06-04 15:48:58.707,-0.0005085619509925,36.17900235936604
2025-06-04 15:48:58.715,-0.00044977066913,38.99237066234472
2025-06-04 15:48:58.723,-0.0004026418300044,41.4692386151828
2025-06-04 15:48:58.730,-0.0003663620932983,43.60433214729687
2025-06-04 15:48:58.738,-0.0003397914511756,45.3979529343977
2025-06-04 15:48:58.746,-0.0003215114553766,46.85600354599594
2025-06-04 15:48:58.754,-0.0003098845836695,47.98991960112205
2025-06-04 15:48:58.762,-0.0003031214625746,48.81650584625744
2025-06-04 15:48:58.769,-0.0002993522260575,49.35767395722871
2025-06-04 15:48:58.777,-0.0002966982315104,49.64008134854099
2025-06-04 15:48:58.785,-0.0002933407053933,49.69467235325852
2025-06-04 15:48:58.793,-0.0002875834870077,49.55612573172908
2025-06-04 15:48:58.801,-0.000277907661154,49.262215415735
2025-06-04 15:48:58.808,-0.0002630164631755,48.853094474369456
2025-06-04 15:48:58.816,-0.0002418694908652,48.37051524638167
2025-06-04 15:48:58.824,-0.0002137059850283,47.85700116868818
2025-06-04 15:48:58.832,-0.0001780576054677,47.354987823651
2025-06-04 15:48:58.840,-0.0001347515700501,46.905951973241535
2025-06-04 15:48:58.848,-8.390520176700731e-05,46.54954777276589
2025-06-04 15:48:58.855,-2.591291540778074e-05,46.32276897324316
2025-06-04 15:48:58.863,3.857343717336033e-05,46.25915482214104
2025-06-04 15:48:58.871,0.0001086700828918,46.38805571395662
2025-06-04 15:48:58.879,0.0001832920204288,46.73397262509412
2025-06-04 15:48:58.887,0.0002611882214439,47.3159822065396
2025-06-04 15:48:58.894,0.000340980623416,48.147257301181874
2025-06-04 15:48:58.902,0.0004212061310464,49.23469075485147
2025-06-04 15:48:58.910,0.000500360782199,50.57862879671306
2025-06-04 15:48:58.918,0.0005769451830464,52.172719006992985
2025-06-04 15:48:58.926,0.0006495102700278,54.00387693742137
2025-06-04 15:48:58.933,0.0007167023880494,56.05237471679871
2025-06-04 15:48:58.941,0.0007773065462373,58.29205433195028
2025-06-04 15:48:58.949,0.0008302865327551,60.69066756345456
2025-06-04 15:48:58.957,0.0008748204259919,63.21034360114504
2025-06-04 15:48:58.965,0.0009103300185112,65.80818399741362
2025-06-04 15:48:58.973,0.0009365027874223,68.43698269699262
2025-06-04 15:48:58.980,0.0009533052898554,71.04606632011075
2025-06-04 15:48:58.988,0.0009609872531082,73.58224664661658
2025-06-04 15:48:58.996,0.0009600761522878,75.99087340339669
2025-06-04 15:48:59.004,0.0009513626146053,78.21697113287436
2025-06-04 15:48:59.012,0.0009358774273046,80.20643933917829
2025-06-04 15:48:59.019,0.0009148612243739,81.90729056638361
2025-06-04 15:48:59.027,0.0008897281503778,83.27089690080449
2025-06-04 15:48:59.035,0.0008620249928327,84.25321195565886
2025-06-04 15:48:59.043,0.0008333873960788,84.81593301195035
2025-06-04 15:48:59.051,0.0008054947522312,84.92756691480955
2025-06-04 15:48:59.058,0.0007800252142055,84.56436373674957
2025-06-04 15:48:59.066,0.0007586120758811,83.71108419553418
2025-06-04 15:48:59.074,0.0007428025933395,82.36157032848067
2025-06-04 15:48:59.082,0.0007340201838914,80.51909385982442
2025-06-04 15:48:59.090,0.0007335307735504,78.19646286858764
2025-06-04 15:48:59.098,0.0007424138212752,75.41587454289287
2025-06-04 15:48:59.105,0.0007615382746722,72.20850973763862
2025-06-04 15:48:59.113,0.0007915434838245,68.61387346381657
2025-06-04 15:48:59.121,0.0008328249215982,64.67889404697685
2025-06-04 15:48:59.129,0.0008855244098819,60.45680221071272
2025-06-04 15:48:59.137,0.0009495244793541,56.00581947568975
2025-06-04 15:48:59.144,0.001024446555754,51.38769271986501
2025-06-04 15:48:59.152,0.0011096528531259,46.66611822457834
2025-06-04 15:48:59.160,0.0012042520958416,41.905103741530304
2025-06-04 15:48:59.168,0.0013071094053651,37.167320777009145
2025-06-04 15:48:59.176,0.0014168607735546,32.512501147718496
2025-06-04 15:48:59.183,0.0015319324168506,27.995931708043894
2025-06-04 15:48:59.191,0.0016505649909663,23.6670988414188
2025-06-04 15:48:59.199,0.0017708422959516,19.568529800921837
2025-06-04 15:48:59.207,0.0018907238715625,15.734871335680316
2025-06-04 15:48:59.215,0.002008080806266,12.192237420754232
2025-06-04 15:48:59.223,0.0021207340926136,8.957847611846248
2025-06-04 15:48:59.230,0.0022264949097763,6.03996600948688
2025-06-04 15:48:59.238,0.0023232063397393,3.438138617789357
2025-06-04 15:48:59.246,0.0024087862811035,1.143714682097776
2025-06-04 15:48:59.254,0.0024812716464891,-0.8593739431742
2025-06-04 15:48:59.262,0.0025388641089297,-2.5936115904701413
2025-06-04 15:48:59.269,0.0025799775209803,-4.086720355328051
2025-06-04 15:48:59.277,0.002603286675144,-5.370355250299322
2025-06-04 15:48:59.285,0.0026077764506857,-6.478727395408604
2025-06-04 15:48:59.293,0.00259278973725,-7.4472107267531324
2025-06-04 15:48:59.301,0.0025580719212986,-8.31098613369442
2025-06-04 15:48:59.308,0.0025038092431766,-9.103772973255635
2025-06-04 15:48:59.316,0.0024306580911059,-9.85669189867135
2025-06-04 15:48:59.324,0.0023397623912841,-10.597295319143704
2025-06-04 15:48:59.332,0.0022327566647936,-11.34879307271588
2025-06-04 15:48:59.340,0.0021117529124869,-12.129491538000932
2025-06-04 15:48:59.348,0.0019793101338071,-12.95245489159695
2025-06-04 15:48:59.355,0.0018383859919979,-13.825387940635272
2025-06-04 15:48:59.363,0.0016922709694976,-14.750731271344517
2025-06-04 15:48:59.371,0.0015445063003768,-15.72595164983618
2025-06-04 15:48:59.379,0.0013987879531245,-16.744003938564834
2025-06-04 15:48:59.387,0.001258859920303,-17.79393545108849
2025-06-04 15:48:59.394,0.0011284010062082,-18.86159980227324
2025-06-04 15:48:59.402,0.0010109100876048,-19.93044499926132
2025-06-04 15:48:59.410,0.0009095952736128,-20.98233977276368
2025-06-04 15:48:59.418,0.0008272723123504,-21.99840292102648
2025-06-04 15:48:59.426,0.0007662769523891,-22.959802629587
2025-06-04 15:48:59.433,0.0007283949710202,-23.84849618928936
2025-06-04 15:48:59.441,0.0007148124742023,-24.647885066151424
2025-06-04 15:48:59.449,0.0007260879659577,-25.343365636233077
2025-06-04 15:48:59.457,0.0007621466263925,-25.92276180166438
2025-06-04 15:48:59.465,0.0008222962821725,-26.37663183702713
2025-06-04 15:48:59.473,0.0009052636753708,-26.698447859220952
2025-06-04 15:48:59.480,0.0010092487479754,-26.884651971716654
2025-06-04 15:48:59.488,0.0011319938072038,-26.93459815538897
2025-06-04 15:48:59.496,0.0012708638672085,-26.85039317464625
2025-06-04 15:48:59.504,0.0014229343972767,-26.636653017478185
2025-06-04 15:48:59.512,0.0015850830766367,-26.30019363209577
2025-06-04 15:48:59.519,0.0017540826381226,-25.84967595726997
2025-06-04 15:48:59.527,0.0019266922339571,-25.295225512365175
2025-06-04 15:48:59.535,0.0020997450003647,-24.6480461990724
2025-06-04 15:48:59.543,0.0022702297245673,-23.92004657885567
2025-06-04 15:48:59.551,0.0024353647002398,-23.123494849882523
2025-06-04 15:48:59.558,0.0025926619790303,-22.270716177448808
2025-06-04 15:48:59.566,0.0027399804044764,-21.37384304698294
2025-06-04 15:48:59.574,0.0028755661592647,-20.44462601062654
2025-06-04 15:48:59.582,0.002998080011663,-19.49430868148491
2025-06-04 15:48:59.590,0.0031066108636712,-18.533567191662332
2025-06-04 15:48:59.598,0.0032006755070703,-17.57251068295487
2025-06-04 15:48:59.605,0.0032802047548608,-16.620735874787258
2025-06-04 15:48:59.613,0.0033455164779451,-15.6874255077929
2025-06-04 15:48:59.621,0.0033972765944775,-14.781477669977852
2025-06-04 15:48:59.629,0.0034364496352955,-13.911650864637394
2025-06-04 15:48:59.637,0.0034642410274642,-13.086708356866202
2025-06-04 15:48:59.644,0.0034820336542057,-12.315544987162143
2025-06-04 15:48:59.652,0.0034913214991742,-11.60728035761582
2025-06-04 15:48:59.660,0.0034936431688085,-10.971304097117008
2025-06-04 15:48:59.668,0.0034905178208119,-10.41726173668409
2025-06-04 15:48:59.676,0.003483385642015,-9.95497343705962
2025-06-04 15:48:59.683,0.0034735546064288,-9.594282201999144
2025-06-04 15:48:59.691,0.0034621548083956,-9.344833022074823
2025-06-04 15:48:59.699,0.0034501012252708,-9.215789330741172
2025-06-04 15:48:59.707,0.0034380653790561,-9.215497909776536
2025-06-04 15:48:59.715,0.0034264560715308,-9.3511176562151
2025-06-04 15:48:59.723,0.0034154091657647,-9.628231142896022
2025-06-04 15:48:59.730,0.0034047862768101,-10.050460431037823
2025-06-04 15:48:59.738,0.003394182183206,-10.619109936818512
2025-06-04 15:48:59.746,0.003382940716512,-11.332859193340283
2025-06-04 15:48:59.754,0.0033701787931378,-12.18752704369378
2025-06-04 15:48:59.762,0.0033548181145303,-13.175926191316137
2025-06-04 15:48:59.769,0.0033356238738498,-14.28782323736704
2025-06-04 15:48:59.777,0.003311249589344,-15.510014536416788
2025-06-04 15:48:59.785,0.0032802869586603,-16.826522647091902
2025-06-04 15:48:59.793,0.0032413193535533,-18.21891214003905
2025-06-04 15:48:59.801,0.0031929772189996,-19.66671738306812
2025-06-04 15:48:59.808,0.0031339933172842,-21.147968995945185
2025-06-04 15:48:59.816,0.0030632556386516,-22.639800284284185
2025-06-04 15:48:59.824,0.0029798558913093,-24.11911041572288
2025-06-04 15:48:59.832,0.0028831316289752,-25.56325763126416
2025-06-04 15:48:59.840,0.0027727002036938,-26.95075356559468
2025-06-04 15:48:59.848,0.0026484829548253,-28.26192888769206
2025-06-04 15:48:59.855,0.0025107184480222,-29.47954100269435
2025-06-04 15:48:59.863,0.0023599640639462,-30.58929644956171
2025-06-04 15:48:59.871,0.0021970856634775,-31.580263801198114
2025-06-04 15:48:59.879,0.0020232354459087,-32.445157187570715
2025-06-04 15:48:59.887,0.0018398186209141,-33.18047583632305
2025-06-04 15:48:59.894,0.0016484501893382,-33.786491040837745
2025-06-04 15:48:59.902,0.0014509038103212,-34.267078472600794
2025-06-04 15:48:59.910,0.0012490551786088,-34.62940047585086
2025-06-04 15:48:59.918,0.0010448224321791,-34.88344962272336
2025-06-04 15:48:59.926,0.0008401059254314,-35.041471069366224
2025-06-04 15:48:59.933,0.0006367293947561,-35.11728685649677
2025-06-04 15:48:59.941,0.0004363842601407,-35.12554998903913
2025-06-04 15:48:59.949,0.0002405786345376,-35.08095969245838
2025-06-04 15:48:59.957,5.059255035280844e-05,-34.997471503259845
2025-06-04 15:48:59.965,-0.0001325591240311,-34.887536680548834
2025-06-04 15:48:59.973,-0.0003081547291646,-34.76140475221245
2025-06-04 15:48:59.980,-0.0004757837435351,-34.62652082193798
2025-06-04 15:48:59.988,-0.0006353538956812,-34.487045614417774
2025-06-04 15:48:59.996,-0.0007870871473264,-34.34352124233087
2025-06-04 15:49:00.004,-0.0009315045931249,-34.19269952159526
2025-06-04 15:49:00.012,-0.0010694006982934,-34.0275425882628
2025-06-04 15:49:00.019,-0.0012018077591822,-33.837397891796705
2025-06-04 15:49:00.027,-0.0013299519986524,-33.60834172016984
2025-06-04 15:49:00.035,-0.0014552031729828,-33.32367765510237
2025-06-04 15:49:00.043,-0.0015790198673525,-32.96456917845562
2025-06-04 15:49:00.051,-0.0017028927914143,-32.51077945698099
2025-06-04 15:49:00.058,-0.0018282884063654,-31.94148647937488
2025-06-04 15:49:00.066,-0.0019565951575612,-31.236138484895445
2025-06-04 15:49:00.074,-0.0020890744630949,-30.375313180055286
2025-06-04 15:49:00.082,-0.0022268184031511,-29.34154464437093
2025-06-04 15:49:00.090,-0.0023707157309185,-28.120084012968142
2025-06-04 15:49:00.098,-0.0025214273709168,-26.699563816555223
2025-06-04 15:49:00.105,-0.0026793720291288,-25.072540989271037
2025-06-04 15:49:00.113,-0.002844721979018,-23.235899690149008
2025-06-04 15:49:00.121,-0.0030174085542647,-21.1911018604753
2025-06-04 15:49:00.129,-0.0031971364009906,-18.944280486541743
2025-06-04 15:49:00.137,-0.0033834051613192,-16.506177492191476
2025-06-04 15:49:00.144,-0.0035755370362336,-13.89193470064527
2025-06-04 15:49:00.152,-0.0037727086418648,-11.120752058278638
2025-06-04 15:49:00.160,-0.0039739856970808,-8.215432023110024
2025-06-04 15:49:00.168,-0.0041783592758341,-5.201832467679576
2025-06-04 15:49:00.176,-0.0043847825165101,-2.108252491946016
2025-06-04 15:49:00.183,-0.0045922067235598,1.0352238528983446
2025-06-04 15:49:00.191,-0.0047996157530174,4.197401701273777
2025-06-04 15:49:00.199,-0.0050060575682193,7.346645134379345
2025-06-04 15:49:00.207,-0.0052106719619388,10.451523303462777
2025-06-04 15:49:00.215,-0.0054127135951137,13.481417312567764
2025-06-04 15:49:00.223,-0.005611569559147,16.40707626938653
2025-06-04 15:49:00.230,-0.0058067705675051,19.201114927411528
2025-06-04 15:49:00.238,-0.0059979947037177,21.83844902384346
2025-06-04 15:49:00.246,-0.0061850625409453,24.29666747224637
2025-06-04 15:49:00.254,-0.0063679224865752,26.55634277974985
2025-06-04 15:49:00.262,-0.0065466254189431,28.601282312795163
2025-06-04 15:49:00.269,-0.0067212881396245,30.41872333838512
2025-06-04 15:49:00.277,-0.0068920459544375,31.999474240275664
2025-06-04 15:49:00.285,-0.0070589957951285,33.33800317021175
2025-06-04 15:49:00.293,-0.0072221325255019,34.43247393121111
2025-06-04 15:49:00.301,-0.0073812822205906,35.28472742248267
2025-06-04 15:49:00.308,-0.0075360370902428,35.90020581182341
2025-06-04 15:49:00.316,-0.0076856972045324,36.287815999988105
2025-06-04 15:49:00.324,-0.0078292241783851,36.45972908696188
2025-06-04 15:49:00.332,-0.0079652114944923,36.43111353875383
2025-06-04 15:49:00.340,-0.0080918752862619,36.21980158622242
2025-06-04 15:49:00.348,-0.0082070682838663,35.84589096794473
2025-06-04 15:49:00.355,-0.0083083183516297,35.331287270574315
2025-06-04 15:49:00.363,-0.0083928917143056,34.69919556372185
2025-06-04 15:49:00.371,-0.008457879638031,33.9735734651775
2025-06-04 15:49:00.379,-0.0085003059910536,33.17856087677865
2025-06-04 15:49:00.387,-0.0085172518031725,32.33790407827374
2025-06-04 15:49:00.394,-0.008505991856448,31.47439337437632
2025-06-04 15:49:00.402,-0.0084641376702087,30.60933385558841
2025-06-04 15:49:00.410,-0.0083897810047136,29.762067960675367
2025-06-04 15:49:00.418,-0.0082816320414007,28.94956644285463
2025-06-04 15:49:00.426,-0.0081391465555645,28.1861011826973
2025-06-04 15:49:00.434,-0.0079626366659402,27.483009293871923
2025-06-04 15:49:00.441,-0.0077533601867466,26.84855344478969
2025-06-04 15:49:00.449,-0.0075135842103207,26.28787864266579
2025-06-04 15:49:00.457,-0.0072466191855884,25.80306129919861
2025-06-04 15:49:00.465,-0.0069568203082975,25.393242592110678
2025-06-04 15:49:00.473,-0.0066495535206135,25.054835235999377
2025-06-04 15:49:00.480,-0.0063311239468241,24.78179093635442
2025-06-04 15:49:00.488,-0.0060086652226661,24.56591504914388
2025-06-04 15:49:00.496,-0.0056899888645862,24.397215211682774
2025-06-04 15:49:00.504,-0.0053833935760782,24.264271755689546
2025-06-04 15:49:00.512,-0.0050974353319449,24.15461930067545
2025-06-04 15:49:00.519,-0.0048406603565938,24.05513077002693
2025-06-04 15:49:00.527,-0.0046213047305358,23.952396904677368
2025-06-04 15:49:00.535,-0.0044469662238182,23.833095949417736
2025-06-04 15:49:00.543,-0.0043242559401884,23.684349401071326
2025-06-04 15:49:00.551,-0.004258439304381,23.49406045854549
2025-06-04 15:49:00.559,-0.0042530776705823,23.25123209852951
2025-06-04 15:49:00.566,-0.0043096833049665,22.94626157375712
2025-06-04 15:49:00.574,-0.0044274017216798,22.571207692775047
2025-06-04 15:49:00.582,-0.0046027362757192,22.120026619717677
2025-06-04 15:49:00.590,-0.004829330356484,21.588771274993064
2025-06-04 15:49:00.598,-0.0050978223323387,20.97574887063795
2025-06-04 15:49:00.605,-0.0053957875709603,20.281630812185245
2025-06-04 15:49:00.613,-0.0057077804722073,19.50950925104084
2025-06-04 15:49:00.621,-0.0060154874926463,18.66489505137833
2025-06-04 15:49:00.629,-0.0062979995118923,17.755652878869515
2025-06-04 15:49:00.637,-0.0065322084982863,16.791870524181622
2025-06-04 15:49:00.644,-0.0066933293126539,15.78566140694169
2025-06-04 15:49:00.652,-0.0067555428408656,14.750901395242987
2025-06-04 15:49:00.660,-0.0066927516980715,13.702903515064218
2025-06-04 15:49:00.668,-0.0064794346014892,12.658036677205155
2025-06-04 15:49:00.676,-0.006091580181343,11.633297065526856
2025-06-04 15:49:00.684,-0.0055076756246084,10.645843158777389
2025-06-04 15:49:00.691,-0.004709720409365,9.712507361034582
2025-06-04 15:49:00.699,-0.003684230756955,8.849298776623018
2025-06-04 15:49:00.707,-0.0024231965033213,8.070912695955728
2025-06-04 15:49:00.715,-0.0009249491308734,7.390262800171556
2025-06-04 15:49:00.723,0.0008051019260072,6.818051913768923
2025-06-04 15:49:00.730,0.0027539075381326,6.3623963324498085
2025-06-04 15:49:00.738,0.0049004325834905,6.028517354115706
2025-06-04 15:49:00.746,0.0072155619926742,5.818511699852797
2025-06-04 15:49:00.754,0.0096622899175318,5.731210109650947
2025-06-04 15:49:00.762,0.0121962144485037,5.762130633072287
2025-06-04 15:49:00.769,0.0147663497006268,5.903530114610541
2025-06-04 15:49:00.777,0.0173162543767274,6.144554201622944
2025-06-04 15:49:00.785,0.0197854614388479,6.471482975665501
2025-06-04 15:49:00.793,0.0221111778637247,6.868066113032703
2025-06-04 15:49:00.801,0.0242302074789983,7.315938399746318
2025-06-04 15:49:00.809,0.026081034522607,7.795103544279597
2025-06-04 15:49:00.816,0.0276059916854506,8.284471639437157
2025-06-04 15:49:00.824,0.0287534249290577,8.762433423897953
2025-06-04 15:49:00.832,0.0294797597260511,9.207452790903943
2025-06-04 15:49:00.840,0.0297513711056246,9.598657890934271
2025-06-04 15:49:00.848,0.0295461637666939,9.916410766644328
2025-06-04 15:49:00.855,0.0288547782105388,10.14283580394491
2025-06-04 15:49:00.863,0.0276813534893432,10.262288408739138
2025-06-04 15:49:00.871,0.0260437959651208,10.261747212972352
2025-06-04 15:49:00.879,0.0239735257203561,10.13111573192517
2025-06-04 15:49:00.887,0.021514697114785,9.863422665515134
2025-06-04 15:49:00.894,0.0187229161704804,9.454913862718453
2025-06-04 15:49:00.902,0.0156635031581505,8.90503322472027
2025-06-04 15:49:00.910,0.0124093718848796,8.216294351583816
2025-06-04 15:49:00.918,0.0090386160716376,7.394049348725048
2025-06-04 15:49:00.926,0.0056319068898276,6.446165683881157
2025-06-04 15:49:00.934,0.0022698137178598,5.382626083316224
2025-06-04 15:49:00.941,-0.000969837907033,4.215069933163504
2025-06-04 15:49:00.949,-0.0040144617358158,2.9562972762691926
2025-06-04 15:49:00.957,-0.0067989612658695,1.6197580666062534
2025-06-04 15:49:00.965,-0.009267653025105,0.2190497122329489
2025-06-04 15:49:00.973,-0.011375799354431,-1.2325549788558912
2025-06-04 15:49:00.980,-0.0130907063975657,-2.722529536991804
2025-06-04 15:49:00.988,-0.0143923611185787,-4.239448727920743
2025-06-04 15:49:00.996,-0.0152735983903362,-5.773264454098089
2025-06-04 15:49:01.004,-0.0157398056355298,-7.315495556394544
2025-06-04 15:49:01.012,-0.0158081881321809,-8.859329763213822
2025-06-04 15:49:01.019,-0.0155066333301387,-10.39964126312372
2025-06-04 15:49:01.027,-0.0148722280374519,-11.932932064628426
2025-06-04 15:49:01.035,-0.0139494978651439,-13.457209080200274
2025-06-04 15:49:01.043,-0.0127884519174679,-14.97181144920634
2025-06-04 15:49:01.051,-0.0114425245727736,-16.477203836653292
2025-06-04 15:49:01.059,-0.009966508364068,-17.9747512890887
2025-06-04 15:49:01.066,-0.0084145673565297,-19.466489805473227
2025-06-04 15:49:01.074,-0.0068384104653076,-20.95490431321825
2025-06-04 15:49:01.082,-0.0052856907276936,-22.44272253428524
2025-06-04 15:49:01.090,-0.0037986811287119,-23.93272963387576
2025-06-04 15:49:01.098,-0.0024132611694525,-25.42760492411247
2025-06-04 15:49:01.105,-0.0011582317544316,-26.92977858801589
2025-06-04 15:49:01.113,-5.495998292258251e-05,-28.44130369519407
2025-06-04 15:49:01.121,0.0008826591434025,-29.963736937746862
2025-06-04 15:49:01.129,0.001647949657785,-31.498020677795083
2025-06-04 15:49:01.137,0.002240946034773,-33.04435912525107
2025-06-04 15:49:01.144,0.0026676727118164,-34.60208271592536
2025-06-04 15:49:01.152,0.0029392607226946,-36.16949690616302
2025-06-04 15:49:01.160,0.0030709533351313,-37.74371443744665
2025-06-04 15:49:01.168,0.0030810530429466,-39.320473393435016
2025-06-04 15:49:01.176,0.0029898603150135,-40.89394677519438
2025-06-04 15:49:01.184,0.0028186502861381,-42.456552541204616
2025-06-04 15:49:01.191,0.0025887273878353,-43.9987757856582
2025-06-04 15:49:01.199,0.0023205902035721,-45.509016686581525
2025-06-04 15:49:01.207,0.0020332301660329,-46.9734788356825
2025-06-04 15:49:01.215,0.0017435787488107,-48.37611244247381
2025-06-04 15:49:01.223,0.00146610915147,-49.69862566586948
2025-06-04 15:49:01.230,0.0012125906057048,-50.92057506180274
2025-06-04 15:49:01.238,0.0009919866814618,-52.019543046852206
2025-06-04 15:49:01.246,0.0008104835691981,-52.97140662952721
2025-06-04 15:49:01.254,0.0006716303569495,-53.75069772323899
2025-06-04 15:49:01.262,0.0005765707949285,-54.3310513668759
2025-06-04 15:49:01.269,0.0005243448247205,-54.68573433158397
2025-06-04 15:49:01.277,0.0005122380244353,-54.78824302539406
2025-06-04 15:49:01.285,0.000536157841986,-54.6129564115472
2025-06-04 15:49:01.293,0.0005910168923424,-54.135826885126434
2025-06-04 15:49:01.301,0.0006711056211522,-53.33508974176928
2025-06-04 15:49:01.309,0.0007704392419528,-52.19197006263942
2025-06-04 15:49:01.316,0.0008830668864529,-50.69136459295152
2025-06-04 15:49:01.324,0.0010033340991058,-48.82247559303797
2025-06-04 15:49:01.332,0.00112609292235,-46.57937379308359
2025-06-04 15:49:01.340,0.0012468567950935,-43.96146858446719
2025-06-04 15:49:01.348,0.0013619003719461,-40.973865505307984
2025-06-04 15:49:01.355,0.0014683071250938,-37.62759395084849
2025-06-04 15:49:01.363,0.0015639700180923,-33.93969182242686
2025-06-04 15:49:01.371,0.0016475524113584,-29.933138411734507
2025-06-04 15:49:01.379,0.0017184175507167,-25.63663202119905
2025-06-04 15:49:01.387,0.0017765355027777,-21.0842144139054
2025-06-04 15:49:01.394,0.0018223762739656,-16.314749897872233
2025-06-04 15:49:01.402,0.0018567971288314,-11.371272389650589
2025-06-04 15:49:01.410,0.0018809309259055,-6.300218878495289
2025-06-04 15:49:01.418,0.0018960808393886,-1.1505720506653894
2025-06-04 15:49:01.426,0.001903625361941,4.027061801983601
2025-06-04 15:49:01.434,0.0019049361232107,9.181411256782138
2025-06-04 15:49:01.441,0.0019013098795074,14.26150535347631
2025-06-04 15:49:01.449,0.0018939150861473,19.21761742856204
2025-06-04 15:49:01.457,0.0018837527660999,24.002159979936557
2025-06-04 15:49:01.465,0.001871630888039,28.570506164625517
2025-06-04 15:49:01.473,0.0018581511118532,32.88171727883075
2025-06-04 15:49:01.480,0.001843706529675,36.89915997638647
2025-06-04 15:49:01.488,0.0018284889054411,40.5910017504035
2025-06-04 15:49:01.496,0.0018125038558316,43.93057804143357
2025-06-04 15:49:01.504,0.0017955923993938,46.89662898289118
2025-06-04 15:49:01.512,0.0017774573551885,49.47340803532788
2025-06-04 15:49:01.519,0.0017576932164334,51.65066843389744
2025-06-04 15:49:01.527,0.0017358183050149,53.42353637547419
2025-06-04 15:49:01.535,0.0017113081272454,54.79228216258031
2025-06-04 15:49:01.543,0.0016836288281218,55.76200211954603
2025-06-04 15:49:01.551,0.0016522694904187,56.34222507229742
2025-06-04 15:49:01.559,0.0016167718373101,56.546457642614456
2025-06-04 15:49:01.566,0.0015767557987483,56.39168267272179
2025-06-04 15:49:01.574,0.0015319394893125,55.89782488625926
2025-06-04 15:49:01.582,0.0014821524556606,55.08719750949818
2025-06-04 15:49:01.590,0.0014273415607033,53.983943097912494
2025-06-04 15:49:01.598,0.0013675694941662,52.6134812814135
2025-06-04 15:49:01.605,0.0013030065195119,51.001975565636165
2025-06-04 15:49:01.613,0.0012339165965116,49.175830682815686
2025-06-04 15:49:01.621,0.0011606394198764,47.16123122518788
2025-06-04 15:49:01.629,0.001083570175934,44.98373135614426
2025-06-04 15:49:01.637,0.0010031389184009,42.66790422311727
2025-06-04 15:49:01.644,0.000919791361618,40.23705825028718
2025-06-04 15:49:01.652,0.0008339725740477,37.71302574815056
2025-06-04 15:49:01.660,0.000746114575941,35.11602724210215
2025-06-04 15:49:01.668,0.0006566282791862,32.464612617851095
2025-06-04 15:49:01.676,0.0005658996171576,29.77567765691224
2025-06-04 15:49:01.684,0.0004742891662822,27.06455186517121
2025-06-04 15:49:01.691,0.0003821341682844,24.345150779468835
2025-06-04 15:49:01.699,0.0002897517418917,21.63018328851599
2025-06-04 15:49:01.707,0.0001974422479709,18.931402057810832
2025-06-04 15:49:01.715,0.0001054920930615,16.25988304551053
2025-06-04 15:49:01.723,1.4175498282419336e-05,13.626318478093294
2025-06-04 15:49:01.730,-7.62451584385518e-05,11.04130664772687
2025-06-04 15:49:01.738,-0.0001655207760197,8.515621599340655
2025-06-04 15:49:01.746,-0.0002534189384254,6.060446263927208
2025-06-04 15:49:01.754,-0.0003397292304321,3.687553897158856
2025-06-04 15:49:01.762,-0.0004242701018227,1.409424788442669
2025-06-04 15:49:01.769,-0.0005068966653078,-0.7607119417569755
2025-06-04 15:49:01.777,-0.0005875086083702,-2.8089181457029304
2025-06-04 15:49:01.785,-0.0006660572730955,-4.720670765970085
2025-06-04 15:49:01.793,-0.0007425509584076,-6.481068718673282
2025-06-04 15:49:01.801,-0.0008170576208727,-8.075116680346893
2025-06-04 15:49:01.809,-0.0008897043412392,-9.488075794505276
2025-06-04 15:49:01.816,-0.0009606731727159,-10.70586762011938
2025-06-04 15:49:01.824,-0.0010301933178977,-11.715514585770231
2025-06-04 15:49:01.832,-0.0010985299456935,-12.50559795533344
2025-06-04 15:49:01.840,-0.0011659702218818,-13.066712972206023
2025-06-04 15:49:01.848,-0.001232807208788,-13.39190049836911
2025-06-04 15:49:01.855,-0.0012993222804871,-13.477035119358517
2025-06-04 15:49:01.863,-0.0013657667567684,-13.321151313993845
2025-06-04 15:49:01.871,-0.0014323436014883,-12.926691811710096
2025-06-04 15:49:01.879,-0.0014991901081792,-12.299665563180907
2025-06-04 15:49:01.887,-0.0015663623806175,-11.44970667499091
2025-06-04 15:49:01.894,-0.0016338221598696,-10.390030015408662
2025-06-04 15:49:01.902,-0.0017014263266335,-9.137283771493864
2025-06-04 15:49:01.910,-0.0017689193644477,-7.711303802743276
2025-06-04 15:49:01.918,-0.0018359292047124,-6.1347789653035845
2025-06-04 15:49:01.926,-0.0019019670302269,-4.432840445032375
2025-06-04 15:49:01.934,-0.0019664316256017,-2.6325913117200104
2025-06-04 15:49:01.941,-0.0020286187219131,-0.7625947799117108
2025-06-04 15:49:01.949,-0.0020877355995305,1.1476591389629207
2025-06-04 15:49:01.957,-0.0021429210510469,3.0682888900286445
2025-06-04 15:49:01.965,-0.0021932706003607,4.969540008127977
2025-06-04 15:49:01.973,-0.0022378665129581,6.822270884766254
2025-06-04 15:49:01.980,-0.0022758116247439,8.59839260629335
2025-06-04 15:49:01.988,-0.0023062655225145,10.271253604034737
2025-06-04 15:49:01.996,-0.0023284812679433,11.81596394818136
2025-06-04 15:49:02.004,-0.002341840664447,13.20965815603762
2025-06-04 15:49:02.012,-0.0023458859712516,14.431699057217624
2025-06-04 15:49:02.019,-0.0023403460039775,15.463828298845351
2025-06-04 15:49:02.027,-0.0023251548144481,16.290271286142822
2025-06-04 15:49:02.035,-0.0023004616365939,16.8978056237828
2025-06-04 15:49:02.043,-0.0022666314380119,17.275802425492547
2025-06-04 15:49:02.051,-0.0022242361296614,17.41624925191309
2025-06-04 15:49:02.059,-0.002174037202037,17.313762048338567
2025-06-04 15:49:02.066,-0.0021169611906302,16.965591466214093
2025-06-04 15:49:02.074,-0.0020540697857906,16.37162658034821
2025-06-04 15:49:02.082,-0.0019865265127152,15.53439648715842
2025-06-04 15:49:02.090,-0.0019155617866161,14.45906781439546
2025-06-04 15:49:02.098,-0.0018424379275138,13.153434000235617
2025-06-04 15:49:02.105,-0.0017684154677113,11.627890494306182
2025-06-04 15:49:02.113,-0.0016947218176459,9.89538894390524
2025-06-04 15:49:02.121,-0.0016225230808245,7.97136305515982
2025-06-04 15:49:02.129,-0.001552899506103,5.873619200239512
2025-06-04 15:49:02.137,-0.0014868246940672,3.622185950635794
2025-06-04 15:49:02.144,-0.0014251482526357,1.239118460866543
2025-06-04 15:49:02.152,-0.0013685812417833,-1.251744140997105
2025-06-04 15:49:02.160,-0.0013176836146432,-3.825067668923265
2025-06-04 15:49:02.168,-0.0012728530508232,-6.454354796979085
2025-06-04 15:49:02.176,-0.0012343150444472,-9.112314189521602
2025-06-04 15:49:02.184,-0.001202114676409,-11.771258892171147
2025-06-04 15:49:02.191,-0.0011761109801138,-14.40352435030224
2025-06-04 15:49:02.199,-0.0011559751092442,-16.981895316052306
2025-06-04 15:49:02.207,-0.0011411936070621,-19.480030413904863
2025-06-04 15:49:02.215,-0.001131077944706,-21.872873244340653
2025-06-04 15:49:02.223,-0.0011247811612628,-24.13703955468785
2025-06-04 15:49:02.230,-0.0011213219560599,-26.251171098565795
2025-06-04 15:49:02.238,-0.0011196159876726,-28.196248216803266
2025-06-04 15:49:02.246,-0.0011185134421467,-29.955854768395625
2025-06-04 15:49:02.254,-0.0011168411994165,-31.51639068712569
2025-06-04 15:49:02.262,-0.0011134472577705,-32.86722901940995
2025-06-04 15:49:02.269,-0.0011072446251004,-34.00081571844536
2025-06-04 15:49:02.277,-0.00109725182131,-34.91271166828304
2025-06-04 15:49:02.285,-0.0010826275288549,-35.60157736264109
2025-06-04 15:49:02.293,-0.0010626976555144,-36.06910137255561
2025-06-04 15:49:02.301,-0.0010369738838633,-36.31987424105762
2025-06-04 15:49:02.309,-0.0010051634656859,-36.36120981115415
2025-06-04 15:49:02.316,-0.0009671705182315,-36.20291632588712
2025-06-04 15:49:02.324,-0.0009230894497002,-35.85702005893872
2025-06-04 15:49:02.332,-0.0008731914514738,-35.33744486636786
2025-06-04 15:49:02.340,-0.0008179052662724,-34.65965199354451
2025-06-04 15:49:02.348,-0.0007577936493736,-33.84024577254715
2025-06-04 15:49:02.355,-0.0006935270340288,-32.89655248408235
2025-06-04 15:49:02.363,-0.0006258558616652,-31.846181545756405
2025-06-04 15:49:02.371,-0.0005555828485725,-30.70658017335092
2025-06-04 15:49:02.379,-0.0004835361547883,-29.49459454055465
2025-06-04 15:49:02.387,-0.0004105440654117,-28.22605200192938
2025-06-04 15:49:02.394,-0.0003374115278094,-26.915379907317625
2025-06-04 15:49:02.402,-0.0002648987955585,-25.57527671357697
2025-06-04 15:49:02.410,-0.0001937024389559,-24.21645033577612
2025-06-04 15:49:02.418,-0.0001244389722573,-22.84743689578451
2025-06-04 15:49:02.426,-5.76312957718736e-05,-21.47451023272758
2025-06-04 15:49:02.434,6.301880352610998e-06,-20.101688841209576
2025-06-04 15:49:02.441,6.705341270210045e-05,-18.730842491471204
2025-06-04 15:49:02.449,0.0001244315780599,-17.361895929657525
2025-06-04 15:49:02.457,0.0001783600476005,-15.99312208016595
2025-06-04 15:49:02.465,0.000228873747673,-14.62151241894211
2025-06-04 15:49:02.473,0.0002761105810479,-13.243207979521545
2025-06-04 15:49:02.480,0.0003202991831443,-11.853971065302051
2025-06-04 15:49:02.488,0.0003617431006101,-10.44967537880285
2025-06-04 15:49:02.496,0.0004008020665169,-9.026791077342212
2025-06-04 15:49:02.504,0.0004378713960804,-7.582841289132696
2025-06-04 15:49:02.512,0.0004733608496802,-6.116807867351224
2025-06-04 15:49:02.519,0.0005076744683681,-4.62946654416991
2025-06-04 15:49:02.527,0.0005411927541462,-3.123635026196192
2025-06-04 15:49:02.535,0.0005742581499682,-1.6043217430067849
2025-06-04 15:49:02.543,0.0006071642399303,-0.0787676739957584
2025-06-04 15:49:02.551,0.0006401486094812,1.4436213360763317
2025-06-04 15:49:02.559,0.000673388928921,2.951449381486435
2025-06-04 15:49:02.566,0.0007070015323816,4.431605312489964
2025-06-04 15:49:02.574,0.0007410415743594,5.869626234289395
2025-06-04 15:49:02.582,0.0007755038273502,7.250134808561158
2025-06-04 15:49:02.590,0.0008103233852311,8.557332727136506
2025-06-04 15:49:02.598,0.000845375900853,9.775530836876262
2025-06-04 15:49:02.605,0.0008804773961309,10.889695370016057
2025-06-04 15:49:02.613,0.0009153840740035,11.885989536708998
2025-06-04 15:49:02.621,0.0009497929289314,12.752290299890223
2025-06-04 15:49:02.629,0.0009833442649868,13.478661396727668
2025-06-04 15:49:02.637,0.0010156273728927,14.057765509622788
2025-06-04 15:49:02.644,0.0010461904324502,14.48520083398786
2025-06-04 15:49:02.652,0.0010745551305005,14.759750049127682
2025-06-04 15:49:02.660,0.001100235650406,14.883532779967174
2025-06-04 15:49:02.668,0.0011227608856399,14.862055946242776
2025-06-04 15:49:02.676,0.0011416982399862,14.704159835416474
2025-06-04 15:49:02.684,0.0011566772994096,14.42186120818153
2025-06-04 15:49:02.691,0.0011674118546818,14.030098151347342
2025-06-04 15:49:02.699,0.0011737189881873,13.546384628716853
2025-06-04 15:49:02.707,0.0011755341047772,12.990385637956733
2025-06-04 15:49:02.715,0.0011729209469249,12.38342644825164
2025-06-04 15:49:02.723,0.0011660758999853,11.747951458438145
2025-06-04 15:49:02.730,0.0011553262859089,11.106949676881731
2025-06-04 15:49:02.738,0.0011411227571386,10.483364604809854
2025-06-04 15:49:02.746,0.0011240262028366,9.89950636633838
2025-06-04 15:49:02.754,0.0011046897340658,9.376483285329098
2025-06-04 15:49:02.762,0.0010838363919398,8.933668830410465
2025-06-04 15:49:02.769,0.0010622333049495,8.588218051142663
2025-06-04 15:49:02.777,0.0010406631680385,8.354645459088008
2025-06-04 15:49:02.785,0.0010198941715401,8.244473930321634
2025-06-04 15:49:02.793,0.00100064986396,8.265961780225785
2025-06-04 15:49:02.801,0.0009835807833722,8.423912827933844
2025-06-04 15:49:02.809,0.0009692398506016,8.71957213227962
2025-06-04 15:49:02.816,0.0009580632645092,9.150608199282315
2025-06-04 15:49:02.824,0.0009503578947394,9.711180832292031
2025-06-04 15:49:02.832,0.0009462952000506,10.392092369333229
2025-06-04 15:49:02.840,0.000945910970837,11.181018743672782
2025-06-04 15:49:02.848,0.0009491099006344,12.062815516005315
2025-06-04 15:49:02.855,0.0009556739813742,13.019892672309126
2025-06-04 15:49:02.863,0.0009652738011882,14.032650503636244
2025-06-04 15:49:02.871,0.0009774819428405,15.079967271720944
2025-06-04 15:49:02.879,0.0009917878347066,16.139727656638442
2025-06-04 15:49:02.887,0.0010076135879138,17.189379265355797
2025-06-04 15:49:02.894,0.0010243305448372,18.206502875093545
2025-06-04 15:49:02.902,0.0010412764210593,19.16938074011707
2025-06-04 15:49:02.910,0.0010577729649952,20.057546363530847
2025-06-04 15:49:02.918,0.0010731439438114,20.85229878065452
2025-06-04 15:49:02.926,0.0010867330944841,21.53716474784437
2025-06-04 15:49:02.934,0.0010979216469139,22.098293368712163
2025-06-04 15:49:02.941,0.0011061451743838,22.524769651790702
2025-06-04 15:49:02.949,0.0011109096552931,22.80883624980177
2025-06-04 15:49:02.957,0.0011118065190006,22.946016083815607
2025-06-04 15:49:02.965,0.0011085261024661,22.935132541868164
2025-06-04 15:49:02.973,0.0011008685710123,22.778228236728843
2025-06-04 15:49:02.980,0.0010887511763356,22.48038764210347
2025-06-04 15:49:02.988,0.0010722108334298,22.049473010264936
2025-06-04 15:49:02.996,0.0010514013515142,21.495786525675843
2025-06-04 15:49:03.004,0.0010265851404917,20.83167442754703
2025-06-04 15:49:03.012,0.0009981197332263,20.071090665323727
2025-06-04 15:49:03.019,0.0009664399345899,19.22913844526286
2025-06-04 15:49:03.027,0.0009320367358666,18.321607784616663
2025-06-04 15:49:03.035,0.0008954342385834,17.364525998345755
2025-06-04 15:49:03.043,0.000857165745853,16.373736056327992
2025-06-04 15:49:03.051,0.0008177500517873,15.364515167094746
2025-06-04 15:49:03.059,0.0007776689141069,14.351242988728604
2025-06-04 15:49:03.066,0.0007373466901228,13.347125759021925
2025-06-04 15:49:03.074,0.0006971330109882,12.3639795771069
2025-06-04 15:49:03.082,0.0006572891222425,11.412073229184733
2025-06-04 15:49:03.090,0.0006179782545949,10.500028466357636
2025-06-04 15:49:03.098,0.0005792602534248,9.634773607451288
2025-06-04 15:49:03.105,0.0005410906946713,8.821544808958986
2025-06-04 15:49:03.113,0.000503324725555,8.063928335772648
2025-06-04 15:49:03.121,0.0004657257831903,7.3639366649153635
2025-06-04 15:49:03.129,0.0004279791550434,6.722111216114021
2025-06-04 15:49:03.137,0.0003897100971921,6.13764486100757
2025-06-04 15:49:03.144,0.0003505059506484,5.608518034684522
2025-06-04 15:49:03.152,0.0003099414038258,5.131643168624716
2025-06-04 15:49:03.160,0.00026760574765,4.7030131903382815
2025-06-04 15:49:03.168,0.0002231306724496,4.317850899565622
2025-06-04 15:49:03.176,0.0001762169039087,3.970757042518703
2025-06-04 15:49:03.184,0.0001266578526198,3.655855777979068
2025-06-04 15:49:03.191,7.435853789043091e-05,3.366936888561181
2025-06-04 15:49:03.199,1.934833913952868e-05,3.097594486791109
2025-06-04 15:49:03.207,-3.821345157029628e-05,2.841362081664179
2025-06-04 15:49:03.215,-9.80398162148143e-05,2.59184372715836
2025-06-04 15:49:03.223,-0.0001597259242993,2.342840625228004
2025-06-04 15:49:03.230,-0.00022276613759,2.0884720880340915
2025-06-04 15:49:03.238,-0.0002865768297994,1.8232892830722809
2025-06-04 15:49:03.246,-0.000350523189135,1.5423797937491424
2025-06-04 15:49:03.254,-0.0004139478223695,1.2414608042919335
2025-06-04 15:49:03.262,-0.0004761989351725,0.9169587016890908
2025-06-04 15:49:03.270,-0.0005366561542103,0.5660730834051548
2025-06-04 15:49:03.277,-0.0005947526353663,0.1868235446225022
2025-06-04 15:49:03.285,-0.0006499928378057,-0.2219218522942719
2025-06-04 15:49:03.293,-0.0007019660024833,-0.6604369106530785
2025-06-04 15:49:03.301,-0.000750355737707,-1.1281462868949614
2025-06-04 15:49:03.309,-0.0007949461705174,-1.6236523887465832
2025-06-04 15:49:03.316,-0.0008356250366829,-2.144778919965346
2025-06-04 15:49:03.324,-0.0008723839665359,-2.688629389960172
2025-06-04 15:49:03.332,-0.0009053160583096,-3.2516586087445933
2025-06-04 15:49:03.340,-0.0009346106181532,-3.829755018130069
2025-06-04 15:49:03.348,-0.0009605447988305,-4.418331667925858
2025-06-04 15:49:03.355,-0.0009834718969339,-5.01242372202543
2025-06-04 15:49:03.363,-0.00100380627746,-5.606790557809802
2025-06-04 15:49:03.371,-0.0010220052086153,-6.196020779884349
2025-06-04 15:49:03.379,-0.0010385482066831,-6.77463877067135
2025-06-04 15:49:03.387,-0.0010539147509523,-7.337211696333786
2025-06-04 15:49:03.395,-0.0010685614704554,-7.878456118248121
2025-06-04 15:49:03.402,-0.0010829001926,-8.393343472998877
2025-06-04 15:49:03.410,-0.0010972785334653,-8.877203640649924
2025-06-04 15:49:03.418,-0.0011119648413975,-9.32582561066255
2025-06-04 15:49:03.426,-0.0011271391306212,-9.735553893108872
2025-06-04 15:49:03.434,-0.0011428911344282,-10.103378849864958
2025-06-04 15:49:03.441,-0.0011592258887125,-10.427018596140538
2025-06-04 15:49:03.449,-0.0011760765079957,-10.70498962154886
2025-06-04 15:49:03.457,-0.0011933231665043,-10.936662885589556
2025-06-04 15:49:03.465,-0.001210816780135,-11.12230194115548
2025-06-04 15:49:03.473,-0.0012284054766411,-11.26307971169843
2025-06-04 15:49:03.480,-0.0012459616291268,-11.361070954733911
2025-06-04 15:49:03.488,-0.0012634070509708,-11.419218213227817
2025-06-04 15:49:03.496,-0.0012807339651087,-11.4412701632785
2025-06-04 15:49:03.504,-0.0012980195960694,-11.431692631036135
2025-06-04 15:49:03.512,-0.0013154326894059,-11.395554047177963
2025-06-04 15:49:03.520,-0.0013332309220279,-11.33838858353771
2025-06-04 15:49:03.527,-0.0013517489763592,-11.26604152695419
2025-06-04 15:49:03.535,-0.0013713779106934,-11.18450246683745
2025-06-04 15:49:03.543,-0.0013925372597119,-11.099732517956134
2025-06-04 15:49:03.551,-0.0014156419795498,-11.01749202489673
2025-06-04 15:49:03.559,-0.0014410668567823,-10.94317500495136
2025-06-04 15:49:03.566,-0.0014691112385176,-10.881656035925742
2025-06-04 15:49:03.574,-0.0014999668552239,-10.83715447851242
2025-06-04 15:49:03.582,-0.001533691155604,-10.813119957561588
2025-06-04 15:49:03.590,-0.0015701880673094,-10.81214203431642
2025-06-04 15:49:03.598,-0.0016091975297201,-10.835886084312977
2025-06-04 15:49:03.605,-0.0016502945647845,-10.885056616193944
2025-06-04 15:49:03.613,-0.0016928980543952,-10.959388640809731
2025-06-04 15:49:03.621,-0.0017362887468336,-11.057667199986144
2025-06-04 15:49:03.629,-0.0017796353449774,-11.177774732688682
2025-06-04 15:49:03.637,-0.0018220269311198,-11.316765522244973
2025-06-04 15:49:03.645,-0.0018625095568915,-11.470965961697408
2025-06-04 15:49:03.652,-0.0019001246447654,-11.636098737408824
2025-06-04 15:49:03.660,-0.0019339469588438,-11.80742823036976
2025-06-04 15:49:03.668,-0.0019631202713134,-11.97992347165316
2025-06-04 15:49:03.676,-0.001986889315088,-12.148433903699136
2025-06-04 15:49:03.684,-0.0020046270088243,-12.307872072271657
2025-06-04 15:49:03.691,-0.0020158562528986,-12.453396321207336
2025-06-04 15:49:03.699,-0.0020202658997188,-12.58058572755916
2025-06-04 15:49:03.707,-0.002017720790061,-12.685599051541976
2025-06-04 15:49:03.715,-0.0020082659095741,-12.765309519380567
2025-06-04 15:49:03.723,-0.0019921247112664,-12.81740790015646
2025-06-04 15:49:03.730,-0.0019696915722288,-12.840467612266924
2025-06-04 15:49:03.738,-0.001941518321179,-12.833967466455103
2025-06-04 15:49:03.746,-0.0019082948043232,-12.79827002024458
2025-06-04 15:49:03.754,-0.0018708235484594,-12.734556223762242
2025-06-04 15:49:03.762,-0.001829988791721,-12.644719871875816
2025-06-04 15:49:03.770,-0.0017867205488339,-12.53122810234022
2025-06-04 15:49:03.777,-0.0017419549462683,-12.396956544173788
2025-06-04 15:49:03.785,-0.001696592680372,-12.245009492597704
2025-06-04 15:49:03.793,-0.0016514579170677,-12.078536482047149
2025-06-04 15:49:03.801,-0.0016072600999832,-11.90055673659232
2025-06-04 15:49:03.809,-0.0015645609553021,-11.713802178854817
2025-06-04 15:49:03.816,-0.0015237486007621,-11.52058805064688
2025-06-04 15:49:03.824,-0.0014850202029546,-11.322717900262557
2025-06-04 15:49:03.832,-0.0014483741330948,-11.121426939880577
2025-06-04 15:49:03.840,-0.0014136120875383,-10.917364819856664
2025-06-04 15:49:03.848,-0.001380351194237,-10.710615959750845
2025-06-04 15:49:03.855,-0.0013480456555783,-10.50075296007441
2025-06-04 15:49:03.863,-0.0013160168805723,-10.28691650227243
2025-06-04 15:49:03.871,-0.001283490379062,-10.067913686697626
2025-06-04 15:49:03.879,-0.0012496371204656,-9.842326057918852
2025-06-04 15:49:03.887,-0.0012136167520053,-9.608618651935892
2025-06-04 15:49:03.895,-0.0011746200683452,-9.36524222231528
2025-06-04 15:49:03.902,-0.0011319084257658,-9.110722239989592
2025-06-04 15:49:03.910,-0.0010848483301184,-8.843730134836772
2025-06-04 15:49:03.918,-0.0010329400202494,-8.563134343582412
2025-06-04 15:49:03.926,-0.000975839348923,-8.268030830231258
2025-06-04 15:49:03.934,-0.0009133725922159,-7.95775465357043
2025-06-04 15:49:03.941,-0.0008455440547695,-7.631875708641758
2025-06-04 15:49:03.949,-0.0007725365560667,-7.290182848491502
2025-06-04 15:49:03.957,-0.0006947051141008,-6.932661134471274
2025-06-04 15:49:03.965,-0.0006125643599761,-6.559466959641826
2025-06-04 15:49:03.973,-0.0005267703715468,-6.170905285915016
2025-06-04 15:49:03.980,-0.0004380976864181,-5.767412322066385
2025-06-04 15:49:03.988,-0.0003474122702174,-5.349545771740976
2025-06-04 15:49:03.996,-0.0002556412289357,-4.917983445399363
2025-06-04 15:49:04.004,-0.0001637401012443,-4.47352971061063
2025-06-04 15:49:04.012,-7.265865564507043e-05,-4.0171280906291145
2025-06-04 15:49:04.020,1.669372574260522e-05,-3.549877424284735
2025-06-04 15:49:04.027,0.0001034817318192,-3.07304844935677
2025-06-04 15:49:04.035,0.0001869752093116,-2.588097506301904
2025-06-04 15:49:04.043,0.0002665757705424,-2.096674276952708
2025-06-04 15:49:04.051,0.0003418370944678,-1.600621031336236
2025-06-04 15:49:04.059,0.0004124774557588,-1.1019616801549987
2025-06-04 15:49:04.066,0.0004783836321475,-0.6028799217101043
2025-06-04 15:49:04.074,0.0005396061278334,-0.1056868166816076
2025-06-04 15:49:04.082,0.0005963464753031,0.3872208939778779
2025-06-04 15:49:04.090,0.0006489380334037,0.873409599956084
2025-06-04 15:49:04.098,0.000697822039949,1.3504620736395825
2025-06-04 15:49:04.105,0.0007435207184641,1.8160322204074333
2025-06-04 15:49:04.113,0.0007866090881059,2.2678984422126045
2025-06-04 15:49:04.121,0.0008276869022183,2.704013065731654
2025-06-04 15:49:04.129,0.0008673519595137,3.12254583214007
2025-06-04 15:49:04.137,0.0009061759241476,3.52192011591277
2025-06-04 15:49:04.145,0.0009446836450059,3.900841250046758
2025-06-04 15:49:04.152,0.0009833366687175,4.258317010426517
2025-06-04 15:49:04.160,0.0010225212494348,4.593670892832667
2025-06-04 15:49:04.168,0.0010625408035597,4.9065492554885815
2025-06-04 15:49:04.176,0.0011036124836665,5.196923662154169
2025-06-04 15:49:04.184,0.001145867350784,5.46508982242646
2025-06-04 15:49:04.191,0.0011893535614639,5.711664381161822
2025-06-04 15:49:04.199,0.0012340420932781,5.937580472577098
2025-06-04 15:49:04.207,0.0012798347277896,6.144082463019507
2025-06-04 15:49:04.215,0.0013265741602446,6.332719716217301
2025-06-04 15:49:04.223,0.0013740561431085,6.505338599356974
2025-06-04 15:49:04.230,0.0014220434871838,6.664071392227507
2025-06-04 15:49:04.238,0.0014702815462006,6.811320352770224
2025-06-04 15:49:04.246,0.0015185145636364,6.949735010412789
2025-06-04 15:49:04.254,0.0015665020959916,7.082180862329181
2025-06-04 15:49:04.262,0.0016140347202408,7.211698062777389
2025-06-04 15:49:04.270,0.0016609483149692,7.341449404398324
2025-06-04 15:49:04.277,0.0017071362538856,7.47465782773653
2025-06-04 15:49:04.285,0.0017525588391288,7.614534752297381
2025-06-04 15:49:04.293,0.0017972493017229,7.764201560011739
2025-06-04 15:49:04.301,0.0018413157794039,7.926607434214389
2025-06-04 15:49:04.309,0.0018849388523299,8.104447340644658
2025-06-04 15:49:04.316,0.0019283644279809,8.300084154601363
2025-06-04 15:49:04.324,0.0019718919855773,8.515478769449823
2025-06-04 15:49:04.332,0.0020158584386679,8.7521314969533
2025-06-04 15:49:04.340,0.0020606181932986,9.011037261778254
2025-06-04 15:49:04.348,0.0021065203795007,9.292656103500434
2025-06-04 15:49:04.355,0.0021538846746727,9.59689944654056
2025-06-04 15:49:04.363,0.0022029775215357,9.923131595729595
2025-06-04 15:49:04.371,0.0022539907477605,10.270185059919548
2025-06-04 15:49:04.379,0.0023070245287316,10.636387669939136
2025-06-04 15:49:04.387,0.0023620762718302,11.019599081236324
2025-06-04 15:49:04.395,0.0024190363768308,11.417254144153455
2025-06-04 15:49:04.402,0.0024776910422035,11.826410763451088
2025-06-04 15:49:04.410,0.002537731478964,12.24380020583905
2025-06-04 15:49:04.418,0.0025987682006562,12.665878286984311
2025-06-04 15:49:04.426,0.0026603486090349,13.088876410255844
2025-06-04 15:49:04.434,0.0027219759779354,13.508851973293728
2025-06-04 15:49:04.441,0.0027831281266589,13.921738143516883
2025-06-04 15:49:04.449,0.0028432744355881,14.323393369586928
2025-06-04 15:49:04.457,0.0029018902732174,14.70965118943285
2025-06-04 15:49:04.465,0.0029584683480282,15.07637088595896
2025-06-04 15:49:04.473,0.0030125269646823,15.419489333506682
2025-06-04 15:49:04.480,0.0030636155866699,15.735074011084787
2025-06-04 15:49:04.488,0.0031113184023504,16.01937669693756
2025-06-04 15:49:04.496,0.0031552567380222,16.268886880033218
2025-06-04 15:49:04.504,0.0031950911726786,16.480383504219613
2025-06-04 15:49:04.512,0.0032305240431397,16.65098336702479
2025-06-04 15:49:04.520,0.0032613026562132,16.778184379086035
2025-06-04 15:49:04.527,0.0032872230702868,16.85990198553994
2025-06-04 15:49:04.535,0.0033081339852648,16.89449736912561
2025-06-04 15:49:04.543,0.0033239401717054,16.880796580177197
2025-06-04 15:49:04.551,0.0033346048714778,16.81810042154086
2025-06-04 15:49:04.559,0.0033401505766074,16.706185673704994
2025-06-04 15:49:04.566,0.0033406575391797,16.545298970401777
2025-06-04 15:49:04.574,0.0033362594071013,16.336145215642503
2025-06-04 15:49:04.582,0.0033271356171353,16.079872773008383
2025-06-04 15:49:04.590,0.0033135005760535,15.77805769248598
2025-06-04 15:49:04.598,0.0032955900934812,15.432688946326216
2025-06-04 15:49:04.605,0.0032736458811332,15.046156044102649
2025-06-04 15:49:04.613,0.0032478991817209,14.621239547113946
2025-06-04 15:49:04.621,0.0032185547729051,14.161103989522912
2025-06-04 15:49:04.629,0.0031857766968729,13.66929164073065
2025-06-04 15:49:04.637,0.0031496770216835,13.149714521847525
2025-06-04 15:49:04.645,0.0031103087054775,12.606641233823758
2025-06-04 15:49:04.652,0.0030676632657673,12.0446745798946
2025-06-04 15:49:04.660,0.003021673568247,11.468715773941016
2025-06-04 15:49:04.668,0.0029722217311449,10.883911294054428
2025-06-04 15:49:04.676,0.0029191519021164,10.29557919330178
2025-06-04 15:49:04.684,0.002862287436736,9.709112884682815
2025-06-04 15:49:04.691,0.0028014516952947,9.12986198695778
2025-06-04 15:49:04.699,0.0027364912396877,8.562991624883338
2025-06-04 15:49:04.707,0.0026672997238762,8.013323472438506
2025-06-04 15:49:04.715,0.0025938403823047,7.485163656235574
2025-06-04 15:49:04.723,0.0025161649019082,6.982124250955841
2025-06-04 15:49:04.730,0.0024344267229246,6.506946371393763
2025-06-04 15:49:04.738,0.0023488874170124,6.061333699480363
2025-06-04 15:49:04.746,0.0022599155621612,5.645805619052576
2025-06-04 15:49:04.754,0.0021679782636827,5.259578942210956
2025-06-04 15:49:04.762,0.0020736260218321,4.900486508804672
2025-06-04 15:49:04.770,0.0019774719745713,4.56493976519344
2025-06-04 15:49:04.777,0.001880166697868,4.247940845441061
2025-06-04 15:49:04.785,0.0017823698720083,3.943147771049392
2025-06-04 15:49:04.793,0.0016847203721775,3.6429942489082072
2025-06-04 15:49:04.801,0.0015878067206715,3.3388632828177176
2025-06-04 15:49:04.809,0.0014921401577008,3.021311527049554
2025-06-04 15:49:04.816,0.0013981325469069,2.6803391043055225
2025-06-04 15:49:04.824,0.0013060807385826,2.3056975783176283
2025-06-04 15:49:04.832,0.0012161580558982,1.8872269906642989
2025-06-04 15:49:04.840,0.0011284127323778,1.415211404178098
2025-06-04 15:49:04.848,0.0010427727310023,0.8807412921379025
2025-06-04 15:49:04.855,0.000959056336577,0.2760704142313605
2025-06-04 15:49:04.863,0.0008769879673367,-0.4050454451314991
2025-06-04 15:49:04.871,0.0007962185940025,-1.1670403242834368
2025-06-04 15:49:04.879,0.000716349913004,-2.0122723590172207
2025-06-04 15:49:04.887,0.0006369610441834,-2.940811314284612
2025-06-04 15:49:04.895,0.000557636125928,-3.9502888155284497
2025-06-04 15:49:04.902,0.0004779908834387,-5.035818988963047
2025-06-04 15:49:04.910,0.000397696161697,-6.189995171326074
2025-06-04 15:49:04.918,0.0003164966172884,-7.402966024447466
2025-06-04 15:49:04.926,0.0002342232143076,-8.662591841738182
2025-06-04 15:49:04.934,0.0001507987256614,-9.954679133268256
2025-06-04 15:49:04.941,6.62359770252631e-05,-11.263288810640963
2025-06-04 15:49:04.949,-1.937094067574271e-05,-12.571110558808252
2025-06-04 15:49:04.957,-0.0001058617998646,-13.859893376617215
2025-06-04 15:49:04.965,-0.0001930305671509,-15.110919886018692
2025-06-04 15:49:04.973,-0.0002806493785121,-16.30550994525978
2025-06-04 15:49:04.980,-0.0003684942349236,-17.425537448479844
2025-06-04 15:49:04.988,-0.0004563702311041,-18.4539430478989
2025-06-04 15:49:04.996,-0.0005441340642297,-19.375224988285098
2025-06-04 15:49:05.004,-0.000631711806051,-20.17589038196835
2025-06-04 15:49:05.012,-0.0007191104746029,-20.844850142903947
2025-06-04 15:49:05.020,-0.0008064226736972,-21.373742471399503
2025-06-04 15:49:05.027,-0.0008938242775482,-21.757172215811547
2025-06-04 15:49:05.035,-0.0009815656986715,-21.99285655111337
2025-06-04 15:49:05.043,-0.0010699576720056,-22.08167106679056
2025-06-04 15:49:05.051,-0.0011593527486205,-22.027594364062647
2025-06-04 15:49:05.059,-0.0012501238440013,-21.83755341199229
2025-06-04 15:49:05.066,-0.0013426412148857,-21.521175975464622
2025-06-04 15:49:05.074,-0.0014372491350521,-21.090460176942592
2025-06-04 15:49:05.082,-0.0015342433897675,-20.559374479345447
2025-06-04 15:49:05.090,-0.0016338506346899,-19.943403912085024
2025-06-04 15:49:05.098,-0.0017362106482656,-19.25906009720008
2025-06-04 15:49:05.105,-0.0018413623902581,-18.523373519865697
2025-06-04 15:49:05.113,-0.001949234500511,-17.753386532908273
2025-06-04 15:49:05.121,-0.0020596405571234,-16.965664837548218
2025-06-04 15:49:05.129,-0.0021722791940022,-16.175843726794266
2025-06-04 15:49:05.137,-0.0022867390482852,-15.398223323747017
2025-06-04 15:49:05.145,-0.0024025084052255,-14.645424521058892
2025-06-04 15:49:05.152,-0.0025189893053194,-13.92811446685064
2025-06-04 15:49:05.160,-0.0026355157496345,-13.254807388827736
2025-06-04 15:49:05.168,-0.0027513754438216,-12.631743444393605
2025-06-04 15:49:05.176,-0.0028658342701905,-12.06284526766614
2025-06-04 15:49:05.184,-0.0029781624328517,-11.549749083114
2025-06-04 15:49:05.191,-0.0030876610250108,-11.09190478446904
2025-06-04 15:49:05.199,-0.0031936876396343,-10.686737330939753
2025-06-04 15:49:05.207,-0.0032956796245723,-10.329860260785898
2025-06-04 15:49:05.215,-0.0033931736969365,-10.015331107732324
2025-06-04 15:49:05.223,-0.0034858208369122,-9.735938036671335
2025-06-04 15:49:05.230,-0.0035733956122706,-9.483507057010232
2025-06-04 15:49:05.238,-0.0036557993401448,-9.249219647407893
2025-06-04 15:49:05.246,-0.003733056824249,-9.023931426199546
2025-06-04 15:49:05.254,-0.0038053068365362,-8.79848350600201
2025-06-04 15:49:05.262,-0.0038727870079465,-8.563999261579724
2025-06-04 15:49:05.270,-0.0039358142735068,-8.312160319612328
2025-06-04 15:49:05.277,-0.0039947623707227,-8.035456579183256
2025-06-04 15:49:05.285,-0.0040500380362055,-7.727405953596389
2025-06-04 15:49:05.293,-0.0041020574907112,-7.382740274428422
2025-06-04 15:49:05.301,-0.0041512246039056,-6.997554428740109
2025-06-04 15:49:05.309,-0.0041979118322566,-6.56941634384597
2025-06-04 15:49:05.316,-0.0042424446583048,-6.097435941102123
2025-06-04 15:49:05.324,-0.0042850898767251,-5.582291706525877
2025-06-04 15:49:05.332,-0.0043260477430334,-5.026214121141512
2025-06-04 15:49:05.340,-0.0043654477713634,-4.432925892624692
2025-06-04 15:49:05.348,-0.0044033478219875,-3.807539750230707
2025-06-04 15:49:05.355,-0.0044397359944033,-3.1564155101751936
2025-06-04 15:49:05.363,-0.0044745346849933,-2.4869791774086214
2025-06-04 15:49:05.371,-0.0045076060139613,-1.807507996021856
2025-06-04 15:49:05.379,-0.0045387578056695,-1.1268865539450583
2025-06-04 15:49:05.387,-0.0045677495030954,-0.4543402351602277
2025-06-04 15:49:05.395,-0.0045942977359748,0.2008465713499154
2025-06-04 15:49:05.402,-0.0046180816148715,0.8296191308110693
2025-06-04 15:49:05.410,-0.0046387481255584,1.4234387848427237
2025-06-04 15:49:05.418,-0.0046559182089758,1.9745576177059412
2025-06-04 15:49:05.426,-0.0046691941784321,2.476271812963949
2025-06-04 15:49:05.434,-0.0046781690269012,2.9231445274822945
2025-06-04 15:49:05.441,-0.0046824379204391,3.311189912665518
2025-06-04 15:49:05.449,-0.004681611750906,3.638011118635749
2025-06-04 15:49:05.457,-0.0046753320472223,3.9028866850185513
2025-06-04 15:49:05.465,-0.0046632859371695,4.106801594797116
2025-06-04 15:49:05.473,-0.0046452194223986,4.2524213736844105
2025-06-04 15:49:05.480,-0.0046209471614154,4.3440098714512825
2025-06-04 15:49:05.488,-0.0045903572905835,4.38729366522131
2025-06-04 15:49:05.496,-0.0045534104443569,4.389278268798544
2025-06-04 15:49:05.504,-0.004510132869889,4.35802340306808
2025-06-04 15:49:05.512,-0.0044606041712354,4.302386369495732
2025-06-04 15:49:05.520,-0.004404940668412,4.231743968372627
2025-06-04 15:49:05.527,-0.0043432756564575,4.1557043232623
2025-06-04 15:49:05.535,-0.0042757380768172,4.083820336209326
2025-06-04 15:49:05.543,-0.0042024312989894,4.025316250349174
2025-06-04 15:49:05.551,-0.0041234138594384,3.988837915404967
2025-06-04 15:49:05.559,-0.0040386840902714,3.982235857597024
2025-06-04 15:49:05.566,-0.0039481704913105,4.012388219832977
2025-06-04 15:49:05.574,-0.0038517293442951,4.085068184202014
2025-06-04 15:49:05.582,-0.0037491504317529,4.204857785898316
2025-06-04 15:49:05.590,-0.0036401709071441,4.375107274759769
2025-06-04 15:49:05.598,-0.0035244964861738,4.597936584767348
2025-06-04 15:49:05.605,-0.0034018282970193,4.874273227374523
2025-06-04 15:49:05.613,-0.0032718930652094,5.203919197333565
2025-06-04 15:49:05.621,-0.0031344739530066,5.585638394690709
2025-06-04 15:49:05.629,-0.0029894393949923,6.017255693908594
2025-06-04 15:49:05.637,-0.0028367676328295,6.495759134800912
2025-06-04 15:49:05.645,-0.0026765652436729,7.01739770857024
2025-06-04 15:49:05.652,-0.0025090786560651,7.577768750562869
2025-06-04 15:49:05.660,-0.0023346983341154,8.17189087720785
2025-06-04 15:49:05.668,-0.0021539558928521,8.794260543780247
2025-06-04 15:49:05.676,-0.0019675148663028,9.438892469466596
2025-06-04 15:49:05.684,-0.0017761561978053,10.099346200809745
2025-06-04 15:49:05.691,-0.0015807597111698,10.768742811053242
2025-06-04 15:49:05.699,-0.0013822827871641,11.439777043156276
2025-06-04 15:49:05.707,-0.0011817372573632,12.104731019222273
2025-06-04 15:49:05.715,-0.0009801652784645,12.755495917754454
2025-06-04 15:49:05.723,-0.0007786147796569,13.383607758337408
2025-06-04 15:49:05.730,-0.0005781150081391,13.98030266241442
2025-06-04 15:49:05.738,-0.0003796526988798,14.536595741448174
2025-06-04 15:49:05.746,-0.000184149436346,15.04338618649986
2025-06-04 15:49:05.754,7.559145794002558e-06,15.491589300146403
2025-06-04 15:49:05.762,0.0001947415943042,15.872294241322424
2025-06-04 15:49:05.770,0.0003767855189354,16.176944276828163
2025-06-04 15:49:05.777,0.0005532083534435,16.397534483793414
2025-06-04 15:49:05.785,0.0007236632275472,16.526820247673005
2025-06-04 15:49:05.793,0.000887939202819,16.55852864891588
2025-06-04 15:49:05.801,0.0010459552385219,16.487563998244436
2025-06-04 15:49:05.809,0.0011977475351661,16.310198405822856
2025-06-04 15:49:05.816,0.0013434503761007,16.024238363561082
2025-06-04 15:49:05.824,0.0014832712120668,15.629158864602871
2025-06-04 15:49:05.832,0.0016174614066865,15.126197541291436
2025-06-04 15:49:05.840,0.0017462846281585,14.51840262160106
2025-06-04 15:49:05.848,0.0018699851939753,13.81063012509083
2025-06-04 15:49:05.855,0.0019887587164602,13.009487578548196
2025-06-04 15:49:05.863,0.0021027272556777,12.1232235628409
2025-06-04 15:49:05.871,0.0022119209884137,11.16156454122795
2025-06-04 15:49:05.879,0.0023162681505397,10.135502598933943
2025-06-04 15:49:05.887,0.0024155945696923,9.057039868724065
2025-06-04 15:49:05.895,0.00250963334689,7.938897436530525
2025-06-04 15:49:05.902,0.0025980442027726,6.794198307898886
2025-06-04 15:49:05.910,0.0026804408981644,5.636135454960344
2025-06-04 15:49:05.918,0.0027564242640257,4.477636944306628
2025-06-04 15:49:05.926,0.0028256179224311,3.331040576249139
2025-06-04 15:49:05.934,0.0028877037297573,2.207790282934885
2025-06-04 15:49:05.941,0.0029424541916586,1.1181657138265155
2025-06-04 15:49:05.949,0.0029897595297753,0.0710550081740476
2025-06-04 15:49:05.957,0.0030296477610688,-0.92622120476444
2025-06-04 15:49:05.965,0.0030622970213107,-1.868028897894128
2025-06-04 15:49:05.973,0.0030880401803717,-2.750479755571346
2025-06-04 15:49:05.980,0.0031073623386104,-3.5714299054572494
2025-06-04 15:49:05.988,0.0031208920611138,-4.330420474369014
2025-06-04 15:49:05.996,0.0031293873071688,-5.028564535966272
2025-06-04 15:49:06.004,0.0031337169575937,-5.668387033156327
2025-06-04 15:49:06.012,0.0031348385956029,-6.2536258303701
2025-06-04 15:49:06.020,0.0031337728616708,-6.789003125740347
2025-06-04 15:49:06.027,0.0031315745200892,-7.279977015112275
2025-06-04 15:49:06.035,0.0031293005031899,-7.732483068120024
2025-06-04 15:49:06.043,0.0031279755694061,-8.1526753970448
2025-06-04 15:49:06.051,0.0031285566203342,-8.546675935369116
2025-06-04 15:49:06.059,0.0031318970229466,-8.920339571238761
2025-06-04 15:49:06.066,0.0031387124555853,-9.27904148886774
2025-06-04 15:49:06.074,0.0031495498771409,-9.627491654126148
2025-06-04 15:49:06.082,0.0031647612306612,-9.969579937981562
2025-06-04 15:49:06.090,0.0031844834381148,-10.308253997628931
2025-06-04 15:49:06.098,0.0032086261151618,-10.645430810914927
2025-06-04 15:49:06.106,0.0032368682068048,-10.981941741569743
2025-06-04 15:49:06.113,0.0032686643714412,-11.317510225976068
2025-06-04 15:49:06.121,0.0033032614034163,-11.65076061166002
2025-06-04 15:49:06.129,0.0033397243292515,-11.979256315121376
2025-06-04 15:49:06.137,0.0033769711400394,-12.299565258985536
2025-06-04 15:49:06.145,0.0034138145547492,-12.607350445803071
2025-06-04 15:49:06.152,0.0034490088393789,-12.897483478205276
2025-06-04 15:49:06.160,0.003481299520016,-13.164178797520115
2025-06-04 15:49:06.168,0.0035094737126108,-13.401146347153771
2025-06-04 15:49:06.176,0.0035324086850807,-13.601760241627137
2025-06-04 15:49:06.184,0.0035491162463763,-13.759240813156149
2025-06-04 15:49:06.191,0.0035587807478464,-13.866847100926291
2025-06-04 15:49:06.199,0.0035607889130502,-13.918076441852554
2025-06-04 15:49:06.207,0.0035547503076531,-13.90686732697259
2025-06-04 15:49:06.215,0.0035405079304353,-13.827801128989677
2025-06-04 15:49:06.223,0.0035181390735668,-13.67629772179178
2025-06-04 15:49:06.231,0.0034879471685213,-13.44879945648612
2025-06-04 15:49:06.238,0.0034504456949089,-13.14293750271968
2025-06-04 15:49:06.246,0.0034063353364206,-12.757674291241363
2025-06-04 15:49:06.254,0.003356475480462,-12.293415781593696
2025-06-04 15:49:06.262,0.0033018510012924,-11.752087587244628
2025-06-04 15:49:06.270,0.0032435351677882,-11.137169655480829
2025-06-04 15:49:06.277,0.0031826495679261,-10.453685233567658
2025-06-04 15:49:06.285,0.0031203221521705,-9.70814124577503
2025-06-04 15:49:06.293,0.0030576447616537,-8.908418923291025
2025-06-04 15:49:06.301,0.0029956316723929,-8.063615510191825
2025-06-04 15:49:06.309,0.002935180684591,-7.183840027716185
2025-06-04 15:49:06.316,0.0028770381861825,-6.279968307240399
2025-06-04 15:49:06.324,0.0028217695479326,-5.363364669358439
2025-06-04 15:49:06.332,0.0027697361953657,-4.445579585425466
2025-06-04 15:49:06.340,0.0027210806498034,-3.53803425647228
2025-06-04 15:49:06.348,0.0026757206202278,-2.6517041410886173
2025-06-04 15:49:06.356,0.0026333528392883,-1.7968139451824918
2025-06-04 15:49:06.363,0.0025934668423405,-0.9825563817242048
2025-06-04 15:49:06.371,0.002555368352806,-0.2168461004715325
2025-06-04 15:49:06.379,0.0025182113410831,0.4938813824989472
2025-06-04 15:49:06.387,0.0024810371513965,1.144818058948002
2025-06-04 15:49:06.395,0.0024428184739478,1.732873955994051
2025-06-04 15:49:06.402,0.0024025055963029,2.256707437638557
2025-06-04 15:49:06.410,0.0023590723836632,2.716695692520661
2025-06-04 15:49:06.418,0.0023115596983301,3.114848437949303
2025-06-04 15:49:06.426,0.0022591142990565,3.454670153318674
2025-06-04 15:49:06.434,0.0022010215765783,3.7409779933636456
2025-06-04 15:49:06.441,0.0021367308239496,3.979683868360389
2025-06-04 15:49:06.449,0.0020658722052892,4.177550008762407
2025-06-04 15:49:06.457,0.0019882652130962,4.3419276875233015
2025-06-04 15:49:06.465,0.0019039191025639,4.480488713526067
2025-06-04 15:49:06.473,0.0018130263726876,4.600958911704897
2025-06-04 15:49:06.481,0.0017159506659584,4.7108621541387965
2025-06-04 15:49:06.488,0.0016132104527076,4.817282681711527
2025-06-04 15:49:06.496,0.0015054596378258,4.926652524848828
2025-06-04 15:49:06.504,0.0013934658804565,5.044569839827929
2025-06-04 15:49:06.512,0.0012780870429254,5.175652941084774
2025-06-04 15:49:06.520,0.0011602458915009,5.323433719251847
2025-06-04 15:49:06.527,0.0010409030571411,5.490292964253565
2025-06-04 15:49:06.535,0.0009210283447716,5.677438841975389
2025-06-04 15:49:06.543,0.0008015706869273,5.884928400646207
2025-06-04 15:49:06.551,0.0006834272979881,6.111730534113591
2025-06-04 15:49:06.559,0.0005674128648284,6.35582735442164
2025-06-04 15:49:06.566,0.0004542298941855,6.6143494962870735
2025-06-04 15:49:06.574,0.0003444415945941,6.8837395704382525
2025-06-04 15:49:06.582,0.0002384488477647,7.159936875094945
2025-06-04 15:49:06.590,0.0001364728850574,7.438575624199938
2025-06-04 15:49:06.598,3.8545223461957046e-05,7.715188400439188
2025-06-04 15:49:06.606,-5.5493791535737385e-05,7.985406320738155
2025-06-04 15:49:06.613,-0.0001459868876251,8.245147531709785
2025-06-04 15:49:06.621,-0.0002334418610367,8.49078614266288
2025-06-04 15:49:06.629,-0.000318504057526,8.7192945525312
2025-06-04 15:49:06.637,-0.0004019205162044,8.928353315413052
2025-06-04 15:49:06.645,-0.0004844976443808,9.116424174730266
2025-06-04 15:49:06.652,-0.0005670547807382,9.282783609988378
2025-06-04 15:49:06.660,-0.000650376271054,9.427516092753136
2025-06-04 15:49:06.668,-0.0007351647545916,9.551468136421478
2025-06-04 15:49:06.676,-0.0008219982589559,9.656166041020873
2025-06-04 15:49:06.684,-0.0009112934339655,9.74370187999771
2025-06-04 15:49:06.691,-0.001003276848853,9.816593667595493
2025-06-04 15:49:06.699,-0.0010979657848456,9.877626723139796
2025-06-04 15:49:06.707,-0.0011951594156,9.92968397703112
2025-06-04 15:49:06.715,-0.0012944406936969,9.9755733257584
2025-06-04 15:49:06.723,-0.0013951886871643,10.01786013284537
2025-06-04 15:49:06.731,-0.0014966005971966,10.058712587937205
2025-06-04 15:49:06.738,-0.0015977222692865,10.09976688510091
2025-06-04 15:49:06.746,-0.0016974856875801,10.142018089935975
2025-06-04 15:49:06.754,-0.0017947517164476,10.185741185091816
2025-06-04 15:49:06.762,-0.0018883561949688,10.23044519344802
2025-06-04 15:49:06.770,-0.0019771573479112,10.274861575599484
2025-06-04 15:49:06.777,-0.0020600823491094,10.316966390859342
2025-06-04 15:49:06.785,-0.0021361708027621,10.354034103814096
2025-06-04 15:49:06.793,-0.0022046128895849,10.382719503926838
2025-06-04 15:49:06.801,-0.0022647799098886,10.399163057188156
2025-06-04 15:49:06.809,-0.002316245032615,10.399114178144403
2025-06-04 15:49:06.816,-0.0023587925561187,10.378066427113636
2025-06-04 15:49:06.824,-0.0023924151571321,10.331398507639692
2025-06-04 15:49:06.832,-0.0024173001572418,10.254515147563842
2025-06-04 15:49:06.840,-0.0024338070681314,10.142982458455556
2025-06-04 15:49:06.848,-0.0024424391491425,9.992653133833052
2025-06-04 15:49:06.856,-0.0024438115394833,9.79977780901885
2025-06-04 15:49:06.863,-0.0024386180781174,9.561099999197312
2025-06-04 15:49:06.871,-0.0024275984913454,9.273933184155077
2025-06-04 15:49:06.879,-0.002411507331715,8.93621973908875
2025-06-04 15:49:06.887,-0.0023910858607113,8.546572438053392
2025-06-04 15:49:06.895,-0.0023670379124244,8.104300098567272
2025-06-04 15:49:06.902,-0.0023400106269401,7.609419521272557
2025-06-04 15:49:06.910,-0.0023105807645784,7.0626561589629455
2025-06-04 15:49:06.918,-0.0022792470318404,6.465435911838904
2025-06-04 15:49:06.926,-0.0022464284288748,5.819870120169338
2025-06-04 15:49:06.934,-0.0022124681243588,5.128735279944068
2025-06-04 15:49:06.941,-0.0021776418913362,4.395448335288773
2025-06-04 15:49:06.949,-0.0021421697883751,3.624037706978161
2025-06-04 15:49:06.957,-0.002106229583075,2.819109599258728
2025-06-04 15:49:06.965,-0.0020699703953213,1.985808670835712
2025-06-04 15:49:06.973,-0.0020335251748846,1.1297719156180213
2025-06-04 15:49:06.981,-0.0019970208840936,0.2570745953871304
2025-06-04 15:49:06.988,-0.0019605855679903,-0.6258327127162502
2025-06-04 15:49:06.996,-0.0019243518180094,-1.512196485665853
2025-06-04 15:49:07.004,-0.0018884564807746,-2.395042040944192
2025-06-04 15:49:07.012,-0.0018530368564602,-3.267264148637252
2025-06-04 15:49:07.020,-0.0018182240465257,-4.12172529298071
2025-06-04 15:49:07.027,-0.0017841344528317,-4.951359884171476
2025-06-04 15:49:07.035,-0.0017508605791321,-5.749282304804328
2025-06-04 15:49:07.043,-0.0017184621877328,-6.508896399304136
2025-06-04 15:49:07.051,-0.0016869585972208,-7.224003901219238
2025-06-04 15:49:07.059,-0.0016563226473724,-7.888909346766967
2025-06-04 15:49:07.066,-0.0016264767313221,-8.498519225372938
2025-06-04 15:49:07.074,-0.0015972912575316,-9.048433427119573
2025-06-04 15:49:07.082,-0.0015685858040867,-9.53502740061268
2025-06-04 15:49:07.090,-0.0015401329864915,-9.955523757746484
2025-06-04 15:49:07.098,-0.0015116647275714,-10.308052280176309
2025-06-04 15:49:07.106,-0.001482880296572,-10.591697340846622
2025-06-04 15:49:07.113,-0.0014534552601947,-10.806531633140937
2025-06-04 15:49:07.121,-0.0014230504011082,-10.9536348281588
2025-06-04 15:49:07.129,-0.0013913197125367,-11.035095436720178
2025-06-04 15:49:07.137,-0.0013579167853159,-11.05399385809832
2025-06-04 15:49:07.145,-0.0013224992647495,-11.014364490218975
2025-06-04 15:49:07.152,-0.0012847314491001,-10.9211349778817
2025-06-04 15:49:07.160,-0.0012442853502663,-10.780041261620504
2025-06-04 15:49:07.168,-0.0012008406278523,-10.597518069626387
2025-06-04 15:49:07.176,-0.0011540839223733,-10.380565806893664
2025-06-04 15:49:07.184,-0.0011037083631051,-10.136596313381558
2025-06-04 15:49:07.191,-0.0010494143024714,-9.873261515624352
2025-06-04 15:49:07.199,-0.000990912446917,-9.598270396939029
2025-06-04 15:49:07.207,-0.0009279303993798,-9.319200788239716
2025-06-04 15:49:07.215,-0.0008602231718124,-9.043313103706897
2025-06-04 15:49:07.223,-0.0007875875417729,-8.777373240157736
2025-06-04 15:49:07.231,-0.0007098793999529,-8.527491416929967
2025-06-04 15:49:07.238,-0.0006270326688426,-8.298982809545986
2025-06-04 15:49:07.246,-0.0005390780675217,-8.09625454015836
2025-06-04 15:49:07.254,-0.0004461599273782,-7.922722090680958
2025-06-04 15:49:07.262,-0.0003485493615342,-7.780756679217071
2025-06-04 15:49:07.270,-0.0002466523488709,-7.671663754450471
2025-06-04 15:49:07.277,-0.0001410117412494,-7.595691645916118
2025-06-04 15:49:07.285,-3.230279278044789e-05,-7.552068630751721
2025-06-04 15:49:07.293,7.867760075523715e-05,-7.539066238111007
2025-06-04 15:49:07.301,0.0001910272980932,-7.554086442424937
2025-06-04 15:49:07.309,0.0003037599681872,-7.593770382444473
2025-06-04 15:49:07.316,0.0004158296198008,-7.654126256218714
2025-06-04 15:49:07.324,0.0005261573030131,-7.730673969779315
2025-06-04 15:49:07.332,0.0006336586575087,-7.818603882600911
2025-06-04 15:49:07.340,0.0007372710558031,-7.912946564532536
2025-06-04 15:49:07.348,0.000835979254938,-8.008749869390185
2025-06-04 15:49:07.356,0.000928838699793,-8.10125888926211
2025-06-04 15:49:07.363,0.0010149958646519,-8.1860935589194
2025-06-04 15:49:07.371,0.0010937052435692,-8.25941792956925
2025-06-04 15:49:07.379,0.0011643427997283,-8.318094533998007
2025-06-04 15:49:07.387,0.0012264158351895,-8.359816929622523
2025-06-04 15:49:07.395,0.0012795693023051,-8.383213529684133
2025-06-04 15:49:07.402,0.0013235885562705,-8.387916288762852
2025-06-04 15:49:07.410,0.0013583985064445,-8.374588732213848
2025-06-04 15:49:07.418,0.0013840591036123,-8.344909201306516
2025-06-04 15:49:07.426,0.0014007571206303,-8.301506977207357
2025-06-04 15:49:07.434,0.0014087942896322,-8.24785106427707
2025-06-04 15:49:07.441,0.0014085721022378,-8.188093746287679
2025-06-04 15:49:07.449,0.0014005739527805,-8.12687344834335
2025-06-04 15:49:07.457,0.0013853457044223,-8.069083801515127
2025-06-04 15:49:07.465,0.0013634760247311,-8.019617970963132
2025-06-04 15:49:07.473,0.0013355778639865,-7.98309912748636
2025-06-04 15:49:07.481,0.001302272239577,-7.963609283701249
2025-06-04 15:49:07.488,0.0012641751085326,-7.964429469385163
2025-06-04 15:49:07.496,0.0012218876390732,-7.98780430870086
2025-06-04 15:49:07.504,0.0011759897365731,-8.034743444381562
2025-06-04 15:49:07.512,0.0011270363383499,-8.104870927542207
2025-06-04 15:49:07.520,0.0010755557891212,-8.196331693362003
2025-06-04 15:49:07.527,0.0010220495147034,-8.305761652108854
2025-06-04 15:49:07.535,0.0009669922284457,-8.42832486579077
2025-06-04 15:49:07.543,0.0009108320528479,-8.557817917690327
2025-06-04 15:49:07.551,0.0008539901679477,-8.686838111128365
2025-06-04 15:49:07.559,0.0007968598283601,-8.807008769625277
2025-06-04 15:49:07.566,0.0007398048116876,-8.909251871105516
2025-06-04 15:49:07.574,0.0006831575832511,-8.984095736424395
2025-06-04 15:49:07.582,0.0006272176263053,-9.022003673419976
2025-06-04 15:49:07.590,0.0005722504193221,-9.01370846350743
2025-06-04 15:49:07.598,0.0005184874431223,-8.950537415902541
2025-06-04 15:49:07.606,0.0004661274186729,-8.824713389289034
2025-06-04 15:49:07.613,0.0004153387460022,-8.629618623485108
2025-06-04 15:49:07.621,0.0003662628560816,-8.360010325639882
2025-06-04 15:49:07.629,0.000319017943189,-8.012179579787112
2025-06-04 15:49:07.637,0.0002737023999705,-7.584048140755756
2025-06-04 15:49:07.645,0.0002303973120575,-7.0752008699672775
2025-06-04 15:49:07.652,0.0001891675824817,-6.486854803783506
2025-06-04 15:49:07.660,0.0001500615650444,-5.821768945655732
2025-06-04 15:49:07.668,0.0001131094032823,-5.08410167595016
2025-06-04 15:49:07.676,7.832055328518715e-05,-4.279225025629221
2025-06-04 15:49:07.684,4.568119257180176e-05,-3.4135068342067787
2025-06-04 15:49:07.691,1.5152347557030815e-05,-2.49407291674647
2025-06-04 15:49:07.699,-1.333044533715006e-05,-1.528561753121046
2025-06-04 15:49:07.707,-3.985532252315645e-05,-0.5248838911660789
2025-06-04 15:49:07.715,-6.452983271583806e-05,0.509002719957662
2025-06-04 15:49:07.723,-8.747435832488052e-05,1.5652917809332605
2025-06-04 15:49:07.731,-0.00010881376106,2.6364943506463607
2025-06-04 15:49:07.738,-0.0001286681204903,3.715565720456168
2025-06-04 15:49:07.746,-0.0001471435839402,4.79599032364467
2025-06-04 15:49:07.754,-0.000164324314267,5.871823893536974
2025-06-04 15:49:07.762,-0.0001802663857585,6.937694295612866
2025-06-04 15:49:07.770,-0.0001949943127963,7.988764447897906
2025-06-04 15:49:07.777,-0.0002085007070964,9.020662441176052
2025-06-04 15:49:07.785,-0.0002207492894223,10.029385327871404
2025-06-04 15:49:07.793,-0.0002316810972206,11.011184040392116
2025-06-04 15:49:07.801,-0.000241223319675,11.9624375233872
2025-06-04 15:49:07.809,-0.0002492999160939,12.879524433338302
2025-06-04 15:49:07.816,-0.0002558430907187,13.75870069496008
2025-06-04 15:49:07.824,-0.0002608047187159,14.595990830696696
2025-06-04 15:49:07.832,-0.0002641668471796,15.387100318944109
2025-06-04 15:49:07.840,-0.0002659504257905,16.127355305462373
2025-06-04 15:49:07.848,-0.0002662214975827,16.811674802460132
2025-06-04 15:49:07.856,-0.0002650942269732,17.434579071487228
2025-06-04 15:49:07.863,-0.0002627303619316,17.99023621618626
2025-06-04 15:49:07.871,-0.0002593350087742,18.472547140603957
2025-06-04 15:49:07.879,-0.0002551489066987,18.875267013375367
2025-06-04 15:49:07.887,-0.0002504376727912,19.192159303668213
2025-06-04 15:49:07.895,-0.0002454787331539,19.417176440102907
2025-06-04 15:49:07.902,-0.000240546897685,19.5446593357337
2025-06-04 15:49:07.910,-0.0002358997671787,19.56954658273245
2025-06-04 15:49:07.918,-0.0002317642986461,19.48758320722709
2025-06-04 15:49:07.926,-0.0002283258445527,19.295518617047648
2025-06-04 15:49:07.934,-0.0002257208397621,18.991283849387493
2025-06-04 15:49:07.941,-0.0002240340295572,18.574139432875626
2025-06-04 15:49:07.949,-0.000223300652059,18.044787032781816
2025-06-04 15:49:07.957,-0.0002235132870836,17.405440380522222
2025-06-04 15:49:07.965,-0.000224632271287,16.659853571974693
2025-06-04 15:49:07.973,-0.0002265978946213,15.81330739992985
2025-06-04 15:49:07.981,-0.0002293422909529,14.872556719332955
2025-06-04 15:49:07.988,-0.0002327991285058,13.845743723553571
2025-06-04 15:49:07.996,-0.0002369097889254,12.742283290026515
2025-06-04 15:49:08.004,-0.0002416254762101,11.572727161648524
2025-06-04 15:49:08.012,-0.0002469054452355,10.348613670573345
2025-06-04 15:49:08.020,-0.0002527121864787,9.082309059327512
2025-06-04 15:49:08.027,-0.0002590048445421,7.786845344073974
2025-06-04 15:49:08.035,-0.0002657322920567,6.475758268635643
2025-06-04 15:49:08.043,-0.0002728271495061,5.16292740552339
2025-06-04 15:49:08.051,-0.0002802017373698,3.862419058015705
2025-06-04 15:49:08.059,-0.0002877465403415,2.588331465871463
2025-06-04 15:49:08.066,-0.0002953313069281,1.3546410312945354
2025-06-04 15:49:08.074,-0.0003028084934534,0.1750479189216948
2025-06-04 15:49:08.082,-0.0003100184582024,-0.937180555287024
2025-06-04 15:49:08.090,-0.0003167956141035,-1.9693698942354427
2025-06-04 15:49:08.098,-0.0003229746696111,-2.909602168990756
2025-06-04 15:49:08.106,-0.0003283962002056,-3.746883055532454
2025-06-04 15:49:08.113,-0.0003329111040542,-4.471310682297241
2025-06-04 15:49:08.121,-0.0003363838703472,-5.074243852146212
2025-06-04 15:49:08.129,-0.0003386948695302,-5.54846634663912
2025-06-04 15:49:08.137,-0.0003397420142186,-5.88834332587563
2025-06-04 15:49:08.145,-0.0003394421719227,-6.089965340572962
2025-06-04 15:49:08.152,-0.0003377326417755,-6.151275193296239
2025-06-04 15:49:08.160,-0.0003345728310594,-6.072172825966375
2025-06-04 15:49:08.168,-0.000329946072675,-5.854593562176117
2025-06-04 15:49:08.176,-0.00032386146605,-5.50255538020303
2025-06-04 15:49:08.184,-0.0003163557483383,-5.022171419439332
2025-06-04 15:49:08.191,-0.0003074953835692,-4.421624614278949
2025-06-04 15:49:08.199,-0.0002973791175983,-3.7111021913508857
2025-06-04 15:49:08.207,-0.0002861411051087,-2.9026887432184405
2025-06-04 15:49:08.215,-0.0002739544216139,-2.010217685236797
2025-06-04 15:49:08.223,-0.0002610344435074,-1.0490820843062076
2025-06-04 15:49:08.231,-0.0002476413131893,-0.0360070745050587
2025-06-04 15:49:08.238,-0.000234080575496,1.0112127184160309
2025-06-04 15:49:08.246,-0.0002207011315644,2.0740062070166907
2025-06-04 15:49:08.254,-0.0002078899068185,3.1333438331115726
2025-06-04 15:49:08.262,-0.0001960629884871,4.170074271765332
2025-06-04 15:49:08.270,-0.0001856533682289,5.165273067625903
2025-06-04 15:49:08.277,-0.0001770958090795,6.100596107405863
2025-06-04 15:49:08.285,-0.0001708097405905,6.958630711231765
2025-06-04 15:49:08.293,-0.0001671814042145,7.7232371614694815
2025-06-04 15:49:08.301,-0.0001665466086895,8.37987363284992
2025-06-04 15:49:08.309,-0.0001691753313412,8.915897693080085
2025-06-04 15:49:08.316,-0.0001752590246042,9.320837771974055
2025-06-04 15:49:08.324,-0.0001849009720402,9.58662823874806
2025-06-04 15:49:08.332,-0.0001981095575018,9.707802003050006
2025-06-04 15:49:08.340,-0.0002147939875866,9.681634917317457
2025-06-04 15:49:08.348,-0.0002347618609952,9.508236777958182
2025-06-04 15:49:08.356,-0.0002577180003564,9.190584473134887
2025-06-04 15:49:08.363,-0.0002832641912752,8.734493854369079
2025-06-04 15:49:08.371,-0.0003108999299836,8.148528224313674
2025-06-04 15:49:08.379,-0.0003400248370096,7.443842894296524
2025-06-04 15:49:08.387,-0.0003699437999602,6.633966995840432
2025-06-04 15:49:08.395,-0.0003998759951214,5.734525532009196
2025-06-04 15:49:08.402,-0.0004289687367064,4.76290642411799
2025-06-04 15:49:08.410,-0.0004563167322645,3.7378789539382216
2025-06-04 15:49:08.418,-0.000480986832736,2.6791714487334555
2025-06-04 15:49:08.426,-0.0005020477624694,1.6070172607398765
2025-06-04 15:49:08.434,-0.0005186036743134,0.541679034550047
2025-06-04 15:49:08.441,-0.0005298298245653,-0.4970380626281388
2025-06-04 15:49:08.449,-0.000535008273249,-1.490273031912966
2025-06-04 15:49:08.457,-0.000533561294401,-2.4205843047750557
2025-06-04 15:49:08.465,-0.0005250801529728,-3.2724021574641573
2025-06-04 15:49:08.473,-0.000509347141789,-4.032446919041594
2025-06-04 15:49:08.481,-0.0004863493158648,-4.690101782407674
2025-06-04 15:49:08.488,-0.0004562831204665,-5.237729310799427
2025-06-04 15:49:08.496,-0.0004195498825183,-5.670921167639372
2025-06-04 15:49:08.504,-0.0003767427535357,-5.988671251086564
2025-06-04 15:49:08.512,-0.0003286261116087,-6.193463370015141
2025-06-04 15:49:08.520,-0.0002761087148898,-6.291265941554198
2025-06-04 15:49:08.527,-0.0002202121509468,-6.291427994857038
2025-06-04 15:49:08.535,-0.0001620363876579,-6.206473079163643
2025-06-04 15:49:08.543,-0.0001027244191063,-6.051790506656928
2025-06-04 15:49:08.551,-4.342794115113456e-05,-5.845226671408111
2025-06-04 15:49:08.559,1.472442558764292e-05,-5.606582873466859
2025-06-04 15:49:08.566,7.065552351892043e-05,-5.357029980180283
2025-06-04 15:49:08.574,0.0001233644704702,-5.118454167453409
2025-06-04 15:49:08.582,0.0001719480956327,-4.912751672093389
2025-06-04 15:49:08.590,0.0002156192674652,-4.761093722948781
2025-06-04 15:49:08.598,0.0002537222756178,-4.683185388090762
2025-06-04 15:49:08.606,0.0002857453105245,-4.696543787552792
2025-06-04 15:49:08.613,0.0003113300221417,-4.815821822580675
2025-06-04 15:49:08.621,0.0003302781196013,-5.052203158277347
2025-06-04 15:49:08.629,0.000342554959896,-5.41289262123491
2025-06-04 15:49:08.637,0.0003482900406713,-5.90072345697035
2025-06-04 15:49:08.645,0.0003477742622281,-6.51389912055527
2025-06-04 15:49:08.652,0.0003414537710631,-7.24588259773554
2025-06-04 15:49:08.660,0.0003299201560516,-8.085440877830353
2025-06-04 15:49:08.668,0.0003138968008991,-9.016846371517335
2025-06-04 15:49:08.676,0.0002942213994314,-10.020231062042454
2025-06-04 15:49:08.684,0.0002718250013429,-11.07208328490064
2025-06-04 15:49:08.691,0.0002477082951277,-12.145871531785351
2025-06-04 15:49:08.699,0.0002229159774617,-13.212774832777368
2025-06-04 15:49:08.707,0.0001985100188035,-14.242495313618432
2025-06-04 15:49:08.715,0.0001755425573234,-15.204125628720222
2025-06-04 15:49:08.723,0.0001550291172317,-16.06704224757927
2025-06-04 15:49:08.731,0.0001379228119274,-16.801795062679453
2025-06-04 15:49:08.738,0.0001250900931522,-17.3809644583708
2025-06-04 15:49:08.746,0.000117288446175,-17.77995873601741
2025-06-04 15:49:08.754,0.0001151462806425,-17.977727485976008
2025-06-04 15:49:08.762,0.0001191452037455,-17.957369959118658
2025-06-04 15:49:08.770,0.0001296048892873,-17.706621540246427
2025-06-04 15:49:08.777,0.0001466708284013,-17.21820589120254
2025-06-04 15:49:08.785,0.0001703053876077,-16.490045053035725
2025-06-04 15:49:08.793,0.0002002829126671,-15.52532462189864
2025-06-04 15:49:08.801,0.0002361901247831,-14.332415890798622
2025-06-04 15:49:08.809,0.0002774334996039,-12.924661423724444
2025-06-04 15:49:08.816,0.000323255194831,-11.320034741836336
2025-06-04 15:49:08.824,0.0003727580936724,-9.540688496942632
2025-06-04 15:49:08.832,0.0004249390101622,-7.612408540374053
2025-06-04 15:49:08.840,0.000478727827779,-5.563993544061121
2025-06-04 15:49:08.848,0.000533029764377,-3.426581208767576
2025-06-04 15:49:08.856,0.0005867679561248,-1.23294256039002
2025-06-04 15:49:08.863,0.0006389238420239,0.9832346015087512
2025-06-04 15:49:08.871,0.0006885732394086,3.1880533145289003
2025-06-04 15:49:08.879,0.0007349164224216,5.348088332696616
2025-06-04 15:49:08.887,0.000777300887219,7.431025037702533
2025-06-04 15:49:08.895,0.0008152358742778,9.406244060157723
2025-06-04 15:49:08.902,0.0008483982282445,11.245342357177142
2025-06-04 15:49:08.910,0.0008766297907949,12.92258452167967
2025-06-04 15:49:08.918,0.0008999271074683,14.41528092465686
2025-06-04 15:49:08.926,0.0009184246738255,15.70409178887363
2025-06-04 15:49:08.934,0.0009323732292819,16.773258379800573
2025-06-04 15:49:08.942,0.0009421147678318,17.61076413998223
2025-06-04 15:49:08.949,0.000948056006139,18.208429787517204
2025-06-04 15:49:08.957,0.0009506420393226,18.561947177029943
2025-06-04 15:49:08.965,0.0009503318495153,18.670857128531875
2025-06-04 15:49:08.973,0.0009475772337298,18.538476518760756
2025-06-04 15:49:08.981,0.0009428065110053,18.17177975409411
2025-06-04 15:49:08.988,0.0009364139181675,17.58123935515406
2025-06-04 15:49:08.996,0.0009287548832909,16.78062983039493
2025-06-04 15:49:09.004,0.0009201465267538,15.786798348560367
2025-06-04 15:49:09.012,0.000910871995631,14.619404988373237
2025-06-04 15:49:09.020,0.0009011867554495,13.300634601736956
2025-06-04 15:49:09.027,0.0008913248424528,11.854881631945862
2025-06-04 15:49:09.035,0.0008815033238628,10.308408642918016
2025-06-04 15:49:09.043,0.0008719237119892,8.68897890549973
2025-06-04 15:49:09.051,0.0008627696831018,7.025463223174959
2025-06-04 15:49:09.059,0.0008542010824288,5.347421332000952
2025-06-04 15:49:09.067,0.0008463448186697,3.684658733977427
2025-06-04 15:49:09.074,0.0008392838045385,2.066760746998306
2025-06-04 15:49:09.082,0.0008330454829844,0.522606871213751
2025-06-04 15:49:09.090,0.0008275915806285,-0.920129762070342
2025-06-04 15:49:09.098,0.0008228104979126,-2.235491158602464
2025-06-04 15:49:09.106,0.0008185132678221,-3.399742665779668
2025-06-04 15:49:09.113,0.000814433491052,-4.391869764374094
2025-06-04 15:49:09.121,0.0008102312535049,-5.194050724426404
2025-06-04 15:49:09.129,0.0008055007973518,-5.792090915046029
2025-06-04 15:49:09.137,0.0007997815863885,-6.17580363884885
2025-06-04 15:49:09.145,0.0007925722809316,-6.339322164119417
2025-06-04 15:49:09.152,0.0007833469718003,-6.281328258482207
2025-06-04 15:49:09.160,0.000771572865266,-6.0051840354470505
2025-06-04 15:49:09.168,0.0007567285367522,-5.518956293442683
2025-06-04 15:49:09.176,0.0007383218892583,-4.83532567440362
2025-06-04 15:49:09.184,0.0007159070207267,-3.9713767539208256
2025-06-04 15:49:09.192,0.0006890993278351,-2.9482694044496163
2025-06-04 15:49:09.199,0.0006575884146514,-1.7907962153042565
2025-06-04 15:49:09.207,0.0006211487383422,-0.5268351554673752
2025-06-04 15:49:09.215,0.0005796482773888,0.8132892217315739
2025-06-04 15:49:09.223,0.0005330556643685,2.197519129332591
2025-06-04 15:49:09.231,0.0004814461036442,3.592831626825409
2025-06-04 15:49:09.238,0.0004250060524103,4.966039473057713
2025-06-04 15:49:09.246,0.0003640362019961,6.284601511364511
2025-06-04 15:49:09.254,0.0002989518904232,7.517418912315683
2025-06-04 15:49:09.262,0.0002302798463863,8.63559398428632
2025-06-04 15:49:09.270,0.0001586502257588,9.613129413318193
2025-06-04 15:49:09.277,8.478330079107724e-05,10.427547644969035
2025-06-04 15:49:09.285,9.47081445184112e-06,11.06041259316348
2025-06-04 15:49:09.293,-6.64472845412389e-05,11.497738863893035
2025-06-04 15:49:09.301,-0.0001421094400724,11.730277114692337
2025-06-04 15:49:09.309,-0.0002166607740837,11.7536679279244
2025-06-04 15:49:09.317,-0.0002892812792487,11.568460548484596
2025-06-04 15:49:09.324,-0.000359212203859,11.179996914906672
2025-06-04 15:49:09.332,-0.0004257790731818,10.598165484920122
2025-06-04 15:49:09.340,-0.0004884099498183,9.83703330530652
2025-06-04 15:49:09.348,-0.0005466477386491,8.91436847855211
2025-06-04 15:49:09.356,-0.0006001557264572,7.85106850985263
2025-06-04 15:49:09.363,-0.0006487161464517,6.670512857112031
2025-06-04 15:49:09.371,-0.000692222239253,5.3978602461738125
2025-06-04 15:49:09.379,-0.0007306648751499,4.059312865276545
2025-06-04 15:49:09.387,-0.0007641152276266,2.681370353976976
2025-06-04 15:49:09.395,-0.0007927052306374,1.290096521260345
2025-06-04 15:49:09.402,-0.0008166076037691,-0.0895790327743716
2025-06-04 15:49:09.410,-0.0008360170941454,-1.4345037232436106
2025-06-04 15:49:09.418,-0.0008511342826955,-2.723870733999204
2025-06-04 15:49:09.426,-0.0008621528778646,-3.93969801784281
2025-06-04 15:49:09.434,-0.0008692509722602,-5.067205109889302
2025-06-04 15:49:09.442,-0.0008725863890504,-6.095078956763322
2025-06-04 15:49:09.449,-0.0008722960214783,-7.015623842843294
2025-06-04 15:49:09.457,-0.0008684988630119,-7.824794478195488
2025-06-04 15:49:09.465,-0.0008613021128848,-8.52211525470239
2025-06-04 15:49:09.473,-0.0008508093575235,-9.11049242764969
2025-06-04 15:49:09.481,-0.000837129582745,-9.595929395778612
2025-06-04 15:49:09.488,-0.0008203858215115,-9.98715820268306
2025-06-04 15:49:09.496,-0.0008007225131823,-10.29520275386704
2025-06-04 15:49:09.504,-0.0007783109474807,-10.532890948755227
2025-06-04 15:49:09.512,-0.0007533523798911,-10.714333911673164
2025-06-04 15:49:09.520,-0.0007260785680922,-10.854390759836535
2025-06-04 15:49:09.527,-0.0006967496856405,-10.96813690353462
2025-06-04 15:49:09.535,-0.0006656498637355,-11.0703528025812
2025-06-04 15:49:09.543,-0.0006330809385571,-11.17504849323304
2025-06-04 15:49:09.551,-0.0005993552290962,-11.29503715010132
2025-06-04 15:49:09.559,-0.0005647882513728,-11.441568559679162
2025-06-04 15:49:09.567,-0.000529692161754,-11.624030756906402
2025-06-04 15:49:09.574,-0.0004943704476769,-11.84972531254278
2025-06-04 15:49:09.582,-0.0004591140407022,-12.123718951905076
2025-06-04 15:49:09.590,-0.0004241987303647,-12.448771423641888
2025-06-04 15:49:09.598,-0.0003898835730788,-12.82533690515242
2025-06-04 15:49:09.606,-0.0003564099146889,-13.251633814160398
2025-06-04 15:49:09.613,-0.0003240006806764,-13.723775782107872
2025-06-04 15:49:09.621,-0.000292859770182,-14.235954821782435
2025-06-04 15:49:09.629,-0.0002631716788465,-14.780666467705062
2025-06-04 15:49:09.637,-0.0002351017085965,-15.348965945565334
2025-06-04 15:49:09.645,-0.0002087971662596,-15.930744273267944
2025-06-04 15:49:09.652,-0.0001843898202816,-16.515013611465466
2025-06-04 15:49:09.660,-0.0001619996491168,-17.090192120808513
2025-06-04 15:49:09.668,-0.0001417396156673,-17.64437995578727
2025-06-04 15:49:09.676,-0.0001237208814015,-18.165619706198136
2025-06-04 15:49:09.684,-0.0001080576011861,-18.642136446956883
2025-06-04 15:49:09.692,-9.487028341295184e-05,-19.06255443689777
2025-06-04 15:49:09.699,-8.42867395471169e-05,-19.41608929041568
2025-06-04 15:49:09.707,-7.643994990598749e-05,-19.692716019888028
2025-06-04 15:49:09.715,-7.146266663429052e-05,-19.883314613859152
2025-06-04 15:49:09.723,-6.947904202406011e-05,-19.979795693958145
2025-06-04 15:49:09.731,-7.059384679923649e-05,-19.975209223646758
2025-06-04 15:49:09.738,-7.487996013827069e-05,-19.86383920113328
2025-06-04 15:49:09.746,-8.236491029771144e-05,-19.64128677937838
2025-06-04 15:49:09.754,-9.301741837767698e-05,-19.30454338545834
2025-06-04 15:49:09.762,-0.0001067351391463,-18.85205426346596
2025-06-04 15:49:09.770,-0.0001233349877582,-18.28377156652666
2025-06-04 15:49:09.777,-0.0001425474283508,-17.601194810552236
2025-06-04 15:49:09.785,-0.0001640158012034,-16.807395309810147
2025-06-04 15:49:09.793,-0.0001873012562729,-15.907020268836538
2025-06-04 15:49:09.801,-0.0002118932809427,-14.906271619138046
2025-06-04 15:49:09.809,-0.0002372252355754,-13.81285455243532
2025-06-04 15:49:09.817,-0.0002626937706302,-12.635891072191471
2025-06-04 15:49:09.824,-0.0002876805485385,-11.3857947798726
2025-06-04 15:49:09.832,-0.0003115744275509,-10.0741045103765
2025-06-04 15:49:09.840,-0.0003337922888308,-8.713276274819965
2025-06-04 15:49:09.848,-0.0003537970493431,-7.3164351678879855
2025-06-04 15:49:09.856,-0.0003711120081454,-5.897091330947686
2025-06-04 15:49:09.863,-0.0003853313187928,-4.46882658643011
2025-06-04 15:49:09.871,-0.0003961268935862,-3.044960812084382
2025-06-04 15:49:09.879,-0.0004032523726948,-1.6382093364152155
2025-06-04 15:49:09.887,-0.0004065449619024,-0.2603444418200225
2025-06-04 15:49:09.895,-0.0004059259868544,1.0781246958555657
2025-06-04 15:49:09.902,-0.0004014009318867,2.368238757911815
2025-06-04 15:49:09.910,-0.0003930595351008,3.602827107298114
2025-06-04 15:49:09.918,-0.0003810762206695,4.776685196476452
2025-06-04 15:49:09.926,-0.0003657108063391,5.886679083250198
2025-06-04 15:49:09.934,-0.0003473091208483,6.931768449757705
2025-06-04 15:49:09.942,-0.000326302987585,7.912943149002172
2025-06-04 15:49:09.949,-0.0003032089340448,8.83307252975265
2025-06-04 15:49:09.957,-0.0002786248447147,9.696671394403744
2025-06-04 15:49:09.965,-0.0002532235756232,10.509591156980411
2025-06-04 15:49:09.973,-0.0002277424484189,11.278649286116536
2025-06-04 15:49:09.981,-0.0002029676984968,12.011214119502752
2025-06-04 15:49:09.988,-0.0001797133899094,12.714765310081368
2025-06-04 15:49:09.996,-0.0001587949462915,13.39645223983885
2025-06-04 15:49:10.004,-0.000140998158041,14.062673516417126
2025-06-04 15:49:10.012,-0.0001270452001613,14.71870004637397
2025-06-04 15:49:10.020,-0.000117559769663,15.368362154081684
2025-06-04 15:49:10.027,-0.0001130338658117,16.013817883366425
2025-06-04 15:49:10.035,-0.0001137988651567,16.655415165066827
2025-06-04 15:49:10.043,-0.0001200032591317,17.2916552174904
2025-06-04 15:49:10.051,-0.0001315987412468,17.919258688537408
2025-06-04 15:49:10.059,-0.0001483354499637,18.53333001318686
2025-06-04 15:49:10.067,-0.0001697663491503,19.12760963777518
2025-06-04 15:49:10.074,-0.0001952601179766,19.69479854076852
2025-06-04 15:49:10.082,-0.000224021524977,20.226935213474995
2025-06-04 15:49:10.090,-0.0002551179978121,20.71580224460199
2025-06-04 15:49:10.098,-0.0002875109413391,21.153338082070373
2025-06-04 15:49:10.106,-0.0003200903391098,21.532029522819563
2025-06-04 15:49:10.113,-0.0003517112928853,21.84526199824371
2025-06-04 15:49:10.121,-0.000381231322407,22.0876076689024
2025-06-04 15:49:10.129,-0.000407547379861,22.25503551398306
2025-06-04 15:49:10.137,-0.0004296315978717,22.345032715968
2025-06-04 15:49:10.145,-0.0004465647799171,22.356632356339787
2025-06-04 15:49:10.152,-0.0004575665932536,22.290348377873105
2025-06-04 15:49:10.160,-0.0004620214182623,22.148024553820537
2025-06-04 15:49:10.168,-0.0004594988989761,21.932609478282284
2025-06-04 15:49:10.176,-0.00044976841497,21.647874042515227
2025-06-04 15:49:10.184,-0.0004328069294126,21.29809123219338
2025-06-04 15:49:10.192,-0.0004087999565618,20.887700178769315
2025-06-04 15:49:10.199,-0.0003781357060776,20.42097710585372
2025-06-04 15:49:10.207,-0.000341392745448,19.90173509610611
2025-06-04 15:49:10.215,-0.0002993217478393,19.33307252791808
2025-06-04 15:49:10.223,-0.0002528220617866,18.71718675074794
2025-06-04 15:49:10.231,-0.000202913954013,18.05526531910749
2025-06-04 15:49:10.238,-0.0001507074679768,17.347462178531437
2025-06-04 15:49:10.246,-9.736896049829568e-05,16.59296091219231
2025-06-04 15:49:10.254,-4.408652283352997e-05,15.790121842715378
2025-06-04 15:49:10.262,7.964420817288551e-06,14.93670476143925
2025-06-04 15:49:10.270,5.765411231311901e-05,14.030154622913653
2025-06-04 15:49:10.277,0.0001039290925305,13.067933945759334
2025-06-04 15:49:10.285,0.0001458398747719,12.047883088664287
2025-06-04 15:49:10.293,0.0001825653539857,10.968588137077871
2025-06-04 15:49:10.301,0.0002134337232983,9.829735884049835
2025-06-04 15:49:10.309,0.0002379395878137,8.632436289262316
2025-06-04 15:49:10.317,0.0002557569013312,7.379494760598805
2025-06-04 15:49:10.324,0.0002667474313873,6.075619473646517
2025-06-04 15:49:10.332,0.0002709646481109,4.72755253208376
2025-06-04 15:49:10.340,0.000268653087938,3.3441178492111976
2025-06-04 15:49:10.348,0.0002602432854783,1.9361829548522784
2025-06-04 15:49:10.356,0.0002463423503362,0.5165362589631628
2025-06-04 15:49:10.363,0.0002277202687172,-0.9003146018905361
2025-06-04 15:49:10.371,0.0002052920665601,-2.298414071399893
2025-06-04 15:49:10.379,0.000180096091999,-3.660687395112853
2025-06-04 15:49:10.387,0.0001532688297866,-4.969312372095989
2025-06-04 15:49:10.395,0.0001260167680509,-6.206118538018909
2025-06-04 15:49:10.402,9.958582920983256e-05,-7.352997925414265
2025-06-04 15:49:10.410,7.522876676971453e-05,-8.392312195251467
2025-06-04 15:49:10.418,5.417085366756215e-05,-9.307282358028798
2025-06-04 15:49:10.426,3.757434310503659e-05,-10.082349318926653
2025-06-04 15:49:10.434,2.650263291191672e-05,-10.703495881081162
2025-06-04 15:49:10.442,2.1885612907411237e-05,-11.158523415835246
2025-06-04 15:49:10.449,2.4488022974081703e-05,-11.43727896544168
2025-06-04 15:49:10.457,3.488265006864859e-05,-11.53183091211617
2025-06-04 15:49:10.465,5.342990267215635e-05,-11.436593398467696
2025-06-04 15:49:10.473,8.026486895906993e-05,-11.148401347249877
2025-06-04 15:49:10.481,0.000115292504574,-10.666539193099489
2025-06-04 15:49:10.488,0.0001581911251122,-9.99272734571142
2025-06-04 15:49:10.496,0.0002084238610577,-9.131071026353029
2025-06-04 15:49:10.504,0.000265257182821,-8.087976544228324
2025-06-04 15:49:10.512,0.0003277851111091,-6.872040382498675
2025-06-04 15:49:10.520,0.0003949574036203,-5.493916691704166
2025-06-04 15:49:10.527,0.0004656099365106,-3.9661689445898514
2025-06-04 15:49:10.535,0.0005384956997349,-2.303111553363306
2025-06-04 15:49:10.543,0.0006123152257347,-0.5206471214555276
2025-06-04 15:49:10.551,0.0006857457270653,1.3638953799286293
2025-06-04 15:49:10.559,0.0007574686073399,3.331916920360428
2025-06-04 15:49:10.567,0.0008261953036306,5.363695667405946
2025-06-04 15:49:10.574,0.0008906916482305,7.438523053713593
2025-06-04 15:49:10.582,0.0009498010899223,9.534828195427435
2025-06-04 15:49:10.590,0.0010024671157982,11.630292055782418
2025-06-04 15:49:10.598,0.00104775502419,13.701954624946888
2025-06-04 15:49:10.606,0.0010848728770107,15.7263201241682
2025-06-04 15:49:10.613,0.0011131911251968,17.67946667917746
2025-06-04 15:49:10.621,0.0011322601480468,19.53716791150121
2025-06-04 15:49:10.629,0.0011418247982386,21.2750343741634
2025-06-04 15:49:10.637,0.0011418349700163,22.868682661478797
2025-06-04 15:49:10.645,0.0011324511934899,24.29393934290881
2025-06-04 15:49:10.652,0.0011140443404382,25.527085633200254
2025-06-04 15:49:10.660,0.0010871887567194,26.54514696319014
2025-06-04 15:49:10.668,0.0010526485100926,27.326229418418023
2025-06-04 15:49:10.676,0.0010113568867939,27.84990243479681
2025-06-04 15:49:10.684,0.0009643896987906,28.09762426109658
2025-06-04 15:49:10.692,0.0009129333377906,28.053203610833133
2025-06-04 15:49:10.699,0.000858248821399,27.70328774299069
2025-06-04 15:49:10.707,0.0008016332853077,27.03786406251661
2025-06-04 15:49:10.715,0.0007443804334247,26.050759368474328
2025-06-04 15:49:10.723,0.0006877413467236,24.74011826973273
2025-06-04 15:49:10.731,0.0006328868057674,23.10884021642777
2025-06-04 15:49:10.738,0.000580871992912,21.16495324075004
2025-06-04 15:49:10.746,0.0005326042264659,18.92190202871376
2025-06-04 15:49:10.754,0.0004888143221822,16.398728493116497
2025-06-04 15:49:10.762,0.0004500322762411,13.620124683352628
2025-06-04 15:49:10.770,0.0004165681346081,10.616340692175545
2025-06-04 15:49:10.777,0.0003884990417545,7.42293417920184
2025-06-04 15:49:10.785,0.0003656634867917,4.080353130132446
2025-06-04 15:49:10.793,0.000347663726354,0.6333493427550024
2025-06-04 15:49:10.801,0.0003338773341163,-2.8697733534322776
2025-06-04 15:49:10.809,0.0003234787499246,-6.378065257554503
2025-06-04 15:49:10.817,0.0003154713126667,-9.838973525199949
2025-06-04 15:49:10.824,0.0003087293402217,-13.199497018696963
2025-06-04 15:49:10.832,0.0003020485708864,-16.40742283767216
2025-06-04 15:49:10.840,0.0002942022379108,-19.41260904476751
2025-06-04 15:49:10.848,0.0002839995415826,-22.168274284142967
2025-06-04 15:49:10.856,0.0002703432037903,-24.63225260995489
2025-06-04 15:49:10.863,0.00025228289267,-26.768171043076965
2025-06-04 15:49:10.871,0.0002290615223233,-28.546508230311154
2025-06-04 15:49:10.879,0.0002001518618086,-29.945495089581733
2025-06-04 15:49:10.887,0.0001652815877886,-30.951822413219723
2025-06-04 15:49:10.895,0.0001244457921574,-31.56112593338732
2025-06-04 15:49:10.902,7.790683500422383e-05,-31.778226142039603
2025-06-04 15:49:10.910,2.6182188923111267e-05,-31.617107971535155
2025-06-04 15:49:10.918,-2.997847610683881e-05,-31.10063400961428
2025-06-04 15:49:10.926,-8.96252370167815e-05,-30.25999393756204
2025-06-04 15:49:10.934,-0.0001516467839211,-29.13390201098213
2025-06-04 15:49:10.942,-0.0002148138612117,-27.767563304220808
2025-06-04 15:49:10.949,-0.0002778248787401,-26.211437771382425
2025-06-04 15:49:10.957,-0.000339351405215,-24.519838618233248
2025-06-04 15:49:10.965,-0.000398081475701,-22.74940773963809
2025-06-04 15:49:10.973,-0.0004527589106076,-20.957515801145775
2025-06-04 15:49:10.981,-0.0005022171893429,-19.200637716091432
2025-06-04 15:49:10.988,-0.0005454069135694,-17.53275562820866
2025-06-04 15:49:10.996,-0.000581416514097,-16.00384095827566
2025-06-04 15:49:11.004,-0.000609486504644,-14.658464594379554
2025-06-04 15:49:11.012,-0.000629018146273,-13.534579964356602
2025-06-04 15:49:11.020,-0.0006395777383755,-12.662517671105851
2025-06-04 15:49:11.027,-0.0006408978380154,-12.064222815361322
2025-06-04 15:49:11.035,-0.0006328765840481,-11.752757362793286
2025-06-04 15:49:11.043,-0.0006155760501605,-11.732080284355453
2025-06-04 15:49:11.051,-0.000589220196631,-11.99710811800451
2025-06-04 15:49:11.059,-0.0005541925466547,-12.53404850996882
2025-06-04 15:49:11.067,-0.0005110332596594,-13.32098964751768
2025-06-04 15:49:11.074,-0.0004604349344429,-14.328719727097436
2025-06-04 15:49:11.082,-0.0004032363196633,-15.52174310091895
2025-06-04 15:49:11.090,-0.0003404131101716,-16.859453829580268
2025-06-04 15:49:11.098,-0.0002730651038363,-18.29742326407243
2025-06-04 15:49:11.106,-0.00020239918961,-19.788756110664984
2025-06-04 15:49:11.113,-0.0001297080038395,-21.28546921515021
2025-06-04 15:49:11.121,-5.634465351612789e-05,-22.73984895536909
2025-06-04 15:49:11.129,1.6305460540072302e-05,-24.10574647344262
2025-06-04 15:49:11.137,8.685422033539601e-05,-25.33977474642687
2025-06-04 15:49:11.145,0.0001539401371646,-26.402377351275227
2025-06-04 15:49:11.152,0.0002162560059074,-27.25874534588615
2025-06-04 15:49:11.160,0.0002725737198896,-27.87956556581134
2025-06-04 15:49:11.168,0.0003217654750899,-28.241590447220887
2025-06-04 15:49:11.176,0.0003628210298017,-28.328025902208324
2025-06-04 15:49:11.184,0.0003948611835415,-28.128739539621986
2025-06-04 15:49:11.192,0.0004171481252225,-27.64029648223087
2025-06-04 15:49:11.199,0.0004290936136991,-26.86583410956739
2025-06-04 15:49:11.207,0.000430265944868,-25.81479025965203
2025-06-04 15:49:11.215,0.0004203963590349,-24.502501803761767
2025-06-04 15:49:11.223,0.0003993851372539,-22.949692143381803
2025-06-04 15:49:11.231,0.0003673072581365,-21.181867157893254
2025-06-04 15:49:11.238,0.0003244171506289,-19.228639547958508
2025-06-04 15:49:11.246,0.0002711518116066,-17.123001449183725
2025-06-04 15:49:11.254,0.0002081314284612,-14.90056468000206
2025-06-04 15:49:11.262,0.000136156665956,-12.598787057914109
2025-06-04 15:49:11.270,5.620190481123863e-05,-10.25620188078518
2025-06-04 15:49:11.277,-3.05960594243475e-05,-7.911665942768552
2025-06-04 15:49:11.285,-0.0001229540438895,-5.603639373968824
2025-06-04 15:49:11.293,-0.0002194630650203,-3.36950822369418
2025-06-04 15:49:11.301,-0.0003186129670424,-1.2449581492274324
2025-06-04 15:49:11.309,-0.0004188202941909,0.736595037822654
2025-06-04 15:49:11.317,-0.0005184584547276,2.544514713736101
2025-06-04 15:49:11.324,-0.0006158892208462,4.151391633196109
2025-06-04 15:49:11.332,-0.0007094947245877,5.533431693742411
2025-06-04 15:49:11.340,-0.0007977092649946,6.670785183685896
2025-06-04 15:49:11.348,-0.0008790503553418,7.5478199392837375
2025-06-04 15:49:11.356,-0.0009521485040041,8.153340668361455
2025-06-04 15:49:11.363,-0.0010157752829598,8.480755907518871
2025-06-04 15:49:11.371,-0.0010688692975617,8.528192812160281
2025-06-04 15:49:11.379,-0.0011105596868341,8.298558441223067
2025-06-04 15:49:11.387,-0.0011401867365564,7.799544636794633
2025-06-04 15:49:11.395,-0.0011573190897687,7.0435722596498325
2025-06-04 15:49:11.402,-0.001161766906248,6.047669639731953
2025-06-04 15:49:11.410,-0.0011535901984379,4.833279792917876
2025-06-04 15:49:11.418,-0.0011331015281313,3.4259913292262856
2025-06-04 15:49:11.426,-0.0011008623285761,1.8551890500338024
2025-06-04 15:49:11.434,-0.0010576723321116,0.1536219592593867
2025-06-04 15:49:11.442,-0.0010045519351151,-1.6431112934854624
2025-06-04 15:49:11.449,-0.0009427177620203,-3.497156780122991
2025-06-04 15:49:11.457,-0.0008735520727063,-5.369073662956616
2025-06-04 15:49:11.465,-0.0007985669162346,-7.218567535179215
2025-06-04 15:49:11.473,-0.0007193641086735,-9.005276452311683
2025-06-04 15:49:11.481,-0.0006375922560809,-10.689594230266756
2025-06-04 15:49:11.488,-0.0005549021431916,-12.233512683712352
2025-06-04 15:49:11.496,-0.0004729018673851,-13.60146195328115
2025-06-04 15:49:11.504,-0.0003931131672394,-14.761126059343878
2025-06-04 15:49:11.512,-0.0003169304702554,-15.68420945943584
2025-06-04 15:49:11.520,-0.0002455841878024,-16.34712980421007
2025-06-04 15:49:11.527,-0.0001801096723833,-16.731612396876304
2025-06-04 15:49:11.535,-0.0001213230398098,-16.82516315492616
2025-06-04 15:49:11.543,-6.980477097746211e-05,-16.621399209717996
2025-06-04 15:49:11.551,-2.589165396597765e-05,-16.120219676679042
2025-06-04 15:49:11.559,1.0322787673818728e-05,-15.327803554142063
2025-06-04 15:49:11.567,3.897969841731073e-05,-14.256427073023923
2025-06-04 15:49:11.574,6.0438916701640405e-05,-12.924098972238468
2025-06-04 15:49:11.582,7.525680685971274e-05,-11.354018904351324
2025-06-04 15:49:11.590,8.41592864899894e-05,-9.573871215267747
2025-06-04 15:49:11.598,8.801141064052006e-05,-7.614973377111682
2025-06-04 15:49:11.606,8.778467011270408e-05,-5.511305037458595
2025-06-04 15:49:11.613,8.452289847930542e-05,-3.2984496169328725
2025-06-04 15:49:11.621,7.930745271422658e-05,-1.0124852848649797
2025-06-04 15:49:11.629,7.322215503797475e-05,1.311134351795686
2025-06-04 15:49:11.637,6.731833191755023e-05,3.638667659965277
2025-06-04 15:49:11.645,6.258017412496491e-05,5.939098295240371
2025-06-04 15:49:11.652,5.989067190100264e-05,8.185034151281288
2025-06-04 15:49:11.660,5.999864208497598e-05,10.35345554552426
2025-06-04 15:49:11.668,6.348780028855963e-05,12.426281957326228
2025-06-04 15:49:11.676,7.074927695107756e-05,14.39073398926132
2025-06-04 15:49:11.684,8.195933024066295e-05,16.23947591026953
2025-06-04 15:49:11.692,9.706425811519376e-05,17.970533759646365
2025-06-04 15:49:11.699,0.0001157745976706,19.58699406659309
2025-06-04 15:49:11.707,0.0001375704665371,21.09649824622623
2025-06-04 15:49:11.715,0.0001617192310902,22.510557129856466
2025-06-04 15:49:11.723,0.0001873056448695,23.843718356472976
2025-06-04 15:49:11.731,0.0002132734015815,25.11262603436621
2025-06-04 15:49:11.738,0.0002384759161661,26.335016812612206
2025-06-04 15:49:11.746,0.0002617332605935,27.528699038194294
2025-06-04 15:49:11.754,0.0002818916529418,28.71056190231539
2025-06-04 15:49:11.762,0.0002978817513389,29.8956594125818
2025-06-04 15:49:11.770,0.0003087721951967,31.096409797727397
2025-06-04 15:49:11.778,0.0003138153326122,32.32194479386245
2025-06-04 15:49:11.785,0.0003124828495526,33.577635496765545
2025-06-04 15:49:11.793,0.0003044899860408,34.86481247965325
2025-06-04 15:49:11.801,0.000289808029578,36.1806881042342
2025-06-04 15:49:11.809,0.0002686656536526,37.5184788622004
2025-06-04 15:49:11.817,0.0002415403105306,38.86771566113143
2025-06-04 15:49:11.824,0.0002091412467199,40.21472070306621
2025-06-04 15:49:11.832,0.0001723857780473,41.54322147267332
2025-06-04 15:49:11.840,0.0001323702519404,42.8350657992661
2025-06-04 15:49:11.848,9.033669193010276e-05,44.07099736857173
2025-06-04 15:49:11.856,4.763560086969412e-05,45.23144873036601
2025-06-04 15:49:11.863,5.685004001261922e-06,46.29730894363775
2025-06-04 15:49:11.871,-3.407428840729631e-05,47.25062553289772
2025-06-04 15:49:11.879,-7.022701340863412e-05,48.07520524343466
2025-06-04 15:49:11.887,-0.0001014348026282,48.75708487413807
2025-06-04 15:49:11.895,-0.00012648947027,49.28485180733189
2025-06-04 15:49:11.903,-0.000144366561887,49.64980323344762
2025-06-04 15:49:11.910,-0.000154276781714,49.84594291843304
2025-06-04 15:49:11.918,-0.0001557122785418,49.86982409489578
2025-06-04 15:49:11.926,-0.0001484844055591,49.72025609637035
2025-06-04 15:49:11.934,-0.0001327495823296,49.39790016837969
2025-06-04 15:49:11.942,-0.0001090202774975,48.90478603525275
2025-06-04 15:49:11.949,-7.815887591440541e-05,48.24378494641331
2025-06-04 15:49:11.957,-4.135326907622417e-05,47.41807687030112
2025-06-04 15:49:11.965,-7.434967990869955e-08,46.43064918699706
2025-06-04 15:49:11.973,4.3982949147026254e-05,45.28386172465974
2025-06-04 15:49:11.981,8.89720759623571e-05,43.97910848423716
2025-06-04 15:49:11.988,0.0001329766984122,42.51660020309283
2025-06-04 15:49:11.996,0.0001740972271019,40.89528441428661
2025-06-04 15:49:12.004,0.0002105369602183,39.11291132554877
2025-06-04 15:49:12.012,0.0002406827753241,37.16624516720857
2025-06-04 15:49:12.020,0.0002631756173607,35.051412139521055
2025-06-04 15:49:12.028,0.0002769666778718,32.76436819707674
2025-06-04 15:49:12.035,0.000281356135518,30.30146305815214
2025-06-04 15:49:12.043,0.0002760126231004,27.6600713610792
2025-06-04 15:49:12.051,0.0002609730808024,24.8392580555184
2025-06-04 15:49:12.059,0.0002366241259205,21.84044305607671
2025-06-04 15:49:12.067,0.0002036673212317,18.66802993035588
2025-06-04 15:49:12.074,0.0001630716621546,15.329964867340834
2025-06-04 15:49:12.082,0.0001160171965361,11.838195207379703
2025-06-04 15:49:12.090,6.383393199542726e-05,8.209001177203424
2025-06-04 15:49:12.098,7.94007721260223e-06,4.463179887396165
2025-06-04 15:49:12.106,-5.021677565086769e-05,0.6260668222146094
2025-06-04 15:49:12.113,-0.00010921263441,-3.272613312567856
2025-06-04 15:49:12.121,-0.0001676922461001,-7.199067705406336
2025-06-04 15:49:12.129,-0.000224405317974,-11.11592312041301
2025-06-04 15:49:12.137,-0.0002782336630911,-14.982868367645176
2025-06-04 15:49:12.145,-0.0003282099411915,-18.757433965516405
2025-06-04 15:49:12.153,-0.0003735292696519,-22.39588632331567
2025-06-04 15:49:12.160,-0.0004135552183536,-25.85420959269012
2025-06-04 15:49:12.168,-0.0004478215516944,-29.08914516795802
2025-06-04 15:49:12.176,-0.0004760306550006,-32.05925672662043
2025-06-04 15:49:12.184,-0.000498049060057,-34.72598771694638
2025-06-04 15:49:12.192,-0.0005139000319252,-37.05467829889629
2025-06-04 15:49:12.199,-0.0005237529069294,-39.01550987169166
2025-06-04 15:49:12.207,-0.0005279088239766,-40.584347392018486
2025-06-04 15:49:12.215,-0.000526782650259,-41.74345259750476
2025-06-04 15:49:12.223,-0.0005208811935592,-42.48204488742097
2025-06-04 15:49:12.231,-0.00051077813727,-42.79669086676929
2025-06-04 15:49:12.238,-0.0004970865186347,-42.69150833660356
2025-06-04 15:49:12.246,-0.0004804300240982,-42.178175735610345
2025-06-04 15:49:12.254,-0.0004614148477864,-41.27574363620199
2025-06-04 15:49:12.262,-0.000440604179759,-40.01025079365285
2025-06-04 15:49:12.270,-0.0004184973726381,-38.41415333365225
2025-06-04 15:49:12.278,-0.0003955154050804,-36.5255817960624
2025-06-04 15:49:12.285,-0.0003719935152261,-34.3874467352123
2025-06-04 15:49:12.293,-0.000348181048196,-32.04641916584017
2025-06-04 15:49:12.301,-0.0003242478774144,-29.551817061106163
2025-06-04 15:49:12.309,-0.0003002962760224,-26.95443306834225
2025-06-04 15:49:12.317,-0.0002763767137246,-24.30534134071905
2025-06-04 15:49:12.324,-0.0002525056632874,-21.65472266033338
2025-06-04 15:49:12.332,-0.0002286832563747,-19.05074668036553
2025-06-04 15:49:12.340,-0.0002049087536044,-16.538548048104065
2025-06-04 15:49:12.348,-0.0001811923533975,-14.159329390105004
2025-06-04 15:49:12.356,-0.0001575626869681,-11.949618757310391
2025-06-04 15:49:12.363,-0.000134070149677,-9.940702361914992
2025-06-04 15:49:12.371,-0.0001107867898338,-8.15824560655404
2025-06-04 15:49:12.379,-8.78037835888467e-05,-6.622106904958377
2025-06-04 15:49:12.387,-6.522767094271937e-05,-5.346340068493972
2025-06-04 15:49:12.395,-4.317657809764077e-05,-4.339372554079463
2025-06-04 15:49:12.403,-2.177753932031171e-05,-3.604339097908473
2025-06-04 15:49:12.410,-1.1656753076214804e-06,-3.139543627390275
2025-06-04 15:49:12.418,1.851455405442136e-05,-2.9390172323693418
2025-06-04 15:49:12.426,3.710636217044404e-05,-2.993136698541383
2025-06-04 15:49:12.434,5.443672840015755e-05,-3.289266881989354
2025-06-04 15:49:12.442,7.031277270894906e-05,-3.812391143938967
2025-06-04 15:49:12.449,8.45198879634394e-05,-4.545697157476546
2025-06-04 15:49:12.457,9.682318140002192e-05,-5.471090501786539
2025-06-04 15:49:12.465,0.0001069735768404,-6.569615294073902
2025-06-04 15:49:12.473,0.0001147194341343,-7.8217692540555666
2025-06-04 15:49:12.481,0.0001198237975596,-9.207709509830911
2025-06-04 15:49:12.488,0.0001220864992839,-10.70735451735068
2025-06-04 15:49:12.496,0.0001213694642122,-12.30039603175387
2025-06-04 15:49:12.504,0.0001176228357554,-13.966242514805293
2025-06-04 15:49:12.512,0.0001109091104311,-15.683921136734993
2025-06-04 15:49:12.520,0.0001014224539412,-17.431969194262017
2025-06-04 15:49:12.528,8.950079293082179e-05,-19.188347028693617
2025-06-04 15:49:12.535,7.562900023064068e-05,-20.93040326838877
2025-06-04 15:49:12.543,6.0432317920836345e-05,-22.63491949697554
2025-06-04 15:49:12.551,4.465998077566634e-05,-24.27825549510809
2025-06-04 15:49:12.559,2.9159798458393343e-05,-25.836608409851483
2025-06-04 15:49:12.567,1.4845193164644286e-05,-27.286390093411807
2025-06-04 15:49:12.574,2.656772162115546e-06,-28.60471703810889
2025-06-04 15:49:12.582,-6.479151563446841e-06,-29.769997486946885
2025-06-04 15:49:12.590,-1.169262969194795e-05,-30.762591097576752
2025-06-04 15:49:12.598,-1.2210491800186777e-05,-31.565508623835687
2025-06-04 15:49:12.606,-7.393238692359139e-06,-32.16511301682137
2025-06-04 15:49:12.613,3.2330133030889565e-06,-32.55177958846177
2025-06-04 15:49:12.621,1.9950603699303757e-05,-32.72047174034181
2025-06-04 15:49:12.629,4.2831272865061984e-05,-32.67119039805807
2025-06-04 15:49:12.637,7.172478419448964e-05,-32.40925969182786
2025-06-04 15:49:12.645,0.0001062560179281,-31.945418389982688
2025-06-04 15:49:12.653,0.0001458312295156,-31.295695748278664
2025-06-04 15:49:12.660,0.0001896539060491,-30.48106125464548
2025-06-04 15:49:12.668,0.0002367502316973,-29.526849579815856
2025-06-04 15:49:12.676,0.0002860035990702,-28.461974176361856
2025-06-04 15:49:12.684,0.0003361969500785,-27.31795467568938
2025-06-04 15:49:12.692,0.0003860611376699,-26.12779382454297
2025-06-04 15:49:12.699,0.0004343270601683,-24.924748568261798
2025-06-04 15:49:12.707,0.0004797790074162,-23.741046528718776
2025-06-04 15:49:12.715,0.0005213064389807,-22.60660318070092
2025-06-04 15:49:12.723,0.0005579513458375,-21.547796297649587
2025-06-04 15:49:12.731,0.0005889485028051,-20.586352673198444
2025-06-04 15:49:12.738,0.0006137562928478,-19.73839783840102
2025-06-04 15:49:12.746,0.0006320762988868,-19.01371273168037
2025-06-04 15:49:12.754,0.0006438604332285,-18.415232402441795
2025-06-04 15:49:12.762,0.0006493049974501,-17.938811300874306
2025-06-04 15:49:12.770,0.0006488318207056,-17.573268062887593
2025-06-04 15:49:12.778,0.000643057585972,-17.30071052755178
2025-06-04 15:49:12.785,0.0006327535480065,-17.097129629687107
2025-06-04 15:49:12.793,0.0006187988918634,-16.933239379315225
2025-06-04 15:49:12.801,0.0006021318165553,-16.77552990793684
2025-06-04 15:49:12.809,0.0005837028683491,-16.587491984694076
2025-06-04 15:49:12.817,0.000564434784436,-16.330964837419305
2025-06-04 15:49:12.824,0.0005451919537831,-15.967554792510626
2025-06-04 15:49:12.832,0.000526760859583,-15.460070289564264
2025-06-04 15:49:12.840,0.000509841175929,-14.77391922600962
2025-06-04 15:49:12.848,0.0004950459710618,-13.878417223011892
2025-06-04 15:49:12.856,0.000482908719921,-12.747960056055774
2025-06-04 15:49:12.863,0.0004738944015986,-11.36301986313295
2025-06-04 15:49:12.871,0.0004684117995771,-9.710932477534609
2025-06-04 15:49:12.879,0.0004668242681678,-7.786451945790942
2025-06-04 15:49:12.887,0.0004694566949734,-5.592057583466287
2025-06-04 15:49:12.895,0.0004765971235252,-3.138008388606176
2025-06-04 15:49:12.903,0.0004884923915439,-0.4421488809706542
2025-06-04 15:49:12.910,0.000505338050469,2.4705209041265705
2025-06-04 15:49:12.918,0.0005272636383644,5.568490793986273
2025-06-04 15:49:12.926,0.0005543150157634,8.814574199292867
2025-06-04 15:49:12.934,0.0005864359099267,12.166897982445867
2025-06-04 15:49:12.942,0.0006234509948272,15.580012622904512
2025-06-04 15:49:12.949,0.0006650527021155,19.0060847148342
2025-06-04 15:49:12.957,0.0007107934958131,22.39613320299467
2025-06-04 15:49:12.965,0.0007600846210524,25.701271484034795
2025-06-04 15:49:12.973,0.0008122015314191,28.873919379434327
2025-06-04 15:49:12.981,0.0008662955221043,31.868951796970133
2025-06-04 15:49:12.988,0.0009214106735536,34.644754406091266
2025-06-04 15:49:12.996,0.0009765050522886,37.16416064204011
2025-06-04 15:49:13.004,0.0010304751472156,39.39524864436042
2025-06-04 15:49:13.012,0.0010821826009434,41.31198119994799
2025-06-04 15:49:13.020,0.001130482291117,42.8946763272422
2025-06-04 15:49:13.028,0.0011742507034942,44.13030078014608
2025-06-04 15:49:13.035,0.0012124134226046,45.01258346433837
2025-06-04 15:49:13.043,0.0012439706035288,45.54195053699498
2025-06-04 15:49:13.051,0.0012680195830164,45.72528876688962
2025-06-04 15:49:13.059,0.0012837743058123,45.57554848326608
2025-06-04 15:49:13.067,0.0012905818123513,45.11120200537848
2025-06-04 15:49:13.074,0.0012879364586849,44.35557764188374
2025-06-04 15:49:13.082,0.0012754926964863,43.33609297506987
2025-06-04 15:49:13.090,0.0012530770995642,42.08341399225275
2025-06-04 15:49:13.098,0.0012206999237882,40.63056851313133
2025-06-04 15:49:13.106,0.0011785659339436,39.012043151640746
