Timestamp,GSR_Filtered,PPG_Filtered,FMS,Condition
2025-06-04 15:58:02.149,0.0005835873567162,-10.2168457268614,0.0,DB
2025-06-04 15:58:02.156,0.0005309873234554,-9.107020809960822,0.0,DB
2025-06-04 15:58:02.164,0.0004767454290587,-8.031517344389142,0.0,DB
2025-06-04 15:58:02.172,0.000421713050959,-7.003789728905776,0.0,DB
2025-06-04 15:58:02.180,0.0003666786675002,-6.035350499375681,0.0,DB
2025-06-04 15:58:02.188,0.0003123452631298,-5.135645578897441,0.0,DB
2025-06-04 15:58:02.195,0.0002593125374539,-4.31198455442423,0.0,DB
2025-06-04 15:58:02.203,0.0002080642498888,-3.569523462025547,0.0,DB
2025-06-04 15:58:02.211,0.0001589608234989,-2.9112964740920257,0.0,DB
2025-06-04 15:58:02.219,0.0001122371345671,-2.338292046832571,0.0,DB
2025-06-04 15:58:02.227,6.800523352933257e-05,-1.8495684878417304,0.0,DB
2025-06-04 15:58:02.234,2.62615821474563e-05,-1.4424035175690366,0.0,DB
2025-06-04 15:58:02.242,-1.3101745758792826e-05,-1.1124721975194989,0.0,DB
2025-06-04 15:58:02.250,-5.0282564904405504e-05,-0.8540475534459372,0.0,DB
2025-06-04 15:58:02.258,-8.555153084142344e-05,-0.6602183071706296,0.0,DB
2025-06-04 15:58:02.266,-0.0001192333525131,-0.5231183209173348,0.0,DB
2025-06-04 15:58:02.274,-0.0001516871043491,-0.4341626264177954,0.0,DB
2025-06-04 15:58:02.281,-0.00018328648095,-0.3842852283432793,0.0,DB
2025-06-04 15:58:02.289,-0.0002144008149836,-0.3641742094716276,0.0,DB
2025-06-04 15:58:02.297,-0.0002453776314208,-0.3645000009396489,0.0,DB
2025-06-04 15:58:02.305,-0.0002765274400201,-0.3761330005809692,0.0,DB
2025-06-04 15:58:02.313,-0.0003081113745928,-0.3903470184451824,0.0,DB
2025-06-04 15:58:02.320,-0.0003403321737772,-0.399005300792995,0.0,DB
2025-06-04 15:58:02.328,-0.0003733288657436,-0.394726141943769,0.0,DB
2025-06-04 15:58:02.336,-0.0004071753705636,-0.371025359036616,0.0,DB
2025-06-04 15:58:02.344,-0.0004418830712576,-0.3224332062655133,0.0,DB
2025-06-04 15:58:02.352,-0.000477407230398,-0.2445836666530854,0.0,DB
2025-06-04 15:58:02.359,-0.0005136569465322,-0.1342744940767606,0.0,DB
2025-06-04 15:58:02.367,-0.0005505081568626,0.0105031106625017,0.0,DB
2025-06-04 15:58:02.375,-0.0005878190032449,0.1905657194919887,0.0,DB
2025-06-04 15:58:02.383,-0.0006254466970367,0.4055696626836809,0.0,DB
2025-06-04 15:58:02.391,-0.0006632648810306,0.6540729236489328,0.0,DB
2025-06-04 15:58:02.399,-0.0007011804663841,0.9336253053475266,0.0,DB
2025-06-04 15:58:02.406,-0.0007391490610442,1.2408844220456965,0.0,DB
2025-06-04 15:58:02.414,-0.0007771883219188,1.5717542715741248,0.0,DB
2025-06-04 15:58:02.422,-0.0008153887020364,1.921542400811396,0.0,DB
2025-06-04 15:58:02.430,-0.0008539210776541,2.2851310372652223,0.0,DB
2025-06-04 15:58:02.438,-0.0008930407465055,2.657157061392041,0.0,DB
2025-06-04 15:58:02.445,-0.0009330874322623,3.03219536518319,0.0,DB
2025-06-04 15:58:02.453,-0.0009744812336662,3.4049399989344464,0.0,DB
2025-06-04 15:58:02.461,-0.0010177148064095,3.770377558562816,0.0,DB
2025-06-04 15:58:02.469,-0.0010633423035065,4.123947513855828,0.0,DB
2025-06-04 15:58:02.477,-0.00111196564111,4.46168462152367,0.0,DB
2025-06-04 15:58:02.484,-0.0011642185636973,4.780339194235783,0.0,DB
2025-06-04 15:58:02.492,-0.0012207488757185,5.077471782639673,0.0,DB
2025-06-04 15:58:02.500,-0.0012821990938158,5.351519731693678,0.0,DB
2025-06-04 15:58:02.508,-0.0013491855706132,5.601834043641971,0.0,DB
2025-06-04 15:58:02.516,-0.0014222758580057,5.828685959038818,0.0,DB
2025-06-04 15:58:02.524,-0.0015019638457385,6.033243596470243,0.0,DB
2025-06-04 15:58:02.531,-0.0015886421369159,6.217519823400379,0.0,DB
2025-06-04 15:58:02.539,-0.0016825712421866,6.384293236537527,0.0,DB
2025-06-04 15:58:02.547,-0.0017838455171062,6.537004705222038,0.0,DB
2025-06-04 15:58:02.555,-0.0018923563520427,6.67963239007442,0.0,DB
2025-06-04 15:58:02.563,-0.0020077538854248,6.816548514868569,0.0,DB
2025-06-04 15:58:02.570,-0.0021294092688977,6.952361462957616,0.0,DB
2025-06-04 15:58:02.578,-0.0022563800808514,7.091747002730373,0.0,DB
2025-06-04 15:58:02.586,-0.002387381822731,7.239272623779276,0.0,DB
2025-06-04 15:58:02.594,-0.0025207686050176,7.39921908621479,0.0,DB
2025-06-04 15:58:02.602,-0.0026545261156348,7.575403348557423,0.0,DB
2025-06-04 15:58:02.609,-0.0027862796355011,7.771007047890179,0.0,DB
2025-06-04 15:58:02.617,-0.0029133191568929,7.988414670349265,0.0,DB
2025-06-04 15:58:02.625,-0.0030326426361735,8.229065485988297,0.0,DB
2025-06-04 15:58:02.633,-0.0031410172114029,8.493323239596783,0.0,DB
2025-06-04 15:58:02.641,-0.0032350570162389,8.780367485974187,0.0,DB
2025-06-04 15:58:02.649,-0.0033113152216187,9.088110323286598,0.0,DB
2025-06-04 15:58:02.656,-0.003366387248187,9.413142097492695,0.0,DB
2025-06-04 15:58:02.664,-0.0033970216689482,9.75070940602018,0.0,DB
2025-06-04 15:58:02.672,-0.0034002350357912,10.094728390803096,0.0,DB
2025-06-04 15:58:02.680,-0.0033734266303159,10.43783584058891,0.0,DB
2025-06-04 15:58:02.688,-0.0033144889464521,10.771479982054773,0.0,DB
2025-06-04 15:58:02.695,-0.0032219095830385,11.086052002312508,0.0,DB
2025-06-04 15:58:02.703,-0.0030948601899316,11.371058301853532,0.0,DB
2025-06-04 15:58:02.711,-0.0029332682033817,11.61533223606294,0.0,DB
2025-06-04 15:58:02.719,-0.0027378673566155,11.807282696721485,0.0,DB
2025-06-04 15:58:02.727,-0.0025102233884981,11.93517536684096,0.0,DB
2025-06-04 15:58:02.734,-0.0022527320210708,11.987440926180918,0.0,DB
2025-06-04 15:58:02.742,-0.0019685871536385,11.953002977400216,0.0,DB
2025-06-04 15:58:02.750,-0.0016617183367873,11.821617095679466,0.0,DB
2025-06-04 15:58:02.758,-0.0013366979444461,11.58421126452244,0.0,DB
2025-06-04 15:58:02.766,-0.000998620050345,11.233217120153665,0.0,DB
2025-06-04 15:58:02.774,-0.0006529548352006,10.76288094152519,0.0,DB
2025-06-04 15:58:02.781,-0.0003053843548416,10.16954323091039,0.0,DB
2025-06-04 15:58:02.789,3.8372572606137694e-05,9.451876056775165,0.0,DB
2025-06-04 15:58:02.797,0.0003727372886366,8.611068090062899,0.0,DB
2025-06-04 15:58:02.805,0.0006924407447339,7.650948457329923,0.0,DB
2025-06-04 15:58:02.813,0.0009926771081346,6.5780421409232535,0.0,DB
2025-06-04 15:58:02.820,0.001269234759529,5.4015516383787965,0.0,DB
2025-06-04 15:58:02.828,0.0015185998195465,4.133261892034638,0.0,DB
2025-06-04 15:58:02.836,0.0017380293105219,2.787368040631642,0.0,DB
2025-06-04 15:58:02.844,0.0019255929302442,1.3802282368247083,0.0,DB
2025-06-04 15:58:02.852,0.0020801840256975,-0.0699534875868343,0.0,DB
2025-06-04 15:58:02.859,0.0022015016797699,-1.54350665949503,0.0,DB
2025-06-04 15:58:02.867,0.0022900069397318,-3.0197259792620037,0.0,DB
2025-06-04 15:58:02.875,0.0023468571178881,-4.47734281857138,0.0,DB
2025-06-04 15:58:02.883,0.002373822672214,-5.895022561119224,0.0,DB
2025-06-04 15:58:02.891,0.0023731913772131,-7.25187251883072,0.0,DB
2025-06-04 15:58:02.899,0.0023476643965472,-8.527944523416565,0.0,DB
2025-06-04 15:58:02.906,0.0023002485781895,-9.704716299733049,0.0,DB
2025-06-04 15:58:02.914,0.0022341488849258,-10.765536384477944,0.0,DB
2025-06-04 15:58:02.922,0.0021526643964024,-11.696018634769407,0.0,DB
2025-06-04 15:58:02.930,0.0020590908148498,-12.484374212615826,0.0,DB
2025-06-04 15:58:02.938,0.001956631912926,-13.12167123711062,0.0,DB
2025-06-04 15:58:02.945,0.0018483219065048,-13.60201494648998,0.0,DB
2025-06-04 15:58:02.953,0.0017369603127823,-13.922644075322683,0.0,DB
2025-06-04 15:58:02.961,0.0016250604171364,-14.083942095544485,0.0,DB
2025-06-04 15:58:02.969,0.0015148119914754,-14.089364865841064,0.0,DB
2025-06-04 15:58:02.977,0.0014080584374345,-13.94528896042425,0.0,DB
2025-06-04 15:58:02.984,0.0013062881269223,-13.660787394597758,0.0,DB
2025-06-04 15:58:02.992,0.0012106393143703,-13.247341539129472,0.0,DB
2025-06-04 15:58:03.000,0.0011219174889964,-12.718499654805736,0.0,DB
2025-06-04 15:58:03.008,0.0010406234372771,-12.089493650617094,0.0,DB
2025-06-04 15:58:03.016,0.0009669897271221,-11.376826370886713,0.0,DB
2025-06-04 15:58:03.024,0.0009010229197432,-10.597841968192022,0.0,DB
2025-06-04 15:58:03.031,0.0008425486067981,-9.770291755772252,0.0,DB
2025-06-04 15:58:03.039,0.0007912563639297,-8.911907401481887,0.0,DB
2025-06-04 15:58:03.047,0.0007467419001777,-8.039992479049328,0.0,DB
2025-06-04 15:58:03.055,0.0007085440525782,-7.171042289844308,0.0,DB
2025-06-04 15:58:03.063,0.0006761748076923,-6.320400568236318,0.0,DB
2025-06-04 15:58:03.070,0.0006491412029626,-5.501960240755543,0.0,DB
2025-06-04 15:58:03.078,0.0006269587372776,-4.7279138736807305,0.0,DB
2025-06-04 15:58:03.086,0.0006091567384499,-4.008557863076739,0.0,DB
2025-06-04 15:58:03.094,0.0005952768880074,-3.3521528429253804,0.0,DB
2025-06-04 15:58:03.102,0.0005848666806054,-2.764841255672886,0.0,DB
2025-06-04 15:58:03.109,0.0005774699413163,-2.250621582814748,0.0,DB
2025-06-04 15:58:03.117,0.0005726166245598,-1.8113773962203836,0.0,DB
2025-06-04 15:58:03.125,0.0005698139679778,-1.446958173817677,0.0,DB
2025-06-04 15:58:03.133,0.000568540708838,-1.1553077242846264,0.0,DB
2025-06-04 15:58:03.141,0.0005682455813148,-0.9326350813914293,0.0,DB
2025-06-04 15:58:03.149,0.0005683507909317,-0.7736218653507205,0.0,DB
2025-06-04 15:58:03.156,0.0005682606563193,-0.6716593823261315,0.0,DB
2025-06-04 15:58:03.164,0.0005673751395865,-0.6191081647825921,0.0,DB
2025-06-04 15:58:03.172,0.0005651075698552,-0.6075722626620894,0.0,DB
2025-06-04 15:58:03.180,0.0005609055132726,-0.6281803911558075,0.0,DB
2025-06-04 15:58:03.188,0.0005542734688393,-0.671866033424009,0.0,DB
2025-06-04 15:58:03.195,0.0005447958824448,-0.72963879161906,0.0,DB
2025-06-04 15:58:03.203,0.0005321588792192,-0.7928396804045967,0.0,DB
2025-06-04 15:58:03.211,0.0005161691218889,-0.8533736629091387,0.0,DB
2025-06-04 15:58:03.219,0.0004967683128893,-0.903913531421622,0.0,DB
2025-06-04 15:58:03.227,0.0004740420703613,-0.9380702179852296,0.0,DB
2025-06-04 15:58:03.234,0.0004482222197472,-0.9505257605662768,0.0,DB
2025-06-04 15:58:03.242,0.0004196819473663,-0.9371264182345266,0.0,DB
2025-06-04 15:58:03.250,0.0003889237454899,-0.8949347829340991,0.0,DB
2025-06-04 15:58:03.258,0.0003565605957577,-0.8222411241842353,0.0,DB
2025-06-04 15:58:03.266,0.0003232913059283,-0.7185355671286424,0.0,DB
2025-06-04 15:58:03.274,0.0002898712734301,-0.5844439818113654,0.0,DB
2025-06-04 15:58:03.281,0.000257080226722,-0.4216315925631882,0.0,DB
2025-06-04 15:58:03.289,0.0002256887281486,-0.2326792482056372,0.0,DB
2025-06-04 15:58:03.297,0.0001964253281396,-0.0209379853693981,0.0,DB
2025-06-04 15:58:03.305,0.0001699461190906,0.2096320579882798,0.0,DB
2025-06-04 15:58:03.313,0.0001468080584116,0.4546321743535276,0.0,DB
2025-06-04 15:58:03.320,0.0001274469448674,0.7093989818012857,0.0,DB
2025-06-04 15:58:03.328,0.0001121604580625,0.9691759652713028,0.0,DB
2025-06-04 15:58:03.336,0.0001010962648496,1.229277504382497,0.0,DB
2025-06-04 15:58:03.344,9.424490689283092e-05,1.48524091599359,0.0,DB
2025-06-04 15:58:03.352,9.143708607917084e-05,1.732962795394016,0.0,DB
2025-06-04 15:58:03.359,9.234509984544068e-05,1.968816713715559,0.0,DB
2025-06-04 15:58:03.367,9.648845510392646e-05,2.189750086424051,0.0,DB
2025-06-04 15:58:03.375,0.0001032439082392,2.3933587466759967,0.0,DB
2025-06-04 15:58:03.383,0.0001118601805499,2.5779384248734085,0.0,DB
2025-06-04 15:58:03.391,0.0001214773781253,2.742512943560312,0.0,DB
2025-06-04 15:58:03.399,0.0001311508457055,2.886839477048392,0.0,DB
2025-06-04 15:58:03.406,0.0001398789631958,3.011391690647668,0.0,DB
2025-06-04 15:58:03.414,0.0001466342669852,3.1173219641086725,0.0,DB
2025-06-04 15:58:03.422,0.0001503971571395,3.206404227503832,0.0,DB
2025-06-04 15:58:03.430,0.0001501913122508,3.280959212315476,0.0,DB
2025-06-04 15:58:03.438,0.0001451198242775,3.343764161618617,0.0,DB
2025-06-04 15:58:03.445,0.0001344009806814,3.39794925884236,0.0,DB
2025-06-04 15:58:03.453,0.0001174024965788,3.446883224716613,0.0,DB
2025-06-04 15:58:03.461,9.367281206291162e-05,3.494050693187431,0.0,DB
2025-06-04 15:58:03.469,6.296790179086875e-05,3.542924107262731,0.0,DB
2025-06-04 15:58:03.477,2.527204821363766e-05,3.5968329768533214,0.0,DB
2025-06-04 15:58:03.485,-1.918873196130425e-05,3.6588334168408654,0.0,DB
2025-06-04 15:58:03.492,-6.994156452499272e-05,3.731580936295516,0.0,DB
2025-06-04 15:58:03.500,-0.0001262705116815,3.8172094747885046,0.0,DB
2025-06-04 15:58:03.508,-0.0001872295527411,3.917219671102377,0.0,DB
2025-06-04 15:58:03.516,-0.0002516646402503,4.032379294573835,0.0,DB
2025-06-04 15:58:03.524,-0.000318244355312,4.162638661392228,0.0,DB
2025-06-04 15:58:03.531,-0.0003854983789846,4.307063691309995,0.0,DB
2025-06-04 15:58:03.539,-0.0004518627027528,4.463789035008244,0.0,DB
2025-06-04 15:58:03.547,-0.0005157301545315,4.629993428264277,0.0,DB
2025-06-04 15:58:03.555,-0.0005755043986623,4.801899119880766,0.0,DB
2025-06-04 15:58:03.563,-0.000629655124055,4.974796885777032,0.0,DB
2025-06-04 15:58:03.570,-0.00067677178771,5.1430977819097485,0.0,DB
2025-06-04 15:58:03.578,-0.0007156131967914,5.300412394572623,0.0,DB
2025-06-04 15:58:03.586,-0.0007451504739085,5.43965790174676,0.0,DB
2025-06-04 15:58:03.594,-0.0007646014788972,5.553192741232715,0.0,DB
2025-06-04 15:58:03.602,-0.0007734553946086,5.632978064109954,0.0,DB
2025-06-04 15:58:03.610,-0.0007714868032873,5.67076441188568,0.0,DB
2025-06-04 15:58:03.617,-0.000758759135347,5.658301180876522,0.0,DB
2025-06-04 15:58:03.625,-0.0007356178507812,5.587565436297621,0.0,DB
2025-06-04 15:58:03.633,-0.0007026741111124,5.45100554164824,0.0,DB
2025-06-04 15:58:03.641,-0.0006607800159083,5.241793926024648,0.0,DB
2025-06-04 15:58:03.649,-0.0006109967144494,4.954082189693239,0.0,DB
2025-06-04 15:58:03.656,-0.0005545568643591,4.583250730296084,0.0,DB
2025-06-04 15:58:03.664,-0.0004928230008454,4.126144255083626,0.0,DB
2025-06-04 15:58:03.672,-0.0004272434097844,3.581284025359829,0.0,DB
2025-06-04 15:58:03.680,-0.0003593070730117,2.94904753941193,0.0,DB
2025-06-04 15:58:03.688,-0.0002904991828716,2.2318066577952647,0.0,DB
2025-06-04 15:58:03.695,-0.000222258613112,1.4340159441765932,0.0,DB
2025-06-04 15:58:03.703,-0.0001559385918371,0.5622442449076972,0.0,DB
2025-06-04 15:58:03.711,-9.277165587620588e-05,-0.3748557603806919,0.0,DB
2025-06-04 15:58:03.719,-3.383978004408113e-05,-1.3666431918655015,0.0,DB
2025-06-04 15:58:03.727,1.9949626258085617e-05,-2.4006505107925484,0.0,DB
2025-06-04 15:58:03.735,6.788137549614626e-05,-3.4628090583547744,0.0,DB
2025-06-04 15:58:03.742,0.0001094435542079,-4.537733973479932,0.0,DB
2025-06-04 15:58:03.750,0.0001443319438869,-5.609061234138775,0.0,DB
2025-06-04 15:58:03.758,0.000172448015324,-6.659827151294038,0.0,DB
2025-06-04 15:58:03.766,0.000193890902114,-7.672878595230911,0.0,DB
2025-06-04 15:58:03.774,0.0002089438605021,-8.631300677718112,0.0,DB
2025-06-04 15:58:03.781,0.0002180556871035,-9.518847645117168,0.0,DB
2025-06-04 15:58:03.789,0.0002218174789034,-10.320362409762296,0.0,DB
2025-06-04 15:58:03.797,0.0002209351438288,-11.022170467332112,0.0,DB
2025-06-04 15:58:03.805,0.0002161982875568,-11.612434883788485,0.0,DB
2025-06-04 15:58:03.813,0.0002084464638894,-12.081460522080782,0.0,DB
2025-06-04 15:58:03.820,0.000198534172478,-12.421937628551898,0.0,DB
2025-06-04 15:58:03.828,0.0001872963015216,-12.629117208767068,0.0,DB
2025-06-04 15:58:03.836,0.0001755158501824,-12.700913179549614,0.0,DB
2025-06-04 15:58:03.844,0.0001638956907727,-12.63792897060728,0.0,DB
2025-06-04 15:58:03.852,0.0001530358480707,-12.44340894728291,0.0,DB
2025-06-04 15:58:03.860,0.0001434172981855,-12.123117621822278,0.0,DB
2025-06-04 15:58:03.867,0.0001353927031476,-11.68515200793172,0.0,DB
2025-06-04 15:58:03.875,0.0001291839698843,-11.139694557495991,0.0,DB
2025-06-04 15:58:03.883,0.0001248861881513,-10.49871582106613,0.0,DB
2025-06-04 15:58:03.891,0.0001224773270373,-9.775637241267663,0.0,DB
2025-06-04 15:58:03.899,0.0001218329112013,-8.984965299354268,0.0,DB
2025-06-04 15:58:03.906,0.0001227446826392,-8.141908604905765,0.0,DB
2025-06-04 15:58:03.914,0.0001249420287627,-7.261989492101557,0.0,DB
2025-06-04 15:58:03.922,0.0001281147979929,-6.36066132182337,0.0,DB
2025-06-04 15:58:03.930,0.000131936065642,-5.452942042633404,0.0,DB
2025-06-04 15:58:03.938,0.0001360834614279,-4.553073677866016,0.0,DB
2025-06-04 15:58:03.945,0.0001402578227962,-3.6742163092772193,0.0,DB
2025-06-04 15:58:03.953,0.0001441981894395,-2.82818384196072,0.0,DB
2025-06-04 15:58:03.961,0.0001476924952107,-2.025227386790654,0.0,DB
2025-06-04 15:58:03.969,0.0001505837270817,-1.273870523213694,0.0,DB
2025-06-04 15:58:03.977,0.0001527717554771,-0.5807990549220621,0.0,DB
2025-06-04 15:58:03.985,0.0001542113799348,0.0491938052199507,0.0,DB
2025-06-04 15:58:03.992,0.0001549072554355,0.6132075399096912,0.0,DB
2025-06-04 15:58:04.000,0.0001549062927579,1.1101820342518918,0.0,DB
2025-06-04 15:58:04.008,0.000154288059385,1.5407966907935144,0.0,DB
2025-06-04 15:58:04.016,0.0001531538009085,1.9073261135110533,0.0,DB
2025-06-04 15:58:04.024,0.0001516149064117,2.213458697079348,0.0,DB
2025-06-04 15:58:04.031,0.0001497818034577,2.464085415144949,0.0,DB
2025-06-04 15:58:04.039,0.0001477542815195,2.6650668037675893,0.0,DB
2025-06-04 15:58:04.047,0.0001456140691149,2.8229865490402504,0.0,DB
2025-06-04 15:58:04.055,0.0001434201628522,2.944900181822879,0.0,DB
2025-06-04 15:58:04.063,0.0001412070185815,3.038087142014596,0.0,DB
2025-06-04 15:58:04.070,0.000138985355123,3.109813907178768,0.0,DB
2025-06-04 15:58:04.078,0.0001367450346628,3.167115018504443,0.0,DB
2025-06-04 15:58:04.086,0.0001344592863105,3.2165977350500867,0.0,DB
2025-06-04 15:58:04.094,0.0001320894372825,3.264274773739846,0.0,DB
2025-06-04 15:58:04.102,0.0001295893131561,3.3154282259580463,0.0,DB
2025-06-04 15:58:04.110,0.0001269085645951,3.374506364588994,0.0,DB
2025-06-04 15:58:04.117,0.0001239943694617,3.445053748927032,0.0,DB
2025-06-04 15:58:04.125,0.0001207912395085,3.5296738696594705,0.0,DB
2025-06-04 15:58:04.133,0.0001172390145729,3.630022603389132,0.0,DB
2025-06-04 15:58:04.141,0.000113269509498,3.746829993119669,0.0,DB
2025-06-04 15:58:04.149,0.000108802600921,3.879947341892857,0.0,DB
2025-06-04 15:58:04.156,0.0001037427104888,4.028416285023995,0.0,DB
2025-06-04 15:58:04.164,9.797662516322236e-05,4.190556357807437,0.0,DB
2025-06-04 15:58:04.172,9.137342716433912e-05,4.364067553988877,0.0,DB
2025-06-04 15:58:04.180,8.378706198963408e-05,4.54614442918197,0.0,DB
2025-06-04 15:58:04.188,7.506183705831096e-05,4.733598406146959,0.0,DB
2025-06-04 15:58:04.195,6.504092977587492e-05,4.922985061086581,0.0,DB
2025-06-04 15:58:04.203,5.357772466450657e-05,5.1107332957858285,0.0,DB
2025-06-04 15:58:04.211,4.054946118904342e-05,5.293273418862813,0.0,DB
2025-06-04 15:58:04.219,2.5872318114234816e-05,5.467161266902433,0.0,DB
2025-06-04 15:58:04.227,9.51677034606882e-06,5.629195598858845,0.0,DB
2025-06-04 15:58:04.235,-8.478125618822284e-06,5.776526110497235,0.0,DB
2025-06-04 15:58:04.242,-2.7992917581002945e-05,5.906749561287651,0.0,DB
2025-06-04 15:58:04.250,-4.881974286830712e-05,6.017991704941319,0.0,DB
2025-06-04 15:58:04.258,-7.065924098210759e-05,6.108972980139023,0.0,DB
2025-06-04 15:58:04.266,-9.312319819796006e-05,6.179056252688856,0.0,DB
2025-06-04 15:58:04.274,-0.0001157432902845,6.228275298151684,0.0,DB
2025-06-04 15:58:04.281,-0.0001379857547243,6.257343163544618,0.0,DB
2025-06-04 15:58:04.289,-0.0001592712471524,6.2676400345353365,0.0,DB
2025-06-04 15:58:04.297,-0.000178998639169,6.261180746145067,0.0,DB
2025-06-04 15:58:04.305,-0.0001965712309731,6.240562594971441,0.0,DB
2025-06-04 15:58:04.313,-0.000211423797147,6.208894621934816,0.0,DB
2025-06-04 15:58:04.320,-0.0002230489409984,6.169710016539019,0.0,DB
2025-06-04 15:58:04.328,-0.0002310213256225,6.126863725004085,0.0,DB
2025-06-04 15:58:04.336,-0.0002350185197305,6.084417704428562,0.0,DB
2025-06-04 15:58:04.344,-0.0002348374776414,6.046516535256333,0.0,DB
2025-06-04 15:58:04.352,-0.0002304060108847,6.017256272386391,0.0,DB
2025-06-04 15:58:04.360,-0.000221788926049,6.000549480557239,0.0,DB
2025-06-04 15:58:04.367,-0.0002091887613008,5.999989379156201,0.0,DB
2025-06-04 15:58:04.375,-0.0001929412434077,6.018715948702672,0.0,DB
2025-06-04 15:58:04.383,-0.0001735057073598,6.059286764735829,0.0,DB
2025-06-04 15:58:04.391,-0.0001514507736581,6.123555255819654,0.0,DB
2025-06-04 15:58:04.399,-0.000127435573666,6.212559047573206,0.0,DB
2025-06-04 15:58:04.406,-0.0001021867947662,6.326421056979481,0.0,DB
2025-06-04 15:58:04.414,-7.647189785575744e-05,6.464266032067957,0.0,DB
2025-06-04 15:58:04.422,-5.10691862625084e-05,6.624155271654618,0.0,DB
2025-06-04 15:58:04.430,-2.673600590413937e-05,6.803042278676633,0.0,DB
2025-06-04 15:58:04.438,-4.177027914278953e-06,6.99675206318245,0.0,DB
2025-06-04 15:58:04.445,1.5985018725301336e-05,7.19998668019273,0.0,DB
2025-06-04 15:58:04.453,3.3233835154402494e-05,7.406359330936262,0.0,DB
2025-06-04 15:58:04.461,4.717738769817519e-05,7.608458951379085,0.0,DB
2025-06-04 15:58:04.469,5.755793137643968e-05,7.797946649357947,0.0,DB
2025-06-04 15:58:04.477,6.425390171147949e-05,7.965684629886856,0.0,DB
2025-06-04 15:58:04.485,6.727421521268057e-05,8.101897374499293,0.0,DB
2025-06-04 15:58:04.492,6.674626194886932e-05,8.196363832963296,0.0,DB
2025-06-04 15:58:04.500,6.289932671249267e-05,8.238638274578099,0.0,DB
2025-06-04 15:58:04.508,5.604525204497048e-05,8.218296272576799,0.0,DB
2025-06-04 15:58:04.516,4.6557934666592666e-05,8.1252011101468,0.0,DB
2025-06-04 15:58:04.524,3.485289034325873e-05,7.949784759197008,0.0,DB
2025-06-04 15:58:04.531,2.136775598434077e-05,7.683336553273079,0.0,DB
2025-06-04 15:58:04.539,6.544276519226707e-06,7.31829180957059,0.0,DB
2025-06-04 15:58:04.547,-9.18793225678184e-06,6.848512002632044,0.0,DB
2025-06-04 15:58:04.555,-2.5425733877529352e-05,6.269547698902249,0.0,DB
2025-06-04 15:58:04.563,-4.1804919807511056e-05,5.578875358931998,0.0,DB
2025-06-04 15:58:04.570,-5.801075041127977e-05,4.776099315622797,0.0,DB
2025-06-04 15:58:04.578,-7.378650840689136e-05,3.8631107399269458,0.0,DB
2025-06-04 15:58:04.586,-8.893986439848328e-05,2.844196203561527,0.0,DB
2025-06-04 15:58:04.594,-0.0001033467624051,1.7260895393324107,0.0,DB
2025-06-04 15:58:04.602,-0.0001169525237521,0.5179620806284229,0.0,DB
2025-06-04 15:58:04.610,-0.0001297699048348,-0.7686519839961099,0.0,DB
2025-06-04 15:58:04.617,-0.0001418738804367,-2.1199965165549006,0.0,DB
2025-06-04 15:58:04.625,-0.0001533930032953,-3.52029990875212,0.0,DB
2025-06-04 15:58:04.633,-0.0001644973601596,-4.952044287020137,0.0,DB
2025-06-04 15:58:04.641,-0.0001753833522878,-6.396292421796894,0.0,DB
2025-06-04 15:58:04.649,-0.0001862557256384,-7.83306522253229,0.0,DB
2025-06-04 15:58:04.656,-0.0001973075057178,-9.241760774527062,0.0,DB
2025-06-04 15:58:04.664,-0.0002086987845988,-10.601604209834086,0.0,DB
2025-06-04 15:58:04.672,-0.0002205356045893,-11.892116379309636,0.0,DB
2025-06-04 15:58:04.680,-0.0002328504036335,-13.093588364170008,0.0,DB
2025-06-04 15:58:04.688,-0.000245585590719,-14.187548368644157,0.0,DB
2025-06-04 15:58:04.695,-0.0002585817948168,-15.157207484646072,0.0,DB
2025-06-04 15:58:04.703,-0.0002715721771412,-15.98787120992406,0.0,DB
2025-06-04 15:58:04.711,-0.0002841839169596,-16.667304413706677,0.0,DB
2025-06-04 15:58:04.719,-0.0002959475832174,-17.18603865225141,0.0,DB
2025-06-04 15:58:04.727,-0.0003063145994975,-17.537612312102286,0.0,DB
2025-06-04 15:58:04.735,-0.000314682413981,-17.71873596571667,0.0,DB
2025-06-04 15:58:04.742,-0.0003204263239937,-17.729377511424165,0.0,DB
2025-06-04 15:58:04.750,-0.0003229362367401,-17.57276406859843,0.0,DB
2025-06-04 15:58:04.758,-0.0003216560999215,-17.25530012922374,0.0,DB
2025-06-04 15:58:04.766,-0.0003161234469093,-16.786404043668732,0.0,DB
2025-06-04 15:58:04.774,-0.000306006488602,-16.17826745292403,0.0,DB
2025-06-04 15:58:04.781,-0.0002911363332591,-15.44554467996908,0.0,DB
2025-06-04 15:58:04.789,-0.0002715321500752,-14.604981266708938,0.0,DB
2025-06-04 15:58:04.797,-0.0002474174520719,-13.674992701398104,0.0,DB
2025-06-04 15:58:04.805,-0.0002192261902252,-12.675205846918498,0.0,DB
2025-06-04 15:58:04.813,-0.0001875979639756,-11.625976594246612,0.0,DB
2025-06-04 15:58:04.820,-0.0001533622791359,-10.547897793581178,0.0,DB
2025-06-04 15:58:04.828,-0.0001175123757253,-9.461311546576503,0.0,DB
2025-06-04 15:58:04.836,-8.11696863189591e-05,-8.38583948523227,0.0,DB
2025-06-04 15:58:04.844,-4.5540457619883096e-05,-7.339943742648042,0.0,DB
2025-06-04 15:58:04.852,-1.186646302007394e-05,-6.3405299835622895,0.0,DB
2025-06-04 15:58:04.860,1.862795791666501e-05,-5.402602174301333,0.0,DB
2025-06-04 15:58:04.867,4.479008423279833e-05,-4.538976818097554,0.0,DB
2025-06-04 15:58:04.875,6.55916631433397e-05,-3.7600622629920575,0.0,DB
2025-06-04 15:58:04.883,8.017786181475315e-05,-3.0737065103151497,0.0,DB
2025-06-04 15:58:04.891,8.790986679908107e-05,-2.4851148080424315,0.0,DB
2025-06-04 15:58:04.899,8.839889730429886e-05,-1.9968362833997984,0.0,DB
2025-06-04 15:58:04.906,8.152973134217757e-05,-1.608817011516312,0.0,DB
2025-06-04 15:58:04.914,6.747228572893747e-05,-1.3185152735582415,0.0,DB
2025-06-04 15:58:04.922,4.668033616736038e-05,-1.1210733569107034,0.0,DB
2025-06-04 15:58:04.930,1.9877103508475065e-05,-1.0095391070158577,0.0,DB
2025-06-04 15:58:04.938,-1.197184508451079e-05,-0.9751295571267704,0.0,DB
2025-06-04 15:58:04.945,-4.769714650096258e-05,-1.0075283272650055,0.0,DB
2025-06-04 15:58:04.953,-8.597361881242845e-05,-1.0952080775510096,0.0,DB
2025-06-04 15:58:04.961,-0.0001253749700685,-1.225769104156668,0.0,DB
2025-06-04 15:58:04.969,-0.0001644321614763,-1.3862851664269198,0.0,DB
2025-06-04 15:58:04.977,-0.0002016923368778,-1.5636478281380288,0.0,DB
2025-06-04 15:58:04.985,-0.0002357755121234,-1.7449009829242763,0.0,DB
2025-06-04 15:58:04.992,-0.0002654266294209,-1.9175578043746164,0.0,DB
2025-06-04 15:58:05.000,-0.000289561006311,-2.069893095206269,0.0,DB
2025-06-04 15:58:05.008,-0.0003073016285229,-2.191204881209745,0.0,DB
2025-06-04 15:58:05.016,-0.0003180072047984,-2.2720400782350767,0.0,DB
2025-06-04 15:58:05.024,-0.0003212904525553,-2.3043801299434623,0.0,DB
2025-06-04 15:58:05.031,-0.0003170266289498,-2.28178364500771,0.0,DB
2025-06-04 15:58:05.039,-0.0003053527016103,-2.199484226190775,0.0,DB
2025-06-04 15:58:05.047,-0.0002866576884036,-2.0544428503680456,0.0,DB
2025-06-04 15:58:05.055,-0.0002615646406975,-1.8453553016448847,0.0,DB
2025-06-04 15:58:05.063,-0.0002309046207562,-1.572616257287235,0.0,DB
2025-06-04 15:58:05.070,-0.0001956829867714,-1.2382426565614637,0.0,DB
2025-06-04 15:58:05.078,-0.0001570385109428,-0.8457599194201344,0.0,DB
2025-06-04 15:58:05.086,-0.0001161963613771,-0.400055393685735,0.0,DB
2025-06-04 15:58:05.094,-7.441662128698185e-05,0.0927959355350696,0.0,DB
2025-06-04 15:58:05.102,-3.294058239386264e-05,0.6257279661366713,0.0,DB
2025-06-04 15:58:05.110,7.06255312927181e-06,1.1908964393763528,0.0,DB
2025-06-04 15:58:05.117,4.454569829278735e-05,1.7799024607050575,0.0,DB
2025-06-04 15:58:05.125,7.862776574990467e-05,2.3840207893665366,0.0,DB
2025-06-04 15:58:05.133,0.000108628812639,2.9944273462842284,0.0,DB
2025-06-04 15:58:05.141,0.0001340943384993,3.6024207508921604,0.0,DB
2025-06-04 15:58:05.149,0.0001548072854868,4.19963314023247,0.0,DB
2025-06-04 15:58:05.156,0.000170787137828,4.778226010741791,0.0,DB
2025-06-04 15:58:05.164,0.0001822765329536,5.331067325379895,0.0,DB
2025-06-04 15:58:05.172,0.0001897167951744,5.851886628093041,0.0,DB
2025-06-04 15:58:05.180,0.0001937145354589,6.335405397336445,0.0,DB
2025-06-04 15:58:05.188,0.0001950018016853,6.777440353547558,0.0,DB
2025-06-04 15:58:05.195,0.0001943922777235,7.174977922564153,0.0,DB
2025-06-04 15:58:05.203,0.0001927358736721,7.526218562230468,0.0,DB
2025-06-04 15:58:05.211,0.0001908738422479,7.8305901958102275,0.0,DB
2025-06-04 15:58:05.219,0.0001895963467586,8.088730570884445,0.0,DB
2025-06-04 15:58:05.227,0.0001896042039447,8.302438975682442,0.0,DB
2025-06-04 15:58:05.235,0.0001914763055742,8.474598385349804,0.0,DB
2025-06-04 15:58:05.242,0.0001956439228014,8.609069755769951,0.0,DB
2025-06-04 15:58:05.250,0.0002023726822711,8.710560801787137,0.0,DB
2025-06-04 15:58:05.258,0.0002117525594179,8.784472161539753,0.0,DB
2025-06-04 15:58:05.266,0.0002236959189732,8.83672434054164,0.0,DB
2025-06-04 15:58:05.274,0.0002379434943643,8.873569239995167,0.0,DB
2025-06-04 15:58:05.281,0.0002540781172288,8.901390401639796,0.0,DB
2025-06-04 15:58:05.289,0.0002715458372914,8.926496347616846,0.0,DB
2025-06-04 15:58:05.297,0.0002896837794249,8.954911562991965,0.0,DB
2025-06-04 15:58:05.305,0.0003077537387794,8.992169769014371,0.0,DB
2025-06-04 15:58:05.313,0.000324980167736,9.043114177344536,0.0,DB
2025-06-04 15:58:05.320,0.0003405908321003,9.111709407615775,0.0,DB
2025-06-04 15:58:05.328,0.00035385798825,9.200869694749862,0.0,DB
2025-06-04 15:58:05.336,0.0003641375808148,9.312307904893464,0.0,DB
2025-06-04 15:58:05.344,0.0003709039164122,9.446409715897396,0.0,DB
2025-06-04 15:58:05.352,0.0003737776553586,9.60213709799368,0.0,DB
2025-06-04 15:58:05.360,0.000372545651337,9.776964947275712,0.0,DB
2025-06-04 15:58:05.367,0.0003671719123805,9.966854362639912,0.0,DB
2025-06-04 15:58:05.375,0.0003577995937638,10.166265588814367,0.0,DB
2025-06-04 15:58:05.383,0.0003447444099467,10.368213042491991,0.0,DB
2025-06-04 15:58:05.391,0.0003284801528939,10.56436406765963,0.0,DB
2025-06-04 15:58:05.399,0.0003096171566586,10.745182111986852,0.0,DB
2025-06-04 15:58:05.406,0.0002888746354591,10.900113876089902,0.0,DB
2025-06-04 15:58:05.414,0.000267047923492,11.01781868016094,0.0,DB
2025-06-04 15:58:05.422,0.0002449717938988,11.086436858426776,0.0,DB
2025-06-04 15:58:05.430,0.0002234812362467,11.093892488162616,0.0,DB
2025-06-04 15:58:05.438,0.0002033713224431,11.028224252685748,0.0,DB
2025-06-04 15:58:05.445,0.0001853580771992,10.877936798352886,0.0,DB
2025-06-04 15:58:05.453,0.0001700425427572,10.632363649488966,0.0,DB
2025-06-04 15:58:05.461,0.0001578803692741,10.282031668280718,0.0,DB
2025-06-04 15:58:05.469,0.0001491591131352,9.819016257448228,0.0,DB
2025-06-04 15:58:05.477,0.0001439849114189,9.237276054007674,0.0,DB
2025-06-04 15:58:05.485,0.0001422794160105,8.532955783989317,0.0,DB
2025-06-04 15:58:05.492,0.0001437870211256,7.704646253399248,0.0,DB
2025-06-04 15:58:05.500,0.0001480917053414,6.753591139818116,0.0,DB
2025-06-04 15:58:05.508,0.000154642333612,5.6838313137380725,0.0,DB
2025-06-04 15:58:05.516,0.0001627849668316,4.502278846453264,0.0,DB
2025-06-04 15:58:05.524,0.0001718004603435,3.2187146357219314,0.0,DB
2025-06-04 15:58:05.531,0.0001809453273856,1.8457056785221837,0.0,DB
2025-06-04 15:58:05.539,0.0001894935489311,0.3984404057761812,0.0,DB
2025-06-04 15:58:05.547,0.0001967768113444,-1.105516890205035,0.0,DB
2025-06-04 15:58:05.555,0.0002022206188166,-2.6465487407620687,0.0,DB
2025-06-04 15:58:05.563,0.000205373936004,-4.203377696423379,0.0,DB
2025-06-04 15:58:05.570,0.000205930505158,-5.753520702052795,0.0,DB
2025-06-04 15:58:05.578,0.0002037406615474,-7.273792801614028,0.0,DB
2025-06-04 15:58:05.586,0.0001988131702065,-8.740846148116105,0.0,DB
2025-06-04 15:58:05.594,0.0001913072304725,-10.131728592719446,0.0,DB
2025-06-04 15:58:05.602,0.0001815153684397,-11.424445006734633,0.0,DB
2025-06-04 15:58:05.610,0.0001698385109034,-12.598504028697848,0.0,DB
2025-06-04 15:58:05.617,0.0001567550923271,-13.635433164335996,0.0,DB
2025-06-04 15:58:05.625,0.0001427865035589,-14.519246094086805,0.0,DB
2025-06-04 15:58:05.633,0.0001284614541025,-15.236847608612289,0.0,DB
2025-06-04 15:58:05.641,0.0001142818496954,-15.778363704610662,0.0,DB
2025-06-04 15:58:05.649,0.0001006925843293,-16.13738691110371,0.0,DB
2025-06-04 15:58:05.656,8.805721856128375e-05,-16.31112974835949,0.0,DB
2025-06-04 15:58:05.664,7.664091122303907e-05,-16.300482217200503,0.0,DB
2025-06-04 15:58:05.672,6.660129042882007e-05,-16.109972255970913,0.0,DB
2025-06-04 15:58:05.680,5.798728963589336e-05,-15.747631082910182,0.0,DB
2025-06-04 15:58:05.688,5.074538846706622e-05,-15.224768178981916,0.0,DB
2025-06-04 15:58:05.695,4.4732209105825847e-05,-14.555663292021842,0.0,DB
2025-06-04 15:58:05.703,3.973204131393134e-05,-13.757185196902793,0.0,DB
2025-06-04 15:58:05.711,3.547761264583973e-05,-12.848348968764013,0.0,DB
2025-06-04 15:58:05.719,3.167229145042273e-05,-11.849825160179224,0.0,DB
2025-06-04 15:58:05.727,2.8011911004456205e-05,-10.78341547243607,0.0,DB
2025-06-04 15:58:05.735,2.420453194676133e-05,-9.671510247338984,0.0,DB
2025-06-04 15:58:05.742,1.9986711600780964e-05,-8.536543365762764,0.0,DB
2025-06-04 15:58:05.750,1.5135213663736248e-05,-7.4004599170978835,0.0,DB
2025-06-04 15:58:05.758,9.473557545290371e-06,-6.284211300351263,0.0,DB
2025-06-04 15:58:05.766,2.873357630013869e-06,-5.207291247889918,0.0,DB
2025-06-04 15:58:05.774,-4.748985032910818e-06,-4.1873246661069246,0.0,DB
2025-06-04 15:58:05.781,-1.343906104556546e-05,-3.2397192291759667,0.0,DB
2025-06-04 15:58:05.789,-2.321303398657275e-05,-2.377387426152551,0.0,DB
2025-06-04 15:58:05.797,-3.406616092627694e-05,-1.610544340908927,0.0,DB
2025-06-04 15:58:05.805,-4.597956520262117e-05,-0.946583936329885,0.0,DB
2025-06-04 15:58:05.813,-5.892404218519614e-05,-0.3900341165514744,0.0,DB
2025-06-04 15:58:05.820,-7.286026850824078e-05,0.0574115559782432,0.0,DB
2025-06-04 15:58:05.828,-8.773536721016442e-05,0.3967898322074715,0.0,DB
2025-06-04 15:58:05.836,-0.0001034762959483,0.6316977632826668,0.0,DB
2025-06-04 15:58:05.844,-0.0001199809484931,0.7680647237142793,0.0,DB
2025-06-04 15:58:05.852,-0.0001371081753803,0.8138758565650304,0.0,DB
2025-06-04 15:58:05.860,-0.0001546681260753,0.7788573246338554,0.0,DB
2025-06-04 15:58:05.867,-0.0001724143845319,0.674134357262862,0.0,DB
2025-06-04 15:58:05.875,-0.0001900393091964,0.5118732798392694,0.0,DB
2025-06-04 15:58:05.883,-0.0002071737983394,0.3049185005273325,0.0,DB
2025-06-04 15:58:05.891,-0.0002233923875836,0.0664348222867342,0.0,DB
2025-06-04 15:58:05.899,-0.0002382241585604,-0.1904355135189685,0.0,DB
2025-06-04 15:58:05.906,-0.000251169415323,-0.4528928989764729,0.0,DB
2025-06-04 15:58:05.914,-0.0002617215186174,-0.7087708538306481,0.0,DB
2025-06-04 15:58:05.922,-0.0002693927472215,-0.9467918176427174,0.0,DB
2025-06-04 15:58:05.930,-0.0002737426476114,-1.1567846933957993,0.0,DB
2025-06-04 15:58:05.938,-0.000274407016266,-1.3298620908234673,0.0,DB
2025-06-04 15:58:05.945,-0.0002711254033898,-1.4585565534275946,0.0,DB
2025-06-04 15:58:05.953,-0.0002637649201832,-1.536916178556113,0.0,DB
2025-06-04 15:58:05.961,-0.0002523383000606,-1.5605609333299375,0.0,DB
2025-06-04 15:58:05.969,-0.0002370146007184,-1.5267016367866733,0.0,DB
2025-06-04 15:58:05.977,-0.0002181215100531,-1.4341240471356511,0.0,DB
2025-06-04 15:58:05.985,-0.0001961388175683,-1.2831408011162468,0.0,DB
2025-06-04 15:58:05.992,-0.000171683181102,-1.0755141430462642,0.0,DB
2025-06-04 15:58:06.000,-0.0001454848370325,-0.8143524945431878,0.0,DB
2025-06-04 15:58:06.008,-0.0001183573581493,-0.5039839835981909,0.0,DB
2025-06-04 15:58:06.016,-9.11619464262184e-05,-0.1498100942239663,0.0,DB
2025-06-04 15:58:06.024,-6.476804905654065e-05,0.2418573719302361,0.0,DB
2025-06-04 15:58:06.031,-4.001229815473359e-05,0.6639728024170871,0.0,DB
2025-06-04 15:58:06.039,-1.7657892163574108e-05,1.1089434924107624,0.0,DB
2025-06-04 15:58:06.047,1.6434432273678643e-06,1.568823260794806,0.0,DB
2025-06-04 15:58:06.055,1.7384856475128532e-05,2.035509567054136,0.0,DB
2025-06-04 15:58:06.063,2.9231254254315337e-05,2.5009406251068813,0.0,DB
2025-06-04 15:58:06.070,3.703806344943247e-05,2.9572888902879284,0.0,DB
2025-06-04 15:58:06.078,4.086063275606105e-05,3.3971471829096807,0.0,DB
2025-06-04 15:58:06.086,4.0953486533612415e-05,3.813703633472232,0.0,DB
2025-06-04 15:58:06.094,3.775916960187226e-05,4.200901620736608,0.0,DB
2025-06-04 15:58:06.102,3.188701098474583e-05,4.553580951101289,0.0,DB
2025-06-04 15:58:06.110,2.4082767556430115e-05,4.867596715137973,0.0,DB
2025-06-04 15:58:06.117,1.5190731179360416e-05,5.139912566470383,0.0,DB
2025-06-04 15:58:06.125,6.11037640123867e-06,5.3686656053026205,0.0,DB
2025-06-04 15:58:06.133,-2.250135718215308e-06,5.553200613057746,0.0,DB
2025-06-04 15:58:06.141,-9.02127653895608e-06,5.694072065046433,0.0,DB
2025-06-04 15:58:06.149,-1.341800766271182e-05,5.793013121917607,0.0,DB
2025-06-04 15:58:06.156,-1.4781853773347144e-05,5.852871634775486,0.0,DB
2025-06-04 15:58:06.164,-1.2616870546948394e-05,5.877514056424233,0.0,DB
2025-06-04 15:58:06.172,-6.617426785877228e-06,5.871698999340384,0.0,DB
2025-06-04 15:58:06.180,3.3137828343760497e-06,5.84092299615126,0.0,DB
2025-06-04 15:58:06.188,1.7058447723530683e-05,5.791241786826354,0.0,DB
2025-06-04 15:58:06.195,3.428638234748388e-05,5.729071169888023,0.0,DB
2025-06-04 15:58:06.203,5.44700005438796e-05,5.660972103162168,0.0,DB
2025-06-04 15:58:06.211,7.690867831212731e-05,5.593425308498572,0.0,DB
2025-06-04 15:58:06.219,0.00010076168407,5.5326011054315565,0.0,DB
2025-06-04 15:58:06.227,0.0001250879605167,5.484130550738605,0.0,DB
2025-06-04 15:58:06.235,0.0001488907368641,5.452884176915129,0.0,DB
2025-06-04 15:58:06.242,0.0001711647405103,5.44276469017432,0.0,DB
2025-06-04 15:58:06.250,0.0001909436675026,5.456519901197894,0.0,DB
2025-06-04 15:58:06.258,0.000207345563774,5.495581921302339,0.0,DB
2025-06-04 15:58:06.266,0.0002196138646238,5.559938274573299,0.0,DB
2025-06-04 15:58:06.274,0.0002271520368908,5.648040071367586,0.0,DB
2025-06-04 15:58:06.281,0.0002295500634141,5.7567517774778025,0.0,DB
2025-06-04 15:58:06.289,0.0002266013974282,5.881346401546363,0.0,DB
2025-06-04 15:58:06.297,0.0002183094881632,6.015549097656263,0.0,DB
2025-06-04 15:58:06.305,0.0002048835286841,6.151631210265739,0.0,DB
2025-06-04 15:58:06.313,0.0001867236912776,6.2805556402738185,0.0,DB
2025-06-04 15:58:06.321,0.0001643967753025,6.392173061563408,0.0,DB
2025-06-04 15:58:06.328,0.0001386038493306,6.475466968001924,0.0,DB
2025-06-04 15:58:06.336,0.0001101420321029,6.518843810770857,0.0,DB
2025-06-04 15:58:06.344,7.98629308752344e-05,6.510462651440509,0.0,DB
2025-06-04 15:58:06.352,4.863040079212338e-05,6.438596885265513,0.0,DB
2025-06-04 15:58:06.360,1.7280203922963057e-05,6.292018772699456,0.0,DB
2025-06-04 15:58:06.367,-1.3416162587059694e-05,6.060395852497511,0.0,DB
2025-06-04 15:58:06.375,-4.2781688360210096e-05,5.734686898051989,0.0,DB
2025-06-04 15:58:06.383,-7.025691048649226e-05,5.307524024142367,0.0,DB
2025-06-04 15:58:06.391,-9.541515858227448e-05,4.773566958744237,0.0,DB
2025-06-04 15:58:06.399,-0.0001179698237272,4.129815457802222,0.0,DB
2025-06-04 15:58:06.406,-0.0001377739029859,3.3758664253789807,0.0,DB
2025-06-04 15:58:06.414,-0.0001548123969378,2.514103530719499,0.0,DB
2025-06-04 15:58:06.422,-0.0001691884027454,1.5498089670501989,0.0,DB
2025-06-04 15:58:06.430,-0.0001811040154935,0.49118941616551,0.0,DB
2025-06-04 15:58:06.438,-0.0001908374641372,-0.6506888219564391,0.0,DB
2025-06-04 15:58:06.446,-0.0001987181832971,-1.86205732163873,0.0,DB
2025-06-04 15:58:06.453,-0.0002051016071304,-3.126693960860605,0.0,DB
2025-06-04 15:58:06.461,-0.0002103453237177,-4.426257065789183,0.0,DB
2025-06-04 15:58:06.469,-0.0002147879685535,-5.740696609528166,0.0,DB
2025-06-04 15:58:06.477,-0.0002187319931315,-7.048730621916575,0.0,DB
2025-06-04 15:58:06.485,-0.0002224312180675,-8.328372193809177,0.0,DB
2025-06-04 15:58:06.492,-0.0002260838024992,-9.557490232988036,0.0,DB
2025-06-04 15:58:06.500,-0.0002298309095766,-10.714385567538791,0.0,DB
2025-06-04 15:58:06.508,-0.0002337609063481,-11.77836318313048,0.0,DB
2025-06-04 15:58:06.516,-0.0002379183770657,-12.730281369625445,0.0,DB
2025-06-04 15:58:06.524,-0.0002423166356208,-13.553059341927847,0.0,DB
2025-06-04 15:58:06.531,-0.0002469520150053,-14.232126449265229,0.0,DB
2025-06-04 15:58:06.539,-0.0002518181485565,-14.755798317250738,0.0,DB
2025-06-04 15:58:06.547,-0.0002569186978995,-15.115568067748791,0.0,DB
2025-06-04 15:58:06.555,-0.0002622773715827,-15.306303998704218,0.0,DB
2025-06-04 15:58:06.563,-0.0002679444945039,-15.326348627911685,0.0,DB
2025-06-04 15:58:06.571,-0.000273999778822,-15.177517646753888,0.0,DB
2025-06-04 15:58:06.578,-0.0002805512932418,-14.865000923535131,0.0,DB
2025-06-04 15:58:06.586,-0.0002877309178071,-14.397171081490262,0.0,DB
2025-06-04 15:58:06.594,-0.0002956867962763,-13.785308216276672,0.0,DB
2025-06-04 15:58:06.602,-0.0003045734508077,-13.043251902882124,0.0,DB
2025-06-04 15:58:06.610,-0.0003145402995554,-12.186993691923458,0.0,DB
2025-06-04 15:58:06.617,-0.0003257193149445,-11.234224757069704,0.0,DB
2025-06-04 15:58:06.625,-0.000338212484889,-10.20385420507357,0.0,DB
2025-06-04 15:58:06.633,-0.0003520796315898,-9.11551380534446,0.0,DB
2025-06-04 15:58:06.641,-0.0003673271085006,-7.989064572451181,0.0,DB
2025-06-04 15:58:06.649,-0.0003838980485579,-6.844119796473495,0.0,DB
2025-06-04 15:58:06.656,-0.0004016651361566,-5.699597827436559,0.0,DB
2025-06-04 15:58:06.664,-0.0004204270824399,-4.573316252031079,0.0,DB
2025-06-04 15:58:06.672,-0.0004399098622507,-3.4816371281236496,0.0,DB
2025-06-04 15:58:06.680,-0.000459773291123,-2.439170742691529,0.0,DB
2025-06-04 15:58:06.688,-0.0004796228156071,-1.4585430134159127,0.0,DB
2025-06-04 15:58:06.696,-0.0004990256240122,-0.5502292511486305,0.0,DB
2025-06-04 15:58:06.703,-0.0005175295294168,0.2775453667601596,0.0,DB
2025-06-04 15:58:06.711,-0.0005346827117743,1.0188404993778304,0.0,DB
2025-06-04 15:58:06.719,-0.0005500524195178,1.6699744259000582,0.0,DB
2025-06-04 15:58:06.727,-0.0005632410478165,2.229442533257457,0.0,DB
2025-06-04 15:58:06.735,-0.0005738984693942,2.6977874876664503,0.0,DB
2025-06-04 15:58:06.742,-0.0005817299720254,3.077429026549085,0.0,DB
2025-06-04 15:58:06.750,-0.0005864996019041,3.3724618525168104,0.0,DB
2025-06-04 15:58:06.758,-0.0005880291057429,3.58843026199336,0.0,DB
2025-06-04 15:58:06.766,-0.0005861929962789,3.732087934672637,0.0,DB
2025-06-04 15:58:06.774,-0.0005809105280334,3.8111507949434498,0.0,DB
2025-06-04 15:58:06.781,-0.000572135557572,3.834050086205104,0.0,DB
2025-06-04 15:58:06.789,-0.0005598453727094,3.809691831103645,0.0,DB
2025-06-04 15:58:06.797,-0.0005440296082603,3.747227749114604,0.0,DB
2025-06-04 15:58:06.805,-0.000524680324748,3.6558415389746814,0.0,DB
2025-06-04 15:58:06.813,-0.000501784215957,3.5445532824294763,0.0,DB
2025-06-04 15:58:06.821,-0.0004753177385389,3.422043661117137,0.0,DB
2025-06-04 15:58:06.828,-0.0004452457311361,3.296498766991091,0.0,DB
2025-06-04 15:58:06.836,-0.0004115238224231,3.175475582007134,0.0,DB
2025-06-04 15:58:06.844,-0.0003741046291827,3.0657877346239584,0.0,DB
2025-06-04 15:58:06.852,-0.0003329474301814,2.973410906540072,0.0,DB
2025-06-04 15:58:06.860,-0.0002880306830531,2.90340723011992,0.0,DB
2025-06-04 15:58:06.867,-0.0002393664438386,2.8598681330934026,0.0,DB
2025-06-04 15:58:06.875,-0.000187015471823,2.84587529326869,0.0,DB
2025-06-04 15:58:06.883,-0.0001311016015999,2.86347960336936,0.0,DB
2025-06-04 15:58:06.891,-7.182392619926257e-05,2.913698259504985,0.0,DB
2025-06-04 15:58:06.899,-9.465540275902936e-06,2.996530227239386,0.0,DB
2025-06-04 15:58:06.906,5.560196801804783e-05,3.1109903675889385,0.0,DB
2025-06-04 15:58:06.914,0.0001229185332401,3.255162396306414,0.0,DB
2025-06-04 15:58:06.922,0.0001919398908218,3.426270594642485,0.0,DB
2025-06-04 15:58:06.930,0.0002620455417547,3.620769796369588,0.0,DB
2025-06-04 15:58:06.938,0.0003325496860864,3.83445266900414,0.0,DB
2025-06-04 15:58:06.946,0.0004027143785552,4.062572727980177,0.0,DB
2025-06-04 15:58:06.953,0.0004717641667131,4.299980922258212,0.0,DB
2025-06-04 15:58:06.961,0.0005389014853987,4.541273057307106,0.0,DB
2025-06-04 15:58:06.969,0.0006033221263883,4.780944812558015,0.0,DB
2025-06-04 15:58:06.977,0.0006642302461745,5.013550687664019,0.0,DB
2025-06-04 15:58:06.985,0.0007208526560752,5.233862889669065,0.0,DB
2025-06-04 15:58:06.992,0.0007724524727773,5.437025962756604,0.0,DB
2025-06-04 15:58:07.000,0.0008183424330903,5.618702872745385,0.0,DB
2025-06-04 15:58:07.008,0.0008578982133233,5.775208296495006,0.0,DB
2025-06-04 15:58:07.016,0.0008905719865472,5.903625035257099,0.0,DB
2025-06-04 15:58:07.024,0.0009159062782925,6.001899769340719,0.0,DB
2025-06-04 15:58:07.031,0.0009335479867166,6.068914790395107,0.0,DB
2025-06-04 15:58:07.039,0.0009432622352259,6.104532869455252,0.0,DB
2025-06-04 15:58:07.047,0.0009449455375343,6.109613020109419,0.0,DB
2025-06-04 15:58:07.055,0.0009386375909038,6.085995575062444,0.0,DB
2025-06-04 15:58:07.063,0.0009245308862353,6.036455698569706,0.0,DB
2025-06-04 15:58:07.071,0.0009029772462234,5.964625205161781,0.0,DB
2025-06-04 15:58:07.078,0.0008744903860286,5.874883352625127,0.0,DB
2025-06-04 15:58:07.086,0.0008397436439674,5.772218132483398,0.0,DB
2025-06-04 15:58:07.094,0.0007995621592771,5.662060497754324,0.0,DB
2025-06-04 15:58:07.102,0.0007549089839303,5.550094935458043,0.0,DB
2025-06-04 15:58:07.110,0.0007068649063821,5.442050779692536,0.0,DB
2025-06-04 15:58:07.117,0.0006566021341545,5.3434796200861,0.0,DB
2025-06-04 15:58:07.125,0.0006053524227345,5.259525031321127,0.0,DB
2025-06-04 15:58:07.133,0.0005543707346638,5.194691579177102,0.0,DB
2025-06-04 15:58:07.141,0.000504896013524,5.152620607911557,0.0,DB
2025-06-04 15:58:07.149,0.0004581110451829,5.135880655360179,0.0,DB
2025-06-04 15:58:07.156,0.0004151035220173,5.145780454897311,0.0,DB
2025-06-04 15:58:07.164,0.0003768303139138,5.182212350319893,0.0,DB
2025-06-04 15:58:07.172,0.0003440867029841,5.2435335581182985,0.0,DB
2025-06-04 15:58:07.180,0.0003174820377235,5.32649205295645,0.0,DB
2025-06-04 15:58:07.188,0.0002974228695986,5.426202920132895,0.0,DB
2025-06-04 15:58:07.196,0.0002841041209336,5.536179808672825,0.0,DB
2025-06-04 15:58:07.203,0.0002775082569921,5.648424631638404,0.0,DB
2025-06-04 15:58:07.211,0.0002774118799572,5.753576909169884,0.0,DB
2025-06-04 15:58:07.219,0.000283398677403,5.8411221632187535,0.0,DB
2025-06-04 15:58:07.227,0.0002948772948924,5.899656596618423,0.0,DB
2025-06-04 15:58:07.235,0.0003111025683653,5.9172029873170064,0.0,DB
2025-06-04 15:58:07.242,0.0003311987564135,5.881570385471528,0.0,DB
2025-06-04 15:58:07.250,0.0003541839076906,5.780747920372356,0.0,DB
2025-06-04 15:58:07.258,0.0003789950334602,5.603320924606628,0.0,DB
2025-06-04 15:58:07.266,0.0004045140780786,5.338895790752641,0.0,DB
2025-06-04 15:58:07.274,0.0004295947419919,4.978518618240007,0.0,DB
2025-06-04 15:58:07.281,0.0004530901196647,4.515071906643732,0.0,DB
2025-06-04 15:58:07.289,0.0004738809721103,3.9436334120737295,0.0,DB
2025-06-04 15:58:07.297,0.0004909043023248,3.2617818767259625,0.0,DB
2025-06-04 15:58:07.305,0.0005031817531031,2.469835689199272,0.0,DB
2025-06-04 15:58:07.313,0.0005098472072532,1.571012600402777,0.0,DB
2025-06-04 15:58:07.321,0.0005101728477867,0.5715013217299102,0.0,DB
2025-06-04 15:58:07.328,0.0005035928384421,-0.5195609567933269,0.0,DB
2025-06-04 15:58:07.336,0.000489723721361,-1.690207525172118,0.0,DB
2025-06-04 15:58:07.344,0.0004683806071947,-2.925856238984465,0.0,DB
2025-06-04 15:58:07.352,0.0004395882611645,-4.209613634706557,0.0,DB
2025-06-04 15:58:07.360,0.0004035862734532,-5.522660406864356,0.0,DB
2025-06-04 15:58:07.367,0.0003608276491713,-6.844706347114498,0.0,DB
2025-06-04 15:58:07.375,0.0003119703656082,-8.154500093748482,0.0,DB
2025-06-04 15:58:07.383,0.0002578617238577,-9.43037688398823,0.0,DB
2025-06-04 15:58:07.391,0.0001995156615686,-10.650826025937658,0.0,DB
2025-06-04 15:58:07.399,0.0001380835573634,-11.795059065396051,0.0,DB
2025-06-04 15:58:07.406,7.481937010321368e-05,-12.84355963635433,0.0,DB
2025-06-04 15:58:07.414,1.104017022665526e-05,-13.778596743530183,0.0,DB
2025-06-04 15:58:07.422,-5.191669633088924e-05,-14.58468469142005,0.0,DB
2025-06-04 15:58:07.430,-0.0001127383082714,-15.248974978776776,0.0,DB
2025-06-04 15:58:07.438,-0.0001701809213757,-15.761568125293822,0.0,DB
2025-06-04 15:58:07.446,-0.0002231127796005,-16.11573647062695,0.0,DB
2025-06-04 15:58:07.453,-0.0002705530190541,-16.30805234744867,0.0,DB
2025-06-04 15:58:07.461,-0.0003117048530168,-16.33841952812466,0.0,DB
2025-06-04 15:58:07.469,-0.0003459814357345,-16.21000932008005,0.0,DB
2025-06-04 15:58:07.477,-0.0003730231098816,-15.92910598462518,0.0,DB
2025-06-04 15:58:07.485,-0.000392705181863,-15.504869143957372,0.0,DB
2025-06-04 15:58:07.492,-0.0004051358853672,-14.94902341566144,0.0,DB
2025-06-04 15:58:07.500,-0.0004106447081185,-14.275487595469135,0.0,DB
2025-06-04 15:58:07.508,-0.0004097617290816,-13.499957240904571,0.0,DB
2025-06-04 15:58:07.516,-0.0004031890314414,-12.63945545359518,0.0,DB
2025-06-04 15:58:07.524,-0.0003917656156008,-11.71186700400731,0.0,DB
2025-06-04 15:58:07.531,-0.0003764275327712,-10.735470706681228,0.0,DB
2025-06-04 15:58:07.539,-0.0003581651912549,-9.728484182412776,0.0,DB
2025-06-04 15:58:07.547,-0.0003379799530242,-8.708633904030597,0.0,DB
2025-06-04 15:58:07.555,-0.0003168422318644,-7.69276179863258,0.0,DB
2025-06-04 15:58:07.563,-0.0002956532943927,-6.696477766474288,0.0,DB
2025-06-04 15:58:07.571,-0.0002752127789741,-5.73386537364672,0.0,DB
2025-06-04 15:58:07.578,-0.0002561935171778,-4.817245776747525,0.0,DB
2025-06-04 15:58:07.586,-0.0002391245884117,-3.957002730395693,0.0,DB
2025-06-04 15:58:07.594,-0.0002243827903955,-3.1614693937270197,0.0,DB
2025-06-04 15:58:07.602,-0.0002121920413053,-2.43687566438084,0.0,DB
2025-06-04 15:58:07.610,-0.0002026297720253,-1.7873529927518508,0.0,DB
2025-06-04 15:58:07.617,-0.0001956391367892,-1.2149921164998714,0.0,DB
2025-06-04 15:58:07.625,-0.0001910457960927,-0.7199479395846967,0.0,DB
2025-06-04 15:58:07.633,-0.000188578029854,-0.3005848778073435,0.0,DB
2025-06-04 15:58:07.641,-0.0001878889845888,0.0463445951910022,0.0,DB
2025-06-04 15:58:07.649,-0.000188579934991,0.3254957537470949,0.0,DB
2025-06-04 15:58:07.656,-0.0001902235418557,0.5427093399423663,0.0,DB
2025-06-04 15:58:07.664,-0.0001923862087605,0.7047785299588867,0.0,DB
2025-06-04 15:58:07.672,-0.0001946487734158,0.8192120536178568,0.0,DB
2025-06-04 15:58:07.680,-0.0001966249105408,0.8939997929460927,0.0,DB
2025-06-04 15:58:07.688,-0.0001979767664129,0.9373864891687734,0.0,DB
2025-06-04 15:58:07.696,-0.0001984274863904,0.9576584132233974,0.0,DB
2025-06-04 15:58:07.703,-0.0001977704319253,0.9629470389284484,0.0,DB
2025-06-04 15:58:07.711,-0.0001958750097964,0.9610529309381304,0.0,DB
2025-06-04 15:58:07.719,-0.0001926891511841,0.9592922430299564,0.0,DB
2025-06-04 15:58:07.727,-0.0001882385801606,0.9643674283821791,0.0,DB
2025-06-04 15:58:07.735,-0.0001826230992126,0.9822630000895316,0.0,DB
2025-06-04 15:58:07.742,-0.0001760101931703,1.0181664577941605,0.0,DB
2025-06-04 15:58:07.750,-0.0001686263124412,1.0764138319685463,0.0,DB
2025-06-04 15:58:07.758,-0.0001607462422082,1.160458711468268,0.0,DB
2025-06-04 15:58:07.766,-0.0001526809969225,1.2728631308314124,0.0,DB
2025-06-04 15:58:07.774,-0.0001447646998522,1.4153083144515666,0.0,DB
2025-06-04 15:58:07.781,-0.0001373409165227,1.5886230108875614,0.0,DB
2025-06-04 15:58:07.789,-0.0001307489094399,1.7928269988837764,0.0,DB
2025-06-04 15:58:07.797,-0.0001253102702626,2.027187296302817,0.0,DB
2025-06-04 15:58:07.805,-0.0001213163651607,2.290284641993078,0.0,DB
2025-06-04 15:58:07.813,-0.0001190169998588,2.580087941322858,0.0,DB
2025-06-04 15:58:07.821,-0.0001186106730383,2.89403456530208,0.0,DB
2025-06-04 15:58:07.828,-0.000120236740412,3.2291146638138937,0.0,DB
2025-06-04 15:58:07.836,-0.0001239697568435,3.581957977679938,0.0,DB
2025-06-04 15:58:07.844,-0.0001298162002484,3.948921981817498,0.0,DB
2025-06-04 15:58:07.852,-0.000137713708612,4.326180522306114,0.0,DB
2025-06-04 15:58:07.860,-0.0001475328803252,4.709812377681273,0.0,DB
2025-06-04 15:58:07.867,-0.0001590815984274,5.095889333745212,0.0,DB
2025-06-04 15:58:07.875,-0.0001721117418004,5.480563375737904,0.0,DB
2025-06-04 15:58:07.883,-0.0001863280418352,5.860152455707516,0.0,DB
2025-06-04 15:58:07.891,-0.0002013987329978,6.231223998033076,0.0,DB
2025-06-04 15:58:07.899,-0.0002169675320031,6.590674902753181,0.0,DB
2025-06-04 15:58:07.906,-0.0002326663654717,6.935806355442486,0.0,DB
2025-06-04 15:58:07.914,-0.0002481281584413,7.264391321509006,0.0,DB
2025-06-04 15:58:07.922,-0.0002629989315362,7.574732255286713,0.0,DB
2025-06-04 15:58:07.930,-0.0002769485050905,7.865706342903687,0.0,DB
2025-06-04 15:58:07.938,-0.0002896793155303,8.136795561085817,0.0,DB
2025-06-04 15:58:07.946,-0.000300933130741,8.388098992537504,0.0,DB
2025-06-04 15:58:07.953,-0.0003104956527703,8.620325192256535,0.0,DB
2025-06-04 15:58:07.961,-0.0003181990693469,8.834762927294353,0.0,DB
2025-06-04 15:58:07.969,-0.0003239226725751,9.033229279044996,0.0,DB
2025-06-04 15:58:07.977,-0.000327591816872,9.217994860028506,0.0,DB
2025-06-04 15:58:07.985,-0.0003291756924924,9.391686716581985,0.0,DB
2025-06-04 15:58:07.992,-0.0003286844956137,9.557170332869797,0.0,DB
2025-06-04 15:58:08.000,-0.0003261665042304,9.71741299731708,0.0,DB
2025-06-04 15:58:08.008,-0.0003217053691147,9.875331623016072,0.0,DB
2025-06-04 15:58:08.016,-0.0003154176859767,10.033628911776908,0.0,DB
2025-06-04 15:58:08.024,-0.0003074507046381,10.194622495912672,0.0,DB
2025-06-04 15:58:08.031,-0.0002979799387932,10.360072357197112,0.0,DB
2025-06-04 15:58:08.039,-0.0002872065140997,10.53101238152733,0.0,DB
2025-06-04 15:58:08.047,-0.000275354256636,10.707592331930112,0.0,DB
2025-06-04 15:58:08.055,-0.0002626666231411,10.888936779941751,0.0,DB
2025-06-04 15:58:08.063,-0.0002494035314429,11.073027590931764,0.0,DB
2025-06-04 15:58:08.071,-0.0002358380100703,11.256616376809449,0.0,DB
2025-06-04 15:58:08.078,-0.0002222524267212,11.435172879239532,0.0,DB
2025-06-04 15:58:08.086,-0.0002089339209665,11.602874509911755,0.0,DB
2025-06-04 15:58:08.094,-0.0001961686011928,11.752641251282167,0.0,DB
2025-06-04 15:58:08.102,-0.0001842341426119,11.876218831106383,0.0,DB
2025-06-04 15:58:08.110,-0.0001733906829808,11.964311564702056,0.0,DB
2025-06-04 15:58:08.117,-0.0001638702709184,12.006764561504522,0.0,DB
2025-06-04 15:58:08.125,-0.000155865414595,11.992793177123298,0.0,DB
2025-06-04 15:58:08.133,-0.0001495174196656,11.911255724317492,0.0,DB
2025-06-04 15:58:08.141,-0.0001449052317278,11.750963606093988,0.0,DB
2025-06-04 15:58:08.149,-0.0001420354782389,11.501021274982158,0.0,DB
2025-06-04 15:58:08.156,-0.0001408343694026,11.151186828136456,0.0,DB
2025-06-04 15:58:08.164,-0.0001411420719614,10.692242687228552,0.0,DB
2025-06-04 15:58:08.172,-0.0001427101136068,10.116364745964663,0.0,DB
2025-06-04 15:58:08.180,-0.0001452023083928,9.41747764894044,0.0,DB
2025-06-04 15:58:08.188,-0.0001481996148091,8.591583538651367,0.0,DB
2025-06-04 15:58:08.196,-0.0001512092480432,7.637051711236629,0.0,DB
2025-06-04 15:58:08.203,-0.0001536782614332,6.55485718672887,0.0,DB
2025-06-04 15:58:08.211,-0.0001550116581414,5.348757247318008,0.0,DB
2025-06-04 15:58:08.219,-0.0001545948261276,4.025396533605719,0.0,DB
2025-06-04 15:58:08.227,-0.0001518196728295,2.5943332953361784,0.0,DB
2025-06-04 15:58:08.235,-0.000146113360324,1.067981816954282,0.0,DB
2025-06-04 15:58:08.242,-0.0001369681752151,-0.5385312059171187,0.0,DB
2025-06-04 15:58:08.250,-0.0001239708998269,-2.2075955823607982,0.0,DB
2025-06-04 15:58:08.258,-0.0001068300476005,-3.919427990195052,0.0,DB
2025-06-04 15:58:08.266,-8.539941906622276e-05,-5.652456875557533,0.0,DB
2025-06-04 15:58:08.274,-5.969659357771919e-05,-7.383772059944317,0.0,DB
2025-06-04 15:58:08.281,-2.9915189790834698e-05,-9.089626601629726,0.0,DB
2025-06-04 15:58:08.289,3.5699976638089357e-06,-10.745976256596448,0.0,DB
2025-06-04 15:58:08.297,4.020555049832536e-05,-12.329040221527846,0.0,DB
2025-06-04 15:58:08.305,7.926985839968883e-05,-13.815865806961517,0.0,DB
2025-06-04 15:58:08.313,0.0001198912050986,-15.184879338016849,0.0,DB
2025-06-04 15:58:08.321,0.0001610728374571,-16.416405933024606,0.0,DB
2025-06-04 15:58:08.328,0.0002017238845307,-17.493141849046225,0.0,DB
2025-06-04 15:58:08.336,0.0002406945669425,-18.400564752765572,0.0,DB
2025-06-04 15:58:08.344,0.0002768138597554,-19.127269490964768,0.0,DB
2025-06-04 15:58:08.352,0.0003089277707261,-19.665219593610654,0.0,DB
2025-06-04 15:58:08.360,0.0003359366750195,-20.009907728825464,0.0,DB
2025-06-04 15:58:08.367,0.0003568305739478,-20.16042151354729,0.0,DB
2025-06-04 15:58:08.375,0.0003707215925302,-20.119414325301747,0.0,DB
2025-06-04 15:58:08.383,0.0003768734212084,-19.892983916709223,0.0,DB
2025-06-04 15:58:08.391,0.0003747276241074,-19.49046457513943,0.0,DB
2025-06-04 15:58:08.399,0.0003639266870988,-18.924141185508088,0.0,DB
2025-06-04 15:58:08.406,0.0003443334485727,-18.20889575699932,0.0,DB
2025-06-04 15:58:08.414,0.0003160463283505,-17.36179870039266,0.0,DB
2025-06-04 15:58:08.422,0.0002794096229095,-16.40165835298037,0.0,DB
2025-06-04 15:58:08.430,0.0002350180462535,-15.348542930039052,0.0,DB
2025-06-04 15:58:08.438,0.0001837146846123,-14.223289246899997,0.0,DB
2025-06-04 15:58:08.446,0.0001265816484107,-13.047012235929456,0.0,DB
2025-06-04 15:58:08.453,6.492292073708175e-05,-11.84062852648225,0.0,DB
2025-06-04 15:58:08.461,2.39139613489407e-07,-10.62440622346374,0.0,DB
2025-06-04 15:58:08.469,-6.580568737702528e-05,-9.41755158102651,0.0,DB
2025-06-04 15:58:08.477,-0.0001314251466228,-8.237841597943842,0.0,DB
2025-06-04 15:58:08.485,-0.0001947581142572,-7.101309737553355,0.0,DB
2025-06-04 15:58:08.492,-0.000253921681691,-6.021990070858362,0.0,DB
2025-06-04 15:58:08.500,-0.0003070674619585,-5.011723221306396,0.0,DB
2025-06-04 15:58:08.508,-0.0003524393294977,-4.080025608465352,0.0,DB
2025-06-04 15:58:08.516,-0.0003884306867417,-3.234021689339865,0.0,DB
2025-06-04 15:58:08.524,-0.0004136394298594,-2.4784372179528718,0.0,DB
2025-06-04 15:58:08.531,-0.0004269188676713,-1.8156500229564212,0.0,DB
2025-06-04 15:58:08.539,-0.0004274229312882,-1.2457934774995698,0.0,DB
2025-06-04 15:58:08.547,-0.000414644104178,-0.7669067400143338,0.0,DB
2025-06-04 15:58:08.555,-0.0003884426117109,-0.3751250030434086,0.0,DB
2025-06-04 15:58:08.563,-0.0003490655455275,-0.0649024091339504,0.0,DB
2025-06-04 15:58:08.571,-0.0002971547715232,0.1707400259395245,0.0,DB
2025-06-04 15:58:08.578,-0.0002337426907667,0.3399492156490852,0.0,DB
2025-06-04 15:58:08.586,-0.0001602351990722,0.4517651121771184,0.0,DB
2025-06-04 15:58:08.594,-7.838153013043205e-05,0.5158433524246785,0.0,DB
2025-06-04 15:58:08.602,9.76892669523433e-06,0.5421821464732034,0.0,DB
2025-06-04 15:58:08.610,0.0001019222687189,0.5408594489756138,0.0,DB
2025-06-04 15:58:08.617,0.0001956070783484,0.5217856791996434,0.0,DB
2025-06-04 15:58:08.625,0.0002882510772553,0.4944764082555414,0.0,DB
2025-06-04 15:58:08.633,0.0003772650945539,0.4678485547203868,0.0,DB
2025-06-04 15:58:08.641,0.0004601313428498,0.4500427668668366,0.0,DB
2025-06-04 15:58:08.649,0.0005344923674961,0.4482738616322109,0.0,DB
2025-06-04 15:58:08.656,0.0005982365728003,0.4687104694521268,0.0,DB
2025-06-04 15:58:08.664,0.0006495761058984,0.5163844208495624,0.0,DB
2025-06-04 15:58:08.672,0.0006871131820532,0.5951299115978679,0.0,DB
2025-06-04 15:58:08.680,0.0007098915890173,0.7075520882861729,0.0,DB
2025-06-04 15:58:08.688,0.0007174309525231,0.8550243803231494,0.0,DB
2025-06-04 15:58:08.696,0.0007097422583841,1.0377136347673623,0.0,DB
2025-06-04 15:58:08.703,0.0006873240571477,1.254631854391964,0.0,DB
2025-06-04 15:58:08.711,0.0006511397059997,1.5037130707083517,0.0,DB
2025-06-04 15:58:08.719,0.0006025769117794,1.7819135823232546,0.0,DB
2025-06-04 15:58:08.727,0.0005433916843683,2.0853334406830357,0.0,DB
2025-06-04 15:58:08.735,0.0004756395057025,2.409356663793875,0.0,DB
2025-06-04 15:58:08.742,0.0004015969844792,2.748807210137082,0.0,DB
2025-06-04 15:58:08.750,0.0003236775000965,3.098117270803814,0.0,DB
2025-06-04 15:58:08.758,0.000244344416832,3.4515039725272363,0.0,DB
2025-06-04 15:58:08.766,0.0001660254217705,3.803150170553788,0.0,DB
2025-06-04 15:58:08.774,9.10313728674011e-05,4.147384690209185,0.0,DB
2025-06-04 15:58:08.781,2.148267683172853e-05,4.47885718245914,0.0,DB
2025-06-04 15:58:08.789,-4.075433611423604e-05,4.7927027113694205,0.0,DB
2025-06-04 15:58:08.797,-9.411921966490936e-05,5.084691298147262,0.0,DB
2025-06-04 15:58:08.805,-0.0001373962269662,5.351357908870752,0.0,DB
2025-06-04 15:58:08.813,-0.0001697395606841,5.590108789595615,0.0,DB
2025-06-04 15:58:08.821,-0.0001906850220771,5.799300617934781,0.0,DB
2025-06-04 15:58:08.828,-0.0002001484924873,5.978289642082749,0.0,DB
2025-06-04 15:58:08.836,-0.0001984120776704,6.127448795808368,0.0,DB
2025-06-04 15:58:08.844,-0.0001860990709603,6.248151683995631,0.0,DB
2025-06-04 15:58:08.852,-0.000164139148649,6.3427232977760015,0.0,DB
2025-06-04 15:58:08.860,-0.000133725405535,6.4143583087491525,0.0,DB
2025-06-04 15:58:08.867,-9.626497717854026e-05,6.467008770922413,0.0,DB
2025-06-04 15:58:08.875,-5.332508560049077e-05,6.505243984625533,0.0,DB
2025-06-04 15:58:08.883,-6.576394729987216e-06,6.534086108889472,0.0,DB
2025-06-04 15:58:08.891,4.226442185487408e-05,6.55882582054032,0.0,DB
2025-06-04 15:58:08.899,9.149100906784897e-05,6.58482290010086,0.0,DB
2025-06-04 15:58:08.906,0.000139460700538,6.617297080370974,0.0,DB
2025-06-04 15:58:08.914,0.0001846431710232,6.66111483267039,0.0,DB
2025-06-04 15:58:08.922,0.0002256628273069,6.72057799743426,0.0,DB
2025-06-04 15:58:08.930,0.0002613337694671,6.799220295293114,0.0,DB
2025-06-04 15:58:08.938,0.000290686604441,6.899617779700828,0.0,DB
2025-06-04 15:58:08.946,0.0003129867625711,7.023219202627819,0.0,DB
2025-06-04 15:58:08.953,0.0003277442063532,7.170202046992694,0.0,DB
2025-06-04 15:58:08.961,0.0003347146419246,7.339359620814949,0.0,DB
2025-06-04 15:58:08.969,0.0003338926625274,7.528024099525404,0.0,DB
2025-06-04 15:58:08.977,0.0003254976249457,7.732029738503602,0.0,DB
2025-06-04 15:58:08.985,0.000309953336601,7.945719655162637,0.0,DB
2025-06-04 15:58:08.992,0.0002878627376947,8.16199860254437,0.0,DB
2025-06-04 15:58:09.000,0.0002599787488383,8.372433038398697,0.0,DB
2025-06-04 15:58:09.008,0.0002271724001289,8.56739856138378,0.0,DB
2025-06-04 15:58:09.016,0.0001903993057848,8.73627347502618,0.0,DB
2025-06-04 15:58:09.024,0.000150665514377,8.867675886881237,0.0,DB
2025-06-04 15:58:09.031,0.0001089937561588,8.949740384086601,0.0,DB
2025-06-04 15:58:09.039,6.639112610405032e-05,8.970428968905516,0.0,DB
2025-06-04 15:58:09.047,2.3819254854276453e-05,8.91786960970355,0.0,DB
2025-06-04 15:58:09.055,-1.783203814410612e-05,8.78071449059408,0.0,DB
2025-06-04 15:58:09.063,-5.7766784230807554e-05,8.548508862685518,0.0,DB
2025-06-04 15:58:09.071,-9.52999773604859e-05,8.212060358627859,0.0,DB
2025-06-04 15:58:09.078,-0.0001298692587544,7.76379778806825,0.0,DB
2025-06-04 15:58:09.086,-0.0001610407429027,7.19810785009367,0.0,DB
2025-06-04 15:58:09.094,-0.0001885087572832,6.5116379466393255,0.0,DB
2025-06-04 15:58:09.102,-0.0002120897118764,5.703553421288928,0.0,DB
2025-06-04 15:58:09.110,-0.0002317108410267,4.775738135182591,0.0,DB
2025-06-04 15:58:09.117,-0.0002473948966447,3.732928364128522,0.0,DB
2025-06-04 15:58:09.125,-0.0002592419351763,2.5827715731878165,0.0,DB
2025-06-04 15:58:09.133,-0.0002674093215164,1.3358036839087868,0.0,DB
2025-06-04 15:58:09.141,-0.0002720911909594,0.0053409524416881,0.0,DB
2025-06-04 15:58:09.149,-0.0002734988591357,-1.392714550148492,0.0,DB
2025-06-04 15:58:09.157,-0.0002718438228161,-2.840153728029531,0.0,DB
2025-06-04 15:58:09.164,-0.0002673248006442,-4.31681813329864,0.0,DB
2025-06-04 15:58:09.172,-0.000260119655867,-5.801027911959149,0.0,DB
2025-06-04 15:58:09.180,-0.0002503822242056,-7.27006840971304,0.0,DB
2025-06-04 15:58:09.188,-0.0002382433715885,-8.700721212473276,0.0,DB
2025-06-04 15:58:09.196,-0.000223815238011,-10.069823332290918,0.0,DB
2025-06-04 15:58:09.203,-0.0002071975618407,-11.354836854178568,0.0,DB
2025-06-04 15:58:09.211,-0.0001884850809787,-12.53441071480628,0.0,DB
2025-06-04 15:58:09.219,-0.0001677751624097,-13.588916427483587,0.0,DB
2025-06-04 15:58:09.227,-0.0001451749769834,-14.500940488331992,0.0,DB
2025-06-04 15:58:09.235,-0.0001208077011118,-15.255717838540429,0.0,DB
2025-06-04 15:58:09.242,-9.48173865088683e-05,-15.841493020452932,0.0,DB
2025-06-04 15:58:09.250,-6.737228865662357e-05,-16.24979842423789,0.0,DB
2025-06-04 15:58:09.258,-3.866658036212466e-05,-16.475642128503285,0.0,DB
2025-06-04 15:58:09.266,-8.920495144590393e-06,-16.51760113261548,0.0,DB
2025-06-04 15:58:09.274,2.1620956580061557e-05,-16.377819102298016,0.0,DB
2025-06-04 15:58:09.282,5.26904797073042e-05,-16.061910957461464,0.0,DB
2025-06-04 15:58:09.289,8.400192439160632e-05,-15.578779595347926,0.0,DB
2025-06-04 15:58:09.297,0.000115254356243,-14.94035265827644,0.0,DB
2025-06-04 15:58:09.305,0.0001461364678521,-14.161249442641262,0.0,DB
2025-06-04 15:58:09.313,0.0001763310565129,-13.258389748776167,0.0,DB
2025-06-04 15:58:09.321,0.0002055193412815,-12.250557660189992,0.0,DB
2025-06-04 15:58:09.328,0.0002333849639563,-11.15793391044996,0.0,DB
2025-06-04 15:58:09.336,0.0002596176114042,-10.001610664446424,0.0,DB
2025-06-04 15:58:09.344,0.0002839163085927,-8.803102247764198,0.0,DB
2025-06-04 15:58:09.352,0.0003059925546257,-7.583864663427411,0.0,DB
2025-06-04 15:58:09.360,0.0003255735729071,-6.364835713448733,0.0,DB
2025-06-04 15:58:09.367,0.0003424059497351,-5.166006271307022,0.0,DB
2025-06-04 15:58:09.375,0.0003562598024113,-4.00603180203882,0.0,DB
2025-06-04 15:58:09.383,0.0003669334310926,-2.901891657425657,0.0,DB
2025-06-04 15:58:09.391,0.0003742583229263,-1.8686020296285235,0.0,DB
2025-06-04 15:58:09.399,0.0003781044415408,-0.9189867636064984,0.0,DB
2025-06-04 15:58:09.407,0.0003783858321038,-0.0635085409433997,0.0,DB
2025-06-04 15:58:09.414,0.0003750665509979,0.6898387079503822,0.0,DB
2025-06-04 15:58:09.422,0.0003681667348402,1.3355768903133451,0.0,DB
2025-06-04 15:58:09.430,0.0003577682994752,1.8707325348247108,0.0,DB
2025-06-04 15:58:09.438,0.0003440194295723,2.2947707906104697,0.0,DB
2025-06-04 15:58:09.446,0.0003271368831039,2.6094792903955293,0.0,DB
2025-06-04 15:58:09.453,0.0003074053523137,2.818807441563353,0.0,DB
2025-06-04 15:58:09.461,0.0002851736524518,2.928667391324088,0.0,DB
2025-06-04 15:58:09.469,0.0002608481102281,2.946703360038793,0.0,DB
2025-06-04 15:58:09.477,0.000234883924577,2.882036260768124,0.0,DB
2025-06-04 15:58:09.485,0.0002077753488953,2.7449905441744176,0.0,DB
2025-06-04 15:58:09.492,0.000180045366965,2.5468100549833164,0.0,DB
2025-06-04 15:58:09.500,0.0001522352646275,2.2993693947387515,0.0,DB
2025-06-04 15:58:09.508,0.0001248942562952,2.0148868933104325,0.0,DB
2025-06-04 15:58:09.516,9.856915841932072e-05,1.7056448329258267,0.0,DB
2025-06-04 15:58:09.524,7.379401878649033e-05,1.383722071124594,0.0,DB
2025-06-04 15:58:09.532,5.107958269270569e-05,1.0607436929382272,0.0,DB
2025-06-04 15:58:09.539,3.090243615673186e-05,0.7476517985824185,0.0,DB
2025-06-04 15:58:09.547,1.3693570910373778e-05,0.4545010029345607,0.0,DB
2025-06-04 15:58:09.555,-1.7395571894325984e-07,0.1902816852003145,0.0,DB
2025-06-04 15:58:09.563,-1.039848849145552e-05,-0.0372265177085859,0.0,DB
2025-06-04 15:58:09.571,-1.6764246959740903e-05,-0.2215690279437088,0.0,DB
2025-06-04 15:58:09.578,-1.915618522563072e-05,-0.3576970542065018,0.0,DB
2025-06-04 15:58:09.586,-1.757414123529181e-05,-0.4420138795031573,0.0,DB
2025-06-04 15:58:09.594,-1.2144848541865092e-05,-0.4723864192981448,0.0,DB
2025-06-04 15:58:09.602,-3.130257739451314e-06,-0.448122345094989,0.0,DB
2025-06-04 15:58:09.610,9.069298047768272e-06,-0.3699136892466109,0.0,DB
2025-06-04 15:58:09.617,2.391825768220548e-05,-0.2397485081447233,0.0,DB
2025-06-04 15:58:09.625,4.075599318962319e-05,-0.0607928760461149,0.0,DB
2025-06-04 15:58:09.633,5.881410434199377e-05,0.1627538079707695,0.0,DB
2025-06-04 15:58:09.641,7.724042218119499e-05,0.4258265188471138,0.0,DB
2025-06-04 15:58:09.649,9.512880279882164e-05,0.7226809733610484,0.0,DB
2025-06-04 15:58:09.657,0.0001115533754404,1.0470937504644564,0.0,DB
2025-06-04 15:58:09.664,0.0001256055814393,1.3925707766107154,0.0,DB
2025-06-04 15:58:09.672,0.0001364321132282,1.752558453011157,0.0,DB
2025-06-04 15:58:09.680,0.0001432717440833,2.1206515194670925,0.0,DB
2025-06-04 15:58:09.688,0.0001454890352357,2.4907917285413945,0.0,DB
2025-06-04 15:58:09.696,0.0001426030208242,2.857451546081061,0.0,DB
2025-06-04 15:58:09.703,0.0001343092033522,3.2157973992360205,0.0,DB
2025-06-04 15:58:09.711,0.0001204935403676,3.561827462330096,0.0,DB
2025-06-04 15:58:09.719,0.0001012375614245,3.892479605801797,0.0,DB
2025-06-04 15:58:09.727,7.681431417442815e-05,4.205705929491022,0.0,DB
2025-06-04 15:58:09.735,4.767548218785346e-05,4.500511241994855,0.0,DB
2025-06-04 15:58:09.742,1.4430692025093448e-05,4.7769539038042215,0.0,DB
2025-06-04 15:58:09.750,-2.2179390891009064e-05,5.036108588589219,0.0,DB
2025-06-04 15:58:09.758,-6.131425298439183e-05,5.279991697453547,0.0,DB
2025-06-04 15:58:09.766,-0.0001020670971353,5.511451344517622,0.0,DB
2025-06-04 15:58:09.774,-0.0001434991354356,5.734024972202247,0.0,DB
2025-06-04 15:58:09.782,-0.0001846733206967,5.951768702118574,0.0,DB
2025-06-04 15:58:09.789,-0.0002246865485565,6.1690634377193305,0.0,DB
2025-06-04 15:58:09.797,-0.0002626995962657,6.390403471677264,0.0,DB
2025-06-04 15:58:09.805,-0.0002979641966011,6.620173889392984,0.0,DB
2025-06-04 15:58:09.813,-0.0003298466770473,6.862423388870972,0.0,DB
2025-06-04 15:58:09.821,-0.0003578475585401,7.1206392614191545,0.0,DB
2025-06-04 15:58:09.828,-0.0003816164791089,7.397531218994076,0.0,DB
2025-06-04 15:58:09.836,-0.0004009618393559,7.694830546777207,0.0,DB
2025-06-04 15:58:09.844,-0.0004158546252128,8.013110741051083,0.0,DB
2025-06-04 15:58:09.852,-0.0004264259095089,8.35163539347052,0.0,DB
2025-06-04 15:58:09.860,-0.0004329576473877,8.708238622882131,0.0,DB
2025-06-04 15:58:09.867,-0.000435866682019,9.079242842639594,0.0,DB
2025-06-04 15:58:09.875,-0.0004356823562558,9.45941808109817,0.0,DB
2025-06-04 15:58:09.883,-0.0004330186529661,9.841986430309802,0.0,DB
2025-06-04 15:58:09.891,-0.0004285422455382,10.218674458735387,0.0,DB
2025-06-04 15:58:09.899,-0.0004229381805392,10.579815561372412,0.0,DB
2025-06-04 15:58:09.907,-0.0004168751224362,10.914503210531857,0.0,DB
2025-06-04 15:58:09.914,-0.0004109721605249,11.210794890303662,0.0,DB
2025-06-04 15:58:09.922,-0.00040576910948,11.455965127841148,0.0,DB
2025-06-04 15:58:09.930,-0.0004017020297312,11.636804464315766,0.0,DB
2025-06-04 15:58:09.938,-0.0003990853584795,11.739959448176055,0.0,DB
2025-06-04 15:58:09.946,-0.0003981015865322,11.75230682613467,0.0,DB
2025-06-04 15:58:09.953,-0.0003987988537607,11.661353133528968,0.0,DB
2025-06-04 15:58:09.961,-0.000401096189112,11.45564896100017,0.0,DB
2025-06-04 15:58:09.969,-0.0004047954470689,11.125205441514062,0.0,DB
2025-06-04 15:58:09.977,-0.0004095984194671,10.661899116039717,0.0,DB
2025-06-04 15:58:09.985,-0.0004151272972226,10.059850446651156,0.0,DB
2025-06-04 15:58:09.992,-0.0004209467035282,9.315760975571864,0.0,DB
2025-06-04 15:58:10.000,-0.0004265858381598,8.429194560482928,0.0,DB
2025-06-04 15:58:10.008,-0.0004315596967578,7.402789283647581,0.0,DB
2025-06-04 15:58:10.016,-0.0004353887342276,6.242388515271128,0.0,DB
2025-06-04 15:58:10.024,-0.0004376166741205,4.957082138775988,0.0,DB
2025-06-04 15:58:10.032,-0.0004378264082356,3.5591520027514303,0.0,DB
2025-06-04 15:58:10.039,-0.0004356540745324,2.063919107327539,0.0,DB
2025-06-04 15:58:10.047,-0.0004308014428947,0.4894937038882391,0.0,DB
2025-06-04 15:58:10.055,-0.0004230466832754,-1.14356677595396,0.0,DB
2025-06-04 15:58:10.063,-0.0004122534761062,-2.812683409561081,0.0,DB
2025-06-04 15:58:10.071,-0.0003983783275885,-4.4937531721024575,0.0,DB
2025-06-04 15:58:10.078,-0.0003814759276642,-6.161703178146739,0.0,DB
2025-06-04 15:58:10.086,-0.0003617023973483,-7.791084586993662,0.0,DB
2025-06-04 15:58:10.094,-0.0003393162425752,-9.356687340926886,0.0,DB
2025-06-04 15:58:10.102,-0.0003146767684133,-10.834156035639142,0.0,DB
2025-06-04 15:58:10.110,-0.0002882396593895,-12.20058715296833,0.0,DB
2025-06-04 15:58:10.117,-0.0002605494042104,-13.435088607141692,0.0,DB
2025-06-04 15:58:10.125,-0.000232228230254,-14.519284018966474,0.0,DB
2025-06-04 15:58:10.133,-0.0002039612670319,-15.437746255338851,0.0,DB
2025-06-04 15:58:10.141,-0.0001764778492014,-16.17834744212183,0.0,DB
2025-06-04 15:58:10.149,-0.0001505291939278,-16.732515742733245,0.0,DB
2025-06-04 15:58:10.157,-0.000126863058885,-17.095392546534583,0.0,DB
2025-06-04 15:58:10.164,-0.0001061963177672,-17.2658871846564,0.0,DB
2025-06-04 15:58:10.172,-8.918663528560016e-05,-17.246629751005397,0.0,DB
2025-06-04 15:58:10.180,-7.640456774773736e-05,-17.04382593100495,0.0,DB
2025-06-04 15:58:10.188,-6.830745106001675e-05,-16.667020819445323,0.0,DB
2025-06-04 15:58:10.196,-6.521636093912204e-05,-16.128781440435134,0.0,DB
2025-06-04 15:58:10.203,-6.729724438354686e-05,-15.444309977332452,0.0,DB
2025-06-04 15:58:10.211,-7.454706111307466e-05,-14.631001506404948,0.0,DB
2025-06-04 15:58:10.219,-8.678551768022858e-05,-13.707961254248232,0.0,DB
2025-06-04 15:58:10.227,-0.0001036528033056,-12.69549703727505,0.0,DB
2025-06-04 15:58:10.235,-0.0001246136443323,-11.61460258562065,0.0,DB
2025-06-04 15:58:10.242,-0.000148967904083,-10.486446924184328,0.0,DB
2025-06-04 15:58:10.250,-0.0001758677872812,-9.331883933696558,0.0,DB
2025-06-04 15:58:10.258,-0.0002043414350543,-8.170994728879743,0.0,DB
2025-06-04 15:58:10.266,-0.0002333223481748,-7.022673671447063,0.0,DB
2025-06-04 15:58:10.274,-0.0002616837349016,-5.9042667891632,0.0,DB
2025-06-04 15:58:10.282,-0.0002882766286264,-4.831269200329032,0.0,DB
2025-06-04 15:58:10.289,-0.000311970465194,-3.817085940039407,0.0,DB
2025-06-04 15:58:10.297,-0.0003316946785953,-2.8728584337655256,0.0,DB
2025-06-04 15:58:10.305,-0.0003464797011855,-2.00735683513468,0.0,DB
2025-06-04 15:58:10.313,-0.0003554955536816,-1.2269365950686268,0.0,DB
2025-06-04 15:58:10.321,-0.0003580860882208,-0.5355560033903951,0.0,DB
2025-06-04 15:58:10.328,-0.0003537970322393,0.0651499277639861,0.0,DB
2025-06-04 15:58:10.336,-0.0003423962804641,0.5757449725143884,0.0,DB
2025-06-04 15:58:10.344,-0.0003238852753089,0.9988231601093736,0.0,DB
2025-06-04 15:58:10.352,-0.0002985007214996,1.338803347880961,0.0,DB
2025-06-04 15:58:10.360,-0.0002667063364577,1.6016943728154316,0.0,DB
2025-06-04 15:58:10.367,-0.0002291748747681,1.7948383598911175,0.0,DB
2025-06-04 15:58:10.375,-0.0001867612249933,1.9266396646674369,0.0,DB
2025-06-04 15:58:10.383,-0.0001404678795169,2.006286654198832,0.0,DB
2025-06-04 15:58:10.391,-9.140448131271488e-05,2.043473122351495,0.0,DB
2025-06-04 15:58:10.399,-4.074344334313384e-05,2.048125628003528,0.0,DB
2025-06-04 15:58:10.407,1.0326187418246674e-05,2.030142459775633,0.0,DB
2025-06-04 15:58:10.414,6.06443900723308e-05,1.9991492792208887,0.0,DB
2025-06-04 15:58:10.422,0.0001091231795035,1.964275784056969,0.0,DB
2025-06-04 15:58:10.430,0.0001547849607628,1.9339569793904992,0.0,DB
2025-06-04 15:58:10.438,0.0001967944999409,1.915761871773296,0.0,DB
2025-06-04 15:58:10.446,0.0002344831596848,1.9162516360691983,0.0,DB
2025-06-04 15:58:10.453,0.0002673645137223,1.9408685739310925,0.0,DB
2025-06-04 15:58:10.461,0.0002951409937824,1.9938565028382815,0.0,DB
2025-06-04 15:58:10.469,0.0003177017885834,2.078212593456666,0.0,DB
2025-06-04 15:58:10.477,0.0003351127246581,2.1956701097877325,0.0,DB
2025-06-04 15:58:10.485,0.0003475992532439,2.346710997818803,0.0,DB
2025-06-04 15:58:10.492,0.0003555239770827,2.530606812681612,0.0,DB
2025-06-04 15:58:10.500,0.0003593604147252,2.745486072186718,0.0,DB
2025-06-04 15:58:10.508,0.0003596648397148,2.988425775914112,0.0,DB
2025-06-04 15:58:10.516,0.000357047930603,3.255564531610894,0.0,DB
2025-06-04 15:58:10.524,0.0003521476395188,3.5422344815046496,0.0,DB
2025-06-04 15:58:10.532,0.0003456042666737,3.843109018436615,0.0,DB
2025-06-04 15:58:10.539,0.0003380383367666,4.152363124647194,0.0,DB
2025-06-04 15:58:10.547,0.0003300315651445,4.463843052518451,0.0,DB
2025-06-04 15:58:10.555,0.0003221109948072,4.771241990348184,0.0,DB
2025-06-04 15:58:10.563,0.0003147362824141,5.0682783062697325,0.0,DB
2025-06-04 15:58:10.571,0.0003082900833592,5.348872926690674,0.0,DB
2025-06-04 15:58:10.578,0.000303071462706,5.607322370494935,0.0,DB
2025-06-04 15:58:10.586,0.0002992921965442,5.838463918804998,0.0,DB
2025-06-04 15:58:10.594,0.0002970757972293,6.037829351383522,0.0,DB
2025-06-04 15:58:10.602,0.0002964592074765,6.201783635689906,0.0,DB
2025-06-04 15:58:10.610,0.0002973973231985,6.327644937375173,0.0,DB
2025-06-04 15:58:10.617,0.0002997706188585,6.413782363332385,0.0,DB
2025-06-04 15:58:10.625,0.000303396009633,6.459687981374591,0.0,DB
2025-06-04 15:58:10.633,0.0003080407371607,6.466019910709975,0.0,DB
2025-06-04 15:58:10.641,0.000313438665619,6.434613666920374,0.0,DB
2025-06-04 15:58:10.649,0.0003193080426056,6.368459491501506,0.0,DB
2025-06-04 15:58:10.657,0.0003253695631373,6.27164410833087,0.0,DB
2025-06-04 15:58:10.664,0.000331363487237,6.149256224833676,0.0,DB
2025-06-04 15:58:10.672,0.0003370646046792,6.007256116975854,0.0,DB
2025-06-04 15:58:10.680,0.0003422940128096,5.852310773452517,0.0,DB
2025-06-04 15:58:10.688,0.0003469269690402,5.691597283712003,0.0,DB
2025-06-04 15:58:10.696,0.000350896483228,5.532578388323839,0.0,DB
2025-06-04 15:58:10.703,0.0003541927807273,5.382755317461877,0.0,DB
2025-06-04 15:58:10.711,0.000356859203455,5.249404174016999,0.0,DB
2025-06-04 15:58:10.719,0.0003589854286196,5.139303126853735,0.0,DB
2025-06-04 15:58:10.727,0.0003606990305838,5.058458525847138,0.0,DB
2025-06-04 15:58:10.735,0.000362156386721,5.011838692262035,0.0,DB
2025-06-04 15:58:10.742,0.0003635337353345,5.00312453246167,0.0,DB
2025-06-04 15:58:10.750,0.00036501887321,5.034486229302476,0.0,DB
2025-06-04 15:58:10.758,0.0003668036254497,5.106395053439555,0.0,DB
2025-06-04 15:58:10.766,0.000369076919762,5.2174787890349545,0.0,DB
2025-06-04 15:58:10.774,0.0003720180949111,5.364428379198042,0.0,DB
2025-06-04 15:58:10.782,0.0003757899813501,5.541962168807575,0.0,DB
2025-06-04 15:58:10.789,0.0003805313142027,5.7428525701323405,0.0,DB
2025-06-04 15:58:10.797,0.0003863481733712,5.958018132224606,0.0,DB
2025-06-04 15:58:10.805,0.0003933043868829,6.176681914969269,0.0,DB
2025-06-04 15:58:10.813,0.0004014111717063,6.386594831053189,0.0,DB
2025-06-04 15:58:10.821,0.0004106167019203,6.574320313191667,0.0,DB
2025-06-04 15:58:10.828,0.0004207967324935,6.725574378836355,0.0,DB
2025-06-04 15:58:10.836,0.0004317477421316,6.825612983240115,0.0,DB
2025-06-04 15:58:10.844,0.0004431841252979,6.859656550702446,0.0,DB
2025-06-04 15:58:10.852,0.0004547406812618,6.813339826058537,0.0,DB
2025-06-04 15:58:10.860,0.0004659810998691,6.673173766009187,0.0,DB
2025-06-04 15:58:10.867,0.0004764124978187,6.427005162272391,0.0,DB
2025-06-04 15:58:10.875,0.0004855054445301,6.064459115767604,0.0,DB
2025-06-04 15:58:10.883,0.0004927183914435,5.577349405096909,0.0,DB
2025-06-04 15:58:10.891,0.0004975250059343,4.960042234388684,0.0,DB
2025-06-04 15:58:10.899,0.0004994426252763,4.209759808376416,0.0,DB
2025-06-04 15:58:10.907,0.0004980598977925,3.326811656184512,0.0,DB
2025-06-04 15:58:10.914,0.0004930616740683,2.314743585553487,0.0,DB
2025-06-04 15:58:10.922,0.0004842493532634,1.180396553273516,0.0,DB
2025-06-04 15:58:10.930,0.0004715551762435,-0.0661294801056221,0.0,DB
2025-06-04 15:58:10.938,0.0004550493821809,-1.4116085692076172,0.0,DB
2025-06-04 15:58:10.946,0.0004349396924332,-2.839917271115446,0.0,DB
2025-06-04 15:58:10.953,0.0004115632079577,-4.33235385925984,0.0,DB
2025-06-04 15:58:10.961,0.0003853714117725,-5.868040242209951,0.0,DB
2025-06-04 15:58:10.969,0.0003569094587383,-7.424395483061979,0.0,DB
2025-06-04 15:58:10.977,0.0003267912661808,-8.97766707381223,0.0,DB
2025-06-04 15:58:10.985,0.0002956720831398,-10.50350385613762,0.0,DB
2025-06-04 15:58:10.992,0.0002642202112724,-11.977552814974098,0.0,DB
2025-06-04 15:58:11.000,0.0002330894120645,-13.376060995907878,0.0,DB
2025-06-04 15:58:11.008,0.0002028933451881,-14.676463567634022,0.0,DB
2025-06-04 15:58:11.016,0.000174183192117,-15.857939581881023,0.0,DB
2025-06-04 15:58:11.024,0.000147429390881,-16.901918247284957,0.0,DB
2025-06-04 15:58:11.032,0.0001230080789372,-17.792520461102587,0.0,DB
2025-06-04 15:58:11.039,0.0001011924264649,-18.51692283025522,0.0,DB
2025-06-04 15:58:11.047,8.214866139167203e-05,-19.06563433664188,0.0,DB
2025-06-04 15:58:11.055,6.593639523910108e-05,-19.432679025193146,0.0,DB
2025-06-04 15:58:11.063,5.25129277074642e-05,-19.615681474350016,0.0,DB
2025-06-04 15:58:11.071,4.174142789789066e-05,-19.61585520271631,0.0,DB
2025-06-04 15:58:11.078,3.3403021958160725e-05,-19.43789743150741,0.0,DB
2025-06-04 15:58:11.086,2.7212700068107684e-05,-19.08979662706301,0.0,DB
2025-06-04 15:58:11.094,2.2838632478039567e-05,-18.58256186787203,0.0,DB
2025-06-04 15:58:11.102,1.9924107526119045e-05,-17.92988520951655,0.0,DB
2025-06-04 15:58:11.110,1.8110991951170338e-05,-17.147749782233976,0.0,DB
2025-06-04 15:58:11.117,1.7063411523222324e-05,-16.253997315112937,0.0,DB
2025-06-04 15:58:11.125,1.6490268462455662e-05,-15.267869146707069,0.0,DB
2025-06-04 15:58:11.133,1.6165247208411092e-05,-14.20953459601405,0.0,DB
2025-06-04 15:58:11.141,1.5943077346547434e-05,-13.099619895186404,0.0,DB
2025-06-04 15:58:11.149,1.5770947656069752e-05,-11.958749807652596,0.0,DB
2025-06-04 15:58:11.157,1.569405156121862e-05,-10.807112667502466,0.0,DB
2025-06-04 15:58:11.164,1.5854365417670343e-05,-9.664057980511451,0.0,DB
2025-06-04 15:58:11.172,1.6482065152587964e-05,-8.54773402427475,0.0,DB
2025-06-04 15:58:11.180,1.7879540074198775e-05,-7.474771162373827,0.0,DB
2025-06-04 15:58:11.188,2.039869841111904e-05,-6.460014914439049,0.0,DB
2025-06-04 15:58:11.196,2.441304415160085e-05,-5.516311249908029,0.0,DB
2025-06-04 15:58:11.203,3.028667108109389e-05,-4.654345130413859,0.0,DB
2025-06-04 15:58:11.211,3.834268716050671e-05,-3.882532033524407,0.0,DB
2025-06-04 15:58:11.219,4.883356103253958e-05,-3.206961062381469,0.0,DB
2025-06-04 15:58:11.227,6.191554693699791e-05,-2.631387293912025,0.0,DB
2025-06-04 15:58:11.235,7.762885501111864e-05,-2.157270250694017,0.0,DB
2025-06-04 15:58:11.242,9.588471290809027e-05,-1.7838547927132953,0.0,DB
2025-06-04 15:58:11.250,0.0001164599642854,-1.508290292518922,0.0,DB
2025-06-04 15:58:11.258,0.000138999388567,-1.325783649692586,0.0,DB
2025-06-04 15:58:11.266,0.0001630255156862,-1.2297814916052845,0.0,DB
2025-06-04 15:58:11.274,0.0001879553584463,-1.2121767803440329,0.0,DB
2025-06-04 15:58:11.282,0.0002131232007981,-1.2635349895898793,0.0,DB
2025-06-04 15:58:11.289,0.0002378083624622,-1.3733350201311674,0.0,DB
2025-06-04 15:58:11.297,0.0002612666800837,-1.5302200789084568,0.0,DB
2025-06-04 15:58:11.305,0.000282764235767,-1.7222538471776605,0.0,DB
2025-06-04 15:58:11.313,0.0003016115879785,-1.9371774061172,0.0,DB
2025-06-04 15:58:11.321,0.0003171965021791,-2.1626625736630576,0.0,DB
2025-06-04 15:58:11.328,0.000329013099922,-2.386557535185782,0.0,DB
2025-06-04 15:58:11.336,0.0003366855258787,-2.597120920185616,0.0,DB
2025-06-04 15:58:11.344,0.000339984626079,-2.783240779787913,0.0,DB
2025-06-04 15:58:11.352,0.0003388366522619,-2.934635244455801,0.0,DB
2025-06-04 15:58:11.360,0.0003333235782359,-3.0420319786593946,0.0,DB
2025-06-04 15:58:11.367,0.0003236751443668,-3.0973238963839065,0.0,DB
2025-06-04 15:58:11.375,0.0003102531798452,-3.093698963294936,0.0,DB
2025-06-04 15:58:11.383,0.0002935291498483,-3.025742298356926,0.0,DB
2025-06-04 15:58:11.391,0.000274056340648,-2.8895092095170254,0.0,DB
2025-06-04 15:58:11.399,0.0002524385863802,-2.682568256727957,0.0,DB
2025-06-04 15:58:11.407,0.0002292977497353,-2.404013920482123,0.0,DB
2025-06-04 15:58:11.414,0.0002052421425026,-2.054448943893579,0.0,DB
2025-06-04 15:58:11.422,0.0001808377572752,-1.6359368867904096,0.0,DB
2025-06-04 15:58:11.430,0.0001565837369626,-1.1519258620417467,0.0,DB
2025-06-04 15:58:11.438,0.0001328930583728,-0.6071448102916936,0.0,DB
2025-06-04 15:58:11.446,0.000110079003448,-0.0074740189053383,0.0,DB
2025-06-04 15:58:11.453,8.834764971233149e-05,0.6402080701653593,0.0,DB
2025-06-04 15:58:11.461,6.779630766342746e-05,1.3281993562012198,0.0,DB
2025-06-04 15:58:11.469,4.841750524828579e-05,2.048167052390678,0.0,DB
2025-06-04 15:58:11.477,3.0107733808029733e-05,2.791355809537964,0.0,DB
2025-06-04 15:58:11.485,1.2679812005649352e-05,3.5488070790793853,0.0,DB
2025-06-04 15:58:11.492,-4.122445322265067e-06,4.311585143082138,0.0,DB
2025-06-04 15:58:11.500,-2.060846923031888e-05,5.071004538564563,0.0,DB
2025-06-04 15:58:11.508,-3.7124996178696295e-05,5.818852921267073,0.0,DB
2025-06-04 15:58:11.516,-5.404044610270329e-05,6.547602826994723,0.0,DB
2025-06-04 15:58:11.524,-7.172974304093007e-05,7.250605385720215,0.0,DB
2025-06-04 15:58:11.532,-9.05594548576827e-05,7.92225891386079,0.0,DB
2025-06-04 15:58:11.539,-0.0001108730528886,8.55814552769501,0.0,DB
2025-06-04 15:58:11.547,-0.0001329761858704,9.155129530518936,0.0,DB
2025-06-04 15:58:11.555,-0.0001571220889831,9.711412335391008,0.0,DB
2025-06-04 15:58:11.563,-0.0001834974966757,10.226540065967956,0.0,DB
2025-06-04 15:58:11.571,-0.0002122095629626,10.701361673027057,0.0,DB
2025-06-04 15:58:11.578,-0.0002432743083337,11.13793733461941,0.0,DB
2025-06-04 15:58:11.586,-0.0002766071238614,11.53939897564337,0.0,DB
2025-06-04 15:58:11.594,-0.0003120159375372,11.909766834820289,0.0,DB
2025-06-04 15:58:11.602,-0.0003491977367468,12.253728001690812,0.0,DB
2025-06-04 15:58:11.610,-0.0003877391677936,12.576384624290789,0.0,DB
2025-06-04 15:58:11.617,-0.0004271218618108,12.8829809470784,0.0,DB
2025-06-04 15:58:11.625,-0.0004667329601156,13.178619402027437,0.0,DB
2025-06-04 15:58:11.633,-0.0005058810342849,13.467976595753775,0.0,DB
2025-06-04 15:58:11.641,-0.0005438172297044,13.755030191163094,0.0,DB
2025-06-04 15:58:11.649,-0.0005797610494671,14.042807377518503,0.0,DB
2025-06-04 15:58:11.657,-0.0006129298269868,14.333164886965466,0.0,DB
2025-06-04 15:58:11.664,-0.0006425706984223,14.626609401759438,0.0,DB
2025-06-04 15:58:11.672,-0.000667993783293,14.922165778633913,0.0,DB
2025-06-04 15:58:11.680,-0.0006886052162132,15.21729888137024,0.0,DB
2025-06-04 15:58:11.688,-0.0007039385363828,15.507893048473775,0.0,DB
2025-06-04 15:58:11.696,-0.0007136827431379,15.788291410174867,0.0,DB
2025-06-04 15:58:11.703,-0.0007177052230459,16.051395468742385,0.0,DB
2025-06-04 15:58:11.711,-0.0007160679073002,16.288823602391542,0.0,DB
2025-06-04 15:58:11.719,-0.0007090354290909,16.49112545243333,0.0,DB
2025-06-04 15:58:11.727,-0.0006970745936498,16.648047492599936,0.0,DB
2025-06-04 15:58:11.735,-0.0006808450348304,16.748843440219733,0.0,DB
2025-06-04 15:58:11.742,-0.0006611814560434,16.782621543517877,0.0,DB
2025-06-04 15:58:11.750,-0.0006390682914659,16.73871918394331,0.0,DB
2025-06-04 15:58:11.758,-0.0006156078976553,16.60709371504515,0.0,DB
2025-06-04 15:58:11.766,-0.0005919834503362,16.37871710248911,0.0,DB
2025-06-04 15:58:11.774,-0.0005694176555375,16.045960843466045,0.0,DB
2025-06-04 15:58:11.782,-0.0005491283465884,15.602956949055136,0.0,DB
2025-06-04 15:58:11.789,-0.0005322821144326,15.04592058320083,0.0,DB
2025-06-04 15:58:11.797,-0.0005199472966649,14.373420359132671,0.0,DB
2025-06-04 15:58:11.805,-0.0005130479238978,13.586583362453894,0.0,DB
2025-06-04 15:58:11.813,-0.0005123205889008,12.68922372878955,0.0,DB
2025-06-04 15:58:11.821,-0.0005182765659144,11.68788603813812,0.0,DB
2025-06-04 15:58:11.828,-0.0005311716891716,10.591797833055734,0.0,DB
2025-06-04 15:58:11.836,-0.0005509863787994,9.41272910808874,0.0,DB
2025-06-04 15:58:11.844,-0.0005774177472721,8.164760493725494,0.0,DB
2025-06-04 15:58:11.852,-0.0006098849639189,6.863965877106948,0.0,DB
2025-06-04 15:58:11.860,-0.0006475481232848,5.528019151955512,0.0,DB
2025-06-04 15:58:11.867,-0.000689339934636,4.17573845155734,0.0,DB
2025-06-04 15:58:11.875,-0.0007340087286821,2.826584372746954,0.0,DB
2025-06-04 15:58:11.883,-0.0007801705731386,1.5001311421860235,0.0,DB
2025-06-04 15:58:11.891,-0.0008263677235413,0.2155312379970934,0.0,DB
2025-06-04 15:58:11.899,-0.0008711302717256,-1.009005460101325,0.0,DB
2025-06-04 15:58:11.907,-0.0009130377267587,-2.1566974180275054,0.0,DB
2025-06-04 15:58:11.914,-0.0009507773737398,-3.2126230682223262,0.0,DB
2025-06-04 15:58:11.922,-0.0009831966002503,-4.164081814065177,0.0,DB
2025-06-04 15:58:11.930,-0.0010093469153521,-5.00087132046194,0.0,DB
2025-06-04 15:58:11.938,-0.0010285180158622,-5.715472067443859,0.0,DB
2025-06-04 15:58:11.946,-0.0010402608871128,-6.303134671534004,0.0,DB
2025-06-04 15:58:11.953,-0.0010443995132115,-6.761870195143193,0.0,DB
2025-06-04 15:58:11.961,-0.0010410312976072,-7.09234828403467,0.0,DB
2025-06-04 15:58:11.969,-0.0010305167498503,-7.297712222639911,0.0,DB
2025-06-04 15:58:11.977,-0.0010134593732732,-7.383323633982632,0.0,DB
2025-06-04 15:58:11.985,-0.0009906769881743,-7.35645237845551,0.0,DB
2025-06-04 15:58:11.993,-0.0009631659457731,-7.225929081396427,0.0,DB
2025-06-04 15:58:12.000,-0.0009320598316081,-7.001778561507617,0.0,DB
2025-06-04 15:58:12.008,-0.0008985843267976,-6.694852224497107,0.0,DB
2025-06-04 15:58:12.016,-0.0008640098966226,-6.316476281519801,0.0,DB
2025-06-04 15:58:12.024,-0.0008296039140745,-5.878130569639784,0.0,DB
2025-06-04 15:58:12.032,-0.0007965837131778,-5.391169968753579,0.0,DB
2025-06-04 15:58:12.039,-0.0007660719417761,-4.866597143115867,0.0,DB
2025-06-04 15:58:12.047,-0.0007390555208636,-4.314891819091801,0.0,DB
2025-06-04 15:58:12.055,-0.0007163495611009,-3.7458982698397847,0.0,DB
2025-06-04 15:58:12.063,-0.0006985676564297,-3.168769310589587,0.0,DB
2025-06-04 15:58:12.071,-0.0006860999114396,-2.591962072265501,0.0,DB
2025-06-04 15:58:12.078,-0.0006790997837878,-2.0232782276303,0.0,DB
2025-06-04 15:58:12.086,-0.0006774803810125,-1.4699392609908426,0.0,DB
2025-06-04 15:58:12.094,-0.0006809203257114,-0.9386858320314478,0.0,DB
2025-06-04 15:58:12.102,-0.0006888787693674,-0.4358892927106197,0.0,DB
2025-06-04 15:58:12.110,-0.0007006186790628,0.0323370320270107,0.0,DB
2025-06-04 15:58:12.118,-0.0007152371992315,0.4600390919327881,0.0,DB
2025-06-04 15:58:12.125,-0.0007317016683844,0.841347514263222,0.0,DB
2025-06-04 15:58:12.133,-0.0007488897007179,1.17043751192653,0.0,DB
2025-06-04 15:58:12.141,-0.0007656316675346,1.441531717125387,0.0,DB
2025-06-04 15:58:12.149,-0.000780753974188,1.6489517609249722,0.0,DB
2025-06-04 15:58:12.157,-0.0007931216385609,1.7872211847426944,0.0,DB
2025-06-04 15:58:12.164,-0.0008016787183748,1.8512185093313491,0.0,DB
2025-06-04 15:58:12.172,-0.000805485110982,1.8363751984906127,0.0,DB
2025-06-04 15:58:12.180,-0.0008037482765161,1.7389091239697316,0.0,DB
2025-06-04 15:58:12.188,-0.0007958486181921,1.5560803129137477,0.0,DB
2025-06-04 15:58:12.196,-0.000781357595941,1.2864526076393088,0.0,DB
2025-06-04 15:58:12.203,-0.0007600480698672,0.9301427271959452,0.0,DB
2025-06-04 15:58:12.211,-0.0007318967847454,0.4890373537485804,0.0,DB
2025-06-04 15:58:12.219,-0.0006970792763611,-0.0330405708275909,0.0,DB
2025-06-04 15:58:12.227,-0.0006559577944282,-0.6302331351837842,0.0,DB
2025-06-04 15:58:12.235,-0.000609063092165,-1.2946297682020356,0.0,DB
2025-06-04 15:58:12.243,-0.0005570711284669,-2.0163395194247813,0.0,DB
2025-06-04 15:58:12.250,-0.0005007758657955,-2.7836569835687417,0.0,DB
2025-06-04 15:58:12.258,-0.000441059427626,-3.583319842367621,0.0,DB
2025-06-04 15:58:12.266,-0.0003788609069054,-4.400850271256555,0.0,DB
2025-06-04 15:58:12.274,-0.000315145095589,-5.220967101209743,0.0,DB
2025-06-04 15:58:12.282,-0.0002508723396203,-6.028051005067368,0.0,DB
2025-06-04 15:58:12.289,-0.0001869706186124,-6.80664140761515,0.0,DB
2025-06-04 15:58:12.297,-0.0001243108099934,-7.54194153816102,0.0,DB
2025-06-04 15:58:12.305,-6.368592839149711e-05,-8.220307202880953,0.0,DB
2025-06-04 15:58:12.313,-5.7949372634464045e-06,-8.829695504923068,0.0,DB
2025-06-04 15:58:12.321,4.876848435101022e-05,-9.360051832424949,0.0,DB
2025-06-04 15:58:12.328,9.952206738951844e-05,-9.803616810291544,0.0,DB
2025-06-04 15:58:12.336,0.000146096060712,-10.155139318077476,0.0,DB
2025-06-04 15:58:12.344,0.0001882296627476,-10.411986795746133,0.0,DB
2025-06-04 15:58:12.352,0.0002257633744432,-10.574149542901878,0.0,DB
2025-06-04 15:58:12.360,0.0002586281288673,-10.644141213846838,0.0,DB
2025-06-04 15:58:12.368,0.0002868323030078,-10.626802887157712,0.0,DB
2025-06-04 15:58:12.375,0.0003104479187191,-10.529022648987238,0.0,DB
2025-06-04 15:58:12.383,0.0003295973883022,-10.359386335925326,0.0,DB
2025-06-04 15:58:12.391,0.0003444419464054,-10.127777770008157,0.0,DB
2025-06-04 15:58:12.399,0.0003551724789277,-9.844948397783892,0.0,DB
2025-06-04 15:58:12.407,0.0003620030521802,-9.52207670736072,0.0,DB
2025-06-04 15:58:12.414,0.000365167268833,-9.1703372037068,0.0,DB
2025-06-04 15:58:12.422,0.0003649175658849,-8.800497193901299,0.0,DB
2025-06-04 15:58:12.430,0.0003615274695041,-8.42255733239865,0.0,DB
2025-06-04 15:58:12.438,0.0003552964935436,-8.045448985538158,0.0,DB
2025-06-04 15:58:12.446,0.0003465569352562,-7.676798185839178,0.0,DB
2025-06-04 15:58:12.453,0.0003356814956694,-7.322762450116872,0.0,DB
2025-06-04 15:58:12.461,0.0003230905128586,-6.987943213187099,0.0,DB
2025-06-04 15:58:12.469,0.0003092576092077,-6.675373246067814,0.0,DB
2025-06-04 15:58:12.477,0.0002947126943141,-6.386575322360218,0.0,DB
2025-06-04 15:58:12.485,0.0002800414989932,-6.121685674903375,0.0,DB
2025-06-04 15:58:12.493,0.0002658810566705,-5.879633522773689,0.0,DB
2025-06-04 15:58:12.500,0.0002529107474344,-5.658366195188567,0.0,DB
2025-06-04 15:58:12.508,0.0002418387210525,-5.4551081524176,0.0,DB
2025-06-04 15:58:12.516,0.0002333837833024,-5.26664148763196,0.0,DB
2025-06-04 15:58:12.524,0.0002282531893265,-5.089595241090997,0.0,DB
2025-06-04 15:58:12.532,0.0002271172262041,-4.920731009555459,0.0,DB
2025-06-04 15:58:12.539,0.0002305819360766,-4.75721283366696,0.0,DB
2025-06-04 15:58:12.547,0.0002391617372155,-4.596850150484015,0.0,DB
2025-06-04 15:58:12.555,0.0002532539453408,-4.43830367497902,0.0,DB
2025-06-04 15:58:12.563,0.000273117236334,-4.28124539784155,0.0,DB
2025-06-04 15:58:12.571,0.000298855917979,-4.126465436542532,0.0,DB
2025-06-04 15:58:12.578,0.0003304114930736,-3.9759202359879686,0.0,DB
2025-06-04 15:58:12.586,0.0003675624389323,-3.832718572587805,0.0,DB
2025-06-04 15:58:12.594,0.0004099324927146,-3.701043960680196,0.0,DB
2025-06-04 15:58:12.602,0.0004570071090167,-3.5860143770573574,0.0,DB
2025-06-04 15:58:12.610,0.000508157193046,-3.493482679003232,0.0,DB
2025-06-04 15:58:12.618,0.0005626687278585,-3.429783644251472,0.0,DB
2025-06-04 15:58:12.625,0.000619776518319,-3.4014361313213994,0.0,DB
2025-06-04 15:58:12.633,0.0006786999760369,-3.414811342469386,0.0,DB
2025-06-04 15:58:12.641,0.0007386786799831,-3.47578044415712,0.0,DB
2025-06-04 15:58:12.649,0.0007990054025324,-3.5893567204486407,0.0,DB
2025-06-04 15:58:12.657,0.0008590544597611,-3.75934884793094,0.0,DB
2025-06-04 15:58:12.664,0.0009183036640508,-3.98804262288754,0.0,DB
2025-06-04 15:58:12.672,0.0009763487363595,-4.275928388806114,0.0,DB
2025-06-04 15:58:12.680,0.001032909605006,-4.621490390803444,0.0,DB
2025-06-04 15:58:12.688,0.0010878284842326,-5.02107227590226,0.0,DB
2025-06-04 15:58:12.696,0.001141060018843,-5.468829996393104,0.0,DB
2025-06-04 15:58:12.703,0.0011926541607107,-5.956779567106274,0.0,DB
2025-06-04 15:58:12.711,0.0012427328318321,-6.474942653485453,0.0,DB
2025-06-04 15:58:12.719,0.0012914618223002,-7.011588060202569,0.0,DB
2025-06-04 15:58:12.727,0.0013390197593833,-7.553562128743631,0.0,DB
2025-06-04 15:58:12.735,0.0013855663490235,-8.086696143609403,0.0,DB
2025-06-04 15:58:12.743,0.0014312123842525,-8.596274402443898,0.0,DB
2025-06-04 15:58:12.750,0.0014759941186475,-9.067542917881369,0.0,DB
2025-06-04 15:58:12.758,0.0015198543678322,-9.486236037228212,0.0,DB
2025-06-04 15:58:12.766,0.0015626320927465,-9.839096775861506,0.0,DB
2025-06-04 15:58:12.774,0.0016040614007589,-10.114366469229818,0.0,DB
2025-06-04 15:58:12.782,0.001643780095985,-10.302220479890446,0.0,DB
2025-06-04 15:58:12.789,0.0016813471777558,-10.39512908889622,0.0,DB
2025-06-04 15:58:12.797,0.0017162679430854,-10.388126213796811,0.0,DB
2025-06-04 15:58:12.805,0.0017480245883468,-10.278973016951555,0.0,DB
2025-06-04 15:58:12.813,0.0017761096044529,-10.068208533025272,0.0,DB
2025-06-04 15:58:12.821,0.001800059060876,-9.759084859863275,0.0,DB
2025-06-04 15:58:12.828,0.0018194831869278,-9.357389926612454,0.0,DB
2025-06-04 15:58:12.836,0.0018340923663659,-8.871166100966843,0.0,DB
2025-06-04 15:58:12.844,0.0018437174820339,-8.310337681439863,0.0,DB
2025-06-04 15:58:12.852,0.0018483241962403,-7.686264438975098,0.0,DB
2025-06-04 15:58:12.860,0.0018480210979364,-7.011241666330464,0.0,DB
2025-06-04 15:58:12.868,0.0018430617524358,-6.29796954730931,0.0,DB
2025-06-04 15:58:12.875,0.001833840706649,-5.559015997113699,0.0,DB
2025-06-04 15:58:12.883,0.0018208835463487,-4.806297418952183,0.0,DB
2025-06-04 15:58:12.891,0.0018048312146112,-4.05060108083964,0.0,DB
2025-06-04 15:58:12.899,0.0017864189897928,-3.301171083676488,0.0,DB
2025-06-04 15:58:12.907,0.0017664507803414,-2.5653772311624694,0.0,DB
2025-06-04 15:58:12.914,0.0017457696852344,-1.8484825974981964,0.0,DB
2025-06-04 15:58:12.922,0.0017252260104853,-1.1535212999470834,0.0,DB
2025-06-04 15:58:12.930,0.0017056440423822,-0.4812930143122041,0.0,DB
2025-06-04 15:58:12.938,0.0016877888596263,0.1695247487975275,0.0,DB
2025-06-04 15:58:12.946,0.0016723344222338,0.8021514711108793,0.0,DB
2025-06-04 15:58:12.953,0.0016598342181,1.4213763997988422,0.0,DB
2025-06-04 15:58:12.961,0.001650695874038,2.0331458451438493,0.0,DB
2025-06-04 15:58:12.969,0.0016451611928374,2.6440866858491354,0.0,DB
2025-06-04 15:58:12.977,0.0016432929034382,3.2609918353849885,0.0,DB
2025-06-04 15:58:12.985,0.0016449690076639,3.890296091990907,0.0,DB
2025-06-04 15:58:12.993,0.0016498851001339,4.537571783376783,0.0,DB
2025-06-04 15:58:13.000,0.0016575645412951,5.207072774860978,0.0,DB
2025-06-04 15:58:13.008,0.0016673759251914,5.901352741390845,0.0,DB
2025-06-04 15:58:13.016,0.0016785569174556,6.620979271934379,0.0,DB
2025-06-04 15:58:13.024,0.001690243251154,7.36435968040489,0.0,DB
2025-06-04 15:58:13.032,0.0017015014624121,8.127687747101907,0.0,DB
2025-06-04 15:58:13.039,0.0017113638259799,8.905013479694425,0.0,DB
2025-06-04 15:58:13.047,0.0017188639129139,9.68843085699477,0.0,DB
2025-06-04 15:58:13.055,0.0017230712364558,10.468371879704025,0.0,DB
2025-06-04 15:58:13.063,0.00172312357447,11.23398952514714,0.0,DB
2025-06-04 15:58:13.071,0.0017182557524703,11.973607728621069,0.0,DB
2025-06-04 15:58:13.078,0.0017078239340059,12.675213524470266,0.0,DB
2025-06-04 15:58:13.086,0.0016913247820369,13.326965087164815,0.0,DB
2025-06-04 15:58:13.094,0.0016684091852159,13.917689610201284,0.0,DB
2025-06-04 15:58:13.102,0.0016388905088736,14.43734663669607,0.0,DB
2025-06-04 15:58:13.110,0.0016027474788622,14.877435411210495,0.0,DB
2025-06-04 15:58:13.118,0.0015601218803913,15.231328793666696,0.0,DB
2025-06-04 15:58:13.125,0.0015113113320758,15.494520956997212,0.0,DB
2025-06-04 15:58:13.133,0.0014567574808343,15.664781153979352,0.0,DB
2025-06-04 15:58:13.141,0.00139703002122,15.742210959736036,0.0,DB
2025-06-04 15:58:13.149,0.0013328070088781,15.72920726981763,0.0,DB
2025-06-04 15:58:13.157,0.0012648520951321,15.630337694643645,0.0,DB
2025-06-04 15:58:13.164,0.00119398955107,15.452138629661386,0.0,DB
2025-06-04 15:58:13.172,0.0011210781240661,15.20284905320549,0.0,DB
2025-06-04 15:58:13.180,0.0010469847227773,14.892094940177447,0.0,DB
2025-06-04 15:58:13.188,0.0009725586667607,14.530540085160094,0.0,DB
2025-06-04 15:58:13.196,0.0008986069244989,14.129519179727051,0.0,DB
2025-06-04 15:58:13.203,0.00082587058169,13.70066831253682,0.0,DB
2025-06-04 15:58:13.211,0.0007550028156236,13.255566807655692,0.0,DB
2025-06-04 15:58:13.219,0.0006865488270606,12.805402635801531,0.0,DB
2025-06-04 15:58:13.227,0.0006209283369874,12.360671658074866,0.0,DB
2025-06-04 15:58:13.235,0.0005584213055923,11.930918804065902,0.0,DB
2025-06-04 15:58:13.243,0.0004991575097982,11.52452703841596,0.0,DB
2025-06-04 15:58:13.250,0.000443110582073,11.148557709333025,0.0,DB
2025-06-04 15:58:13.258,0.0003900970607889,10.808643664922442,0.0,DB
2025-06-04 15:58:13.266,0.0003397808606389,10.508934425907867,0.0,DB
2025-06-04 15:58:13.274,0.0002916832945927,10.252090770679892,0.0,DB
2025-06-04 15:58:13.282,0.0002451984384475,10.03932437668143,0.0,DB
2025-06-04 15:58:13.289,0.0001996133478608,9.87047672899435,0.0,DB
2025-06-04 15:58:13.297,0.0001541324238866,9.744130407626152,0.0,DB
2025-06-04 15:58:13.305,0.0001079049912469,9.657745144050995,0.0,DB
2025-06-04 15:58:13.313,6.005491144217418e-05,9.60781072277696,0.0,DB
2025-06-04 15:58:13.321,9.710922039204948e-06,9.590008901275285,0.0,DB
2025-06-04 15:58:13.328,-4.396355561237084e-05,9.599377013416497,0.0,DB
2025-06-04 15:58:13.336,-0.0001017422135712,9.630466763631386,0.0,DB
2025-06-04 15:58:13.344,-0.0001643100937465,9.677492841237802,0.0,DB
2025-06-04 15:58:13.352,-0.0002322408466179,9.734467294879586,0.0,DB
2025-06-04 15:58:13.360,-0.0003059773517777,9.795317003677456,0.0,DB
2025-06-04 15:58:13.368,-0.0003858158445638,9.853982967158728,0.0,DB
2025-06-04 15:58:13.375,-0.0004718936212226,9.90450143000824,0.0,DB
2025-06-04 15:58:13.383,-0.000564180489655,9.941068003127487,0.0,DB
2025-06-04 15:58:13.391,-0.0006624743117767,9.958086906196195,0.0,DB
2025-06-04 15:58:13.399,-0.0007664010860647,9.95020822546052,0.0,DB
2025-06-04 15:58:13.407,-0.0008754199620257,9.91235665214144,0.0,DB
2025-06-04 15:58:13.414,-0.0009888334033787,9.839755541485426,0.0,DB
2025-06-04 15:58:13.422,-0.0011058024965063,9.727950302677918,0.0,DB
2025-06-04 15:58:13.430,-0.0012253671725082,9.572835077491128,0.0,DB
2025-06-04 15:58:13.438,-0.00134647088628,9.370686364538066,0.0,DB
2025-06-04 15:58:13.446,-0.0014679890810086,9.118206669804898,0.0,DB
2025-06-04 15:58:13.453,-0.001588760568474,8.81258039575267,0.0,DB
2025-06-04 15:58:13.461,-0.0017076207823124,8.451543024279578,0.0,DB
2025-06-04 15:58:13.469,-0.0018234357210775,8.033463238395429,0.0,DB
2025-06-04 15:58:13.477,-0.001935135299011,7.557436038975063,0.0,DB
2025-06-04 15:58:13.485,-0.0020417447733837,7.023383262422739,0.0,DB
2025-06-04 15:58:13.493,-0.0021424129264167,6.432156336661369,0.0,DB
2025-06-04 15:58:13.500,-0.0022364357548681,5.785634777210175,0.0,DB
2025-06-04 15:58:13.508,-0.0023232745682366,5.086812958287912,0.0,DB
2025-06-04 15:58:13.516,-0.0024025676226979,4.33986720324973,0.0,DB
2025-06-04 15:58:13.524,-0.0024741347261834,3.550195294779237,0.0,DB
2025-06-04 15:58:13.532,-0.0025379746420799,2.7244211363282664,0.0,DB
2025-06-04 15:58:13.539,-0.0025942555886509,1.8703584855646187,0.0,DB
2025-06-04 15:58:13.547,-0.0026432996373611,0.99692936942175,0.0,DB
2025-06-04 15:58:13.555,-0.002685562243546,0.114034887061213,0.0,DB
2025-06-04 15:58:13.563,-0.002721608344735,-0.7676215036889725,0.0,DB
2025-06-04 15:58:13.571,-0.0027520863662367,-1.6367555735348969,0.0,DB
2025-06-04 15:58:13.578,-0.0027777011721967,-2.481763586488348,0.0,DB
2025-06-04 15:58:13.586,-0.0027991866673202,-3.291015650440248,0.0,DB
2025-06-04 15:58:13.594,-0.0028172785211885,-4.053171481781202,0.0,DB
2025-06-04 15:58:13.602,-0.0028326874103347,-4.757507281524152,0.0,DB
2025-06-04 15:58:13.610,-0.00284607326503,-5.394241334618339,0.0,DB
2025-06-04 15:58:13.618,-0.0028580212350128,-5.9548454592248685,0.0,DB
2025-06-04 15:58:13.625,-0.0028690203420647,-6.432329567737015,0.0,DB
2025-06-04 15:58:13.633,-0.0028794459133436,-6.82148734168243,0.0,DB
2025-06-04 15:58:13.641,-0.0028895468074253,-7.119092323896094,0.0,DB
2025-06-04 15:58:13.649,-0.0028994382053429,-7.324035526980207,0.0,DB
2025-06-04 15:58:13.657,-0.0029091004293493,-7.437397866744948,0.0,DB
2025-06-04 15:58:13.664,-0.0029183839141874,-7.462453261082187,0.0,DB
2025-06-04 15:58:13.672,-0.0029270201100918,-7.404600981560097,0.0,DB
2025-06-04 15:58:13.680,-0.0029346377644153,-7.271228683208063,0.0,DB
2025-06-04 15:58:13.688,-0.0029407837247812,-7.071510331312809,0.0,DB
2025-06-04 15:58:13.696,-0.0029449471722407,-6.816145852515856,0.0,DB
2025-06-04 15:58:13.703,-0.002946586083294,-6.51705162733818,0.0,DB
2025-06-04 15:58:13.711,-0.0029451547109311,-6.187012796075279,0.0,DB
2025-06-04 15:58:13.719,-0.0029401308543717,-5.839309682243112,0.0,DB
2025-06-04 15:58:13.727,-0.0029310415921532,-5.487331398193842,0.0,DB
2025-06-04 15:58:13.735,-0.0029174860698406,-5.144189879576794,0.0,DB
2025-06-04 15:58:13.743,-0.0028991540185948,-4.822347232254593,0.0,DB
2025-06-04 15:58:13.750,-0.002875839010275,-4.53326843078479,0.0,DB
2025-06-04 15:58:13.758,-0.0028474459566728,-4.287110162873871,0.0,DB
2025-06-04 15:58:13.766,-0.0028139928764503,-4.092455056520411,0.0,DB
2025-06-04 15:58:13.774,-0.0027756073624335,-3.9560987414902695,0.0,DB
2025-06-04 15:58:13.782,-0.0027325184480537,-3.882895264134232,0.0,DB
2025-06-04 15:58:13.789,-0.0026850446965908,-3.875664366377724,0.0,DB
2025-06-04 15:58:13.797,-0.0026335793541766,-3.935162119111352,0.0,DB
2025-06-04 15:58:13.805,-0.0025785734029106,-4.06011442078401,0.0,DB
2025-06-04 15:58:13.813,-0.0025205173829474,-4.247310977700113,0.0,DB
2025-06-04 15:58:13.821,-0.0024599228821998,-4.491755608500765,0.0,DB
2025-06-04 15:58:13.828,-0.002397304551969,-4.786867091310828,0.0,DB
2025-06-04 15:58:13.836,-0.002333163379117,-5.124723328967941,0.0,DB
2025-06-04 15:58:13.844,-0.0022679717424696,-5.496340382568674,0.0,DB
2025-06-04 15:58:13.852,-0.0022021605440983,-5.891976956035891,0.0,DB
2025-06-04 15:58:13.860,-0.0021361085249636,-6.301454237673753,0.0,DB
2025-06-04 15:58:13.868,-0.0020701338094343,-6.714480639490839,0.0,DB
2025-06-04 15:58:13.875,-0.0020044877330825,-7.120970932962292,0.0,DB
2025-06-04 15:58:13.883,-0.0019393510213006,-7.511349569761798,0.0,DB
2025-06-04 15:58:13.891,-0.001874832378903,-7.876828606202601,0.0,DB
2025-06-04 15:58:13.899,-0.0018109695210845,-8.20965162338437,0.0,DB
2025-06-04 15:58:13.907,-0.001747732622706,-8.50329633821588,0.0,DB
2025-06-04 15:58:13.914,-0.0016850300960917,-8.752630195620352,0.0,DB
2025-06-04 15:58:13.922,-0.0016227165326725,-8.954015054631272,0.0,DB
2025-06-04 15:58:13.930,-0.0015606025611455,-9.105359044477844,0.0,DB
2025-06-04 15:58:13.938,-0.0014984662956962,-9.206115671736184,0.0,DB
2025-06-04 15:58:13.946,-0.0014360659783034,-9.257232202936295,0.0,DB
2025-06-04 15:58:13.953,-0.0013731533597658,-9.26105113090328,0.0,DB
2025-06-04 15:58:13.961,-0.0013094873260762,-9.221170074262115,0.0,DB
2025-06-04 15:58:13.969,-0.0012448472655429,-9.142266697325354,0.0,DB
2025-06-04 15:58:13.977,-0.0011790456870221,-9.029896139471948,0.0,DB
2025-06-04 15:58:13.985,-0.0011119396449659,-8.89026900438444,0.0,DB
2025-06-04 15:58:13.993,-0.0010434405739349,-8.730018197055069,0.0,DB
2025-06-04 15:58:14.000,-0.0009735221124353,-8.55596283876231,0.0,DB
2025-06-04 15:58:14.008,-0.0009022253727865,-8.374877167579866,0.0,DB
2025-06-04 15:58:14.016,-0.000829660976579,-8.193271773812018,0.0,DB
2025-06-04 15:58:14.024,-0.0007560071811617,-8.017193759379111,0.0,DB
2025-06-04 15:58:14.032,-0.0006815036588295,-7.852051488539468,0.0,DB
2025-06-04 15:58:14.039,-0.0006064409120134,-7.702468557889091,0.0,DB
2025-06-04 15:58:14.047,-0.0005311458250034,-7.572170491774327,0.0,DB
2025-06-04 15:58:14.055,-0.0004559643878103,-7.463906486986678,0.0,DB
2025-06-04 15:58:14.063,-0.0003812430534367,-7.379407302309914,0.0,DB
2025-06-04 15:58:14.071,-0.0003073103393911,-7.319379134715157,0.0,DB
2025-06-04 15:58:14.078,-0.0002344600867762,-7.283532082134658,0.0,DB
2025-06-04 15:58:14.086,-0.0001629373375664,-7.270640617769294,0.0,DB
2025-06-04 15:58:14.094,-9.292728021870318e-05,-7.2786324568842895,0.0,DB
2025-06-04 15:58:14.102,-2.454734979479298e-05,-7.304701344811252,0.0,DB
2025-06-04 15:58:14.110,4.215755280054289e-05,-7.345438680706487,0.0,DB
2025-06-04 15:58:14.118,0.0001072167067095,-7.396978539646337,0.0,DB
2025-06-04 15:58:14.125,0.0001707319943924,-7.455150564545594,0.0,DB
2025-06-04 15:58:14.133,0.0002328730316554,-7.515635344915388,0.0,DB
2025-06-04 15:58:14.141,0.0002938690714639,-7.57411724249994,0.0,DB
2025-06-04 15:58:14.149,0.000353997974378,-7.626430119674066,0.0,DB
2025-06-04 15:58:14.157,0.0004135727681456,-7.668692030900732,0.0,DB
2025-06-04 15:58:14.164,0.0004729264678904,-7.697425609022757,0.0,DB
2025-06-04 15:58:14.172,0.0005323958896279,-7.709661579769989,0.0,DB
2025-06-04 15:58:14.180,0.0005923052293877,-7.703023539620504,0.0,DB
2025-06-04 15:58:14.188,0.0006529502372722,-7.675792810312828,0.0,DB
2025-06-04 15:58:14.196,0.0007145838424068,-7.626952815186882,0.0,DB
2025-06-04 15:58:14.203,0.0007774040066641,-7.556212982780932,0.0,DB
2025-06-04 15:58:14.211,0.0008415444012139,-7.464012647557951,0.0,DB
2025-06-04 15:58:14.219,0.0009070682879725,-7.351505772289223,0.0,DB
2025-06-04 15:58:14.227,0.0009739658261113,-7.2205275631868515,0.0,DB
2025-06-04 15:58:14.235,0.0010421549395433,-7.0735442024502655,0.0,DB
2025-06-04 15:58:14.243,0.0011114858453641,-6.913587006901891,0.0,DB
2025-06-04 15:58:14.250,0.0011817492759223,-6.744172365334898,0.0,DB
2025-06-04 15:58:14.258,0.0012526882501155,-6.56920884465844,0.0,DB
2025-06-04 15:58:14.266,0.0013240129638351,-6.392892918109795,0.0,DB
2025-06-04 15:58:14.274,0.0013954180560914,-6.219594882995631,0.0,DB
2025-06-04 15:58:14.282,0.0014666012487118,-6.05373671742225,0.0,DB
2025-06-04 15:58:14.289,0.0015372821917026,-5.899663883358715,0.0,DB
2025-06-04 15:58:14.297,0.0016072202818033,-5.761513412933063,0.0,DB
2025-06-04 15:58:14.305,0.0016762302584426,-5.643080994018835,0.0,DB
2025-06-04 15:58:14.313,0.0017441945161941,-5.5476901593127215,0.0,DB
2025-06-04 15:58:14.321,0.0018110712999532,-5.478067029526216,0.0,DB
2025-06-04 15:58:14.328,0.0018768982596458,-5.436224318727722,0.0,DB
2025-06-04 15:58:14.336,0.0019417912185253,-5.423358443417149,0.0,DB
2025-06-04 15:58:14.344,0.002005938407204,-5.439763563524438,0.0,DB
2025-06-04 15:58:14.352,0.0020695907450958,-5.48476620683095,0.0,DB
2025-06-04 15:58:14.360,0.002133048925142,-5.55668377739612,0.0,DB
2025-06-04 15:58:14.368,0.0021966480707125,-5.652809721540414,0.0,DB
2025-06-04 15:58:14.375,0.0022607406605883,-5.769427431767273,0.0,DB
2025-06-04 15:58:14.383,0.0023256783369398,-5.901854130315261,0.0,DB
2025-06-04 15:58:14.391,0.0023917931570508,-6.044515018601322,0.0,DB
2025-06-04 15:58:14.399,0.0024593788285403,-6.19104694283994,0.0,DB
2025-06-04 15:58:14.407,0.0025286724791089,-6.334429752841348,0.0,DB
2025-06-04 15:58:14.414,0.0025998375526446,-6.467142469553147,0.0,DB
2025-06-04 15:58:14.422,0.0026729484894153,-6.5813403806803485,0.0,DB
2025-06-04 15:58:14.430,0.0027479779330931,-6.669048306347917,0.0,DB
2025-06-04 15:58:14.438,0.0028247872988608,-6.722364565353018,0.0,DB
2025-06-04 15:58:14.446,0.0029031215946525,-6.733669661690189,0.0,DB
2025-06-04 15:58:14.453,0.0029826093294096,-6.695833420913294,0.0,DB
2025-06-04 15:58:14.461,0.0030627680900573,-6.602414243213988,0.0,DB
2025-06-04 15:58:14.469,0.0031430159272412,-6.447844300252768,0.0,DB
2025-06-04 15:58:14.477,0.0032226881458633,-6.227594873837116,0.0,DB
2025-06-04 15:58:14.485,0.0033010585470475,-5.938316601224897,0.0,DB
2025-06-04 15:58:14.493,0.0033773636951304,-5.577950135621069,0.0,DB
2025-06-04 15:58:14.500,0.0034508284825645,-5.145803626249367,0.0,DB
2025-06-04 15:58:14.508,0.0035206912223753,-4.642594437632895,0.0,DB
2025-06-04 15:58:14.516,0.0035862267135087,-4.070453625228567,0.0,DB
2025-06-04 15:58:14.524,0.0036467661167851,-3.4328928241717747,0.0,DB
2025-06-04 15:58:14.532,0.0037017129552027,-2.7347343461814955,0.0,DB
2025-06-04 15:58:14.539,0.003750555033118,-1.982006373816998,0.0,DB
2025-06-04 15:58:14.547,0.0037928724602689,-1.1818061569836715,0.0,DB
2025-06-04 15:58:14.555,0.0038283421843405,-0.3421350318462426,0.0,DB
2025-06-04 15:58:14.563,0.0038567394779094,0.5282901177370458,0.0,DB
2025-06-04 15:58:14.571,0.0038779367726765,1.4202436677314842,0.0,DB
2025-06-04 15:58:14.578,0.0038919001703654,2.3242105256375605,0.0,DB
2025-06-04 15:58:14.586,0.003898683927609,3.230611717993861,0.0,DB
2025-06-04 15:58:14.594,0.0038984232256078,4.130029987954177,0.0,DB
2025-06-04 15:58:14.602,0.0038913255957847,5.013429130318315,0.0,DB
2025-06-04 15:58:14.610,0.0038776614527339,5.872361009642747,0.0,DB
2025-06-04 15:58:14.618,0.0038577542142399,6.699154598652484,0.0,DB
2025-06-04 15:58:14.625,0.0038319703955256,7.487081925198497,0.0,DB
2025-06-04 15:58:14.633,0.0038007098612748,8.230496513399773,0.0,DB
2025-06-04 15:58:14.641,0.0037643961935845,8.924940734602629,0.0,DB
2025-06-04 15:58:14.649,0.0037234669766607,9.567219426845805,0.0,DB
2025-06-04 15:58:14.657,0.0036783637537282,10.155438168485228,0.0,DB
2025-06-04 15:58:14.664,0.0036295214907904,10.68900566502006,0.0,DB
2025-06-04 15:58:14.672,0.0035773575821685,11.168600788962772,0.0,DB
2025-06-04 15:58:14.680,0.0035222607135608,11.596105867329516,0.0,DB
2025-06-04 15:58:14.688,0.0034645801457705,11.974508811723512,0.0,DB
2025-06-04 15:58:14.696,0.0034046160456758,12.30777760219575,0.0,DB
2025-06-04 15:58:14.703,0.0033426113285214,12.60071143324526,0.0,DB
2025-06-04 15:58:14.711,0.0032787452414208,12.858773473756898,0.0,DB
2025-06-04 15:58:14.719,0.0032131288169094,13.087910656118336,0.0,DB
2025-06-04 15:58:14.727,0.0031458023957302,13.294366178550996,0.0,DB
2025-06-04 15:58:14.735,0.0030767355407078,13.48449047196002,0.0,DB
2025-06-04 15:58:14.743,0.003005829727892,13.664556245514731,0.0,DB
2025-06-04 15:58:14.750,0.0029329241414529,13.840582887561393,0.0,DB
2025-06-04 15:58:14.758,0.002857804643442,14.01817497614874,0.0,DB
2025-06-04 15:58:14.766,0.0027802155389596,14.202378974070209,0.0,DB
2025-06-04 15:58:14.774,0.0026998732807781,14.397561381149917,0.0,DB
2025-06-04 15:58:14.782,0.0026164809687101,14.607310728500984,0.0,DB
2025-06-04 15:58:14.789,0.0025297424439426,14.834364864697893,0.0,DB
2025-06-04 15:58:14.797,0.0024393748499123,15.08056404295922,0.0,DB
2025-06-04 15:58:14.805,0.0023451186606641,15.346829413125873,0.0,DB
2025-06-04 15:58:14.813,0.0022467444025227,15.633165694495576,0.0,DB
2025-06-04 15:58:14.821,0.0021440556499324,15.93868609681633,0.0,DB
2025-06-04 15:58:14.829,0.0020368883111878,16.26165700354277,0.0,DB
2025-06-04 15:58:14.836,0.0019251066493452,16.599559558646916,0.0,DB
2025-06-04 15:58:14.844,0.0018085968607255,16.949165113035118,0.0,DB
2025-06-04 15:58:14.852,0.0016872593183633,17.306621478593794,0.0,DB
2025-06-04 15:58:14.860,0.0015610007012915,17.667547085787533,0.0,DB
2025-06-04 15:58:14.868,0.0014297271266445,18.02713041975413,0.0,DB
2025-06-04 15:58:14.875,0.0012933391388618,18.380232491966268,0.0,DB
2025-06-04 15:58:14.883,0.0011517290854534,18.721490551137823,0.0,DB
2025-06-04 15:58:14.891,0.0010047810991717,19.0454216937637,0.0,DB
2025-06-04 15:58:14.899,0.0008523737046347,19.346525437599578,0.0,DB
2025-06-04 15:58:14.907,0.0006943850349073,19.61938461130281,0.0,DB
2025-06-04 15:58:14.914,0.0005307007063223,19.858764047907894,0.0,DB
2025-06-04 15:58:14.922,0.0003612244051834,20.059706529307157,0.0,DB
2025-06-04 15:58:14.930,0.000185891091272,20.217625220197075,0.0,DB
2025-06-04 15:58:14.938,4.682399618290631e-06,20.328391486783325,0.0,DB
2025-06-04 15:58:14.946,-0.0001823566306324,20.38841657370124,0.0,DB
2025-06-04 15:58:14.954,-0.000375100816287,20.39472517925455,0.0,DB
2025-06-04 15:58:14.961,-0.0005733296574467,20.345018591476403,0.0,DB
2025-06-04 15:58:14.969,-0.0007767152970146,20.237724785621914,0.0,DB
2025-06-04 15:58:14.977,-0.0009848149176175,20.072032785662326,0.0,DB
2025-06-04 15:58:14.985,-0.001197068451475,19.84790869051082,0.0,DB
2025-06-04 15:58:14.993,-0.0014128019237628,19.566091074456224,0.0,DB
2025-06-04 15:58:15.000,-0.0016312361193275,19.22806399002623,0.0,DB
2025-06-04 15:58:15.008,-0.0018514996840739,18.83600652096931,0.0,DB
2025-06-04 15:58:15.016,-0.002072645415292,18.3927187388936,0.0,DB
2025-06-04 15:58:15.024,-0.0022936684675128,17.901524988268992,0.0,DB
2025-06-04 15:58:15.032,-0.0025135254963402,17.366156628605285,0.0,DB
2025-06-04 15:58:15.039,-0.0027311542574715,16.790617651334607,0.0,DB
2025-06-04 15:58:15.047,-0.0029454936601029,16.179037896125315,0.0,DB
2025-06-04 15:58:15.055,-0.0031555045384037,15.53551983659069,0.0,DB
2025-06-04 15:58:15.063,-0.003360191363882,14.863986000111796,0.0,DB
2025-06-04 15:58:15.071,-0.0035586248451733,14.168034937406569,0.0,DB
2025-06-04 15:58:15.079,-0.0037499650052202,13.450814166987286,0.0,DB
2025-06-04 15:58:15.086,-0.0039334839838791,12.714918590546894,0.0,DB
2025-06-04 15:58:15.094,-0.004108587464022,11.962322421447812,0.0,DB
2025-06-04 15:58:15.102,-0.0042748332400865,11.194351627304552,0.0,DB
2025-06-04 15:58:15.110,-0.0044319451391398,10.411702231320806,0.0,DB
2025-06-04 15:58:15.118,-0.0045798204336572,9.61450756287434,0.0,DB
2025-06-04 15:58:15.125,-0.0047185291639066,8.80245476793819,0.0,DB
2025-06-04 15:58:15.133,-0.0048483044131745,7.974947716939555,0.0,DB
2025-06-04 15:58:15.141,-0.0049695234281518,7.1313100737063335,0.0,DB
2025-06-04 15:58:15.149,-0.0050826803379494,6.27101895595572,0.0,DB
2025-06-04 15:58:15.157,-0.0051883518916624,5.393956596404678,0.0,DB
2025-06-04 15:58:15.164,-0.0052871580138354,4.500664975154728,0.0,DB
2025-06-04 15:58:15.172,-0.0053797191324668,3.5925867780464555,0.0,DB
2025-06-04 15:58:15.180,-0.0054666123107943,2.6722754235778803,0.0,DB
2025-06-04 15:58:15.188,-0.0055483282946286,1.743557398383502,0.0,DB
2025-06-04 15:58:15.196,-0.0056252316287907,0.8116317706306972,0.0,DB
2025-06-04 15:58:15.204,-0.0056975259241852,-0.1169055468223522,0.0,DB
2025-06-04 15:58:15.211,-0.0057652261471625,-1.0341215688891074,0.0,DB
2025-06-04 15:58:15.219,-0.0058281394617734,-1.9308944465571412,0.0,DB
2025-06-04 15:58:15.227,-0.0058858557205927,-2.7971496349056832,0.0,DB
2025-06-04 15:58:15.235,-0.0059377482592556,-3.622178464416007,0.0,DB
2025-06-04 15:58:15.243,-0.0059829852646719,-4.395028577499796,0.0,DB
2025-06-04 15:58:15.250,-0.0060205516190118,-5.104951108509016,0.0,DB
2025-06-04 15:58:15.258,-0.0060492807055893,-5.7418855792374055,0.0,DB
2025-06-04 15:58:15.266,-0.006067895184032,-6.296960493315591,0.0,DB
2025-06-04 15:58:15.274,-0.0060750552162719,-6.762985723328576,0.0,DB
2025-06-04 15:58:15.282,-0.0060694120976738,-7.134912104348606,0.0,DB
2025-06-04 15:58:15.289,-0.0060496648149648,-7.410234214501062,0.0,DB
2025-06-04 15:58:15.297,-0.0060146167820988,-7.589314107898986,0.0,DB
2025-06-04 15:58:15.305,-0.0059632298638626,-7.675606682598334,0.0,DB
2025-06-04 15:58:15.313,-0.0058946727280867,-7.675771287227037,0.0,DB
2025-06-04 15:58:15.321,-0.0058083605889294,-7.599658929957964,0.0,DB
2025-06-04 15:58:15.329,-0.005703983597497,-7.460169854286152,0.0,DB
2025-06-04 15:58:15.336,-0.0055815215847875,-7.272982056568536,0.0,DB
2025-06-04 15:58:15.344,-0.0054412435974976,-7.056157280825089,0.0,DB
2025-06-04 15:58:15.352,-0.0052836916475356,-6.82963685700865,0.0,DB
2025-06-04 15:58:15.360,-0.0051096492221175,-6.614645160205702,0.0,DB
2025-06-04 15:58:15.368,-0.0049200962417782,-6.433023172447017,0.0,DB
2025-06-04 15:58:15.375,-0.0047161531706833,-6.306518354247063,0.0,DB
2025-06-04 15:58:15.383,-0.0044990177751141,-6.25605953955658,0.0,DB
2025-06-04 15:58:15.391,-0.0042698985501477,-6.301046665500524,0.0,DB
2025-06-04 15:58:15.399,-0.0040299491109912,-6.458684721025454,0.0,DB
2025-06-04 15:58:15.407,-0.0037802079432398,-6.743389331916266,0.0,DB
2025-06-04 15:58:15.414,-0.0035215478712664,-7.1662879995172,0.0,DB
2025-06-04 15:58:15.422,-0.0032546393653714,-7.734836398057129,0.0,DB
2025-06-04 15:58:15.430,-0.0029799312249681,-8.452563617205529,0.0,DB
2025-06-04 15:58:15.438,-0.0026976511911396,-9.318954165415892,0.0,DB
2025-06-04 15:58:15.446,-0.0024078277326717,-10.329468291304408,0.0,DB
2025-06-04 15:58:15.454,-0.0021103327334097,-11.4756960852858,0.0,DB
2025-06-04 15:58:15.461,-0.0018049432054849,-12.745635205368805,0.0,DB
2025-06-04 15:58:15.469,-0.0014914186341216,-14.124077190377994,0.0,DB
2025-06-04 15:58:15.477,-0.0011695893587888,-15.5930833806182,0.0,DB
2025-06-04 15:58:15.485,-0.0008394507028177,-17.13252859534123,0.0,DB
2025-06-04 15:58:15.493,-0.0005012574018265,-18.72068899202362,0.0,DB
2025-06-04 15:58:15.500,-0.000155613104597,-20.334849974188145,0.0,DB
2025-06-04 15:58:15.508,0.0001964498617956,-21.95191059409848,0.0,DB
2025-06-04 15:58:15.516,0.0005534047832485,-23.548962538263225,0.0,DB
2025-06-04 15:58:15.524,0.0009131827206858,-25.103824361976805,0.0,DB
2025-06-04 15:58:15.532,0.0012731458497922,-26.59551498136281,0.0,DB
2025-06-04 15:58:15.539,0.001630084782098,-28.004654324692947,0.0,DB
2025-06-04 15:58:15.547,0.0019802421449035,-29.31378324788003,0.0,DB
2025-06-04 15:58:15.555,0.0023193640525333,-30.507599079835668,0.0,DB
2025-06-04 15:58:15.563,0.0026427802046508,-31.57310724080217,0.0,DB
2025-06-04 15:58:15.571,0.0029455121475717,-32.49969305941411,0.0,DB
2025-06-04 15:58:15.579,0.0032224078187373,-33.27912102923131,0.0,DB
2025-06-04 15:58:15.586,0.0034682989945744,-33.905471162070945,0.0,DB
2025-06-04 15:58:15.594,0.0036781767752211,-34.3750237300296,0.0,DB
2025-06-04 15:58:15.602,0.0038473788744447,-34.68610450860062,0.0,DB
