Timestamp,GSR_Filtered,PPG_Filtered
2025-06-16 19:30:33.873,9.09202528338512e-06,70.16831776865166
2025-06-16 19:30:33.880,-3.704566069943777e-05,70.82497101141747
2025-06-16 19:30:33.888,-8.24994411602087e-05,71.37800200977723
2025-06-16 19:30:33.896,-0.0001265309152401,71.83554344762351
2025-06-16 19:30:33.904,-0.0001684467630673,72.20645512236605
2025-06-16 19:30:33.912,-0.0002076192546378,72.50000186147592
2025-06-16 19:30:33.919,-0.0002435032731909,72.72553777455964
2025-06-16 19:30:33.927,-0.0002756493185794,72.89220670297034
2025-06-16 19:30:33.935,-0.0003037122863275,73.00866779330997
2025-06-16 19:30:33.943,-0.0003274560763088,73.08285386814234
2025-06-16 19:30:33.951,-0.0003467542516451,73.12176877059258
2025-06-16 19:30:33.959,-0.0003615870653165,73.13132820259878
2025-06-16 19:30:33.966,-0.000372035246597,73.11624684457378
2025-06-16 19:30:33.974,-0.0003782710174445,73.07997281623925
2025-06-16 19:30:33.982,-0.0003805468800283,73.0246688819101
2025-06-16 19:30:33.990,-0.0003791827621978,72.95123827401792
2025-06-16 19:30:33.998,-0.0003745521214236,72.85939165189761
2025-06-16 19:30:34.005,-0.0003670675920488,72.74775056535724
2025-06-16 19:30:34.013,-0.0003571667202683,72.61398187938823
2025-06-16 19:30:34.021,-0.0003452982712044,72.45495694891679
2025-06-16 19:30:34.029,-0.0003319095180173,72.26692891034948
2025-06-16 19:30:34.037,-0.0003174348393659,72.04572127374269
2025-06-16 19:30:34.044,-0.0003022858636998,71.78692104718249
2025-06-16 19:30:34.052,-0.0002868433113553,71.48606988845148
2025-06-16 19:30:34.060,-0.0002714506023139,71.13884723248555
2025-06-16 19:30:34.068,-0.0002564092221518,70.74123995356419
2025-06-16 19:30:34.076,-0.0002419757738836,70.28969385771181
2025-06-16 19:30:34.084,-0.0002283605910694,69.78124313892101
2025-06-16 19:30:34.091,-0.0002157277489186,69.21361485025038
2025-06-16 19:30:34.099,-0.0002041962857026,68.58530641057257
2025-06-16 19:30:34.107,-0.0001938424347441,67.89563515618683
2025-06-16 19:30:34.115,-0.000184702658689,67.14475991707072
2025-06-16 19:30:34.123,-0.0001767772603885,66.3336755140571
2025-06-16 19:30:34.130,-0.0001700343260761,65.46418190221615
2025-06-16 19:30:34.138,-0.0001644137719341,64.53883040074186
2025-06-16 19:30:34.146,-0.0001598313356384,63.56085003685501
2025-06-16 19:30:34.154,-0.0001561824534968,62.53405749058036
2025-06-16 19:30:34.162,-0.0001533460491379,61.46275446635002
2025-06-16 19:30:34.169,-0.0001511883092634,60.35161654260446
2025-06-16 19:30:34.177,-0.0001495665232701,59.20557766198045
2025-06-16 19:30:34.185,-0.0001483330109236,58.0297144169297
2025-06-16 19:30:34.193,-0.0001473390815772,56.82913415184076
2025-06-16 19:30:34.201,-0.0001464389078273,55.60887063824588
2025-06-16 19:30:34.209,-0.0001454931807576,54.37379068516794
2025-06-16 19:30:34.216,-0.0001443724304383,53.12851453224096
2025-06-16 19:30:34.224,-0.0001429599222816,51.87735226130352
2025-06-16 19:30:34.232,-0.000141154066549,50.62425778471214
2025-06-16 19:30:34.240,-0.0001388703023729,49.37280125972269
2025-06-16 19:30:34.248,-0.0001360424386247,48.12616006726833
2025-06-16 19:30:34.255,-0.0001326234515882,46.88712780328253
2025-06-16 19:30:34.263,-0.0001285857536762,45.658140080036446
2025-06-16 19:30:34.271,-0.0001239209585663,44.40825293277566
2025-06-16 19:30:34.279,-0.0001186391765089,43.17673255908995
2025-06-16 19:30:34.287,-0.0001127678796935,41.96638420228285
2025-06-16 19:30:34.294,-0.0001063503820698,40.77952194694812
2025-06-16 19:30:34.302,-9.9443981563647e-05,39.61801503413058
2025-06-16 19:30:34.310,-9.211781589918e-05,38.48333791180792
2025-06-16 19:30:34.318,-8.445048848033332e-05,37.37662152551616
2025-06-16 19:30:34.326,-7.652753663343774e-05,36.29870347733506
2025-06-16 19:30:34.334,-6.843885232369658e-05,35.25017481460786
2025-06-16 19:30:34.341,-6.02762161073656e-05,34.231421352827546
2025-06-16 19:30:34.349,-5.213113116777389e-05,33.24265759813442
2025-06-16 19:30:34.357,-4.409312059576883e-05,32.283951527193146
2025-06-16 19:30:34.365,-3.6248591592103805e-05,31.35523872022649
2025-06-16 19:30:34.373,-2.8680291855530384e-05,30.45632463795526
2025-06-16 19:30:34.380,-2.1467284059953896e-05,29.586874191051496
2025-06-16 19:30:34.388,-1.4685259003059432e-05,28.746388170933468
2025-06-16 19:30:34.396,-8.406937927198133e-06,27.934166585058183
2025-06-16 19:30:34.404,-2.70230324335785e-06,27.149259452082685
2025-06-16 19:30:34.412,2.3615684022020774e-06,26.39040614162211
2025-06-16 19:30:34.420,6.721238801023252e-06,25.65596486996162
2025-06-16 19:30:34.427,1.0318305618170275e-05,24.94383447015808
2025-06-16 19:30:34.435,1.3101487930948336e-05,24.25137102743808
2025-06-16 19:30:34.443,1.5029343994890811e-05,23.5753023957534
2025-06-16 19:30:34.451,1.6073485878108902e-05,22.91164398000581
2025-06-16 19:30:34.459,1.6222079211961244e-05,22.25561947382955
2025-06-16 19:30:34.466,1.5483346359930534e-05,21.601590472976092
2025-06-16 19:30:34.474,1.3888732694637784e-05,20.942999017782967
2025-06-16 19:30:34.482,1.1495361148994608e-05,20.272327125656872
2025-06-16 19:30:34.490,8.387413151423093e-06,19.58107722465367
2025-06-16 19:30:34.498,4.67614803476611e-06,18.85977706470658
2025-06-16 19:30:34.505,4.98385205909483e-07,18.09801214557583
2025-06-16 19:30:34.513,-3.98661507205682e-06,17.284487955711956
2025-06-16 19:30:34.521,-8.601830158820744e-06,16.407123376349
2025-06-16 19:30:34.529,-1.3158546536483512e-05,15.453175499836624
2025-06-16 19:30:34.537,-1.7463521489339926e-05,14.409394884910188
2025-06-16 19:30:34.545,-2.132682325607236e-05,13.262208978475144
2025-06-16 19:30:34.552,-2.4569881623615358e-05,11.997930130635051
2025-06-16 19:30:34.560,-2.7033266134156623e-05,10.60298337450538
2025-06-16 19:30:34.568,-2.858371706365862e-05,9.064147996505724
2025-06-16 19:30:34.576,-2.911998540303559e-05,7.368805952512431
2025-06-16 19:30:34.584,-2.857711154764104e-05,5.505189451526197
2025-06-16 19:30:34.591,-2.692889979203412e-05,3.4626195795966983
2025-06-16 19:30:34.599,-2.4188502590933053e-05,1.23172771232996
2025-06-16 19:30:34.607,-2.0407173234547627e-05,-1.1953482956790646
2025-06-16 19:30:34.615,-1.567136304381885e-05,-3.824800509277972
2025-06-16 19:30:34.623,-1.0098431695326298e-05,-6.661026173365852
2025-06-16 19:30:34.630,-3.831290496039911e-06,-9.706546561186958
2025-06-16 19:30:34.638,2.967704918137117e-06,-12.961972154304627
2025-06-16 19:30:34.646,1.012332784884322e-05,-16.42601456243113
2025-06-16 19:30:34.654,1.7454257264070608e-05,-20.095543033921423
2025-06-16 19:30:34.662,2.4779797883276157e-05,-23.96568080682635
2025-06-16 19:30:34.670,3.1926276831322594e-05,-28.02993411271263
2025-06-16 19:30:34.677,3.873284399429936e-05,-32.28034458562579
2025-06-16 19:30:34.685,4.505640932780812e-05,-36.7076543451944
2025-06-16 19:30:34.693,5.077548985406881e-05,-41.30147227403586
2025-06-16 19:30:34.701,5.579282394767914e-05,-46.05043009314934
2025-06-16 19:30:34.709,6.003671708014041e-05,-50.94231778267758
2025-06-16 19:30:34.716,6.346117250735131e-05,-55.96418965794244
2025-06-16 19:30:34.724,6.604492842474494e-05,-61.10243488864804
2025-06-16 19:30:34.732,6.7789594395514e-05,-66.34280928498328
2025-06-16 19:30:34.740,6.87171511203543e-05,-71.67042856171679
2025-06-16 19:30:34.748,6.886711139738412e-05,-77.06972678154615
2025-06-16 19:30:34.755,6.829361494308593e-05,-82.52438699520194
2025-06-16 19:30:34.763,6.706266045104469e-05,-88.01725396003334
2025-06-16 19:30:34.771,6.524958941521847e-05,-93.53024098548129
2025-06-16 19:30:34.779,6.293684328171268e-05,-99.0442442394929
2025-06-16 19:30:34.787,6.021193391588087e-05,-104.5390781495791
2025-06-16 19:30:34.795,5.716552190813407e-05,-109.99344482169006
2025-06-16 19:30:34.802,5.3889503021633046e-05,-115.38494872852216
2025-06-16 19:30:34.810,5.047503905186411e-05,-120.69016539802286
2025-06-16 19:30:34.818,4.701049862185168e-05,-125.88476962754386
2025-06-16 19:30:34.826,4.357929344616431e-05,-130.9437250675559
2025-06-16 19:30:34.834,4.0257631780756086e-05,-135.84153310030385
2025-06-16 19:30:34.841,3.711226183892415e-05,-140.55253503866467
2025-06-16 19:30:34.849,3.419831591727743e-05,-145.05125804563963
2025-06-16 19:30:34.857,3.155738927566872e-05,-149.31279206866756
2025-06-16 19:30:34.865,2.921602134590444e-05,-153.31318270873507
2025-06-16 19:30:34.873,2.7184787320140824e-05,-157.0298234690487
2025-06-16 19:30:34.880,2.545821774461471e-05,-160.4418303578652
2025-06-16 19:30:34.888,2.4015720271038487e-05,-163.53038238963424
2025-06-16 19:30:34.896,2.282359514858215e-05,-166.2790130957153
2025-06-16 19:30:34.904,2.183813790110272e-05,-168.67384060309033
2025-06-16 19:30:34.912,2.1009721644611684e-05,-170.7037269857787
2025-06-16 19:30:34.920,2.0287652377456354e-05,-172.3603612164913
2025-06-16 19:30:34.927,1.962549642486865e-05,-173.63826390628398
2025-06-16 19:30:34.935,1.898649310299848e-05,-174.53471588370925
2025-06-16 19:30:34.943,1.8348592173846987e-05,-175.04961631920665
2025-06-16 19:30:34.951,1.770860727883438e-05,-175.18527936173896
2025-06-16 19:30:34.959,1.7084978067576475e-05,-174.9461809716732
2025-06-16 19:30:34.966,1.6518708321979565e-05,-174.3386696878381
2025-06-16 19:30:34.974,1.6072192801515263e-05,-173.3706563739042
2025-06-16 19:30:34.982,1.582583426530576e-05,-172.05129850733604
2025-06-16 19:30:34.990,1.5872555049895795e-05,-170.39069430835664
2025-06-16 19:30:34.998,1.63105080534898e-05,-168.39960101189212
2025-06-16 19:30:35.005,1.7234479844988008e-05,-166.08918996383056
2025-06-16 19:30:35.013,1.8726637485928615e-05,-163.4708491113328
2025-06-16 19:30:35.021,2.084737192362914e-05,-160.55604101261684
2025-06-16 19:30:35.029,2.362700772353358e-05,-157.356221874677
2025-06-16 19:30:35.037,2.705908030655897e-05,-153.88282448474024
2025-06-16 19:30:35.045,3.109575224709335e-05,-150.14730535307012
2025-06-16 19:30:35.052,3.5645776050939746e-05,-146.16125401387688
2025-06-16 19:30:35.060,4.057522666704209e-05,-141.9365602789748
2025-06-16 19:30:35.068,4.5711029728524055e-05,-137.48563330822705
2025-06-16 19:30:35.076,5.08471085381968e-05,-132.8216646217976
2025-06-16 19:30:35.084,5.575277990390761e-05,-127.95892557412812
2025-06-16 19:30:35.091,6.0182874704026814e-05,-122.913088261572
2025-06-16 19:30:35.099,6.388897095568602e-05,-117.7015572731692
2025-06-16 19:30:35.107,6.66311076841932e-05,-112.34379809349474
2025-06-16 19:30:35.115,6.818937462225622e-05,-106.86164639059126
2025-06-16 19:30:35.123,6.837482200420206e-05,-101.27958102256954
2025-06-16 19:30:35.130,6.703919543561434e-05,-95.62494257734843
2025-06-16 19:30:35.138,6.40830701849704e-05,-89.92807882804678
2025-06-16 19:30:35.146,5.946203781538483e-05,-84.22239881908315
2025-06-16 19:30:35.154,5.319069294499128e-05,-78.54431852973738
2025-06-16 19:30:35.162,4.534428910618088e-05,-72.93308327818107
2025-06-16 19:30:35.170,3.605806821915296e-05,-67.43045525712088
2025-06-16 19:30:35.177,2.5524371558339907e-05,-62.08025879223997
2025-06-16 19:30:35.185,1.3987674124507786e-05,-56.9277809766688
2025-06-16 19:30:35.193,1.7376730549569056e-06,-52.019031084846446
2025-06-16 19:30:35.201,-1.0899434501822065e-05,-47.39986837748143
2025-06-16 19:30:35.209,-2.3571294877379752e-05,-43.1150142955938
2025-06-16 19:30:35.216,-3.591108251130941e-05,-39.20697128558108
2025-06-16 19:30:35.224,-4.755014035167599e-05,-35.71487626796989
2025-06-16 19:30:35.232,-5.813108594776745e-05,-32.673321764879255
2025-06-16 19:30:35.240,-6.732080548596355e-05,-30.11118171473762
2025-06-16 19:30:35.248,-7.482272181315693e-05,-28.050481888030816
2025-06-16 19:30:35.255,-8.038777399618411e-05,-26.50535649236282
2025-06-16 19:30:35.263,-8.382367468497889e-05,-25.481132960722395
2025-06-16 19:30:35.271,-8.500214761506997e-05,-24.97358599597214
2025-06-16 19:30:35.279,-8.386392947219716e-05,-24.968399629130005
2025-06-16 19:30:35.287,-8.042136058945678e-05,-25.44087225974556
2025-06-16 19:30:35.295,-7.475844593845919e-05,-26.355894303236077
2025-06-16 19:30:35.302,-6.702837352647056e-05,-27.66822111424737
2025-06-16 19:30:35.310,-5.744861781501243e-05,-29.3230552848356
2025-06-16 19:30:35.318,-4.6293898035614864e-05,-31.25694231974522
2025-06-16 19:30:35.326,-3.388737034883557e-05,-33.39897226850464
2025-06-16 19:30:35.334,-2.0590482891668907e-05,-35.67226746253559
2025-06-16 19:30:35.341,-6.79191443924426e-06,-37.99572349930532
2025-06-16 19:30:35.349,7.104024167535173e-06,-40.2859575981855
2025-06-16 19:30:35.357,2.068919553106482e-05,-42.45940613079043
2025-06-16 19:30:35.365,3.3563361244578966e-05,-44.43450233610466
2025-06-16 19:30:35.373,4.534557465665305e-05,-46.133856862430754
2025-06-16 19:30:35.380,5.568501142593704e-05,-47.48635868240224
2025-06-16 19:30:35.388,6.427102071027335e-05,-48.42911278717487
2025-06-16 19:30:35.396,7.084218145318905e-05,-48.90913430048964
2025-06-16 19:30:35.404,7.519414054097563e-05,-48.884726357295634
2025-06-16 19:30:35.412,7.718599636647183e-05,-48.32648101680255
2025-06-16 19:30:35.420,7.674498505200742e-05,-47.217858053038434
2025-06-16 19:30:35.427,7.386925283360832e-05,-45.55531483759115
2025-06-16 19:30:35.435,6.862857985081119e-05,-43.34798064573689
2025-06-16 19:30:35.443,6.116304791492212e-05,-40.61688940797685
2025-06-16 19:30:35.451,5.167977038831477e-05,-37.39380499508293
2025-06-16 19:30:35.459,4.0447878816979936e-05,-33.71969142285968
2025-06-16 19:30:35.466,2.779197872993526e-05,-29.642895884313894
2025-06-16 19:30:35.474,1.4084269367602482e-05,-25.2171244570738
2025-06-16 19:30:35.482,-2.645049110020649e-07,-20.499298141634423
2025-06-16 19:30:35.490,-1.4815127071754438e-05,-15.547380284799884
2025-06-16 19:30:35.498,-2.9110872705019382e-05,-10.4182654227032
2025-06-16 19:30:35.505,-4.268922907912809e-05,-5.165814367763132
2025-06-16 19:30:35.513,-5.509417728652032e-05,0.1608886066267656
2025-06-16 19:30:35.521,-6.588874189166078e-05,5.518992770513589
2025-06-16 19:30:35.529,-7.466739079110862e-05,10.873003014886663
2025-06-16 19:30:35.537,-8.106780312012962e-05,16.19553414071035
2025-06-16 19:30:35.545,-8.478156254554172e-05,21.4676815654193
2025-06-16 19:30:35.552,-8.556345455179477e-05,26.679009688519702
2025-06-16 19:30:35.560,-8.323918017052975e-05,31.827175362045853
2025-06-16 19:30:35.568,-7.771138719899628e-05,36.91721856981566
2025-06-16 19:30:35.576,-6.896395154092919e-05,41.96056493371744
2025-06-16 19:30:35.584,-5.706443918108508e-05,46.97379457468514
2025-06-16 19:30:35.591,-4.216466992820267e-05,51.97723885157338
2025-06-16 19:30:35.599,-2.4499301292494487e-05,56.99347043753794
2025-06-16 19:30:35.607,-4.382360225436638e-06,62.04575309370141
2025-06-16 19:30:35.615,1.7798324663447427e-05,67.15651554568387
2025-06-16 19:30:35.623,4.158879470391098e-05,72.34590937616028
2025-06-16 19:30:35.630,6.647867941246027e-05,77.63050423107843
2025-06-16 19:30:35.638,9.191283338197512e-05,83.02216537313839
2025-06-16 19:30:35.646,0.0001173047046549,88.5271492002919
2025-06-16 19:30:35.654,0.0001420512129045,94.14544226748689
2025-06-16 19:30:35.662,0.0001655488842164,99.87035906462872
2025-06-16 19:30:35.670,0.0001872109233023,105.68840372651154
2025-06-16 19:30:35.677,0.0002064847957977,111.57939133995576
2025-06-16 19:30:35.685,0.0002228697619111,117.5168158633366
2025-06-16 19:30:35.693,0.0002359336639078,123.46844410560163
2025-06-16 19:30:35.701,0.0002453281504249,129.3971088719829
2025-06-16 19:30:35.709,0.0002508014748628,135.26166934468824
2025-06-16 19:30:35.716,0.0002522080740908,141.01810303545477
2025-06-16 19:30:35.724,0.000249514304346,146.62069117604264
2025-06-16 19:30:35.732,0.0002427999378395,152.0232581179138
2025-06-16 19:30:35.740,0.0002322552702879,157.18042508665818
2025-06-16 19:30:35.748,0.0002181739411003,162.048839366915
2025-06-16 19:30:35.755,0.0002009418171057,166.5883415768703
2025-06-16 19:30:35.763,0.0001810225237663,170.76303605074577
2025-06-16 19:30:35.771,0.0001589403983596,174.54223244015603
2025-06-16 19:30:35.779,0.0001352617622791,177.90123046319718
2025-06-16 19:30:35.787,0.0001105754621274,180.82192429354035
2025-06-16 19:30:35.795,8.547362588478023e-05,183.2932084206102
2025-06-16 19:30:35.802,6.053352358228681e-05,185.31117294045205
2025-06-16 19:30:35.810,3.6301302146762366e-05,186.87908312406236
2025-06-16 19:30:35.818,1.3278188070213764e-05,188.00714565023176
2025-06-16 19:30:35.826,-8.090451616421162e-06,188.7120718802618
2025-06-16 19:30:35.834,-2.742300059563545e-05,189.01645668022127
2025-06-16 19:30:35.841,-4.440643057427745e-05,188.94799914790545
2025-06-16 19:30:35.849,-5.879823791692008e-05,188.53859868690915
2025-06-16 19:30:35.857,-7.042576522805157e-05,187.82336567304915
2025-06-16 19:30:35.865,-7.918329692399463e-05,186.8395899943745
2025-06-16 19:30:35.873,-8.502739167964678e-05,185.62571262241596
2025-06-16 19:30:35.880,-8.797095782186509e-05,184.2203448462718
2025-06-16 19:30:35.888,-8.807658216024395e-05,182.66137683231875
2025-06-16 19:30:35.896,-8.544957026048398e-05,180.98521195155752
2025-06-16 19:30:35.904,-8.023104041730782e-05,179.22615624592967
2025-06-16 19:30:35.912,-7.259127436241107e-05,177.4159840280319
2025-06-16 19:30:35.920,-6.272344128611253e-05,175.58369152027083
2025-06-16 19:30:35.927,-5.083782759390304e-05,173.75544120798736
2025-06-16 19:30:35.935,-3.715679993894158e-05,171.95469069820814
2025-06-16 19:30:35.943,-2.1910823403929467e-05,170.20249172925497
2025-06-16 19:30:35.951,-5.335861789238853e-06,168.5179378373255
2025-06-16 19:30:35.959,1.2327643444031669e-05,166.9187332079884
2025-06-16 19:30:35.966,3.08342578535844e-05,165.42185047348153
2025-06-16 19:30:35.974,4.993181197052378e-05,164.0442416319495
2025-06-16 19:30:35.982,6.935896214429895e-05,162.80356378143838
2025-06-16 19:30:35.990,8.884271329141011e-05,161.71887987092106
2025-06-16 19:30:35.998,0.0001080965861564,160.81129406169757
2025-06-16 19:30:36.005,0.0001268200459484,160.10448148625733
2025-06-16 19:30:36.013,0.0001446997016159,159.62507318494775
2025-06-16 19:30:36.021,0.0001614126748444,159.40285889798696
2025-06-16 19:30:36.029,0.000176632415639,159.47077339847814
2025-06-16 19:30:36.037,0.0001900370672549,159.86463643855393
2025-06-16 19:30:36.045,0.0002013202423392,160.62262241899103
2025-06-16 19:30:36.052,0.000210203794674,161.78444381699842
2025-06-16 19:30:36.060,0.0002164519019303,163.39024237969448
2025-06-16 19:30:36.068,0.0002198855368344,165.4791941742398
2025-06-16 19:30:36.076,0.0002203961995379,168.08784871787185
2025-06-16 19:30:36.084,0.0002179576439034,171.24823838586474
2025-06-16 19:30:36.091,0.000212634339557,174.98581172806712
2025-06-16 19:30:36.099,0.000204585643022,179.3172625811819
2025-06-16 19:30:36.107,0.0001940650742003,184.2483449615109
2025-06-16 19:30:36.115,0.0001814145751114,189.77178026314607
2025-06-16 19:30:36.123,0.0001670540287364,195.86537649786456
2025-06-16 19:30:36.130,0.0001514665824141,202.4904872268808
2025-06-16 19:30:36.138,0.0001351804792993,209.59093854517428
2025-06-16 19:30:36.146,0.0001187482029084,217.09254439267224
2025-06-16 19:30:36.154,0.0001027238076763,224.90331248630287
2025-06-16 19:30:36.162,8.763933297281208e-05,232.91441485152183
2025-06-16 19:30:36.170,7.398116859624945e-05,241.0019587348592
2025-06-16 19:30:36.177,6.216718109027448e-05,249.0295472915021
2025-06-16 19:30:36.185,5.252537000410359e-05,256.85156803850793
2025-06-16 19:30:36.193,4.527482471106076e-05,264.31709514120024
2025-06-16 19:30:36.201,4.050977898619876e-05,271.2742443070431
2025-06-16 19:30:36.209,3.818757754278104e-05,277.5747812753627
2025-06-16 19:30:36.216,3.812133948271122e-05,283.0787604178429
2025-06-16 19:30:36.224,3.99780008017125e-05,287.65896108598207
2025-06-16 19:30:36.232,4.328224117588551e-05,291.20489671787107
2025-06-16 19:30:36.240,4.742657407400608e-05,293.6261945197961
2025-06-16 19:30:36.248,5.168763045314114e-05,294.8551797006522
2025-06-16 19:30:36.255,5.5248409577289385e-05,294.8485447480103
2025-06-16 19:30:36.263,5.722601308085644e-05,293.588037443631
2025-06-16 19:30:36.271,5.6704126539353815e-05,291.0801572055846
2025-06-16 19:30:36.279,5.276927341570345e-05,287.3549037668049
2025-06-16 19:30:36.287,4.454964682539013e-05,282.46367117792715
2025-06-16 19:30:36.295,3.125513472617187e-05,276.4764203181212
2025-06-16 19:30:36.302,1.221701026691274e-05,269.4782923432568
2025-06-16 19:30:36.310,-1.307431791144438e-05,261.56584302968696
2025-06-16 19:30:36.318,-4.493510376394944e-05,252.8430841813864
2025-06-16 19:30:36.326,-8.345916524403104e-05,243.4175142632622
2025-06-16 19:30:36.334,-0.0001284953520242,233.3963076729671
2025-06-16 19:30:36.341,-0.0001796329076306,222.88281223012737
2025-06-16 19:30:36.349,-0.0002361958609482,211.97347930805995
2025-06-16 19:30:36.357,-0.0002972473299408,200.75532234096465
2025-06-16 19:30:36.365,-0.0003616043283027,189.30396893598024
2025-06-16 19:30:36.373,-0.0004278633491359,177.68234110640554
2025-06-16 19:30:36.380,-0.0004944366477187,165.93996863560355
2025-06-16 19:30:36.388,-0.0005595987377323,154.11291346447038
2025-06-16 19:30:36.396,-0.0006215421495605,142.22425919836448
2025-06-16 19:30:36.404,-0.000678440978497,130.28510002620476
2025-06-16 19:30:36.412,-0.0007285201754669,118.29594796524565
2025-06-16 19:30:36.420,-0.0007701279326769,106.24846659332135
2025-06-16 19:30:36.427,-0.0008018079522423,94.12743330523786
2025-06-16 19:30:36.435,-0.000822367903542,81.91283045260471
2025-06-16 19:30:36.443,-0.0008309400000503,69.58196816614303
2025-06-16 19:30:36.451,-0.0008270294531106,57.1115477566447
2025-06-16 19:30:36.459,-0.0008105468492124,44.47958377869882
2025-06-16 19:30:36.466,-0.0007818215464445,31.66711447545667
2025-06-16 19:30:36.474,-0.0007415949482023,18.659643717915028
2025-06-16 19:30:36.482,-0.0006909944515325,5.448272022904554
2025-06-16 19:30:36.490,-0.0006314903808035,-7.9695108701988895
2025-06-16 19:30:36.498,-0.0005648391065759,-21.58938465023204
2025-06-16 19:30:36.505,-0.0004930159597074,-35.4001070309378
2025-06-16 19:30:36.513,-0.0004181416319453,-49.38375802075598
2025-06-16 19:30:36.521,-0.000342405550999,-63.51629399502726
2025-06-16 19:30:36.529,-0.0002679892809278,-77.7683757297406
2025-06-16 19:30:36.537,-0.0001969924536659,-92.1064263799133
2025-06-16 19:30:36.545,-0.0001313632325948,-106.49386911492198
2025-06-16 19:30:36.552,-7.283493036170556e-05,-120.89248982146697
2025-06-16 19:30:36.560,-2.287015232253037e-05,-135.2638679761814
2025-06-16 19:30:36.568,1.7386326223043244e-05,-149.57081846335018
2025-06-16 19:30:36.576,4.714485288016127e-05,-163.77878872164692
2025-06-16 19:30:36.584,6.599735346214616e-05,-177.8571590542447
2025-06-16 19:30:36.591,7.393204072323519e-05,-191.78039907777725
2025-06-16 19:30:36.599,7.13356109870467e-05,-205.5290398982736
2025-06-16 19:30:36.607,5.898237106277744e-05,-219.09042939619184
2025-06-16 19:30:36.615,3.801001821339349e-05,-232.45924662024197
2025-06-16 19:30:36.623,9.88215585439334e-06,-245.63776031726084
2025-06-16 19:30:36.630,-2.366192909995326e-05,-258.63582561934777
2025-06-16 19:30:36.638,-6.066917010184784e-05,-271.470621438408
2025-06-16 19:30:36.646,-9.904462490790748e-05,-284.1661388140593
2025-06-16 19:30:36.654,-0.0001366310149282,-296.7524370627814
2025-06-16 19:30:36.662,-0.0001712928920854,-309.264689955364
2025-06-16 19:30:36.670,-0.0002010019511443,-321.7420483117957
2025-06-16 19:30:36.677,-0.000223919791844,-334.226348473337
2025-06-16 19:30:36.685,-0.0002384744920642,-346.7606983080374
2025-06-16 19:30:36.693,-0.0002434276058161,-359.38797399590453
2025-06-16 19:30:36.701,-0.0002379285447887,-372.1492620885388
2025-06-16 19:30:36.709,-0.0002215536913601,-385.0822824564548
2025-06-16 19:30:36.716,-0.0001943280588658,-398.219828844455
2025-06-16 19:30:36.724,-0.0001567279344539,-411.588264858703
2025-06-16 19:30:36.732,-0.0001096637588175,-425.2061142007783
2025-06-16 19:30:36.740,-5.444349315038675e-05,-439.08278463151686
2025-06-16 19:30:36.748,7.282202049142837e-06,-453.2174651995436
2025-06-16 19:30:36.755,7.359063100501547e-05,-467.59823537299474
2025-06-16 19:30:36.763,0.0001423703492571,-482.2014225338565
2025-06-16 19:30:36.771,0.0002114131325274,-496.9912405360285
2025-06-16 19:30:36.779,0.0002785100831884,-511.91973646732725
2025-06-16 19:30:36.787,0.000341546836766,-526.927065273429
2025-06-16 19:30:36.795,0.0003985925249957,-541.942102506205
2025-06-16 19:30:36.802,0.0004479771725648,-556.8833942952629
2025-06-16 19:30:36.810,0.0004883527288361,-571.6604309943843
2025-06-16 19:30:36.818,0.0005187341156081,-586.1752172483251
2025-06-16 19:30:36.826,0.0005385184766255,-600.3240970257391
2025-06-16 19:30:36.834,0.0005474828993716,-613.9997781768108
2025-06-16 19:30:36.841,0.0005457627088386,-627.0934881358196
2025-06-16 19:30:36.849,0.0005338136197644,-639.4971814438275
2025-06-16 19:30:36.857,0.0005123615627447,-651.1057118344532
2025-06-16 19:30:36.865,0.0004823441317253,-661.818877750341
2025-06-16 19:30:36.873,0.0004448476085907,-671.5432513193331
2025-06-16 19:30:36.880,0.000401043499596,-680.1937077901581
2025-06-16 19:30:36.888,0.0003521283823513,-687.6945856008355
2025-06-16 19:30:36.896,0.0002992704809735,-693.9804265149377
2025-06-16 19:30:36.904,0.0002435657188071,-698.9962699766874
2025-06-16 19:30:36.912,0.0001860051229869,-702.6975049579231
2025-06-16 19:30:36.920,0.0001274545271833,-705.0493147709536
2025-06-16 19:30:36.927,6.864667603463983e-05,-706.0257838894048
2025-06-16 19:30:36.935,1.018512873374983e-05,-705.6087680094114
2025-06-16 19:30:36.943,-4.7441223187056464e-05,-703.7866548035897
2025-06-16 19:30:36.951,-0.0001038346829474,-700.5531570516512
2025-06-16 19:30:36.959,-0.0001586583616909,-695.9062770314107
2025-06-16 19:30:36.966,-0.0002116012465304,-689.8475598809422
2025-06-16 19:30:36.974,-0.0002623413830237,-682.3817171376594
2025-06-16 19:30:36.982,-0.0003105100403495,-673.5166557233438
2025-06-16 19:30:36.990,-0.0003556597800351,-663.2638989762617
2025-06-16 19:30:36.998,-0.0003972392007006,-651.6393410166457
2025-06-16 19:30:37.005,-0.0004345767697225,-638.6642385390913
2025-06-16 19:30:37.013,-0.0004668755892999,-624.3663182629822
2025-06-16 19:30:37.021,-0.0004932202495246,-608.7808653924526
2025-06-16 19:30:37.029,-0.0005125962233789,-591.9516587694898
2025-06-16 19:30:37.037,-0.0005239216412938,-573.9316309502093
2025-06-16 19:30:37.045,-0.000526090709287,-554.7831542065759
2025-06-16 19:30:37.052,-0.0005180274216716,-534.5778837117583
2025-06-16 19:30:37.060,-0.0004987475386171,-513.3961236428385
2025-06-16 19:30:37.068,-0.0004674260721243,-491.3257171545076
2025-06-16 19:30:37.076,-0.0004234667914828,-468.4604939522308
2025-06-16 19:30:37.084,-0.0003665696225216,-444.8983371858145
2025-06-16 19:30:37.091,-0.0002967914622369,-420.7389533832744
2025-06-16 19:30:37.099,-0.0002145960205402,-396.08144486675866
2025-06-16 19:30:37.107,-0.0001208887912485,-371.02179376109774
2025-06-16 19:30:37.115,-1.7033895711302395e-05,-345.6503707484081
2025-06-16 19:30:37.123,9.514990217296828e-05,-320.04958064888325
2025-06-16 19:30:37.130,0.0002134162391195,-294.29175127540015
2025-06-16 19:30:37.138,0.0003351428466927,-268.4373624030081
2025-06-16 19:30:37.146,0.0004574083821735,-242.53369871181064
2025-06-16 19:30:37.154,0.0005770931490485,-216.6139948026994
2025-06-16 19:30:37.162,0.0006910002019554,-190.6971224428528
2025-06-16 19:30:37.170,0.0007959908903239,-164.78785065385406
2025-06-16 19:30:37.177,0.0008891267764524,-138.87768867884847
2025-06-16 19:30:37.185,0.0009678085652092,-112.94630081295152
2025-06-16 19:30:37.193,0.0010299024553574,-86.96346109882725
2025-06-16 19:30:37.201,0.0010738450746067,-60.89149551378717
2025-06-16 19:30:37.209,0.0010987196371426,-34.6881400355215
2025-06-16 19:30:37.216,0.0011042979555714,-8.309725393397478
2025-06-16 19:30:37.224,0.0010910452866496,18.28541609459639
2025-06-16 19:30:37.232,0.0010600875296919,45.13343893125544
2025-06-16 19:30:37.240,0.0010131429470898,72.26149500391504
2025-06-16 19:30:37.248,0.0009524233162331,99.68439918015348
2025-06-16 19:30:37.255,0.0008805120162636,127.40158477095474
2025-06-16 19:30:37.263,0.0008002284417001,155.39448130020253
2025-06-16 19:30:37.271,0.0007144888033067,183.62444000765728
2025-06-16 19:30:37.279,0.0006261727722668,212.03132072954088
2025-06-16 19:30:37.287,0.0005380039094095,240.53283721750265
2025-06-16 19:30:37.295,0.0004524498335163,269.02473669397847
2025-06-16 19:30:37.302,0.0003716459350608,297.38186379185186
2025-06-16 19:30:37.310,0.000297344352038,325.4601294702992
2025-06-16 19:30:37.318,0.000230888071356,353.0993727212922
2025-06-16 19:30:37.326,0.0001732085165061,380.1270677777558
2025-06-16 19:30:37.334,0.0001248438468086,406.362793211134
2025-06-16 19:30:37.341,8.597437354285198e-05,431.62334307175536
2025-06-16 19:30:37.349,5.6470921603914494e-05,455.7283255729666
2025-06-16 19:30:37.357,3.5951582401496647e-05,478.5060633989296
2025-06-16 19:30:37.365,2.38421324297257e-05,499.799583292974
2025-06-16 19:30:37.373,1.9435519039415268e-05,519.472462991845
2025-06-16 19:30:37.381,2.194632629503448e-05,537.4142926500427
2025-06-16 19:30:37.388,3.055704112523445e-05,553.5455074224516
2025-06-16 19:30:37.396,4.445415748141492e-05,567.8213594723677
2025-06-16 19:30:37.404,6.285350032867785e-05,580.2348226906001
2025-06-16 19:30:37.412,8.50153668576554e-05,590.8182625091108
2025-06-16 19:30:37.420,0.0001102509398285,599.6437554397828
2025-06-16 19:30:37.427,0.0001379218377252,606.8220048226167
2025-06-16 19:30:37.435,0.000167434692917,612.4998647135249
2025-06-16 19:30:37.443,0.0001982324269167,616.8565463523113
2025-06-16 19:30:37.451,0.0002297835537033,620.0986365204255
2025-06-16 19:30:37.459,0.0002615705117489,622.4541022022553
2025-06-16 19:30:37.466,0.0002930778081439,624.1654909363904
2025-06-16 19:30:37.474,0.0003237806782936,625.482561429913
2025-06-16 19:30:37.482,0.0003531349449506,626.6545949508105
2025-06-16 19:30:37.490,0.0003805687197196,627.9226452993707
2025-06-16 19:30:37.498,0.0004054765329841,629.5119843727003
2025-06-16 19:30:37.506,0.00042721645182,631.6249920232175
2025-06-16 19:30:37.513,0.0004451107555805,634.4347235594179
2025-06-16 19:30:37.521,0.0004584507394826,638.0793662666829
2025-06-16 19:30:37.529,0.000466506144454,642.6577680982534
2025-06-16 19:30:37.537,0.0004685395130998,648.2261875200571
2025-06-16 19:30:37.545,0.0004638254312051,654.7963736922416
2025-06-16 19:30:37.552,0.0004516741692511,662.3350410797732
2025-06-16 19:30:37.560,0.0004314587557584,670.764752759788
2025-06-16 19:30:37.568,0.0004026440614955,679.9661733423944
2025-06-16 19:30:37.576,0.0003648161280162,689.7815980577893
2025-06-16 19:30:37.584,0.0003177098361176,700.0196133417294
2025-06-16 19:30:37.591,0.0002612331700618,710.4607013865326
2025-06-16 19:30:37.599,0.00019548681333,720.8635714102006
2025-06-16 19:30:37.607,0.0001207785302762,730.9719865317181
2025-06-16 19:30:37.615,3.76325597834367e-05,740.5218566324912
2025-06-16 19:30:37.623,-5.320518211215807e-05,749.2483808029735
2025-06-16 19:30:37.631,-0.0001507651439023,756.8930425870493
2025-06-16 19:30:37.638,-0.0002538548217174,763.2102823654486
2025-06-16 19:30:37.646,-0.0003610622243213,767.9736909393625
2025-06-16 19:30:37.654,-0.0004707631966304,770.9815857975613
2025-06-16 19:30:37.662,-0.0005811345174474,772.0618470617037
2025-06-16 19:30:37.670,-0.0006901750962142,771.0759047095686
2025-06-16 19:30:37.677,-0.0007957373353065,767.9217837098754
2025-06-16 19:30:37.685,-0.0008955698155823,762.536130717029
2025-06-16 19:30:37.693,-0.0009873711906358,754.8951666409623
2025-06-16 19:30:37.701,-0.0010688539315354,745.0145353682153
2025-06-16 19:30:37.709,-0.001137815630941,732.94805137951
2025-06-16 19:30:37.716,-0.0011922150242754,718.7853878447406
2025-06-16 19:30:37.724,-0.0012302496204697,702.6487893655394
2025-06-16 19:30:37.732,-0.0012504316986071,684.6889348215836
2025-06-16 19:30:37.740,-0.0012516593015989,665.0801101883469
2025-06-16 19:30:37.748,-0.0012332787461346,644.0148750403248
2025-06-16 19:30:37.756,-0.0011951351999706,621.6984187290635
2025-06-16 19:30:37.763,-0.0011376081957732,598.3428037597367
2025-06-16 19:30:37.771,-0.0010616295641324,574.1612862563688
2025-06-16 19:30:37.779,-0.0009686820448614,549.3628883670724
2025-06-16 19:30:37.787,-0.0008607776381753,524.1473767952987
2025-06-16 19:30:37.795,-0.0007404155572736,498.7007770697612
2025-06-16 19:30:37.802,-0.0006105204889269,473.1915262851477
2025-06-16 19:30:37.810,-0.0004743627532384,447.76733929443776
2025-06-16 19:30:37.818,-0.0003354627660672,422.55283594944046
2025-06-16 19:30:37.826,-0.0001974828471342,397.64795098634
2025-06-16 19:30:37.834,-6.410993400899552e-05,373.1271243240017
2025-06-16 19:30:37.841,6.106667522710988e-05,349.0392484409762
2025-06-16 19:30:37.849,0.0001746777142544,325.4083314596098
2025-06-16 19:30:37.857,0.0002736908725835,302.2348197293957
2025-06-16 19:30:37.865,0.0003555161066781,279.4975120295433
2025-06-16 19:30:37.873,0.0004180931851538,257.15598882275134
2025-06-16 19:30:37.881,0.0004599560587911,235.1534740000553
2025-06-16 19:30:37.888,0.0004802702519418,213.42004289980068
2025-06-16 19:30:37.896,0.0004788418712961,191.87608866521936
2025-06-16 19:30:37.904,0.0004560995815705,170.43595882506037
2025-06-16 19:30:37.912,0.0004130532142977,149.01167496847052
2025-06-16 19:30:37.920,0.0003512339037195,127.51665022078768
2025-06-16 19:30:37.927,0.0002726207772367,105.86932166699148
2025-06-16 19:30:37.935,0.0001795587993545,83.99661775780369
2025-06-16 19:30:37.943,7.467188800421159e-05,61.83718400786261
2025-06-16 19:30:37.951,-3.9224958637930135e-05,39.344293988228046
2025-06-16 19:30:37.959,-0.0001592111644278,16.488376845831034
2025-06-16 19:30:37.966,-0.0002823408280505,-6.740902457444154
2025-06-16 19:30:37.974,-0.0004057154726298,-30.33306805806098
2025-06-16 19:30:37.982,-0.0005265478046294,-54.25581394390423
2025-06-16 19:30:37.990,-0.0006422158577458,-78.45458252636806
2025-06-16 19:30:37.998,-0.0007503077479001,-102.85277253573256
2025-06-16 19:30:38.006,-0.0008486579493276,-127.35259532184996
2025-06-16 19:30:38.013,-0.0009353763889164,-151.83658418631248
2025-06-16 19:30:38.021,-0.0010088717044475,-176.16974491972906
2025-06-16 19:30:38.029,-0.0010678697764,-200.20231745377572
2025-06-16 19:30:38.037,-0.0011114282248571,-223.77309881568684
2025-06-16 19:30:38.045,-0.0011389470798595,-246.71325692712503
2025-06-16 19:30:38.052,-0.001150175418905,-268.85054393986184
2025-06-16 19:30:38.060,-0.0011452135412597,-290.01379764853044
2025-06-16 19:30:38.068,-0.0011245102526264,-310.0376011339003
2025-06-16 19:30:38.076,-0.0010888549904494,-328.7669553789911
2025-06-16 19:30:38.084,-0.0010393647148486,-346.061808482781
2025-06-16 19:30:38.091,-0.000977465652099,-361.8012796530823
2025-06-16 19:30:38.099,-0.0009048700726499,-375.8874177814986
2025-06-16 19:30:38.107,-0.0008235482672559,-388.2483444273244
2025-06-16 19:30:38.115,-0.0007356957113171,-398.8406506464897
2025-06-16 19:30:38.123,-0.0006436951123171,-407.6509469810364
2025-06-16 19:30:38.131,-0.0005500727428353,-414.6965053827275
2025-06-16 19:30:38.138,-0.0004574483177308,-420.02497771390085
2025-06-16 19:30:38.146,-0.0003684777618208,-423.7132221111935
2025-06-16 19:30:38.154,-0.0002857885377019,-425.8653097139005
2025-06-16 19:30:38.162,-0.0002119077307892,-426.6098157190492
2025-06-16 19:30:38.170,-0.0001491837720324,-426.096518868026
2025-06-16 19:30:38.177,-9.970342571940056e-05,-424.4926427811458
2025-06-16 19:30:38.185,-6.520635669545162e-05,-421.97877270611616
2025-06-16 19:30:38.193,-4.700014117464e-05,-418.7445748268924
2025-06-16 19:30:38.201,-4.587900295548963e-05,-414.98443552978745
2025-06-16 19:30:38.209,-6.204987020665922e-05,-410.8931278353154
2025-06-16 19:30:38.216,-9.506954198114189e-05,-406.66160297495975
2025-06-16 19:30:38.224,-0.0001437967823071,-402.47299665078657
2025-06-16 19:30:38.232,-0.0002063630134449,-398.4989311483026
2025-06-16 19:30:38.240,-0.0002801650105711,-394.896185822596
2025-06-16 19:30:38.248,-0.000361882662798,-391.8037996251073
2025-06-16 19:30:38.256,-0.0004475244566495,-389.3406604722152
2025-06-16 19:30:38.263,-0.0005325028034327,-387.6036274532361
2025-06-16 19:30:38.271,-0.0006117406029939,-386.6662230493182
2025-06-16 19:30:38.279,-0.0006798094491089,-386.577923456411
2025-06-16 19:30:38.287,-0.0007310985849352,-387.3640654317964
2025-06-16 19:30:38.295,-0.0007600120783961,-389.0263773948802
2025-06-16 19:30:38.302,-0.0007611897062058,-391.5441303547007
2025-06-16 19:30:38.310,-0.0007297447822634,-394.8758901642177
2025-06-16 19:30:38.318,-0.0006615098244783,-398.9618362250367
2025-06-16 19:30:38.326,-0.0005532788002531,-403.7265927944528
2025-06-16 19:30:38.334,-0.0004030330328289,-409.0824973440807
2025-06-16 19:30:38.341,-0.0002101369856501,-414.9332061683131
2025-06-16 19:30:38.349,2.450968627821161e-05,-421.1775115646571
2025-06-16 19:30:38.357,0.0002983761145102,-427.71321969668696
2025-06-16 19:30:38.365,0.0006072701485807,-434.4409176634992
2025-06-16 19:30:38.373,0.0009453809473271,-441.2674473428797
2025-06-16 19:30:38.381,0.0013053971399182,-448.10890678499607
2025-06-16 19:30:38.388,0.00167869944139,-454.8930196611634
2025-06-16 19:30:38.396,0.0020556228075241,-461.5607485516234
2025-06-16 19:30:38.404,0.0024257799683563,-468.0670744314649
2025-06-16 19:30:38.412,0.0027784354015041,-474.380916451783
2025-06-16 19:30:38.420,0.003102916075483,-480.48421715136334
2025-06-16 19:30:38.427,0.0033890422974524,-486.37026448570543
2025-06-16 19:30:38.435,0.0036275588322317,-492.04136131054736
2025-06-16 19:30:38.443,0.0038105435475631,-497.5059841362536
2025-06-16 19:30:38.451,0.0039317688016068,-502.7755955391128
2025-06-16 19:30:38.459,0.0039869904756707,-507.86128834134905
2025-06-16 19:30:38.466,0.0039741421177744,-512.7704445802351
2025-06-16 19:30:38.474,0.0038934180851921,-517.5035886516904
2025-06-16 19:30:38.482,0.0037472395947397,-522.0516023393163
2025-06-16 19:30:38.490,0.0035401090825962,-526.3934504429935
2025-06-16 19:30:38.498,0.0032783682342162,-530.4945403131226
2025-06-16 19:30:38.506,0.0029698814245531,-534.3058078630037
2025-06-16 19:30:38.513,0.0026236688628072,-537.7635878123376
2025-06-16 19:30:38.521,0.0022495133880985,-540.79028838118
2025-06-16 19:30:38.529,0.0018575627420476,-543.2958518864741
2025-06-16 19:30:38.537,0.0014579461265332,-545.179944256634
2025-06-16 19:30:38.545,0.0010604205085439,-546.3347799931759
2025-06-16 19:30:38.552,0.0006740587693575,-546.6484562164628
2025-06-16 19:30:38.560,0.0003069885380788,-546.0086417700453
2025-06-16 19:30:38.568,-3.381255286097251e-05,-544.3064465122893
2025-06-16 19:30:38.576,-0.0003426623514833,-541.4402833937457
2025-06-16 19:30:38.584,-0.0006152602133121,-537.3195330693812
2025-06-16 19:30:38.591,-0.0008487157317794,-531.8678288109427
2025-06-16 19:30:38.599,-0.0010415243769006,-525.025799310586
2025-06-16 19:30:38.607,-0.0011934959346151,-516.7531391030743
2025-06-16 19:30:38.615,-0.0013056429175157,-507.0299201098993
2025-06-16 19:30:38.623,-0.0013800369633981,-495.8571101005067
2025-06-16 19:30:38.631,-0.0014196416632085,-483.2563185885521
2025-06-16 19:30:38.638,-0.0014281302987271,-469.2688405605552
2025-06-16 19:30:38.646,-0.0014096966682382,-453.9541079664744
2025-06-16 19:30:38.654,-0.001368866588093,-437.3876857300939
2025-06-16 19:30:38.662,-0.0013103168364233,-419.65896313649966
2025-06-16 19:30:38.670,-0.0012387073111514,-400.8686938412684
2025-06-16 19:30:38.677,-0.0011585310662236,-381.12652985326537
2025-06-16 19:30:38.685,-0.0010739857235895,-360.5486783515654
2025-06-16 19:30:38.693,-0.0009888685855458,-339.2557869627597
2025-06-16 19:30:38.701,-0.0009064966387799,-317.3711351039281
2025-06-16 19:30:38.709,-0.0008296515872833,-295.019178173594
2025-06-16 19:30:38.716,-0.0007605491084363,-272.3244596930407
2025-06-16 19:30:38.724,-0.0007008307195287,-249.4108758049124
2025-06-16 19:30:38.732,-0.0006515759875615,-226.4012485055956
2025-06-16 19:30:38.740,-0.0006133323227035,-203.41714009194004
2025-06-16 19:30:38.748,-0.0005861592675324,-180.5788227576176
2025-06-16 19:30:38.756,-0.0005696840260813,-158.00530500871125
2025-06-16 19:30:38.763,-0.0005631649591061,-135.81431119780103
2025-06-16 19:30:38.771,-0.0005655598905624,-114.12211228690256
2025-06-16 19:30:38.779,-0.0005755963070827,-93.04311489114409
2025-06-16 19:30:38.787,-0.0005918408649852,-72.68913134165076
2025-06-16 19:30:38.795,-0.0006127660143918,-53.16827523022526
2025-06-16 19:30:38.802,-0.0006368119540268,-34.58345365132226
2025-06-16 19:30:38.810,-0.0006624424884821,-17.030457857534483
2025-06-16 19:30:38.818,-0.000688193665333,-0.5956867778115316
2025-06-16 19:30:38.826,-0.0007127143766237,14.646428890489696
2025-06-16 19:30:38.834,-0.0007347984657795,28.636202351024536
2025-06-16 19:30:38.841,-0.0007534082629919,41.33153774031807
2025-06-16 19:30:38.849,-0.0007676898121348,52.71069652729229
2025-06-16 19:30:38.857,-0.0007769803133202,62.774814685509874
2025-06-16 19:30:38.865,-0.0007808085046716,71.54999415958692
2025-06-16 19:30:38.873,-0.0007788888862885,79.08879449162073
2025-06-16 19:30:38.881,-0.0007711108701499,85.47096427490645
2025-06-16 19:30:38.888,-0.0007575240912561,90.80327823691572
2025-06-16 19:30:38.896,-0.0007383211705632,95.21838464377932
2025-06-16 19:30:38.904,-0.0007138191382911,98.87261900487958
2025-06-16 19:30:38.912,-0.0006844405293976,101.94280174564886
2025-06-16 19:30:38.920,-0.0006506949085693,104.62210492104909
2025-06-16 19:30:38.927,-0.0006131613173517,107.11513883216958
2025-06-16 19:30:38.935,-0.0005724718885958,109.6324655837985
2025-06-16 19:30:38.943,-0.0005292966678816,112.38478701169578
2025-06-16 19:30:38.951,-0.0004843295501354,115.57707564978293
2025-06-16 19:30:38.959,-0.0004382752028672,119.4029183061173
2025-06-16 19:30:38.966,-0.0003918368858684,124.0393226269371
2025-06-16 19:30:38.974,-0.0003457051435232,129.6421995930227
2025-06-16 19:30:38.982,-0.0003005474041485,136.34268326661973
2025-06-16 19:30:38.990,-0.0002569985510568,144.24438958191712
2025-06-16 19:30:38.998,-0.0002156525161356,153.4216557829018
2025-06-16 19:30:39.006,-0.0001770548964034,163.9187473971388
2025-06-16 19:30:39.013,-0.0001416965450556,175.74997411619586
2025-06-16 19:30:39.021,-0.0001100080635677,188.9006210753862
2025-06-16 19:30:39.029,-8.235510588387595e-05,203.32857784805265
2025-06-16 19:30:39.037,-5.903438579256822e-05,218.966533384743
2025-06-16 19:30:39.045,-4.027026631215425e-05,235.72460015339027
2025-06-16 19:30:39.052,-2.621182318222156e-05,253.4932336218543
2025-06-16 19:30:39.060,-1.6930318643381855e-05,272.1463225247512
2025-06-16 19:30:39.068,-1.241709229500448e-05,291.5443395127276
2025-06-16 19:30:39.076,-1.2581965801514616e-05,311.5374591950242
2025-06-16 19:30:39.084,-1.725235951304432e-05,331.96856968891103
2025-06-16 19:30:39.091,-2.6173421408602036e-05,352.6761231152203
2025-06-16 19:30:39.099,-3.900955197867888e-05,373.4967887187172
2025-06-16 19:30:39.107,-5.5347733712767785e-05,394.2678883442532
2025-06-16 19:30:39.115,-7.470300071553327e-05,414.8296070112142
2025-06-16 19:30:39.123,-9.652622040402429e-05,435.02698072362
2025-06-16 19:30:39.131,-0.0001202141752149,454.7116691501933
2025-06-16 19:30:39.138,-0.0001451217988141,473.7435224267408
2025-06-16 19:30:39.146,-0.0001705763493605,491.9919493850429
2025-06-16 19:30:39.154,-0.000195893257033,509.3370895883669
2025-06-16 19:30:39.162,-0.0002203933322009,525.6707844944981
2025-06-16 19:30:39.170,-0.0002434209526421,540.8973349270585
2025-06-16 19:30:39.177,-0.0002643627626191,554.9340240364801
2025-06-16 19:30:39.185,-0.0002826663160829,567.7113784097235
2025-06-16 19:30:39.193,-0.0002978579849098,579.1731363358881
2025-06-16 19:30:39.201,-0.0003095593379671,589.2758928414008
2025-06-16 19:30:39.209,-0.000317501095858,597.988397292429
2025-06-16 19:30:39.216,-0.0003215337188417,605.2904922968579
2025-06-16 19:30:39.224,-0.0003216337428818,611.1717031645134
2025-06-16 19:30:39.232,-0.0003179051661912,615.6295152477833
2025-06-16 19:30:39.240,-0.0003105754812373,618.6674101069677
2025-06-16 19:30:39.248,-0.0002999862937117,620.2927660337069
2025-06-16 19:30:39.256,-0.00028657883038,620.5147577468184
2025-06-16 19:30:39.263,-0.0002708749907998,619.3424084841548
2025-06-16 19:30:39.271,-0.0002534549223849,616.78295229029
2025-06-16 19:30:39.279,-0.0002349323539094,612.8406547322222
2025-06-16 19:30:39.287,-0.0002159290578195,607.5162178522221
2025-06-16 19:30:39.295,-0.000197049801579,600.8068619130477
2025-06-16 19:30:39.302,-0.0001788590176999,592.7071348216429
2025-06-16 19:30:39.310,-0.0001618602223251,583.2104527267289
2025-06-16 19:30:39.318,-0.0001464789829935,572.3113250636393
2025-06-16 19:30:39.326,-0.0001330499962024,560.0081672677846
2025-06-16 19:30:39.334,-0.000121808593003,546.3065575200137
2025-06-16 19:30:39.341,-0.0001128867522388,531.2227531779437
2025-06-16 19:30:39.349,-0.0001063134732316,514.7872507815928
2025-06-16 19:30:39.357,-0.0001020191571573,497.0481532419048
2025-06-16 19:30:39.365,-9.98434953604304e-05,478.0741012283454
2025-06-16 19:30:39.373,-9.954628777131718e-05,457.9565346413188
2025-06-16 19:30:39.381,-0.0001008206126179,436.8110756449245
2025-06-16 19:30:39.388,-0.000103307803545,414.777867562639
2025-06-16 19:30:39.396,-0.0001066137118362,392.0207630395568
2025-06-16 19:30:39.404,-0.0001103257051449,368.7253265221762
2025-06-16 19:30:39.412,-0.0001140297869108,345.09569331053217
2025-06-16 19:30:39.420,-0.0001173271590808,321.35040173786
2025-06-16 19:30:39.427,-0.0001198495435254,297.71737949119813
2025-06-16 19:30:39.435,-0.0001212726442586,274.42831570496924
2025-06-16 19:30:39.443,-0.0001213272711046,251.7126854192985
2025-06-16 19:30:39.451,-0.0001198078400945,229.791711428118
2025-06-16 19:30:39.459,-0.0001165781700111,208.87254997709573
2025-06-16 19:30:39.466,-0.0001115746436651,189.14297104742488
2025-06-16 19:30:39.474,-0.0001048068785783,170.76677131218966
2025-06-16 19:30:39.482,-9.635610149921056e-05,153.8801093380021
2025-06-16 19:30:39.490,-8.637148096542712e-05,138.58889112201578
2025-06-16 19:30:39.498,-7.506471615933817e-05,124.96726522535268
2025-06-16 19:30:39.506,-6.27031734474331e-05,113.05721822113806
2025-06-16 19:30:39.513,-4.960181319562789e-05,102.86920009236437
2025-06-16 19:30:39.521,-3.6114085283941096e-05,94.3836601327694
2025-06-16 19:30:39.529,-2.262191258045064e-05,87.5533385192195
2025-06-16 19:30:39.537,-9.52485545200972e-06,82.30613697391988
2025-06-16 19:30:39.545,2.7714246139607027e-06,78.54838294048264
2025-06-16 19:30:39.552,1.3867224727342867e-05,76.16830414843334
2025-06-16 19:30:39.560,2.338113711535741e-05,75.03954271636134
2025-06-16 19:30:39.568,3.096234692853054e-05,75.02455820112532
2025-06-16 19:30:39.576,3.630251196762584e-05,75.97779525781274
2025-06-16 19:30:39.584,3.914678355029493e-05,77.74852179612103
2025-06-16 19:30:39.591,3.930345999933549e-05,80.18327569019725
2025-06-16 19:30:39.599,3.6651714738142354e-05,83.12789030261074
2025-06-16 19:30:39.607,3.114687474219117e-05,86.42909956139638
2025-06-16 19:30:39.615,2.282288645938981e-05,89.93575054140993
2025-06-16 19:30:39.623,1.1791868326995005e-05,93.4996741700574
2025-06-16 19:30:39.631,-1.7590710116145516e-06,96.9762818240814
2025-06-16 19:30:39.638,-1.7573356698955305e-05,100.22496655454977
2025-06-16 19:30:39.646,-3.533231429429107e-05,103.10939215750808
2025-06-16 19:30:39.654,-5.466385687185197e-05,105.4977513274789
2025-06-16 19:30:39.662,-7.515198474388934e-05,107.26306605623526
2025-06-16 19:30:39.670,-9.634660697332078e-05,108.28358995647316
2025-06-16 19:30:39.677,-0.0001177732106448,108.44335428029044
2025-06-16 19:30:39.685,-0.0001389419474785,107.6328783065342
2025-06-16 19:30:39.693,-0.0001593558092667,105.75004194630174
2025-06-16 19:30:39.701,-0.000178517709699,102.70109548621652
2025-06-16 19:30:39.709,-0.0001959364082898,98.40176009014078
2025-06-16 19:30:39.716,-0.0002111312416256,92.7783547975466
2025-06-16 19:30:39.724,-0.0002236355893728,85.76887306047605
2025-06-16 19:30:39.732,-0.0002329989707206,77.32392603527322
2025-06-16 19:30:39.740,-0.0002387876773469,67.4074724154682
2025-06-16 19:30:39.748,-0.0002405838797043,55.99726678881296
2025-06-16 19:30:39.756,-0.0002379831754654,43.08498084236707
2025-06-16 19:30:39.763,-0.0002305905979452,28.67598310445378
2025-06-16 19:30:39.771,-0.0002180151819632,12.788799585525666
2025-06-16 19:30:39.779,-0.0001998632818482,-4.545686315522094
2025-06-16 19:30:39.787,-0.0001757309311781,-23.285207052203965
2025-06-16 19:30:39.795,-0.0001451956182242,-43.37715124989377
2025-06-16 19:30:39.802,-0.0001078079255366,-64.75955849387162
2025-06-16 19:30:39.810,-6.30835494981204e-05,-87.3619607315377
2025-06-16 19:30:39.818,-1.0496280854573668e-05,-111.10597701880585
2025-06-16 19:30:39.826,5.052739333048582e-05,-135.90559093392883
2025-06-16 19:30:39.834,0.0001206112669311,-161.6670685586718
2025-06-16 19:30:39.841,0.0002004289094529,-188.28850733532465
2025-06-16 19:30:39.849,0.0002906982235074,-215.65904014770916
2025-06-16 19:30:39.857,0.0003921692219821,-243.6577524711231
2025-06-16 19:30:39.865,0.0005056030451633,-272.1524013170585
2025-06-16 19:30:39.873,0.0006317405633604,-300.998051062022
2025-06-16 19:30:39.881,0.0007712597324743,-330.0357614316717
2025-06-16 19:30:39.888,0.0009247220086162,-359.0914755444547
2025-06-16 19:30:39.896,0.0010925092590989,-387.9752599853728
2025-06-16 19:30:39.904,0.001274753434025,-416.4810437570811
2025-06-16 19:30:39.912,0.0014712617009058,-444.3869884478279
2025-06-16 19:30:39.920,0.0016814399628418,-471.4565983211557
2025-06-16 19:30:39.927,0.0019042179584951,-497.4406469909633
2025-06-16 19:30:39.935,0.0021379796770329,-522.0799580793467
2025-06-16 19:30:39.943,0.0023805036090532,-545.109032392245
2025-06-16 19:30:39.951,0.0026289181954473,-566.2604657345287
2025-06-16 19:30:39.959,0.002879678477894,-585.2700519378235
2025-06-16 19:30:39.966,0.0031285702405254,-601.8824177177306
2025-06-16 19:30:39.974,0.0033707477539231,-615.856992574541
2025-06-16 19:30:39.982,0.0036008103575493,-626.9740812121379
2025-06-16 19:30:39.990,0.0038129212276894,-635.0407810272969
2025-06-16 19:30:39.998,0.0040009686986068,-639.8964761891635
2025-06-16 19:30:40.006,0.0041587668073823,-641.4176454326141
2025-06-16 19:30:40.013,0.0042802879313848,-639.5217447166758
2025-06-16 19:30:40.021,0.0043599169906864,-634.1699680723661
2025-06-16 19:30:40.029,0.0043927140015966,-625.3687471563263
2025-06-16 19:30:40.037,0.0043746699796328,-613.1699169997876
2025-06-16 19:30:40.045,0.0043029403922083,-597.6695467248516
2025-06-16 19:30:40.052,0.0041760405228187,-579.0055047987294
2025-06-16 19:30:40.060,0.0039939881858096,-557.3538938170714
2025-06-16 19:30:40.068,0.0037583813643227,-532.9245443748133
2025-06-16 19:30:40.076,0.0034724018379916,-505.95579656928726
2025-06-16 19:30:40.084,0.0031407408416075,-476.7088188543686
2025-06-16 19:30:40.091,0.0027694488672339,-445.4617178320207
2025-06-16 19:30:40.099,0.0023657180403741,-412.5036813094737
2025-06-16 19:30:40.107,0.0019376110087116,-378.12937339205126
2025-06-16 19:30:40.115,0.0014937539800844,-342.6337675218329
2025-06-16 19:30:40.123,0.0010430128290992,-306.30756421031066
2025-06-16 19:30:40.131,0.0005941701968405,-269.4332976385989
2025-06-16 19:30:40.138,0.0001556191046065,-232.28219199370952
2025-06-16 19:30:40.146,-0.0002649141296991,-195.11178676550355
2025-06-16 19:30:40.154,-0.000660607281755,-158.1643122800401
2025-06-16 19:30:40.162,-0.0010257315813912,-121.66576411695284
2025-06-16 19:30:40.170,-0.0013557868270335,-85.825598935202
2025-06-16 19:30:40.177,-0.0016475786087978,-50.836955337968014
2025-06-16 19:30:40.185,-0.0018992370674206,-16.877292007313706
2025-06-16 19:30:40.193,-0.0021101798734354,15.89066875171392
2025-06-16 19:30:40.201,-0.0022810250660773,47.31780130426615
2025-06-16 19:30:40.209,-0.0024134616453182,77.26734172908996
2025-06-16 19:30:40.216,-0.0025100872279346,105.61364578378588
2025-06-16 19:30:40.224,-0.0025742227715093,132.241012395759
2025-06-16 19:30:40.232,-0.0026097145209247,157.04262867086211
2025-06-16 19:30:40.240,-0.0026207330442009,179.91967666765774
2025-06-16 19:30:40.248,-0.0026115785289925,200.78062927029237
2025-06-16 19:30:40.256,-0.0025865004460312,219.5407542636972
2025-06-16 19:30:40.263,-0.002549538328357,236.1218434227911
2025-06-16 19:30:40.271,-0.0025043888556979,250.4521866472105
2025-06-16 19:30:40.279,-0.0024543027595424,262.4668168529516
2025-06-16 19:30:40.287,-0.0024020133653347,272.1080544540387
2025-06-16 19:30:40.295,-0.0023496969387008,279.32637626575047
2025-06-16 19:30:40.302,-0.0022989634373963,284.08162055071307
2025-06-16 19:30:40.310,-0.0022508748118265,286.34451847347066
2025-06-16 19:30:40.318,-0.0022059867470752,286.0985148125112
2025-06-16 19:30:40.326,-0.002164408933851,283.34181042282563
2025-06-16 19:30:40.334,-0.0021258788165554,278.0895288816083
2025-06-16 19:30:40.342,-0.0020898441821744,270.375883268344
2025-06-16 19:30:40.349,-0.0020555503975529,260.2561993355628
2025-06-16 19:30:40.357,-0.0020221281100828,247.8086414044548
2025-06-16 19:30:40.365,-0.0019886769140689,233.1354896625072
2025-06-16 19:30:40.373,-0.0019543403788117,216.36383351074943
2025-06-16 19:30:40.381,-0.0019183682972387,197.64557443096624
2025-06-16 19:30:40.388,-0.0018801630522441,177.15666997601886
2025-06-16 19:30:40.396,-0.0018393084601267,155.09559245586473
2025-06-16 19:30:40.404,-0.0017955811378947,131.6810164665428
2025-06-16 19:30:40.412,-0.0017489460742854,107.14878539917596
2025-06-16 19:30:40.420,-0.0016995393407064,81.74823745155217
2025-06-16 19:30:40.427,-0.0016476415311479,55.737996614308784
2025-06-16 19:30:40.435,-0.0015936455504843,29.38135410511185
2025-06-16 19:30:40.443,-0.0015380219529514,2.94138123506616
2025-06-16 19:30:40.451,-0.0014812844042084,-23.32407394587033
2025-06-16 19:30:40.459,-0.0014239571764871,-49.16734646705476
2025-06-16 19:30:40.467,-0.0013665459852658,-74.35570747021116
2025-06-16 19:30:40.474,-0.0013095130091812,-98.6757477733766
2025-06-16 19:30:40.482,-0.0012532566560627,-121.93723420116528
2025-06-16 19:30:40.490,-0.0011980965416844,-143.9762906317916
2025-06-16 19:30:40.498,-0.0011442641459445,-164.65777077199712
2025-06-16 19:30:40.506,-0.001091899567214,-183.8767106918336
2025-06-16 19:30:40.513,-0.0010410546050576,-201.55877675735545
2025-06-16 19:30:40.521,-0.0009917020563291,-217.6596593621629
2025-06-16 19:30:40.529,-0.0009437506855786,-232.1634051638891
2025-06-16 19:30:40.537,-0.0008970649180837,-245.07973016036544
2025-06-16 19:30:40.545,-0.000851487958602,-256.4404111411277
2025-06-16 19:30:40.552,-0.0008068667840997,-266.2949095782969
2025-06-16 19:30:40.560,-0.0007630773030295,-274.7054334682065
2025-06-16 19:30:40.568,-0.0007200479214182,-281.7416825491806
2025-06-16 19:30:40.576,-0.0006777798082695,-287.47554650032794
2025-06-16 19:30:40.584,-0.0006363623077671,-291.9760328181833
2025-06-16 19:30:40.592,-0.0005959821986359,-295.3046916575806
2025-06-16 19:30:40.599,-0.0005569258439996,-297.5117805215471
2025-06-16 19:30:40.607,-0.0005195736975391,-298.6333742642379
2025-06-16 19:30:40.615,-0.000484387118757,-298.68957772708995
2025-06-16 19:30:40.623,-0.0004518879745523,-297.68394201374014
2025-06-16 19:30:40.631,-0.0004226320161475,-295.60412366690326
2025-06-16 19:30:40.638,-0.0003971774566019,-292.4237617085172
2025-06-16 19:30:40.646,-0.0003760504964437,-288.10548357029387
2025-06-16 19:30:40.654,-0.0003597097622652,-282.6048902955002
2025-06-16 19:30:40.662,-0.0003485117600694,-275.87531688059534
2025-06-16 19:30:40.670,-0.0003426794938013,-267.8731179525381
2025-06-16 19:30:40.677,-0.0003422763196287,-258.56319464080684
2025-06-16 19:30:40.685,-0.000347186874436,-247.92445772145933
2025-06-16 19:30:40.693,-0.000357106557381,-235.95491674248544
2025-06-16 19:30:40.701,-0.0003715406075614,-222.6760962440002
2025-06-16 19:30:40.709,-0.0003898133492629,-208.13650896900955
2025-06-16 19:30:40.717,-0.0004110876891084,-192.41396162290536
2025-06-16 19:30:40.724,-0.0004343944576634,-175.61652937791064
2025-06-16 19:30:40.732,-0.0004586707015347,-157.88210751497832
2025-06-16 19:30:40.740,-0.0004828055611688,-139.37652755252296
2025-06-16 19:30:40.748,-0.0005056919254278,-120.29030516501072
2025-06-16 19:30:40.756,-0.0005262816481232,-100.83416223152314
2025-06-16 19:30:40.763,-0.0005436417576112,-81.23353048226824
2025-06-16 19:30:40.771,-0.0005570088117371,-61.72229606353637
2025-06-16 19:30:40.779,-0.0005658383908933,-42.53608107809718
2025-06-16 19:30:40.787,-0.0005698467364813,-23.90537887636645
2025-06-16 19:30:40.795,-0.0005690417582524,-6.048864136845356
2025-06-16 19:30:40.802,-0.0005637410282424,10.832813564185509
2025-06-16 19:30:40.810,-0.0005545748999472,26.56247280259117
2025-06-16 19:30:40.818,-0.0005424734972127,40.99084484286872
2025-06-16 19:30:40.826,-0.0005286369851202,53.99984388317526
2025-06-16 19:30:40.834,-0.0005144892497856,65.50455809091468
2025-06-16 19:30:40.842,-0.0005016158599659,75.45393327628263
2025-06-16 19:30:40.849,-0.0004916879431206,83.83019623722753
2025-06-16 19:30:40.857,-0.0004863743625825,90.64713127567536
2025-06-16 19:30:40.865,-0.0004872453093649,95.94737645477556
2025-06-16 19:30:40.873,-0.0004956710973209,99.79894399146352
2025-06-16 19:30:40.881,-0.0005127205384901,102.29119175077682
2025-06-16 19:30:40.888,-0.0005390637199678,103.53048099848849
2025-06-16 19:30:40.896,-0.0005748842369042,103.63575070603191
2025-06-16 19:30:40.904,-0.0006198059163805,102.73422244379675
2025-06-16 19:30:40.912,-0.0006728387941117,100.95742414916634
2025-06-16 19:30:40.920,-0.0007323485886869,98.4376878826076
2025-06-16 19:30:40.927,-0.000796053145777,95.3052382441608
2025-06-16 19:30:40.935,-0.0008610482964875,91.68594658239776
2025-06-16 19:30:40.943,-0.0009238643353782,87.69978360127308
2025-06-16 19:30:40.951,-0.0009805529593794,83.45996145286057
2025-06-16 19:30:40.959,-0.0010268031164613,79.07271772080696
2025-06-16 19:30:40.967,-0.0010580828773287,74.63765946002052
2025-06-16 19:30:40.974,-0.0010698032071448,70.24855701897918
2025-06-16 19:30:40.982,-0.0010574983817922,65.99445580531267
2025-06-16 19:30:40.990,-0.0010170167820976,61.96096023244931
2025-06-16 19:30:40.998,-0.0009447149570022,58.2315382592982
2025-06-16 19:30:41.006,-0.0008376472061065,54.88869734052004
2025-06-16 19:30:41.013,-0.0006937424987374,52.01489305748185
2025-06-16 19:30:41.021,-0.0005119603338212,49.69304970411342
2025-06-16 19:30:41.029,-0.0002924171856235,48.00659686723804
2025-06-16 19:30:41.037,-3.647551502096604e-05,47.03895650511946
2025-06-16 19:30:41.045,0.0002532119894591,46.87244988475064
2025-06-16 19:30:41.052,0.0005727091569372,47.58663147172447
2025-06-16 19:30:41.060,0.0009168586309061,49.25609579055238
2025-06-16 19:30:41.068,0.0012794020160323,51.94784157848511
2025-06-16 19:30:41.076,0.0016531572189688,55.718313360060144
2025-06-16 19:30:41.084,0.0020302486343054,60.610271973449365
2025-06-16 19:30:41.092,0.0024023814601079,66.64967072614974
2025-06-16 19:30:41.099,0.0027611467364985,73.84273099457292
2025-06-16 19:30:41.107,0.0030983394445571,82.17341862762554
2025-06-16 19:30:41.115,0.0034062692110875,91.60151912182312
2025-06-16 19:30:41.123,0.0036780427496612,102.06149415705497
2025-06-16 19:30:41.131,0.0039077996768065,113.46227402903196
2025-06-16 19:30:41.138,0.0040908888836278,125.68809953079034
2025-06-16 19:30:41.146,0.0042239804424577,138.60047329666165
2025-06-16 19:30:41.154,0.004305115939436,152.04121609005966
2025-06-16 19:30:41.162,0.0043337054813594,165.8365516647752
2025-06-16 19:30:41.170,0.0043104811825108,179.80207098667742
2025-06-16 19:30:41.177,0.0042374156269173,193.7483608283422
2025-06-16 19:30:41.185,0.0041176115251035,207.48703057359907
2025-06-16 19:30:41.193,0.0039551669573992,220.8368396089142
2025-06-16 19:30:41.201,0.0037550197530917,233.6296183976305
2025-06-16 19:30:41.209,0.0035227746491323,245.71568973125693
2025-06-16 19:30:41.217,0.0032645176452504,256.96853137855663
2025-06-16 19:30:41.224,0.0029866231669949,267.2884735105934
2025-06-16 19:30:41.232,0.0026955609283363,276.60528727039423
2025-06-16 19:30:41.240,0.0023977101451215,284.87958693256087
2025-06-16 19:30:41.248,0.0020991883405375,292.1030307868082
2025-06-16 19:30:41.256,0.0018057003295352,298.29736130840274
2025-06-16 19:30:41.263,0.0015224107568972,303.5123716997108
2025-06-16 19:30:41.271,0.0012538416587903,307.82292305678664
2025-06-16 19:30:41.279,0.0010037953501636,311.3251643280594
2025-06-16 19:30:41.287,0.000775302444888,314.13212628658994
2025-06-16 19:30:41.295,0.000570594703345,316.3688715560126
2025-06-16 19:30:41.302,0.0003911023784091,318.1673861042511
2025-06-16 19:30:41.310,0.0002374755621462,319.6613944520968
2025-06-16 19:30:41.318,0.0001096285588302,320.9812721001289
2025-06-16 19:30:41.326,6.805461875014974e-06,322.2492153357724
2025-06-16 19:30:41.334,-7.23360406320516e-05,323.57481159573274
2025-06-16 19:30:41.342,-0.0001296268607469,325.0511338238788
2025-06-16 19:30:41.349,-0.0001672799524507,326.7514605972364
2025-06-16 19:30:41.357,-0.0001877806659422,328.72670091535576
2025-06-16 19:30:41.365,-0.0001937793458863,331.00357908334547
2025-06-16 19:30:41.373,-0.0001879905994805,333.5836115911337
2025-06-16 19:30:41.381,-0.0001731025387265,336.4428847373175
2025-06-16 19:30:41.388,-0.000151698237404,339.5326193279216
2025-06-16 19:30:41.396,-0.0001261907430547,342.7804874065263
2025-06-16 19:30:41.404,-9.87722495419234e-05,346.0926259175714
2025-06-16 19:30:41.412,-7.137743087608735e-05,349.3562737338761
2025-06-16 19:30:41.420,-4.566042526605216e-05,352.44294186860526
2025-06-16 19:30:41.427,-2.2984521656299763e-05,355.21201224788143
2025-06-16 19:30:41.435,-4.423239499389095e-06,357.51464849599114
2025-06-16 19:30:41.443,9.22878799912666e-06,359.1978931899562
2025-06-16 19:30:41.451,1.743691285574551e-05,360.10882044356447
2025-06-16 19:30:41.459,1.9901450593056592e-05,360.0986110090313
2025-06-16 19:30:41.467,1.6528465107589905e-05,359.02641990822804
2025-06-16 19:30:41.474,7.398242548499258e-06,356.7629145065624
2025-06-16 19:30:41.482,-7.26677469219884e-06,353.19337441434743
2025-06-16 19:30:41.490,-2.7132991783766066e-05,348.22026382886145
2025-06-16 19:30:41.498,-5.178422719014356e-05,341.7652114940171
2025-06-16 19:30:41.506,-8.07467656130074e-05,333.77036212828204
2025-06-16 19:30:41.513,-0.0001135102183527,324.1990939858144
2025-06-16 19:30:41.521,-0.000149543972069,313.0361277011488
2025-06-16 19:30:41.529,-0.0001883094451352,300.2870790656217
2025-06-16 19:30:41.537,-0.0002292686993936,285.9775305224412
2025-06-16 19:30:41.545,-0.0002718901502395,270.151711505025
2025-06-16 19:30:41.552,-0.000315652205005,252.870886122766
2025-06-16 19:30:41.560,-0.0003600456650516,234.21154892956616
2025-06-16 19:30:41.568,-0.0004045756609678,214.2635266785753
2025-06-16 19:30:41.576,-0.0004487637560109,193.12807693237093
2025-06-16 19:30:41.584,-0.0004921506563294,170.91606366888948
2025-06-16 19:30:41.592,-0.000534299725752,147.74627588258286
2025-06-16 19:30:41.599,-0.0005748012593131,123.74393796117296
2025-06-16 19:30:41.607,-0.0006132772778777,99.0394409882265
2025-06-16 19:30:41.615,-0.0006493864981621,73.76730317935349
2025-06-16 19:30:41.623,-0.0006828290998275,48.06534679236493
2025-06-16 19:30:41.631,-0.0007133509320639,22.07405949681184
2025-06-16 19:30:41.638,-0.0007407468590052,-4.063908341050512
2025-06-16 19:30:41.646,-0.0007648630118583,-30.204171603446586
2025-06-16 19:30:41.654,-0.0007855977712144,-56.20103256744492
2025-06-16 19:30:41.662,-0.0008029013479847,-81.90796870727854
2025-06-16 19:30:41.670,-0.0008167738899719,-107.1782544867327
2025-06-16 19:30:41.677,-0.0008272621338977,-131.86577680139328
2025-06-16 19:30:41.685,-0.0008344547496785,-155.82608986760266
2025-06-16 19:30:41.693,-0.0008384766525761,-178.91773697369732
2025-06-16 19:30:41.701,-0.0008394826408805,-201.0038445666835
2025-06-16 19:30:41.709,-0.0008376507293686,-221.95396986050557
2025-06-16 19:30:41.717,-0.000833175507588,-241.6461579593664
2025-06-16 19:30:41.724,-0.0008262617842776,-259.96914000579574
2025-06-16 19:30:41.732,-0.0008171187096977,-276.8245818242606
2025-06-16 19:30:41.740,-0.0008059545256873,-292.12927473428635
2025-06-16 19:30:41.748,-0.0007929721036433,-305.81714844559406
2025-06-16 19:30:41.756,-0.0007783654848297,-317.8409819328419
2025-06-16 19:30:41.763,-0.0007623176891631,-328.1736934124978
2025-06-16 19:30:41.771,-0.0007450000597761,-336.8091059967792
2025-06-16 19:30:41.779,-0.000726573342385,-343.7621112868555
2025-06-16 19:30:41.787,-0.0007071905623176,-349.06818764421354
2025-06-16 19:30:41.795,-0.0006870015635542,-352.78227011155667
2025-06-16 19:30:41.802,-0.0006661588325671,-354.9770107081663
2025-06-16 19:30:41.810,-0.000644823990413,-355.7405064941472
2025-06-16 19:30:41.818,-0.0006231741642424,-355.173604429152
2025-06-16 19:30:41.826,-0.0006014074064785,-353.3869141511672
2025-06-16 19:30:41.834,-0.0005797464413701,-350.4976715418732
2025-06-16 19:30:41.842,-0.000558440246669,-346.6265977593305
2025-06-16 19:30:41.849,-0.0005377632367871,-341.894891416224
2025-06-16 19:30:41.857,-0.0005180120158085,-336.42147716391287
2025-06-16 19:30:41.865,-0.0004994997747421,-330.32061363918564
2025-06-16 19:30:41.873,-0.000482548446679,-323.6999391308116
2025-06-16 19:30:41.881,-0.0004674787816146,-316.6590060222262
2025-06-16 19:30:41.888,-0.0004545986247298,-309.28832662018374
2025-06-16 19:30:41.896,-0.0004441898746897,-301.6689248597474
2025-06-16 19:30:41.904,-0.0004364947872488,-293.87236193696685
2025-06-16 19:30:41.912,-0.0004317023973763,-285.9611803645001
2025-06-16 19:30:41.920,-0.0004299358445581,-277.9896912987392
2025-06-16 19:30:41.927,-0.0004312413322967,-270.0050150811024
2025-06-16 19:30:41.935,-0.0004355793642044,-262.0482753937575
2025-06-16 19:30:41.943,-0.0004428187868943,-254.1558436567044
2025-06-16 19:30:41.951,-0.000452734036239,-246.3605324736206
2025-06-16 19:30:41.959,-0.0004650058295292,-238.69264503313136
2025-06-16 19:30:41.967,-0.0004792253732697,-231.18080114061112
2025-06-16 19:30:41.974,-0.0004949019688351,-223.85247953845237
2025-06-16 19:30:41.982,-0.0005114737105025,-216.7342396998617
2025-06-16 19:30:41.990,-0.0005283208169009,-209.85161331358867
2025-06-16 19:30:41.998,-0.000544781056122,-203.2286843463805
2025-06-16 19:30:42.006,-0.0005601667187444,-196.8874036989521
2025-06-16 19:30:42.013,-0.0005737826227539,-190.84670602573664
2025-06-16 19:30:42.021,-0.0005849446650183,-185.12150917816663
2025-06-16 19:30:42.029,-0.0005929984544107,-179.72168056398223
2025-06-16 19:30:42.037,-0.00059733756036,-174.65105165450214
2025-06-16 19:30:42.045,-0.000597420876135,-169.90655479968416
2025-06-16 19:30:42.052,-0.0005927885437268,-165.47754743205834
2025-06-16 19:30:42.060,-0.0005830758579034,-161.34537852878864
2025-06-16 19:30:42.068,-0.0005680245970504,-157.48324112179537
2025-06-16 19:30:42.076,-0.0005474913231157,-153.85634280144663
2025-06-16 19:30:42.084,-0.0005214523314328,-150.42241364756185
2025-06-16 19:30:42.092,-0.0004900050896861,-147.1325579654406
2025-06-16 19:30:42.099,-0.000453366164573,-143.93244276203356
2025-06-16 19:30:42.107,-0.0004118657725118,-140.76380226850176
2025-06-16 19:30:42.115,-0.0003659391937573,-137.5662242491469
2025-06-16 19:30:42.123,-0.000316115371476,-134.2791706338573
2025-06-16 19:30:42.131,-0.000263003096408,-130.84417252483135
2025-06-16 19:30:42.138,-0.0002072752434479,-127.20712826029032
2025-06-16 19:30:42.146,-0.0001496515668493,-123.32062341174682
2025-06-16 19:30:42.154,-9.088059338724168e-05,-119.1461838212605
2025-06-16 19:30:42.162,-3.172119314723692e-05,-114.65636754055404
2025-06-16 19:30:42.170,2.707555773537576e-05,-109.8365993011628
2025-06-16 19:30:42.177,8.478359157527023e-05,-104.68665238498588
2025-06-16 19:30:42.185,0.0001407175082715,-99.2216878889394
2025-06-16 19:30:42.193,0.0001942460709612,-93.47277072106051
2025-06-16 19:30:42.201,0.0002448030167876,-87.4867954604855
2025-06-16 19:30:42.209,0.000291894830118,-81.32577356269584
2025-06-16 19:30:42.217,0.000335105349851,-75.06545623883778
2025-06-16 19:30:42.224,0.0003740973116354,-68.79329441917237
2025-06-16 19:30:42.232,0.0004086111225764,-62.60576792724207
2025-06-16 19:30:42.240,0.0004384613158133,-56.60514919188843
2025-06-16 19:30:42.248,0.0004635312325441,-50.89580060786391
2025-06-16 19:30:42.256,0.0004837665306058,-45.580136408265545
2025-06-16 19:30:42.263,0.0004991681244115,-40.75440665725209
2025-06-16 19:30:42.271,0.0005097851253729,-36.50447988077204
2025-06-16 19:30:42.279,0.0005157082807579,-32.901809701918886
2025-06-16 19:30:42.287,0.0005170643092605,-29.99976835655593
2025-06-16 19:30:42.295,0.0005140114112471,-27.83051604906844
2025-06-16 19:30:42.302,0.0005067360990981,-26.402550979454087
2025-06-16 19:30:42.310,0.0004954513569427,-25.69905287670545
2025-06-16 19:30:42.318,0.0004803960079992,-25.67709606142556
2025-06-16 19:30:42.326,0.0004618350499527,-26.267769668386844
2025-06-16 19:30:42.334,0.0004400606219672,-27.37720565130569
2025-06-16 19:30:42.342,0.0004153931978175,-28.88848190886535
2025-06-16 19:30:42.349,0.0003881825638821,-30.66433975832844
2025-06-16 19:30:42.357,0.0003588081426792,-32.55063243529687
2025-06-16 19:30:42.365,0.0003276782650864,-34.38040373615294
2025-06-16 19:30:42.373,0.0002952280785136,-35.97848215278834
2025-06-16 19:30:42.381,0.0002619159019135,-37.166464610804006
2025-06-16 19:30:42.388,0.0002282179895467,-37.767954345469725
2025-06-16 19:30:42.396,0.0001946218174478,-37.6139092752728
2025-06-16 19:30:42.404,0.0001616181311258,-36.54795073249744
2025-06-16 19:30:42.412,0.0001296920769732,-34.43147819332388
2025-06-16 19:30:42.420,9.93137807714902e-05,-31.1484345148397
2025-06-16 19:30:42.427,7.092873329563698e-05,-26.609569032637246
2025-06-16 19:30:42.435,4.494830492519266e-05,-20.75605360321072
2025-06-16 19:30:42.443,2.174066335253304e-05,-13.562320036485264
2025-06-16 19:30:42.451,1.622332441991732e-06,-5.038006745916708
2025-06-16 19:30:42.459,-1.5149394600920256e-05,4.771072267269434
2025-06-16 19:30:42.467,-2.838300943414406e-05,15.78299242671308
2025-06-16 19:30:42.474,-3.7958191261741055e-05,27.88083919871147
2025-06-16 19:30:42.482,-4.3830001355137626e-05,40.91486845543318
2025-06-16 19:30:42.490,-4.603183354320325e-05,54.70565216094408
2025-06-16 19:30:42.498,-4.467704437318584e-05,69.04811708921395
2025-06-16 19:30:42.506,-3.995910526657743e-05,83.71634896679019
2025-06-16 19:30:42.513,-3.215003652079809e-05,98.46900352837174
2025-06-16 19:30:42.521,-2.1596847528773943e-05,113.05514128269778
2025-06-16 19:30:42.529,-8.71576209959848e-06,127.22028599472551
2025-06-16 19:30:42.537,6.015845737228036e-06,140.7124995125122
2025-06-16 19:30:42.545,2.2069690502815267e-05,153.2882688451122
2025-06-16 19:30:42.552,3.887870009255862e-05,164.71801604639094
2025-06-16 19:30:42.560,5.585061659040882e-05,174.7910672220415
2025-06-16 19:30:42.568,7.238260693743296e-05,183.31995217761212
2025-06-16 19:30:42.576,8.787641869388707e-05,190.1439476595424
2025-06-16 19:30:42.584,0.0001017536491457,195.13182048285543
2025-06-16 19:30:42.592,0.000113470735978,198.18376748002
2025-06-16 19:30:42.599,0.0001225333134844,199.2325832768846
2025-06-16 19:30:42.607,0.0001285096076618,198.2441120815738
2025-06-16 19:30:42.615,0.0001310425669799,195.2170553807709
2025-06-16 19:30:42.623,0.0001298604444587,190.18221441288992
2025-06-16 19:30:42.631,0.0001247855630185,183.2012459718149
2025-06-16 19:30:42.638,0.0001157410126411,174.3650042133078
2025-06-16 19:30:42.646,0.000102755047871,163.7915315006855
2025-06-16 19:30:42.654,8.596298100838466e-05,151.62374973572122
2025-06-16 19:30:42.662,6.560640344736168e-05,138.02689177724983
2025-06-16 19:30:42.670,4.2029618182559694e-05,123.18570197631102
2025-06-16 19:30:42.677,1.5673233287563225e-05,107.3014268187208
2025-06-16 19:30:42.685,-1.2935048790618188e-05,90.58861211087462
2025-06-16 19:30:42.693,-4.3192306852268464e-05,73.27172265785161
2025-06-16 19:30:42.701,-7.443467997578694e-05,55.58160416170381
2025-06-16 19:30:42.709,-0.0001059536592878,37.75181490919272
2025-06-16 19:30:42.717,-0.0001370138904673,20.014866125030665
2025-06-16 19:30:42.724,-0.0001668719178865,2.598423673651053
2025-06-16 19:30:42.732,-0.000194795289315,-14.278461191782588
2025-06-16 19:30:42.740,-0.0002200814814581,-30.40900967547237
2025-06-16 19:30:42.748,-0.0002420761885598,-45.60216699549326
2025-06-16 19:30:42.756,-0.0002601905962048,-59.68574427382673
2025-06-16 19:30:42.763,-0.0002739172807519,-72.50914485420813
2025-06-16 19:30:42.771,-0.0002828443207565,-83.94557438129013
2025-06-16 19:30:42.779,-0.0002866671446997,-93.8936483581571
2025-06-16 19:30:42.787,-0.0002851976429551,-102.27833479341676
2025-06-16 19:30:42.795,-0.0002783701559641,-109.0512015942616
2025-06-16 19:30:42.802,-0.0002662440833685,-114.1899751605718
2025-06-16 19:30:42.810,-0.0002490030088143,-117.69745337000468
2025-06-16 19:30:42.818,-0.0002269503817306,-119.5998480199431
2025-06-16 19:30:42.826,-0.0002005019186845,-119.944655476702
2025-06-16 19:30:42.834,-0.000170174971671,-118.79816847181677
2025-06-16 19:30:42.842,-0.0001365751830188,-116.24274698817936
2025-06-16 19:30:42.849,-0.0001003808436865,-112.37396315674754
2025-06-16 19:30:42.857,-6.232548532548746e-05,-107.29772553391872
2025-06-16 19:30:42.865,-2.317930828352686e-05,-101.12747367011428
2025-06-16 19:30:42.873,1.6269965186149862e-05,-93.98151616677876
2025-06-16 19:30:42.881,5.523630437395991e-05,-85.98056607343271
2025-06-16 19:30:42.888,9.29542423124297e-05,-77.24550802261516
2025-06-16 19:30:42.896,0.0001286970805878,-67.89541330612423
2025-06-16 19:30:42.904,0.0001617941491604,-58.04580331667962
2025-06-16 19:30:42.912,0.0001916468560461,-47.80714931057362
2025-06-16 19:30:42.920,0.0002177432391405,-37.28358789046743
2025-06-16 19:30:42.927,0.0002396706781021,-26.571827254024612
2025-06-16 19:30:42.935,0.0002571263449142,-15.760219081759878
2025-06-16 19:30:42.943,0.0002699248858767,-4.927974620534541
2025-06-16 19:30:42.951,0.0002780027757577,5.855489552183994
2025-06-16 19:30:42.959,0.0002814188194214,16.53108128277253
2025-06-16 19:30:42.967,0.0002803504245537,27.050432670939998
2025-06-16 19:30:42.974,0.0002750855086897,37.37615375972937
2025-06-16 19:30:42.982,0.0002660101860215,47.48191424919899
2025-06-16 19:30:42.990,0.0002535926672121,57.35232020805301
2025-06-16 19:30:42.998,0.0002383640804945,66.98254922418582
2025-06-16 19:30:43.006,0.0002208971665559,76.37770862048586
2025-06-16 19:30:43.013,0.0002017839759592,85.55188799824268
2025-06-16 19:30:43.021,0.0001816137577693,94.52688959005997
2025-06-16 19:30:43.029,0.0001609521495708,103.33063699125542
2025-06-16 19:30:43.037,0.0001403225916277,111.99528320655972
2025-06-16 19:30:43.045,0.0001201906550879,120.55506043432284
2025-06-16 19:30:43.052,0.0001009517585513,129.0439343341626
2025-06-16 19:30:43.060,8.292258085899331e-05,137.49314268973825
2025-06-16 19:30:43.068,6.63363442511153e-05,145.9287109021219
2025-06-16 19:30:43.076,5.134199845623804e-05,154.36904374074385
2025-06-16 19:30:43.084,3.800716288679374e-05,162.82269393351143
2025-06-16 19:30:43.092,2.6324497675996057e-05,171.28640371994325
2025-06-16 19:30:43.099,1.622100007531523e-05,179.74350608744172
2025-06-16 19:30:43.107,7.569574228680638e-06,188.1627590587485
2025-06-16 19:30:43.115,2.02105737957012e-07,196.49767029203912
2025-06-16 19:30:43.123,-6.076798839135672e-06,204.68635161251055
2025-06-16 19:30:43.131,-1.1476241741235316e-05,212.65192495287783
2025-06-16 19:30:43.138,-1.6206352184039615e-05,220.30348322750936
2025-06-16 19:30:43.146,-2.046700308356124e-05,227.5375922191101
2025-06-16 19:30:43.154,-2.4438210285928297e-05,234.240302708915
2025-06-16 19:30:43.162,-2.827233222766644e-05,240.28962588239364
2025-06-16 19:30:43.170,-3.208809796431924e-05,245.55840962569783
2025-06-16 19:30:43.177,-3.596644635906818e-05,249.91753895604532
2025-06-16 19:30:43.185,-3.994812900048169e-05,253.23937090393324
2025-06-16 19:30:43.193,-4.403300300692157e-05,255.4013032223368
2025-06-16 19:30:43.201,-4.818091570604612e-05,256.2893679905389
2025-06-16 19:30:43.209,-5.2314061207939136e-05,255.80173624244108
2025-06-16 19:30:43.217,-5.632066902128935e-05,253.85201891838355
2025-06-16 19:30:43.224,-6.0059866987245575e-05,250.37225330731985
2025-06-16 19:30:43.232,-6.336754485629792e-05,245.3154729719662
2025-06-16 19:30:43.240,-6.60630308204455e-05,238.65777273222452
2025-06-16 19:30:43.248,-6.795638136091387e-05,230.39979796643257
2025-06-16 19:30:43.256,-6.885607514539007e-05,220.56760828448023
2025-06-16 19:30:43.263,-6.857689482657115e-05,209.21288835559423
2025-06-16 19:30:43.271,-6.694777702932567e-05,196.4125021064922
2025-06-16 19:30:43.279,-6.381941128328074e-05,182.26740945674365
2025-06-16 19:30:43.287,-5.907137399401026e-05,166.90098615752387
2025-06-16 19:30:43.295,-5.261859465875959e-05,150.45680624375564
2025-06-16 19:30:43.303,-4.441696935576906e-05,133.09596239304477
2025-06-16 19:30:43.310,-3.4467961965042034e-05,114.994011618801
2025-06-16 19:30:43.318,-2.282206577288408e-05,96.33764193772856
2025-06-16 19:30:43.326,-9.581027986297331e-06,77.32115987626156
2025-06-16 19:30:43.334,5.101253032927315e-06,58.14289903133064
2025-06-16 19:30:43.342,2.1019274499611555e-05,39.00164664819278
2025-06-16 19:30:43.349,3.791807093587962e-05,20.09317872045598
2025-06-16 19:30:43.357,5.549709516739374e-05,1.6069849562071192
2025-06-16 19:30:43.365,7.341591207364682e-05,-16.276746330711926
2025-06-16 19:30:43.373,9.130166744282272e-05,-33.38982611987522
2025-06-16 19:30:43.381,0.0001087581877308,-49.57840169614211
2025-06-16 19:30:43.388,0.0001253764917211,-64.70490289130389
2025-06-16 19:30:43.396,0.0001407464425281,-78.64958106606957
2025-06-16 19:30:43.404,0.0001544692151283,-91.311636833399
2025-06-16 19:30:43.412,0.0001661701944602,-102.6099437179738
2025-06-16 19:30:43.420,0.0001755118548662,-112.48338456451847
2025-06-16 19:30:43.428,0.0001822061051287,-120.89082538174952
2025-06-16 19:30:43.435,0.0001860255301572,-127.81075737515442
2025-06-16 19:30:43.443,0.0001868129475469,-133.24064221256083
2025-06-16 19:30:43.451,0.0001844887394122,-137.19599819728535
2025-06-16 19:30:43.459,0.0001790555074015,-139.7092661764463
2025-06-16 19:30:43.467,0.0001705997108578,-140.8284939133258
2025-06-16 19:30:43.474,0.0001592900828596,-140.6158765523094
2025-06-16 19:30:43.482,0.0001453727966385,-139.1461889577701
2025-06-16 19:30:43.490,0.0001291635764021,-136.50514335986531
2025-06-16 19:30:43.498,0.0001110371702405,-132.78770311592288
2025-06-16 19:30:43.506,9.1414778418942e-05,-128.0963806916375
2025-06-16 19:30:43.513,7.075013529552237e-05,-122.53954533738649
2025-06-16 19:30:43.521,4.951497476338151e-05,-116.22976348566029
2025-06-16 19:30:43.529,2.818456875765824e-05,-109.28219267196684
2025-06-16 19:30:43.537,7.22392907407792e-06,-101.81304777631468
2025-06-16 19:30:43.545,-1.2924866194737597e-05,-93.93815654579764
2025-06-16 19:30:43.553,-3.185389079518575e-05,-85.77161960794827
2025-06-16 19:30:43.560,-4.919891978922712e-05,-77.42458841096692
2025-06-16 19:30:43.568,-6.464719656423411e-05,-69.00417260968396
2025-06-16 19:30:43.576,-7.794338245684761e-05,-60.61248624226598
2025-06-16 19:30:43.584,-8.889371127609682e-05,-52.34583953040003
2025-06-16 19:30:43.592,-9.7368406581518e-05,-44.2940802521544
2025-06-16 19:30:43.599,-0.000103302434676,-36.5400854076976
2025-06-16 19:30:43.607,-0.0001066946630823,-29.159400409390216
2025-06-16 19:30:43.615,-0.0001076054758172,-22.220019419617884
2025-06-16 19:30:43.623,-0.000106152868405,-15.7822969153018
2025-06-16 19:30:43.631,-0.0001025070228129,-9.898977288353956
2025-06-16 19:30:43.638,-9.68833801553842e-05,-4.615326517025256
2025-06-16 19:30:43.646,-8.953432349631276e-05,0.0306521267610755
2025-06-16 19:30:43.654,-8.073974370887969e-05,4.007937560377173
2025-06-16 19:30:43.662,-7.079691609270651e-05,7.292164990530077
2025-06-16 19:30:43.670,-6.001019217143755e-05,9.865273240616332
2025-06-16 19:30:43.678,-4.8680998842937866e-05,11.715142153853936
2025-06-16 19:30:43.685,-3.709857180971951e-05,12.835234375041257
2025-06-16 19:30:43.693,-2.5531766292745946e-05,13.22425271288113
2025-06-16 19:30:43.701,-1.4222200482491128e-05,12.885820896102102
2025-06-16 19:30:43.709,-3.3789009969445e-06,11.82819213683038
2025-06-16 19:30:43.717,6.825462289053064e-06,10.06398676090574
2025-06-16 19:30:43.724,1.6256739889642302e-05,7.609957470876728
2025-06-16 19:30:43.732,2.481991929918701e-05,4.486778728242395
2025-06-16 19:30:43.740,3.245830566953779e-05,0.718855365089015
2025-06-16 19:30:43.748,3.915142357619087e-05,-3.665855120635294
2025-06-16 19:30:43.756,4.491183155592424e-05,-8.636012117144242
2025-06-16 19:30:43.763,4.9781064657193685e-05,-14.157058249906688
2025-06-16 19:30:43.771,5.382493312534019e-05,-20.19138648568437
2025-06-16 19:30:43.779,5.712840831070131e-05,-26.69851069511417
2025-06-16 19:30:43.787,5.97903209570253e-05,-33.635241061347145
2025-06-16 19:30:43.795,6.191808340651252e-05,-40.955864519743706
2025-06-16 19:30:43.803,6.36226272761163e-05,-48.6123295048064
2025-06-16 19:30:43.810,6.501372320934271e-05,-56.554433814214896
2025-06-16 19:30:43.818,6.619582078701507e-05,-64.73001446784727
2025-06-16 19:30:43.826,6.726451594520336e-05,-73.08513905608342
2025-06-16 19:30:43.834,6.830372157124561e-05,-81.56429916763436
2025-06-16 19:30:43.842,6.938358548604617e-05,-90.11060792045632
2025-06-16 19:30:43.849,7.055916978922902e-05,-98.66600519457197
2025-06-16 19:30:43.857,7.186987740428619e-05,-107.1714756629506
2025-06-16 19:30:43.865,7.333958631124194e-05,-115.567285926411
2025-06-16 19:30:43.873,7.497742992803666e-05,-123.79324781272348
2025-06-16 19:30:43.881,7.67791437734077e-05,-131.78901508711112
2025-06-16 19:30:43.888,7.87288841394002e-05,-139.49442038142672
2025-06-16 19:30:43.896,8.080141411190654e-05,-146.84985806074818
2025-06-16 19:30:43.904,8.296454587563894e-05,-153.79671701727588
2025-06-16 19:30:43.912,8.518172569803926e-05,-160.27786505487666
2025-06-16 19:30:43.920,8.74146490947959e-05,-166.23818369314333
2025-06-16 19:30:43.928,8.962579816290657e-05,-171.62514902330054
2025-06-16 19:30:43.935,9.178080060166936e-05,-176.38945088505844
2025-06-16 19:30:43.943,9.38505201686455e-05,-180.48563932399347
2025-06-16 19:30:43.951,9.581280085401114e-05,-183.8727842471798
2025-06-16 19:30:43.959,9.76538015055908e-05,-186.51513160434868
2025-06-16 19:30:43.967,9.93688735925412e-05,-188.38273742703092
2025-06-16 19:30:43.974,0.0001009629518477,-189.45205976574948
2025-06-16 19:30:43.982,0.0001024504452635,-189.70648805081865
2025-06-16 19:30:43.990,0.0001038546339185,-189.13678971123568
2025-06-16 19:30:43.998,0.0001052065949572,-187.7414550265528
2025-06-16 19:30:44.006,0.0001065436983195,-185.5269231176325
2025-06-16 19:30:44.013,0.0001079077290694,-182.5076746109684
2025-06-16 19:30:44.021,0.0001093427079912,-178.7061797059345
2025-06-16 19:30:44.029,0.0001108924950456,-174.15269398998657
2025-06-16 19:30:44.037,0.000112598270878,-168.8848982542677
2025-06-16 19:30:44.045,0.000114495999417,-162.947382667701
2025-06-16 19:30:44.053,0.0001166139792645,-156.3909799137125
2025-06-16 19:30:44.060,0.000118970592689,-149.27195623502783
2025-06-16 19:30:44.068,0.0001215723582351,-141.65107369868284
2025-06-16 19:30:44.076,0.0001244123859784,-133.59254125953944
2025-06-16 19:30:44.084,0.0001274693230909,-125.16287617705632
2025-06-16 19:30:44.092,0.0001307068615301,-116.42970079761282
2025-06-16 19:30:44.099,0.0001340738593528,-107.46050242718104
2025-06-16 19:30:44.107,0.000137505102551,-98.3213858073364
2025-06-16 19:30:44.115,0.0001409227057263,-89.07584846768917
2025-06-16 19:30:44.123,0.0001442381178654,-79.78360894137948
2025-06-16 19:30:44.131,0.0001473546646319,-70.49951656099195
2025-06-16 19:30:44.138,0.0001501705218072,-61.27256943459719
2025-06-16 19:30:44.146,0.0001525819768621,-52.14506442374514
2025-06-16 19:30:44.154,0.000154486799953,-43.15189972894693
2025-06-16 19:30:44.162,0.0001557875229941,-34.32004726834725
2025-06-16 19:30:44.170,0.0001563944379613,-25.668208634877537
2025-06-16 19:30:44.178,0.0001562281860123,-17.206665212119997
2025-06-16 19:30:44.185,0.0001552218926618,-8.937330105584046
2025-06-16 19:30:44.193,0.0001533228628916,-0.8540068646267878
2025-06-16 19:30:44.201,0.0001504938593337,7.05714264650956
2025-06-16 19:30:44.209,0.0001467139615814,14.816921712289796
2025-06-16 19:30:44.217,0.0001419789779848,22.452217443988516
2025-06-16 19:30:44.224,0.0001363013858,29.99492275227409
2025-06-16 19:30:44.232,0.0001297098266387,37.48067476555904
2025-06-16 19:30:44.240,0.0001222482579576,44.94742864919414
2025-06-16 19:30:44.248,0.0001139749102749,52.43389203392493
2025-06-16 19:30:44.256,0.0001049612000327,59.97785162095138
2025-06-16 19:30:44.263,9.529071326306214e-05,67.61442964397001
2025-06-16 19:30:44.271,8.505832856598118e-05,75.37431340067009
2025-06-16 19:30:44.279,7.436950147581063e-05,83.28200570957972
2025-06-16 19:30:44.287,6.333968991679296e-05,91.35414762760324
2025-06-16 19:30:44.295,5.209386410418094e-05,99.5979668380718
2025-06-16 19:30:44.303,4.076601558261832e-05,108.0099055848812
2025-06-16 19:30:44.310,2.9498560393965727e-05,116.57448072538612
2025-06-16 19:30:44.318,1.8441521504354747e-05,125.2634252952437
2025-06-16 19:30:44.326,7.751376027154907e-06,134.03515587188286
2025-06-16 19:30:44.334,-2.4105365725621907e-06,142.83460299968974
2025-06-16 19:30:44.342,-1.188012870759846e-05,151.59343307559143
2025-06-16 19:30:44.349,-2.049325554803173e-05,160.2306795417737
2025-06-16 19:30:44.357,-2.808900015068491e-05,168.65378923595574
2025-06-16 19:30:44.365,-3.451352819390312e-05,176.7600766544163
2025-06-16 19:30:44.373,-3.9624441937928336e-05,184.4385651483186
2025-06-16 19:30:44.381,-4.329551623776563e-05,191.57218028289287
2025-06-16 19:30:44.388,-4.54216542336453e-05,198.04024744315137
2025-06-16 19:30:44.396,-4.592385951784944e-05,203.7212340397715
2025-06-16 19:30:44.404,-4.47539879488337e-05,208.4956670785864
2025-06-16 19:30:44.412,-4.1899018613849245e-05,212.24914993358183
2025-06-16 19:30:44.420,-3.738457231742285e-05,214.87539814082945
2025-06-16 19:30:44.428,-3.127740969948424e-05,216.2792128682338
2025-06-16 19:30:44.435,-2.368666157308715e-05,216.37931218688925
2025-06-16 19:30:44.443,-1.4763582723848922e-05,215.11094404964123
2025-06-16 19:30:44.451,-4.699678033460765e-06,212.42821060172443
2025-06-16 19:30:44.459,6.276873514454727e-06,208.30604072547877
2025-06-16 19:30:44.467,1.7906476278082505e-05,202.7417561910939
2025-06-16 19:30:44.474,2.990492414656695e-05,195.75618612726132
2025-06-16 19:30:44.482,4.197149777950372e-05,187.3942944835205
2025-06-16 19:30:44.490,5.379797177789303e-05,177.72529554469216
2025-06-16 19:30:44.498,6.507806315197099e-05,166.84224325068487
2025-06-16 19:30:44.506,7.551683746597767e-05,154.86109098148424
2025-06-16 19:30:44.513,8.483963857941365e-05,141.9192295098422
2025-06-16 19:30:44.521,9.280016317480045e-05,128.17352192310648
2025-06-16 19:30:44.529,9.918732489633432e-05,113.79786537829746
2025-06-16 19:30:44.537,0.0001038305808205,98.980320468943
2025-06-16 19:30:44.545,0.0001066034808226,83.9198596106202
2025-06-16 19:30:44.553,0.0001074253449954,68.8227960234875
2025-06-16 19:30:44.560,0.0001062611168417,53.89896439202359
2025-06-16 19:30:44.568,0.000103119533384,39.35773285926679
2025-06-16 19:30:44.576,9.80498061843262e-05,25.40393337142665
2025-06-16 19:30:44.584,9.113705412503377e-05,12.233803202250792
2025-06-16 19:30:44.592,8.249677189145767e-05,0.0310343971090492
2025-06-16 19:30:44.599,7.226863202457578e-05,-11.036970498937483
2025-06-16 19:30:44.607,6.06099047624312e-05,-20.82253911284688
2025-06-16 19:30:44.615,4.768876709199141e-05,-29.200773064179767
2025-06-16 19:30:44.623,3.367776264275072e-05,-36.07210901345727
2025-06-16 19:30:44.631,1.874764139255088e-05,-41.36432170666606
2025-06-16 19:30:44.638,3.0617468939956957e-06,-45.033907739639545
2025-06-16 19:30:44.646,-1.322895322970621e-05,-47.066805692492856
2025-06-16 19:30:44.654,-2.9990168824642823e-05,-47.478427696653306
2025-06-16 19:30:44.662,-4.710795322989847e-05,-46.31299874273509
2025-06-16 19:30:44.670,-6.449178253121675e-05,-43.64222231973322
2025-06-16 19:30:44.678,-8.20770584239759e-05,-39.56331337396014
2025-06-16 19:30:44.685,-9.982696811222004e-05,-34.19646107274499
2025-06-16 19:30:44.693,-0.0001177335449727,-27.681803386137872
2025-06-16 19:30:44.701,-0.0001358176961127,-20.176012008756853
2025-06-16 19:30:44.709,-0.0001541279333299,-11.848598679183745
2025-06-16 19:30:44.717,-0.0001727375997172,-2.8780617455453874
2025-06-16 19:30:44.724,-0.0001917405252401,6.552005634129537
2025-06-16 19:30:44.732,-0.0002112452287008,16.256727169547595
2025-06-16 19:30:44.740,-0.0002313679698038,26.05356470097146
2025-06-16 19:30:44.748,-0.0002522251171284,35.76565176266557
2025-06-16 19:30:44.756,-0.0002739253970235,45.22475920323155
2025-06-16 19:30:44.763,-0.0002965625931042,54.27383265701723
2025-06-16 19:30:44.771,-0.0003202091982317,62.7690634709689
2025-06-16 19:30:44.779,-0.0003449114311457,70.5814769388957
2025-06-16 19:30:44.787,-0.0003706859287008,77.59804302753763
2025-06-16 19:30:44.795,-0.0003975182802002,83.72233392910519
2025-06-16 19:30:44.803,-0.0004253633670239,88.87476866933419
2025-06-16 19:30:44.810,-0.0004541472391166,92.9924968562825
2025-06-16 19:30:44.818,-0.0004837700608427,96.02898105285956
2025-06-16 19:30:44.826,-0.0005141095536518,97.95334016164966
2025-06-16 19:30:44.834,-0.0005450243790242,98.74951494485924
2025-06-16 19:30:44.842,-0.0005763570177897,98.4153119618152
2025-06-16 19:30:44.849,-0.000607935860461,96.9613745655064
2025-06-16 19:30:44.857,-0.0006395763885485,94.41012002114957
2025-06-16 19:30:44.865,-0.0006710814809426,90.7946711794786
2025-06-16 19:30:44.873,-0.0007022410148099,86.15780031703227
2025-06-16 19:30:44.881,-0.0007328310419862,80.5508925454743
2025-06-16 19:30:44.888,-0.0007626129055341,74.03292729852713
2025-06-16 19:30:44.896,-0.0007913327140371,66.66946941440624
2025-06-16 19:30:44.904,-0.000818721611591,58.53165669147929
2025-06-16 19:30:44.912,-0.0008444972688288,49.69516880781203
2025-06-16 19:30:44.920,-0.0008683669754315,40.23916331558877
2025-06-16 19:30:44.928,-0.0008900326394226,30.245168045827707
2025-06-16 19:30:44.935,-0.0009091978963153,19.79592550949021
2025-06-16 19:30:44.943,-0.0009255774061816,8.974193390090404
2025-06-16 19:30:44.951,-0.0009389082742678,-2.1384845710427123
2025-06-16 19:30:44.959,-0.0009489633770976,-13.463011834445911
2025-06-16 19:30:44.967,-0.0009555662179812,-24.92393978621288
2025-06-16 19:30:44.974,-0.0009586067809225,-36.45058899935035
2025-06-16 19:30:44.982,-0.0009580577077755,-47.9780359837424
2025-06-16 19:30:44.990,-0.0009539899979111,-59.44790562122359
2025-06-16 19:30:44.998,-0.0009465873301143,-70.80890934344141
2025-06-16 19:30:45.006,-0.000936158039961,-82.01707462265804
2025-06-16 19:30:45.013,-0.0009231437587129,-93.03562304363297
2025-06-16 19:30:45.021,-0.0009081237369481,-103.83447189843947
2025-06-16 19:30:45.029,-0.0008918139414543,-114.38935684724316
2025-06-16 19:30:45.037,-0.0008750601294726,-124.68059890692112
2025-06-16 19:30:45.045,-0.0008588242704682,-134.69156552450897
2025-06-16 19:30:45.053,-0.0008441639004402,-144.4069002432332
2025-06-16 19:30:45.060,-0.0008322042534238,-153.81061618645143
2025-06-16 19:30:45.068,-0.0008241033131002,-162.88416355961107
2025-06-16 19:30:45.076,-0.000821010255896,-171.60458962018234
2025-06-16 19:30:45.084,-0.000824018105069,-179.94291075341005
2025-06-16 19:30:45.092,-0.0008341117705182,-187.86281053454687
2025-06-16 19:30:45.099,-0.0008521129972485,-195.3197653743047
2025-06-16 19:30:45.107,-0.0008786240710455,-202.2606811824105
2025-06-16 19:30:45.115,-0.0009139724166591,-208.62410129688325
2025-06-16 19:30:45.123,-0.0009581584550438,-214.34101875129264
2025-06-16 19:30:45.131,-0.0010108092457102,-219.3362959894067
2025-06-16 19:30:45.138,-0.0010711405128245,-223.5306637245448
2025-06-16 19:30:45.146,-0.0011379296259569,-226.84323922623804
2025-06-16 19:30:45.154,-0.0012095019675127,-229.1944744207597
2025-06-16 19:30:45.162,-0.0012837328613707,-230.5094173718827
2025-06-16 19:30:45.170,-0.0013580668576317,-230.72114850461148
2025-06-16 19:30:45.178,-0.0014295556678703,-229.77423678342453
2025-06-16 19:30:45.185,-0.0014949154302898,-227.62805214240217
2025-06-16 19:30:45.193,-0.0015506032667786,-224.25976954743848
2025-06-16 19:30:45.201,-0.0015929122919146,-219.66690737398207
2025-06-16 19:30:45.209,-0.0016180833712237,-213.8692580060667
2025-06-16 19:30:45.217,-0.0016224310318467,-206.91009097934003
2025-06-16 19:30:45.224,-0.0016024800377684,-198.8565375691787
2025-06-16 19:30:45.232,-0.0015551082929255,-189.79909921034715
2025-06-16 19:30:45.240,-0.0014776909712734,-179.85025911572586
2025-06-16 19:30:45.248,-0.0013682401362619,-169.14221542491387
2025-06-16 19:30:45.256,-0.001225533638732,-157.823793593175
2025-06-16 19:30:45.263,-0.0010492267956212,-146.0566339497495
2025-06-16 19:30:45.271,-0.0008399402820962,-134.01078584788343
2025-06-16 19:30:45.279,-0.0005993178794193,-121.85987105898874
2025-06-16 19:30:45.287,-0.000330048289006,-109.77600453212622
2025-06-16 19:30:45.295,-3.584619569653664e-05,-97.92467891558172
2025-06-16 19:30:45.303,0.0002786108628447,-86.4598289910974
2025-06-16 19:30:45.310,0.0006077915110206,-75.51929222097807
2025-06-16 19:30:45.318,0.0009454649988129,-65.22087096672561
2025-06-16 19:30:45.326,0.0012848981458812,-55.6591798788673
2025-06-16 19:30:45.334,0.0016190888308989,-46.90342814904965
2025-06-16 19:30:45.342,0.0019410268039499,-38.99624113144518
2025-06-16 19:30:45.349,0.0022439693597058,-31.953570882842737
2025-06-16 19:30:45.357,0.0025217167505704,-25.76568372251969
2025-06-16 19:30:45.365,0.0027688706848295,-20.399149868532977
2025-06-16 19:30:45.373,0.0029810593090424,-15.799701333007178
2025-06-16 19:30:45.381,0.0031551139536024,-11.895775135550943
2025-06-16 19:30:45.388,0.0032891864195431,-8.602524004097832
2025-06-16 19:30:45.396,0.0033828001043838,-5.826058909449451
2025-06-16 19:30:45.404,0.0034368330733734,-3.4676879830738985
2025-06-16 19:30:45.412,0.003453435502785,-1.4279336989456315
2025-06-16 19:30:45.420,0.0034358871082225,0.3898578986701909
2025-06-16 19:30:45.428,0.0033884022478573,2.0764595334385056
2025-06-16 19:30:45.435,0.0033158921676896,3.71435158806208
2025-06-16 19:30:45.443,0.0032236961209324,5.376002811842626
2025-06-16 19:30:45.451,0.0031172958649273,7.12284179208835
2025-06-16 19:30:45.459,0.0030020306702601,9.00487868738145
2025-06-16 19:30:45.467,0.0028828315688913,11.060906133661598
2025-06-16 19:30:45.474,0.0027639932002264,13.319187039705245
2025-06-16 19:30:45.482,0.0026489986897463,15.798524636813424
2025-06-16 19:30:45.490,0.002540407742749,18.509605495608984
2025-06-16 19:30:45.498,0.0024398116772644,21.45650788765762
2025-06-16 19:30:45.506,0.002347852859199,24.638274419385223
2025-06-16 19:30:45.513,0.0022643009367308,28.05045792538004
2025-06-16 19:30:45.521,0.002188174831982,31.686561929423213
2025-06-16 19:30:45.529,0.0021178977167207,35.539310498073945
2025-06-16 19:30:45.537,0.0020514720244578,39.60169618259997
2025-06-16 19:30:45.545,0.0019866625187359,43.86776838044066
2025-06-16 19:30:45.553,0.0019211769480626,48.33313750411119
2025-06-16 19:30:45.560,0.0018528353671874,52.99518269344218
2025-06-16 19:30:45.568,0.0017797205898091,57.85296247317504
2025-06-16 19:30:45.576,0.0017003034704533,62.906838857857146
2025-06-16 19:30:45.584,0.0016135378233265,68.15783607073472
2025-06-16 19:30:45.592,0.0015189208448056,73.60676534707231
2025-06-16 19:30:45.599,0.0014165161804149,79.25315719369988
2025-06-16 19:30:45.607,0.0013069386565615,85.09405178987076
2025-06-16 19:30:45.615,0.0011913023630235,91.12270661670932
2025-06-16 19:30:45.623,0.0010711369389944,97.32728746508478
2025-06-16 19:30:45.631,0.0009482798948616,103.68961419814995
2025-06-16 19:30:45.638,0.0008247548409998,110.18403550688195
2025-06-16 19:30:45.646,0.0007026461459154,116.776506877643
2025-06-16 19:30:45.654,0.0005839797754245,123.42394263975471
2025-06-16 19:30:45.662,0.0004706180762652,130.07390595855753
2025-06-16 19:30:45.670,0.0003641733964441,136.664689854792
2025-06-16 19:30:45.678,0.0002659422997491,143.12582786428212
2025-06-16 19:30:45.685,0.00017685964431,149.3790551493012
2025-06-16 19:30:45.693,9.747067483065632e-05,155.33972031684388
2025-06-16 19:30:45.701,2.79195197979846e-05,160.91862567806737
2025-06-16 19:30:45.709,-3.20466019997524e-05,166.0242501614586
2025-06-16 19:30:45.717,-8.305742421866004e-05,170.56528568687017
2025-06-16 19:30:45.724,-0.0001260838488922,174.45339577149787
2025-06-16 19:30:45.732,-0.0001623869786731,177.60608583452594
2025-06-16 19:30:45.740,-0.0001934537644134,179.94955951625468
2025-06-16 19:30:45.748,-0.0002209222152479,181.42142574160343
2025-06-16 19:30:45.756,-0.0002464999232157,181.97311856655836
2025-06-16 19:30:45.763,-0.0002718799931236,181.57189721212995
2025-06-16 19:30:45.771,-0.0002986583990101,180.20230793980392
2025-06-16 19:30:45.779,-0.0003282564730032,177.8670127433728
2025-06-16 19:30:45.787,-0.0003618518629084,174.586921459506
2025-06-16 19:30:45.795,-0.0004003210152178,170.40060200776168
2025-06-16 19:30:45.803,-0.0004441960571906,165.36298535167512
2025-06-16 19:30:45.810,-0.0004936386976877,159.5434241760639
2025-06-16 19:30:45.818,-0.0005484331929312,153.0232037780741
2025-06-16 19:30:45.826,-0.0006079993832242,145.89263703650474
2025-06-16 19:30:45.834,-0.0006714253633358,138.24789987457746
2025-06-16 19:30:45.842,-0.0007375177360329,130.18777756904512
2025-06-16 19:30:45.849,-0.0008048659191135,121.81049488279812
2025-06-16 19:30:45.857,-0.0008719159250866,113.21079469504724
2025-06-16 19:30:45.865,-0.0009370486108851,104.47741180613522
2025-06-16 19:30:45.873,-0.0009986576347704,95.69106264782432
2025-06-16 19:30:45.881,-0.0010552231093294,86.9230397183789
2025-06-16 19:30:45.888,-0.0011053779364261,78.23446375122582
2025-06-16 19:30:45.896,-0.0011479647597945,69.6762089813378
2025-06-16 19:30:45.904,-0.0011820821416088,61.28947939594851
2025-06-16 19:30:45.912,-0.0012071188757634,53.10697842089728
2025-06-16 19:30:45.920,-0.0012227754127957,45.15458278800673
2025-06-16 19:30:45.928,-0.0012290714590058,37.453404797833535
2025-06-16 19:30:45.935,-0.0012263391692789,30.022106996877813
2025-06-16 19:30:45.943,-0.0012152020364097,22.87932027055089
2025-06-16 19:30:45.951,-0.0011965404371882,16.04601100559419
2025-06-16 19:30:45.959,-0.0011714455866145,9.547645422425898
2025-06-16 19:30:45.967,-0.001141164215727,3.416009173992045
2025-06-16 19:30:45.974,-0.0011070366285863,-2.3094427393764567
2025-06-16 19:30:45.982,-0.0010704310319683,-7.580807677806348
2025-06-16 19:30:45.990,-0.0010326773152894,-12.341602705756802
2025-06-16 19:30:45.998,-0.0009950038616792,-16.527320068042233
2025-06-16 19:30:46.006,-0.0009584813564405,-20.06667960579507
2025-06-16 19:30:46.013,-0.000923977529502,-22.883552506851103
2025-06-16 19:30:46.021,-0.000892125936947,-24.89949705725849
2025-06-16 19:30:46.029,-0.0008633103128767,-26.036815346038207
2025-06-16 19:30:46.037,-0.0008376642696005,-26.22201138292472
2025-06-16 19:30:46.045,-0.0008150847988683,-25.389506886058463
2025-06-16 19:30:46.053,-0.0007952573505088,-23.48545200369586
2025-06-16 19:30:46.060,-0.0007776900720677,-20.47145523332422
2025-06-16 19:30:46.068,-0.0007617547946705,-16.328050453703003
2025-06-16 19:30:46.076,-0.0007467323663181,-11.057719843558544
2025-06-16 19:30:46.084,-0.0007318599754083,-4.687299981253399
2025-06-16 19:30:46.092,-0.0007163782889332,2.730385031271146
2025-06-16 19:30:46.099,-0.0006995766037654,11.115794723708513
2025-06-16 19:30:46.107,-0.0006808346790604,20.362945673881185
2025-06-16 19:30:46.115,-0.0006596602818451,30.340743433159627
2025-06-16 19:30:46.123,-0.0006357215602017,40.89537964201552
2025-06-16 19:30:46.131,-0.0006088731547014,51.8537452581476
2025-06-16 19:30:46.138,-0.0005791746719871,63.02775203775092
2025-06-16 19:30:46.146,-0.0005469000292804,74.21939725749976
2025-06-16 19:30:46.154,-0.000512536345709,85.22635656467033
2025-06-16 19:30:46.162,-0.0004767714484155,95.84785196008004
2025-06-16 19:30:46.170,-0.0004404695672665,105.89052026389612
2025-06-16 19:30:46.178,-0.0004046353385859,115.17400429688912
2025-06-16 19:30:46.185,-0.0003703668272724,123.53600481709375
2025-06-16 19:30:46.193,-0.0003387989787425,130.8365644869336
2025-06-16 19:30:46.201,-0.0003110397763047,136.96140266771164
2025-06-16 19:30:46.209,-0.0002881023214478,141.8241772702686
2025-06-16 19:30:46.217,-0.0002708368868822,145.36761215404914
2025-06-16 19:30:46.224,-0.0002598675569201,147.5634904912644
2025-06-16 19:30:46.232,-0.0002555382682507,148.4115714714314
2025-06-16 19:30:46.240,-0.0002578727892823,147.93753621321574
2025-06-16 19:30:46.248,-0.0002665523379249,146.19010675585113
2025-06-16 19:30:46.256,-0.0002809131920951,143.2375089330077
2025-06-16 19:30:46.264,-0.0002999650372822,139.16346621993387
2025-06-16 19:30:46.271,-0.0003224292270186,134.0629182578401
2025-06-16 19:30:46.279,-0.0003467948163122,128.03765587118133
2025-06-16 19:30:46.287,-0.0003713892274123,121.19205521813952
2025-06-16 19:30:46.295,-0.0003944596825213,113.62907842956156
2025-06-16 19:30:46.303,-0.000414261022432,105.4466878020864
2025-06-16 19:30:46.310,-0.0004291451909549,96.73479634614743
2025-06-16 19:30:46.318,-0.0004376475415257,87.57285021766515
2025-06-16 19:30:46.326,-0.000438565298055,78.02810921783698
2025-06-16 19:30:46.334,-0.0004310240072529,68.15466105764311
2025-06-16 19:30:46.342,-0.000414528566729,57.99317440282306
2025-06-16 19:30:46.349,-0.0003889962581359,47.571365825335626
2025-06-16 19:30:46.357,-0.0003547700743704,36.90512769514605
2025-06-16 19:30:46.365,-0.0003126115123036,26.000238742693764
2025-06-16 19:30:46.373,-0.0002636729437532,14.854557428829125
2025-06-16 19:30:46.381,-0.0002094506905887,3.4605811675690474
2025-06-16 19:30:46.389,-0.0001517209923471,-8.191757534845589
2025-06-16 19:30:46.396,-9.246208858256289e-05,-20.112193456950703
2025-06-16 19:30:46.404,-3.376650416957426e-05,-32.3072658799476
2025-06-16 19:30:46.412,2.2251821500862782e-05,-44.77762240282976
2025-06-16 19:30:46.420,7.355074957310074e-05,-57.51561145680088
2025-06-16 19:30:46.428,0.0001182488585178,-70.50327144512748
2025-06-16 19:30:46.435,0.0001547058223572,-83.71080644216049
2025-06-16 19:30:46.443,0.00018159054584,-97.09561737400676
2025-06-16 19:30:46.451,0.0001979339748263,-110.6019344161821
2025-06-16 19:30:46.459,0.0002031642186683,-124.16107182860478
2025-06-16 19:30:46.467,0.0001971224780616,-137.69230143415732
2025-06-16 19:30:46.474,0.0001800593043995,-151.1043162362118
2025-06-16 19:30:46.482,0.0001526119119392,-164.29723204229992
2025-06-16 19:30:46.490,0.0001157645169748,-177.16505317444862
2025-06-16 19:30:46.498,7.079479158042778e-05,-189.59850914022505
2025-06-16 19:30:46.506,1.9210285755873896e-05,-201.4881532307997
2025-06-16 19:30:46.514,-3.732101243398562e-05,-212.7276021011608
2025-06-16 19:30:46.521,-9.704190884242536e-05,-223.2167881438237
2025-06-16 19:30:46.529,-0.0001581753594849,-232.8650945208172
2025-06-16 19:30:46.537,-0.0002189888659458,-241.5942466311364
2025-06-16 19:30:46.545,-0.0002778514923809,-249.340843982612
2025-06-16 19:30:46.553,-0.0003332817769287,-256.058433002394
2025-06-16 19:30:46.560,-0.0003839854880332,-261.71904372731274
2025-06-16 19:30:46.568,-0.0004288828183796,-266.31414016613564
2025-06-16 19:30:46.576,-0.0004671251980434,-269.854963216909
2025-06-16 19:30:46.584,-0.00049810242823,-272.37227374790604
2025-06-16 19:30:46.592,-0.0005214412657383,-273.91552932797293
2025-06-16 19:30:46.599,-0.0005369968871173,-274.55154918117006
2025-06-16 19:30:46.607,-0.0005448387836998,-274.3627370686713
2025-06-16 19:30:46.615,-0.0005452325670706,-273.4449406159607
2025-06-16 19:30:46.623,-0.0005386189361321,-271.905028497618
2025-06-16 19:30:46.631,-0.000525590746868,-269.8582648329695
2025-06-16 19:30:46.639,-0.0005068688182657,-267.42555445387416
2025-06-16 19:30:46.646,-0.0004832768679794,-264.7306248165909
2025-06-16 19:30:46.654,-0.0004557158091053,-261.8972015853085
2025-06-16 19:30:46.662,-0.000425137510587,-259.04622642638884
2025-06-16 19:30:46.670,-0.0003925180047299,-256.2931581483245
2025-06-16 19:30:46.678,-0.0003588300726516,-253.74539256287488
2025-06-16 19:30:46.685,-0.0003250152461399,-251.49983265661064
2025-06-16 19:30:46.693,-0.0002919555735159,-249.64063897822288
2025-06-16 19:30:46.701,-0.0002604459539068,-248.23719050667805
2025-06-16 19:30:46.709,-0.0002311683311441,-247.3422884098409
2025-06-16 19:30:46.717,-0.0002046694416784,-246.9906385418772
2025-06-16 19:30:46.724,-0.0001813440446127,-247.19765250509352
2025-06-16 19:30:46.732,-0.0001614255275698,-247.95861059490124
2025-06-16 19:30:46.740,-0.000144985372124,-249.24823172487768
2025-06-16 19:30:46.748,-0.0001319421641154,-251.02069419658127
2025-06-16 19:30:46.756,-0.0001220797999953,-253.2101457912487
2025-06-16 19:30:46.764,-0.0001150735163978,-255.7317313755123
2025-06-16 19:30:46.771,-0.0001105215663229,-258.483150910439
2025-06-16 19:30:46.779,-0.0001079798876913,-261.34674104890814
2025-06-16 19:30:46.787,-0.0001069969636163,-264.1920507182435
2025-06-16 19:30:46.795,-0.0001071462033422,-266.8788570559083
2025-06-16 19:30:46.803,-0.0001080535044188,-269.26054490732565
2025-06-16 19:30:46.810,-0.0001094181101984,-271.1877529119671
2025-06-16 19:30:46.818,-0.0001110253770559,-272.5121738346975
2025-06-16 19:30:46.826,-0.0001127505731536,-273.0903875768334
2025-06-16 19:30:46.834,-0.0001145533534209,-272.787602864514
2025-06-16 19:30:46.842,-0.0001164631314424,-271.48118780987227
2025-06-16 19:30:46.849,-0.0001185562358043,-269.06387947261084
2025-06-16 19:30:46.857,-0.000120926495991,-265.4465767644589
2025-06-16 19:30:46.865,-0.0001236516785842,-260.5606378692471
2025-06-16 19:30:46.873,-0.0001267588392401,-254.3596213009004
2025-06-16 19:30:46.881,-0.0001301919902296,-246.8204277707353
2025-06-16 19:30:46.889,-0.0001337853919277,-237.94381773909507
2025-06-16 19:30:46.896,-0.0001372452827261,-227.75429687415212
2025-06-16 19:30:46.904,-0.0001401420953945,-216.2993787666567
2025-06-16 19:30:46.912,-0.000141914306556,-203.6482511480579
2025-06-16 19:30:46.920,-0.0001418841261241,-189.8898882420724
2025-06-16 19:30:46.928,-0.0001392843348831,-175.1306672216217
2025-06-16 19:30:46.935,-0.0001332948072382,-159.4915604663843
2025-06-16 19:30:46.943,-0.0001230866815632,-143.10498697030545
2025-06-16 19:30:46.951,-0.0001078717699003,-126.1114155624893
2025-06-16 19:30:46.959,-8.695456476142784e-05,-108.65581941501584
2025-06-16 19:30:46.967,-5.97840035807493e-05,-90.88408546698982
2025-06-16 19:30:46.974,-2.600193415978166e-05,-72.93948372641927
2025-06-16 19:30:46.982,1.4514965651196231e-05,-54.95929975692566
2025-06-16 19:30:46.990,6.162307780782186e-05,-37.0717288982248
2025-06-16 19:30:46.998,0.0001148924967542,-19.393122873354205
2025-06-16 19:30:47.006,0.0001736027126087,-2.0256684733590826
2025-06-16 19:30:47.014,0.000236754615982,14.944435833577616
2025-06-16 19:30:47.021,0.0003030989768701,31.44825596278439
2025-06-16 19:30:47.029,0.0003711803581216,47.43482021698366
2025-06-16 19:30:47.037,0.0004393943098286,62.871228985568926
2025-06-16 19:30:47.045,0.0005060548230175,77.74218759111693
2025-06-16 19:30:47.053,0.0005694684852895,92.0489958525722
2025-06-16 19:30:47.060,0.0006280114892287,105.8080494191141
2025-06-16 19:30:47.068,0.0006802054465214,119.04892756180296
2025-06-16 19:30:47.076,0.0007247878336522,131.81215864632145
2025-06-16 19:30:47.084,0.000760772961261,144.14676681224734
2025-06-16 19:30:47.092,0.000787499742289,156.107710526867
2025-06-16 19:30:47.099,0.0008046632460418,167.7533250311035
2025-06-16 19:30:47.107,0.0008123279693789,179.1428759789168
2025-06-16 19:30:47.115,0.0008109217930871,190.33432093422223
2025-06-16 19:30:47.123,0.0008012106384384,201.3823594212659
2025-06-16 19:30:47.131,0.0007842549356783,212.3368319419292
2025-06-16 19:30:47.139,0.0007613502377715,223.2415051464233
2025-06-16 19:30:47.146,0.0007339555835306,234.1332557793021
2025-06-16 19:30:47.154,0.0007036142628167,245.04164182327432
2025-06-16 19:30:47.162,0.0006718721794076,255.98882708070383
2025-06-16 19:30:47.170,0.0006401989658815,266.9898067333926
2025-06-16 19:30:47.178,0.000609916529753,278.052867373982
2025-06-16 19:30:47.185,0.0005821390083193,289.1802063956736
2025-06-16 19:30:47.193,0.0005577272747577,300.36863282128047
2025-06-16 19:30:47.201,0.0005372601449537,311.61027456745546
2025-06-16 19:30:47.209,0.0005210232697875,322.8932252770396
2025-06-16 19:30:47.217,0.0005090154563191,334.2020763535045
2025-06-16 19:30:47.224,0.0005009710070586,345.5182955655795
2025-06-16 19:30:47.232,0.0004963957411658,356.82043126183555
2025-06-16 19:30:47.240,0.0004946137641607,368.0841394997436
2025-06-16 19:30:47.248,0.0004948218319388,379.2820489680387
2025-06-16 19:30:47.256,0.0004961482450256,390.3834943323958
2025-06-16 19:30:47.264,0.0004977134189594,401.3541616411441
2025-06-16 19:30:47.271,0.0004986894128963,412.1556990118204
2025-06-16 19:30:47.279,0.0004983557092679,422.74535155620737
2025-06-16 19:30:47.287,0.0004961485212637,433.07568121618976
2025-06-16 19:30:47.295,0.0004917009868693,443.09442993401615
2025-06-16 19:30:47.303,0.0004848718349791,452.7445786343277
2025-06-16 19:30:47.310,0.0004757604669656,461.9646452907581
2025-06-16 19:30:47.318,0.0004647068868156,470.6892534569537
2025-06-16 19:30:47.326,0.0004522755787066,478.849988705706
2025-06-16 19:30:47.334,0.0004392233222364,486.3765450932892
2025-06-16 19:30:47.342,0.0004264520414145,493.1981476457729
2025-06-16 19:30:47.349,0.0004149490011784,499.2452204596528
2025-06-16 19:30:47.357,0.0004057178407329,504.45125376525937
2025-06-16 19:30:47.365,0.0003997049154721,508.7548076721946
2025-06-16 19:30:47.373,0.0003977260658561,512.1015758684961
2025-06-16 19:30:47.381,0.0004003991242207,514.4464200535047
2025-06-16 19:30:47.389,0.0004080871848885,515.7552763713884
2025-06-16 19:30:47.396,0.0004208569860178,516.0068298048236
2025-06-16 19:30:47.404,0.000438455792016,515.1938526738775
2025-06-16 19:30:47.412,0.0004603089797506,513.32411017802
2025-06-16 19:30:47.420,0.000485539154381,510.42074996334486
2025-06-16 19:30:47.428,0.0005130061162505,506.5221138577475
2025-06-16 19:30:47.435,0.0005413654596897,501.680937061021
2025-06-16 19:30:47.443,0.0005691420976975,495.9629311108099
2025-06-16 19:30:47.451,0.0005948136712232,489.44477924215926
2025-06-16 19:30:47.459,0.0006168977669222,482.21160383072566
2025-06-16 19:30:47.467,0.0006340363663011,474.3539936018507
2025-06-16 19:30:47.474,0.0006450712478651,465.9647020192373
2025-06-16 19:30:47.482,0.0006491052824659,457.1351469961152
2025-06-16 19:30:47.490,0.0006455465011516,447.9518552753392
2025-06-16 19:30:47.498,0.0006341339723727,438.4930020852817
2025-06-16 19:30:47.506,0.0006149463283413,428.8251976286565
2025-06-16 19:30:47.514,0.0005883948792005,419.0006662667574
2025-06-16 19:30:47.521,0.0005552036603179,409.05495165548496
2025-06-16 19:30:47.529,0.0005163787192075,399.0052614754315
2025-06-16 19:30:47.537,0.0004731687127259,388.8495390070956
2025-06-16 19:30:47.545,0.0004270185979468,378.5663163686031
2025-06-16 19:30:47.553,0.0003795179455204,368.1153671292636
2025-06-16 19:30:47.560,0.0003323452485211,357.4391362706272
2025-06-16 19:30:47.568,0.0002872095672407,346.4648856536083
2025-06-16 19:30:47.576,0.0002457908919322,335.1074561098075
2025-06-16 19:30:47.584,0.0002096806344733,323.27251581425185
2025-06-16 19:30:47.592,0.0001803236415392,310.86014117531715
2025-06-16 19:30:47.599,0.0001589631186363,297.76856293189326
2025-06-16 19:30:47.607,0.0001465899535788,283.8979074600158
2025-06-16 19:30:47.615,0.00014389811977,269.1537714333951
2025-06-16 19:30:47.623,0.0001512480059285,253.45048587896613
2025-06-16 19:30:47.631,0.0001686395536242,236.7139513111533
2025-06-16 19:30:47.639,0.0001956969771349,218.8839563538592
2025-06-16 19:30:47.646,0.0002316666360282,199.9159251650709
2025-06-16 19:30:47.654,0.0002754293503926,179.78207139157968
2025-06-16 19:30:47.662,0.0003255280562269,158.47196623619683
2025-06-16 19:30:47.670,0.000380211117093,135.9925542241886
2025-06-16 19:30:47.678,0.000437490778073,112.36767179050923
2025-06-16 19:30:47.685,0.0004952151983734,87.63714066056866
2025-06-16 19:30:47.693,0.0005511513599419,61.85552007710091
2025-06-16 19:30:47.701,0.0006030750916454,35.090609124404025
2025-06-16 19:30:47.709,0.0006488636163407,7.421792618389307
2025-06-16 19:30:47.717,0.0006865855203528,-21.06167866680953
2025-06-16 19:30:47.724,0.0007145829177211,-50.26238989413053
2025-06-16 19:30:47.732,0.0007315408452594,-80.07637367976507
2025-06-16 19:30:47.740,0.0007365395459194,-110.39457263604874
2025-06-16 19:30:47.748,0.0007290862229871,-141.1041100973706
2025-06-16 19:30:47.756,0.0007091240334586,-172.08934278284613
2025-06-16 19:30:47.764,0.0006770175179794,-203.2326856789411
2025-06-16 19:30:47.771,0.0006335153036624,-234.41521508751464
2025-06-16 19:30:47.779,0.0005796926542216,-265.51706992309767
2025-06-16 19:30:47.787,0.0005168780941353,-296.41768346400966
2025-06-16 19:30:47.795,0.000446569697014,-326.9958875481179
2025-06-16 19:30:47.803,0.0003703475116888,-357.1299385196109
2025-06-16 19:30:47.810,0.0002897888329026,-386.6975191086987
2025-06-16 19:30:47.818,0.0002063925036034,-415.5757730004984
2025-06-16 19:30:47.826,0.0001215171834905,-443.6414292509329
2025-06-16 19:30:47.834,3.633670066276548e-05,-470.7710719173665
2025-06-16 19:30:47.842,-4.818646620157767e-05,-496.84160605635225
2025-06-16 19:30:47.849,-0.0001313104255633,-521.7309642009507
2025-06-16 19:30:47.857,-0.0002125080269784,-545.3190871299313
2025-06-16 19:30:47.865,-0.000291448794609,-567.4891988571675
2025-06-16 19:30:47.873,-0.0003679716725861,-588.1293782262514
2025-06-16 19:30:47.881,-0.0004420515779391,-607.1344085848378
2025-06-16 19:30:47.889,-0.000513762656299,-624.4078634981167
2025-06-16 19:30:47.896,-0.0005832409057852,-639.8643616538394
2025-06-16 19:30:47.904,-0.0006506483795047,-653.431899908626
2025-06-16 19:30:47.912,-0.0007161405352949,-665.0541522646147
2025-06-16 19:30:47.920,-0.0007798376343219,-674.6926072828554
2025-06-16 19:30:47.928,-0.0008418005757776,-682.3284099618163
2025-06-16 19:30:47.935,-0.0009020113042522,-687.9637788573455
2025-06-16 19:30:47.943,-0.0009603579485551,-691.6228862073096
2025-06-16 19:30:47.951,-0.0010166250545454,-693.3521168113648
2025-06-16 19:30:47.959,-0.0010704895060219,-693.2196568331418
2025-06-16 19:30:47.967,-0.0011215228399033,-691.314401732353
2025-06-16 19:30:47.974,-0.0011692005806395,-687.7442088914414
2025-06-16 19:30:47.982,-0.0012129189554363,-682.6335525152027
2025-06-16 19:30:47.990,-0.0012520189592085,-676.1206649477198
2025-06-16 19:30:47.998,-0.0012858172629013,-668.354269351697
2025-06-16 19:30:48.006,-0.0013136429302722,-659.4900236248925
2025-06-16 19:30:48.014,-0.001334878350526,-649.6868044394478
2025-06-16 19:30:48.021,-0.0013490022435441,-639.1029634391898
2025-06-16 19:30:48.029,-0.0013556321191366,-627.8926851388024
2025-06-16 19:30:48.037,-0.0013545632746478,-616.202568351488
2025-06-16 19:30:48.045,-0.0013458013941189,-604.1685406310307
2025-06-16 19:30:48.053,-0.0013295861088225,-591.9131990143737
2025-06-16 19:30:48.060,-0.0013064034690993,-579.5436511796224
2025-06-16 19:30:48.068,-0.0012769860926831,-567.1499099563728
2025-06-16 19:30:48.076,-0.0012423006961069,-554.8038719307463
2025-06-16 19:30:48.084,-0.0012035236554545,-542.558888642343
2025-06-16 19:30:48.092,-0.0011620060346829,-530.4499174712896
2025-06-16 19:30:48.099,-0.0011192300440795,-518.494219548002
2025-06-16 19:30:48.107,-0.0010767591233807,-506.69255452367065
2025-06-16 19:30:48.115,-0.0010361838741443,-495.0308072651667
2025-06-16 19:30:48.123,-0.0009990660210966,-483.481969724296
2025-06-16 19:30:48.131,-0.0009668825215088,-472.0083924239931
2025-06-16 19:30:48.139,-0.0009409718264547,-460.5642141127564
2025-06-16 19:30:48.146,-0.0009224840482932,-449.0978750268823
2025-06-16 19:30:48.154,-0.0009123363881933,-437.554618785658
2025-06-16 19:30:48.162,-0.0009111747431167,-425.8788902815015
2025-06-16 19:30:48.170,-0.0009193421234021,-414.0165422370005
2025-06-16 19:30:48.178,-0.0009368544402664,-401.9167717339006
2025-06-16 19:30:48.185,-0.0009633842667805,-389.5337203391014
2025-06-16 19:30:48.193,-0.0009982531897436,-376.8276876643187
2025-06-16 19:30:48.201,-0.0010404332888048,-363.7659281385367
2025-06-16 19:30:48.209,-0.0010885581152603,-350.32302371517216
2025-06-16 19:30:48.217,-0.001140943321369,-336.48084974406726
2025-06-16 19:30:48.224,-0.0011956168315757,-322.2281752466276
2025-06-16 19:30:48.232,-0.0012503581831971,-307.55996005275694
2025-06-16 19:30:48.240,-0.0013027464422167,-292.47642779454776
2025-06-16 19:30:48.248,-0.0013502159433613,-276.98200451890426
2025-06-16 19:30:48.256,-0.0013901189899954,-261.0842173815097
2025-06-16 19:30:48.264,-0.0014197945321828,-244.79264672205133
2025-06-16 19:30:48.271,-0.0014366416800559,-228.1180182644068
2025-06-16 19:30:48.279,-0.0014381966716799,-211.07151086811228
2025-06-16 19:30:48.287,-0.0014222115893707,-193.66433993896112
2025-06-16 19:30:48.295,-0.0013867327669274,-175.90765814922503
2025-06-16 19:30:48.303,-0.001330176579428,-157.81279445983313
2025-06-16 19:30:48.310,-0.0012514002377305,-139.39183056458717
2025-06-16 19:30:48.318,-0.0011497652713859,-120.65849179747076
2025-06-16 19:30:48.326,-0.0010251914587512,-101.62930825842632
2025-06-16 19:30:48.334,-0.0008781989849996,-82.32498238584476
2025-06-16 19:30:48.342,-0.0007099366012331,-62.7718823387171
2025-06-16 19:30:48.349,-0.0005221935981592,-43.00356716287751
2025-06-16 19:30:48.357,-0.0003173935674633,-23.062240505366116
2025-06-16 19:30:48.365,-9.856822689830958e-05,-3.0000251726291096
2025-06-16 19:30:48.373,0.0001306899862693,17.12004849316062
2025-06-16 19:30:48.381,0.0003662973045136,37.22344139411064
2025-06-16 19:30:48.389,0.0006037700651287,57.22398113375268
2025-06-16 19:30:48.396,0.0008383373798561,77.02428699590006
2025-06-16 19:30:48.404,0.0010650731475014,96.5167957882698
2025-06-16 19:30:48.412,0.0012790442456951,115.5854141845732
2025-06-16 19:30:48.420,0.0014754703114864,134.10779411646294
2025-06-16 19:30:48.428,0.0016498890076149,151.95819635456354
2025-06-16 19:30:48.435,0.0017983192168829,169.01087491083726
2025-06-16 19:30:48.443,0.0019174134994908,185.14388269552015
2025-06-16 19:30:48.451,0.0020045907925045,200.24316850918404
2025-06-16 19:30:48.459,0.0020581410358187,214.2068085780312
2025-06-16 19:30:48.467,0.0020772951350197,226.9491941299415
2025-06-16 19:30:48.474,0.00206225601694,238.40498163454637
2025-06-16 19:30:48.482,0.0020141889970095,248.5326058982671
2025-06-16 19:30:48.490,0.0019351719354246,257.3171596722027
2025-06-16 19:30:48.498,0.0018281076616873,264.7724579624248
2025-06-16 19:30:48.506,0.0016966030133389,270.9421314265538
2025-06-16 19:30:48.514,0.0015448206202534,275.899630757628
2025-06-16 19:30:48.521,0.001377311100792,279.7470712724468
2025-06-16 19:30:48.529,0.0011988343391027,282.61290141706195
2025-06-16 19:30:48.537,0.0010141788527855,284.6484372385579
2025-06-16 19:30:48.545,0.0008279880285942,286.0233634296601
2025-06-16 19:30:48.553,0.0006446013434619,286.92035676575904
2025-06-16 19:30:48.560,0.0004679176422418,287.5290363361066
2025-06-16 19:30:48.568,0.0003012861099789,288.03948407539974
2025-06-16 19:30:48.576,0.0001474288564218,288.6356064582092
2025-06-16 19:30:48.584,8.397244759747485e-06,289.4886222520163
2025-06-16 19:30:48.592,-0.0001144375726198,290.7509611365329
2025-06-16 19:30:48.599,-0.0002203609855826,292.550843781408
2025-06-16 19:30:48.607,-0.0003092606857004,294.9877863663955
2025-06-16 19:30:48.615,-0.0003815458737269,298.129232907426
2025-06-16 19:30:48.623,-0.000438045282088,302.0084690287645
2025-06-16 19:30:48.631,-0.0004798904815299,306.6239133203736
2025-06-16 19:30:48.639,-0.0005083916808436,311.939819774392
2025-06-16 19:30:48.646,-0.0005249135329354,317.8883598552785
2025-06-16 19:30:48.654,-0.0005307583226599,324.3729885074833
2025-06-16 19:30:48.662,-0.0005270634039847,331.2729378716382
2025-06-16 19:30:48.670,-0.000514718993619,338.4486286439881
2025-06-16 19:30:48.678,-0.0004943114855036,345.7477447013426
2025-06-16 19:30:48.685,-0.0004660962618996,353.0116844062671
2025-06-16 19:30:48.693,-0.0004300023609084,360.08208415575683
2025-06-16 19:30:48.701,-0.0003856692018185,366.8071080746482
2025-06-16 19:30:48.709,-0.0003325130625917,373.0472135302165
2025-06-16 19:30:48.717,-0.0002698186334927,378.6801356193244
