Timestamp,Lead I (LA-RA),Lead II (LL-LA),Lead III (LL-RA),Vx-RL
2025-06-16 19:25:15.396,3.745405263753144,20.34493139144136,24.09033661918531,4.586451658319296e-08
2025-06-16 19:25:15.404,3.4217871309258823,19.81417542316669,23.23596251811633,4.666989118856576e-08
2025-06-16 19:25:15.408,3.1582336695683355,19.15214272143662,22.31037635502249,4.747240805974499e-08
2025-06-16 19:25:15.412,2.98993792229536,18.433742827271235,21.4236807135637,4.8260973850763266e-08
2025-06-16 19:25:15.416,2.9671346350059147,17.76939364784515,20.73652824686252,4.902851621098917e-08
2025-06-16 19:25:15.420,3.091898134885702,17.224110736951474,20.31600883588428,4.9783366680611375e-08
2025-06-16 19:25:15.424,3.2841983826408314,16.835201598876445,20.11939994557164,5.053315234784568e-08
2025-06-16 19:25:15.428,3.4727399075882324,16.626161972554943,20.098901844179057,5.1271792647409335e-08
2025-06-16 19:25:15.432,3.6674493121209584,16.588673597438543,20.25612287359904,5.199132024495844e-08
2025-06-16 19:25:15.436,3.9021954834090695,16.676538820251743,20.57873426773328,5.269533048739647e-08
2025-06-16 19:25:15.439,4.17858513024804,16.815787197413602,20.99437229175248,5.3391115399430766e-08
2025-06-16 19:25:15.443,4.477315942230334,16.94179681085506,21.41911271716489,5.4076742816965685e-08
2025-06-16 19:25:15.447,4.747728542179928,17.052675576782825,21.80040408303951,5.474552057718628e-08
2025-06-16 19:25:15.451,4.915378560812844,17.178706848789,22.094085373705973,5.5397645933903e-08
2025-06-16 19:25:15.455,4.966768614773642,17.268869309437136,22.23563788834038,5.603845939488213e-08
2025-06-16 19:25:15.459,4.964223943991815,17.19164555969012,22.155869467808856,5.666858865191247e-08
2025-06-16 19:25:15.463,4.940161089878194,16.906113688788263,21.84627474278782,5.7283749878792184e-08
2025-06-16 19:25:15.467,4.868675828332856,16.543848754928515,21.412524547403503,5.7882527414321065e-08
2025-06-16 19:25:15.471,4.754438155672853,16.238367389354572,20.992805509198085,5.8467719169523167e-08
2025-06-16 19:25:15.475,4.64672282995781,15.946693111351587,20.59341590548568,5.9040676998953046e-08
2025-06-16 19:25:15.478,4.562822745927241,15.536939131967484,20.09976184206571,5.9599576429251073e-08
2025-06-16 19:25:15.482,4.483021191593268,14.99419427483364,19.477215430612357,6.014315747855102e-08
2025-06-16 19:25:15.486,4.413979507864768,14.428577341898944,18.842556813977616,6.067221910461062e-08
2025-06-16 19:25:15.490,4.389922398589444,13.912017542745668,18.301939905561827,6.118743051409471e-08
2025-06-16 19:25:15.494,4.411354159383809,13.417448512561108,17.828802636168625,6.168851432952512e-08
2025-06-16 19:25:15.498,4.430789958616912,12.914677121835233,17.345467044684753,6.217532717031598e-08
2025-06-16 19:25:15.502,4.416690526811515,12.418579479507226,16.835269970577908,6.264770730202233e-08
2025-06-16 19:25:15.506,4.39947820188341,11.904610784084444,16.304088950246175,6.310499757739541e-08
2025-06-16 19:25:15.510,4.416903853639234,11.270870851280131,15.68777466919864,6.35472864613614e-08
2025-06-16 19:25:15.514,4.435237245832235,10.462634333863155,14.897871543979296,6.397580453224958e-08
2025-06-16 19:25:15.518,4.384722715507939,9.556777234840428,13.941499914656232,6.439067781170601e-08
2025-06-16 19:25:15.521,4.268908626095207,8.626360210043972,12.895268800472476,6.479016790458633e-08
2025-06-16 19:25:15.525,4.165995488948134,7.618638167353078,11.784633620641348,6.517368835635547e-08
2025-06-16 19:25:15.529,4.106198895863775,6.49266944559076,10.598868305796124,6.554322838122216e-08
2025-06-16 19:25:15.533,4.02126461462124,5.34206018986273,9.363324768846006,6.589984580987944e-08
2025-06-16 19:25:15.537,3.853285816370892,4.219408289061521,8.072694069826508,6.624136592101498e-08
2025-06-16 19:25:15.541,3.653272292441902,3.043532354163456,6.69680461101503,6.656605030649196e-08
2025-06-16 19:25:15.545,3.509694145237757,1.893477958909937,5.40317206855709,6.687589479510134e-08
2025-06-16 19:25:15.549,3.4081867449314216,1.0553691525451172,4.463555861901032,6.71731885312799e-08
2025-06-16 19:25:15.553,3.240530095097442,0.3929289831154525,3.633459042675407,6.745626955159041e-08
2025-06-16 19:25:15.557,2.961997083542657,-0.9721503137362184,1.9898467342969623,6.77223968331841e-08
2025-06-16 19:25:15.561,2.652647618227965,-3.830859092965205,-1.1782115102452808,6.797277923778773e-08
2025-06-16 19:25:15.564,2.3771268643231807,-7.954875837096438,-5.577749008273175,6.821054256538907e-08
2025-06-16 19:25:15.568,2.077650947772677,-12.402736255318382,-10.325085343004035,6.843515549464013e-08
2025-06-16 19:25:15.572,1.6915103505954088,-16.559584251417245,-14.868073936236256,6.864343504602867e-08
2025-06-16 19:25:15.576,1.286731212682151,-20.543772017882887,-19.25704084060592,6.883536601176072e-08
2025-06-16 19:25:15.580,0.959353189681998,-24.723372711049475,-23.76401955677114,6.901419496347405e-08
2025-06-16 19:25:15.584,0.6644788201954601,-29.1280071473814,-28.463528362548463,6.91806624282152e-08
2025-06-16 19:25:15.588,0.2968185898651186,-33.43024397052639,-33.13342541596298,6.933182094796315e-08
2025-06-16 19:25:15.592,-0.102324963918048,-37.46526071370488,-37.56758571290018,6.946646418748759e-08
2025-06-16 19:25:15.596,-0.3812795979780859,-41.55989551244634,-41.94117514570263,6.958731228279622e-08
2025-06-16 19:25:15.600,-0.5205663571907508,-46.056086304145765,-46.5766526965778,6.969620014512998e-08
2025-06-16 19:25:15.603,-0.6948332351028792,-50.68882051629002,-51.38365378655884,6.979107705194912e-08
2025-06-16 19:25:15.607,-1.0644495649615424,-54.9792391898497,-56.04368878993037,6.987000057517537e-08
2025-06-16 19:25:15.611,-1.6081622976289238,-59.0862317004638,-60.69439403320605,6.993470046625141e-08
2025-06-16 19:25:15.615,-2.185799393885146,-63.5205633054986,-65.7063627344645,6.998748788429146e-08
2025-06-16 19:25:15.619,-2.6861763597363693,-68.08634966968275,-70.77252606441466,7.002736075688441e-08
2025-06-16 19:25:15.623,-3.092939143006004,-71.83815844752465,-74.93109762545198,7.005214955961792e-08
2025-06-16 19:25:15.627,-3.4646955949337865,-74.04297853621624,-77.50767416604629,7.00624958452246e-08
2025-06-16 19:25:15.631,-3.873168229756926,-74.69141146226082,-78.564579726882,7.006063685896989e-08
2025-06-16 19:25:15.635,-4.358465780164634,-74.27660319079301,-78.63506900573387,7.004660569270438e-08
2025-06-16 19:25:15.639,-4.9777486299676905,-73.41516904497081,-78.39291770961489,7.0018634681272e-08
2025-06-16 19:25:15.643,-5.82111533406226,-72.49835952018805,-78.31947488887138,6.997658132152614e-08
2025-06-16 19:25:15.646,-6.747978028259053,-71.74198884725277,-78.4899669100928,6.99221691639295e-08
2025-06-16 19:25:15.650,-7.150237720296881,-71.61160253927805,-78.76184029407172,6.985605378783226e-08
2025-06-16 19:25:15.654,-6.43926243928688,-72.32864115239678,-78.76790362606413,6.977710502683297e-08
2025-06-16 19:25:15.658,-4.883547729325686,-72.587796766863,-77.47134453047791,6.968475776145813e-08
2025-06-16 19:25:15.662,-3.4718367436653725,-70.17012987147494,-73.64196664936884,6.957999513475885e-08
2025-06-16 19:25:15.666,-2.842072196506136,-64.65137836704673,-67.49345059770164,6.9463588911628e-08
2025-06-16 19:25:15.670,-2.7984880551599614,-58.27690822975144,-61.07539631894021,6.933504659037025e-08
2025-06-16 19:25:15.674,-2.8357572915476803,-53.5931921560104,-56.42894948146437,6.919384163662759e-08
2025-06-16 19:25:15.678,-2.6859244621710614,-51.31091486865515,-53.99683936464142,6.904039984227346e-08
2025-06-16 19:25:15.682,-2.4298603008017703,-50.61991760090046,-53.04977793543633,6.887532921861567e-08
2025-06-16 19:25:15.686,-2.356733443565961,-50.51192289544423,-52.86865637263236,6.869862605973977e-08
2025-06-16 19:25:15.689,-2.613984026143824,-50.59819672891686,-53.21218078854354,6.85100863551394e-08
2025-06-16 19:25:15.693,-2.9603419939549998,-51.10031238499997,-54.06065441231286,6.830978806751405e-08
2025-06-16 19:25:15.697,-3.0542454085585806,-52.1187881520953,-55.17303359391617,6.80978558415548e-08
2025-06-16 19:25:15.701,-2.8804321649237257,-53.06196465288489,-55.94239685096954,6.787429487490386e-08
2025-06-16 19:25:15.705,-2.6392392705341137,-53.1065186300407,-55.74575793359757,6.763919077284132e-08
2025-06-16 19:25:15.709,-2.367726084230533,-52.10554341850378,-54.47326953560501,6.73926029875414e-08
2025-06-16 19:25:15.713,-1.9627120027023488,-50.695402714328246,-52.65811474977863,6.713431696415634e-08
2025-06-16 19:25:15.717,-1.4625524470013285,-49.42374441057825,-50.88629689022826,6.686420444956997e-08
2025-06-16 19:25:15.721,-1.0037924106579967,-47.9753101733606,-48.979102616541454,6.658264190249517e-08
2025-06-16 19:25:15.725,-0.5357717267680498,-45.5025720084379,-46.03834376756359,6.628999414546393e-08
2025-06-16 19:25:15.728,0.117596869555731,-41.71014834335368,-41.59255150600103,6.598596510252551e-08
2025-06-16 19:25:15.732,0.8490142223409216,-37.38239332761938,-36.53337913736989,6.567016479987512e-08
2025-06-16 19:25:15.736,1.2191394720751745,-33.841731555290366,-32.62259211519407,6.534299928687914e-08
2025-06-16 19:25:15.740,0.9904092163617906,-32.10524198415614,-31.11483279961049,6.500513277699708e-08
2025-06-16 19:25:15.744,0.4787065803030114,-32.41179293740032,-31.933086388732285,6.465634913977399e-08
2025-06-16 19:25:15.748,0.1733832267482786,-34.1448795951722,-33.971496399921826,6.429596053472754e-08
2025-06-16 19:25:15.752,0.1856178806709432,-36.23827537463684,-36.05265752535604,6.392416365448537e-08
2025-06-16 19:25:15.756,0.2684063182313103,-37.93807969208492,-37.66967340509521,6.354185805741339e-08
2025-06-16 19:25:15.760,0.2613274008020055,-39.09622086031064,-38.83489349055625,6.314915292499492e-08
2025-06-16 19:25:15.764,0.3230583289544637,-39.657236895345264,-39.33417859727048,6.274527147194852e-08
2025-06-16 19:25:15.768,0.7182597293165071,-39.24711242712033,-38.52885272856652,6.233009671360728e-08
2025-06-16 19:25:15.771,1.4687900468963626,-37.532480129619984,-36.06369011335432,6.190456655248027e-08
2025-06-16 19:25:15.775,2.2995533157517656,-34.68321597948221,-32.38366269417104,6.146915938275587e-08
2025-06-16 19:25:15.779,2.9475159731473504,-31.190099704949105,-28.24258376204845,6.102319800930088e-08
2025-06-16 19:25:15.783,3.4196248522944748,-27.374867999209453,-23.95524317702145,6.056624668888851e-08
2025-06-16 19:25:15.787,3.856960047281935,-23.2564406667247,-19.399480649424824,6.009908266106205e-08
2025-06-16 19:25:15.791,4.249785071385349,-18.90965260979029,-14.65986756821211,5.962249565956093e-08
2025-06-16 19:25:15.795,4.438733145863505,-14.940763983173069,-10.502030866909926,5.913609711680829e-08
2025-06-16 19:25:15.799,4.360946531130708,-12.33740523404764,-7.976458732347223,5.8639269603552866e-08
2025-06-16 19:25:15.803,4.141325846188121,-11.524237744537077,-7.382911927647436,5.81325059775736e-08
2025-06-16 19:25:15.807,3.9152115583458,-11.841458690852146,-7.92624716164727,5.7616740685071164e-08
2025-06-16 19:25:15.811,3.709711937677276,-12.326011934150992,-8.616300025411281,5.709193494488121e-08
2025-06-16 19:25:15.814,3.571301551321084,-12.629489907142476,-9.05818838456272,5.655744893970476e-08
2025-06-16 19:25:15.818,3.6421486580600986,-12.779131348163215,-9.136982718690248,5.601344927131453e-08
2025-06-16 19:25:15.822,3.955714515763008,-12.564800588454046,-8.609086101129407,5.546082044091154e-08
2025-06-16 19:25:15.826,4.286896532706036,-11.792301246126254,-7.505404741670794,5.489984109543968e-08
2025-06-16 19:25:15.830,4.408167032800997,-10.838572113810166,-6.43040510904924,5.4330023820205225e-08
2025-06-16 19:25:15.834,4.408504086875748,-10.349306292974816,-5.940802233953044,5.375129436943088e-08
2025-06-16 19:25:15.838,4.523628940664395,-10.480599270849767,-5.956970357883277,5.3164349098923814e-08
2025-06-16 19:25:15.842,4.721761785888575,-10.864519153606889,-6.142757395247762,5.2569656943629064e-08
2025-06-16 19:25:15.846,4.76508423184643,-11.265112078969874,-6.500027874445175,5.1966969654650475e-08
2025-06-16 19:25:15.850,4.653462594806795,-11.910973876885588,-7.257511309183854,5.135614228211015e-08
2025-06-16 19:25:15.853,4.631091663861923,-13.122192865058564,-8.491101228121234,5.0737715280080906e-08
2025-06-16 19:25:15.857,4.710572566301204,-14.845950965953124,-10.13537842642066,5.011227590551141e-08
2025-06-16 19:25:15.861,4.600344322387008,-16.729449891275863,-12.129105595468008,4.947982183509454e-08
2025-06-16 19:25:15.865,4.230981241352158,-18.569040661142708,-14.338059446133938,4.884019363305908e-08
2025-06-16 19:25:15.869,3.9570372698434726,-20.470410840169773,-16.51337359645255,4.8193687589051425e-08
2025-06-16 19:25:15.873,4.0267440966619485,-22.501229628706568,-18.474485558012333,4.7540802511898484e-08
2025-06-16 19:25:15.877,4.196338348621168,-24.393154367169743,-20.196816044353227,4.68816942851746e-08
2025-06-16 19:25:15.881,4.150913358817942,-25.841471621749147,-21.690558288499748,4.6216276375573876e-08
2025-06-16 19:25:15.885,4.010668458915943,-27.08703143614391,-23.076363002540493,4.5544660249245056e-08
2025-06-16 19:25:15.889,4.04791498460504,-28.898877965597027,-24.85096300612471,4.48671678266949e-08
2025-06-16 19:25:15.893,4.135520569399783,-31.727621627298166,-27.592101082893112,4.418402634092128e-08
2025-06-16 19:25:15.896,3.954654621196634,-34.984977944816514,-31.03032334839861,4.3495314630031154e-08
2025-06-16 19:25:15.900,3.65827680431283,-37.44748663174613,-33.78920985192659,4.28011510941856e-08
2025-06-16 19:25:15.904,3.8203410959056727,-38.35029548960229,-34.52995441797317,4.21017427896175e-08
2025-06-16 19:25:15.908,4.607555001596186,-37.820432017289306,-33.21287703984541,4.139729357158204e-08
2025-06-16 19:25:15.912,5.396600932544228,-36.37602012657089,-30.979419217998636,4.068799298726848e-08
2025-06-16 19:25:15.916,5.564537989570015,-34.572362605551405,-29.007824639657475,3.9974036673999306e-08
2025-06-16 19:25:15.920,5.521140261698062,-33.25621496416561,-27.73507472588293,3.9255576365487055e-08
2025-06-16 19:25:15.924,6.298803084845125,-33.296554116375034,-26.997751054817044,3.85327425887208e-08
2025-06-16 19:25:15.928,7.649239518984858,-34.123432523017144,-26.474193027180345,3.7805770010856025e-08
2025-06-16 19:25:15.932,7.330394671026065,-33.154927742990154,-25.82453309482901,3.7074957699200494e-08
2025-06-16 19:25:15.936,3.591699926199152,-28.32351397574485,-24.731814072110726,3.634045192610477e-08
2025-06-16 19:25:15.939,-2.1283791197520383,-20.98166929431992,-23.11004843648688,3.5602254909101866e-08
2025-06-16 19:25:15.943,-6.700682180122037,-14.541985803917196,-21.242668006351224,3.4860515571136844e-08
2025-06-16 19:25:15.947,-9.081270816309273,-10.672440999516477,-19.75371183788828,3.4115586867308844e-08
2025-06-16 19:25:15.951,-10.667576230785086,-8.71571105738182,-19.3832873099056,3.3367701139536984e-08
2025-06-16 19:25:15.955,-12.320350377693792,-7.916823632644546,-20.23717403189327,3.261685042477857e-08
2025-06-16 19:25:15.959,-13.161882190536902,-7.927985060501863,-21.089867272513736,3.1863134237359723e-08
2025-06-16 19:25:15.963,-12.58302297755458,-7.701331748098889,-20.28435474692608,3.11069548995833e-08
2025-06-16 19:25:15.967,-12.136625356402153,-5.731686295446753,-17.868311672795667,3.034867458926774e-08
2025-06-16 19:25:15.971,-14.715256094565746,-1.335174907060179,-16.050431022353475,2.9588338093446146e-08
2025-06-16 19:25:15.975,-21.390929127888093,4.677714823029283,-16.713214325513054,2.8825968214323677e-08
2025-06-16 19:25:15.978,-28.976789608377825,9.92487953644847,-19.05191009243146,2.806189639380836e-08
2025-06-16 19:25:15.982,-32.3466260362365,11.552958572816951,-20.793667483616268,2.7296515739910213e-08
2025-06-16 19:25:15.986,-30.254585666429747,8.689065785619572,-21.565519900760847,2.6529897981089765e-08
2025-06-16 19:25:15.990,-26.80651621876004,3.16747268764152,-23.63904355098867,2.57619809198593e-08
2025-06-16 19:25:15.994,-26.007190600171864,-2.7514745814722725,-28.758665201405925,2.4993001805931072e-08
2025-06-16 19:25:15.998,-27.44081975670129,-8.065480937322352,-35.5063007135176,2.4223393783859715e-08
2025-06-16 19:25:16.002,-28.501348410996044,-12.546362055369048,-41.04771048560157,2.3453330362956488e-08
2025-06-16 19:25:16.006,-28.235796540507074,-16.318003938683784,-44.55380049833108,2.2682740114498296e-08
2025-06-16 19:25:16.010,-27.52910247920386,-19.70963827369531,-47.23874077196109,2.1911759381343574e-08
2025-06-16 19:25:16.014,-27.15370570592882,-22.42614947620303,-49.57985520097036,2.1140809675703086e-08
2025-06-16 19:25:16.018,-26.96257006031512,-23.310054324560262,-50.27262440346156,2.0370181730719443e-08
2025-06-16 19:25:16.021,-26.478078094288698,-21.349205260370205,-47.82728337313287,1.959988257465035e-08
2025-06-16 19:25:16.025,-25.530814883542213,-16.430581287269106,-41.961396189223095,1.8829996195807077e-08
2025-06-16 19:25:16.029,-24.368861198970837,-9.212426382585807,-33.58128759978718,1.8060895295244423e-08
2025-06-16 19:25:16.033,-23.39978795065155,-0.7973745060282615,-24.197162474676908,1.7292950070890628e-08
2025-06-16 19:25:16.037,-22.79285826185543,7.743717309026435,-15.049140970705562,1.6526283502334358e-08
2025-06-16 19:25:16.041,-22.32637216702245,16.010274496614045,-6.316097688230139,1.5760992153448074e-08
2025-06-16 19:25:16.045,-21.794120564465597,24.12626044824645,2.3321398661065853,1.4997395131614473e-08
2025-06-16 19:25:16.049,-21.46081545992136,31.632705447783767,10.171889970396135,1.4235862584668816e-08
2025-06-16 19:25:16.053,-21.701946193229244,37.089546351298125,15.387600140720275,1.3476556495002992e-08
2025-06-16 19:25:16.057,-22.122220765136035,39.308229792923626,17.18600901048675,1.271954357740898e-08
2025-06-16 19:25:16.061,-21.5348938188817,38.457278439608544,16.92238460354756,1.1965060601460549e-08
2025-06-16 19:25:16.064,-19.18791356906677,35.37737046212028,16.189456876057847,1.121347961336746e-08
2025-06-16 19:25:16.068,-15.7019247274045,30.48477058475879,14.782845840465969,1.0465069326340386e-08
2025-06-16 19:25:16.072,-12.41273080619652,24.248521936087435,11.835791113038123,9.719965777821242e-09
2025-06-16 19:25:16.076,-10.067572534740258,18.067697861548183,8.000125310053871,8.978361738042735e-09
2025-06-16 19:25:16.080,-8.503189336588097,13.368301958230486,4.865112605052966,8.240568639565679e-09
2025-06-16 19:25:16.084,-7.251730938634517,10.161567717757915,2.909836762631098,7.506873272779604e-09
2025-06-16 19:25:16.088,-6.174751444876588,7.469188843663345,1.294437382312755,6.777462103162918e-09
2025-06-16 19:25:16.092,-5.782201334080542,4.499227756504563,-1.282973593977923,6.052526960909965e-09
2025-06-16 19:25:16.096,-6.650999203188902,1.0129098923340178,-5.638089327109329,5.332340963658752e-09
2025-06-16 19:25:16.100,-7.774441226956899,-1.4580950025440298,-9.232536245664487,4.617174392793343e-09
2025-06-16 19:25:16.103,-6.403323073910958,1.556165449290772,-4.847157640784478,3.907212773854096e-09
2025-06-16 19:25:16.107,-1.380432705608131,13.728609545416209,12.348176823681085,3.2026060502808563e-09
2025-06-16 19:25:16.111,4.276539809194218,31.7971739145332,36.07371370772583,2.5035317721181115e-09
2025-06-16 19:25:16.115,6.5054848328920105,46.97668993335995,53.48217475033875,1.8101676054578241e-09
2025-06-16 19:25:16.119,5.062758972642628,53.852051914489415,58.91481087120304,1.122649663463598e-09
2025-06-16 19:25:16.123,3.163112517785557,54.77496608689451,57.93807858874749,4.4108466964987726e-10
2025-06-16 19:25:16.127,3.31937011467295,55.12958273826708,58.44895283709988,-2.344265893859519e-10
2025-06-16 19:25:16.131,5.19937850065027,57.47659795385781,62.67597643875213,-9.037838675730923e-10
2025-06-16 19:25:16.135,6.843231168824801,60.934830608084745,67.77806176113029,-1.5668833497092616e-09
2025-06-16 19:25:16.139,6.979079864719118,63.87749110202831,70.85657095092475,-2.2236278054737732e-09
2025-06-16 19:25:16.143,6.175613160189814,65.87044676975066,72.04605991416526,-2.8739598813159167e-09
2025-06-16 19:25:16.146,5.795606820278027,67.35702026187691,73.1526270664511,-3.5178594494126806e-09
2025-06-16 19:25:16.150,6.155321545067907,68.3571866130093,74.51250814235057,-4.155273528450794e-09
2025-06-16 19:25:16.154,6.403134732171136,68.38696521654742,74.79009993291884,-4.786078314382889e-09
2025-06-16 19:25:16.158,6.078832696197786,67.55429035839076,73.63312303878484,-5.410160771582542e-09
2025-06-16 19:25:16.162,5.812119475752519,66.56694581587482,72.37906527586821,-6.027507536910807e-09
2025-06-16 19:25:16.166,6.151254508946127,65.43213029475748,71.5833847879237,-6.6381468957482165e-09
2025-06-16 19:25:16.170,6.60930579311712,63.30784710942779,69.9171528866776,-7.242024192604582e-09
2025-06-16 19:25:16.174,6.578258700731225,59.98538990373542,66.56364858854705,-7.839010549069307e-09
2025-06-16 19:25:16.178,6.452013144685061,56.40093059379242,62.8529437225606,-8.429028722138172e-09
2025-06-16 19:25:16.182,6.910149605884802,53.1507257823266,60.06087537226789,-9.012086350099161e-09
2025-06-16 19:25:16.186,7.616498612129505,49.49178892904243,57.10828752513907,-9.588173814630906e-09
2025-06-16 19:25:16.189,7.595234374751853,44.68447944263058,52.27971380126058,-1.0157225852509848e-08
2025-06-16 19:25:16.193,6.568986886092615,39.72819157002134,46.29717843994431,-1.0719222997697452e-08
2025-06-16 19:25:16.197,5.127861496842913,36.42234096761312,41.55020244823999,-1.1274235550208809e-08
2025-06-16 19:25:16.201,3.820494912606118,34.08108744715524,37.90158234345941,-1.18223039356683e-08
2025-06-16 19:25:16.205,2.5568560406236136,28.128437858695985,30.68529388290991,-1.2363358437386988e-08
2025-06-16 19:25:16.209,0.5838057133850568,13.967517073893244,14.551322770773284,-1.2897330952546131e-08
2025-06-16 19:25:16.213,-2.850536947137209,-7.07798410085077,-9.928521064573852,-1.3424266498501384e-08
2025-06-16 19:25:16.217,-6.938495860540731,-27.63816810943014,-34.576663986644576,-1.3944236478887737e-08
2025-06-16 19:25:16.221,-8.969445991475801,-41.22018173427633,-50.18962774253747,-1.4457216854812693e-08
2025-06-16 19:25:16.225,-7.080150109945572,-46.81112346897386,-53.89127359583552,-1.4963152486783848e-08
2025-06-16 19:25:16.228,-2.757971618185189,-45.66014274680301,-48.41811438202833,-1.5462080041239793e-08
2025-06-16 19:25:16.232,0.8134191445987721,-37.9821599220478,-37.16874079459171,-1.5954083364612074e-08
2025-06-16 19:25:16.236,2.017986716835904,-25.692391967398255,-23.67440526781381,-1.6439169041738856e-08
2025-06-16 19:25:16.240,1.4487222444332983,-14.323712354129352,-12.874990127096158,-1.6917284159890353e-08
2025-06-16 19:25:16.244,0.4674099544032045,-8.726303270010742,-8.258893333172189,-1.7388430375591063e-08
2025-06-16 19:25:16.248,-0.0940659375168592,-9.161430539794132,-9.255496495004252,-1.7852663247457416e-08
2025-06-16 19:25:16.252,-0.3942913439651865,-13.101624151050505,-13.49591551281523,-1.830999150629779e-08
2025-06-16 19:25:16.256,-0.876239389984397,-18.03034735832034,-18.906586766253973,-1.876036773003548e-08
2025-06-16 19:25:16.260,-1.115499659779168,-21.362881238871037,-22.478380916792727,-1.920376627866516e-08
2025-06-16 19:25:16.264,-0.1805845624253647,-20.389517871986904,-20.57010245271542,-1.964018688150351e-08
2025-06-16 19:25:16.268,1.737617216058141,-13.93099383198522,-12.193376634340195,-2.006959513577861e-08
2025-06-16 19:25:16.271,3.1885216873591467,-3.1615992211927235,0.0269224476130736,-2.049193050379498e-08
2025-06-16 19:25:16.275,3.3349319039385894,9.321816751813834,12.656748636992054,-2.090716184340964e-08
2025-06-16 19:25:16.279,2.9249814971379458,20.513979915229143,23.438961393414225,-2.1315282559039548e-08
2025-06-16 19:25:16.283,2.941077805302577,28.00522390929132,30.94630169551931,-2.1716266453875666e-08
2025-06-16 19:25:16.287,3.2175994708959594,31.51480680990114,34.732406261596125,-2.211007760578383e-08
2025-06-16 19:25:16.291,2.9562276863123085,32.925329495727304,35.88155716263394,-2.2496714424652862e-08
2025-06-16 19:25:16.295,1.9332660932988996,33.67414450988347,35.60741058355999,-2.2876197723249047e-08
2025-06-16 19:25:16.299,0.5925497473226643,32.9280353635904,33.52058509115213,-2.3248513633288152e-08
2025-06-16 19:25:16.303,-0.8805077001842002,28.83435421839044,27.9538464983331,-2.3613605259517523e-08
2025-06-16 19:25:16.307,-3.1516798894585683,19.68065719950084,16.52897728998101,-2.3971427226534045e-08
2025-06-16 19:25:16.311,-6.852821641096532,3.9620852388084655,-2.8907364225777945,-2.432197807056011e-08
2025-06-16 19:25:16.314,-10.879188130791352,-16.91810542913307,-27.79729358037077,-2.4665270329714172e-08
2025-06-16 19:25:16.318,-12.665959926069077,-35.88476035439359,-48.550720301009626,-2.5001294171882144e-08
2025-06-16 19:25:16.322,-11.163474571169058,-44.80036174818358,-55.96383634006117,-2.533002337559409e-08
2025-06-16 19:25:16.326,-8.364367724750771,-42.59240052299218,-50.9567682686781,-2.5651440843437263e-08
2025-06-16 19:25:16.330,-6.728155615218154,-35.47364844909157,-42.201804085417805,-2.5965538134084188e-08
2025-06-16 19:25:16.334,-6.440674262469695,-29.600986737736903,-36.04166102140866,-2.6272293416283983e-08
2025-06-16 19:25:16.338,-6.295892753944753,-26.55284609748165,-32.84873887275889,-2.657167303440904e-08
2025-06-16 19:25:16.342,-5.829990514009061,-25.159385065979095,-30.989375601532856,-2.6863660057975325e-08
2025-06-16 19:25:16.346,-5.437281888275402,-24.48660541363998,-29.92388732364548,-2.7148264854749534e-08
2025-06-16 19:25:16.350,-5.397306429428539,-24.410481409601164,-29.807787860853416,-2.7425505605980904e-08
2025-06-16 19:25:16.353,-5.683518935577213,-25.0209485053234,-30.704467462823413,-2.7695386601060083e-08
2025-06-16 19:25:16.357,-6.1628686558434325,-26.31836833423554,-32.48123701218782,-2.7957887057662362e-08
2025-06-16 19:25:16.361,-6.550192054120343,-28.03619684895987,-34.58638892537825,-2.8212966874768444e-08
2025-06-16 19:25:16.365,-6.6119414497556575,-29.60256788413417,-36.21450935628444,-2.846060064795897e-08
2025-06-16 19:25:16.369,-6.521125008229798,-30.56531618749302,-37.0864412181885,-2.8700807324792264e-08
2025-06-16 19:25:16.373,-6.555256176267518,-30.989450112918018,-37.54470631180223,-2.893362563944752e-08
2025-06-16 19:25:16.377,-6.559676645857668,-31.22900540988149,-37.78868207853684,-2.91590673064026e-08
2025-06-16 19:25:16.381,-6.258011616854202,-31.48561373276451,-37.74362537251578,-2.937711892817408e-08
2025-06-16 19:25:16.385,-5.878787708903575,-31.75526501417077,-37.63405274602137,-2.958777667689477e-08
2025-06-16 19:25:16.389,-5.82489532781966,-31.90422775118093,-37.72912310206118,-2.9791046023478456e-08
2025-06-16 19:25:16.393,-5.934411459361974,-31.595855726669463,-37.53026720925351,-2.998690806139589e-08
2025-06-16 19:25:16.396,-5.7629585962342205,-30.54158209110151,-36.3045407106557,-3.017531619598234e-08
2025-06-16 19:25:16.400,-5.398100237585145,-29.033816855750345,-34.43191711669016,-3.0356238073579695e-08
2025-06-16 19:25:16.404,-5.26531505710202,-27.70986388861211,-32.97517896914684,-3.0529676568289014e-08
2025-06-16 19:25:16.408,-5.331366278361889,-26.76070732150086,-32.09207362342855,-3.06956329842936e-08
2025-06-16 19:25:16.412,-5.287759727455093,-26.382834340269667,-31.670594091378213,-3.085407406988012e-08
2025-06-16 19:25:16.416,-5.227236596000108,-27.65212376494759,-32.879360384621364,-3.100495768843052e-08
2025-06-16 19:25:16.420,-5.108296185133213,-30.324510761191046,-35.43280697004345,-3.1148268875247126e-08
2025-06-16 19:25:16.424,-3.944091284895764,-29.607347897239958,-33.55143920595516,-3.1284001588572306e-08
2025-06-16 19:25:16.428,-1.0124006323713572,-19.57248820075041,-20.584888857010768,-3.1412120858526644e-08
2025-06-16 19:25:16.432,2.4297068372893422,-1.5254847719575748,0.9042220414394552,-3.153257593133414e-08
2025-06-16 19:25:16.436,4.372472072975054,15.529463009752542,19.90193505881992,-3.164533932994898e-08
2025-06-16 19:25:16.439,4.715815368771095,24.62212980539246,29.337945150187934,-3.1750395929199133e-08
2025-06-16 19:25:16.443,5.055106820732638,26.975516302117768,32.03062309882614,-3.184769888033026e-08
2025-06-16 19:25:16.447,6.250275007944614,27.76517299944003,34.01544798337628,-3.193716994398389e-08
2025-06-16 19:25:16.451,7.687465660688385,29.92044888850566,37.60791452520049,-3.2018743745843133e-08
2025-06-16 19:25:16.455,8.572422135987615,32.96093478342797,41.53335689538535,-3.209239087579799e-08
2025-06-16 19:25:16.459,8.875754011129878,35.20590984885891,44.08166383592908,-3.2158095362674696e-08
2025-06-16 19:25:16.463,9.125634572368645,36.19813552755959,45.32377007590188,-3.22158265569259e-08
2025-06-16 19:25:16.467,9.744961152878378,37.34168922250964,47.08665035140668,-3.2265546659777746e-08
2025-06-16 19:25:16.471,10.613952124032243,39.92441172806443,50.53836382811053,-3.230723793820568e-08
2025-06-16 19:25:16.475,11.277636754848633,43.158348628283576,54.43598535913227,-3.234091444422581e-08
2025-06-16 19:25:16.478,11.538531797694748,45.4176705376739,56.95620231141159,-3.2366615323262284e-08
2025-06-16 19:25:16.482,11.622030183520144,46.76771883372189,58.38974899335558,-3.2384388588822674e-08
2025-06-16 19:25:16.486,11.780404276052742,48.611672545603774,60.39207679779939,-3.2394276094224025e-08
2025-06-16 19:25:16.490,12.008134040212552,51.223773739328,63.23190775568641,-3.23963171828829e-08
2025-06-16 19:25:16.494,12.153139220654472,53.39548687800108,65.54862607484671,-3.239056902846597e-08
2025-06-16 19:25:16.498,12.13084112435172,54.40961846475113,66.54045956538025,-3.2377114791563965e-08
2025-06-16 19:25:16.502,12.054663918455864,54.71341867386673,66.76808256866212,-3.2356043681678754e-08
2025-06-16 19:25:16.506,12.162630547016764,54.652182283189,66.81481280657158,-3.232742787535893e-08
2025-06-16 19:25:16.510,12.551286323485296,54.05946908246132,66.61075538235977,-3.2291324152527915e-08
2025-06-16 19:25:16.514,13.185431316812908,53.17925689423305,66.36468818755014,-3.2247789815414896e-08
2025-06-16 19:25:16.518,14.11033730608573,52.80960657653962,66.91994385921859,-3.2196891304005844e-08
2025-06-16 19:25:16.521,15.026119304562338,53.50626425412141,68.53238353533305,-3.2138707456646635e-08
2025-06-16 19:25:16.525,14.837356273804012,55.28977619939928,70.12713244990667,-3.2073336830261265e-08
2025-06-16 19:25:16.529,12.77260593480914,57.76527009944128,70.53787601104119,-3.2000898461049546e-08
2025-06-16 19:25:16.533,9.858771702855693,60.074162258839024,69.93293393859093,-3.192151629769189e-08
2025-06-16 19:25:16.537,8.025952165478323,61.22367677658438,69.24962891904642,-3.1835308884281425e-08
2025-06-16 19:25:16.541,7.856210778014624,60.848135092600565,68.70434584766721,-3.1742393871762984e-08
2025-06-16 19:25:16.545,8.290466333202843,59.48117498274034,67.77164129307668,-3.1642881390128585e-08
2025-06-16 19:25:16.549,8.284984115743196,58.0633040748735,66.34828816786109,-3.153685674981697e-08
2025-06-16 19:25:16.553,7.7832218423466095,57.15855785397214,64.94177967367852,-3.14243811968197e-08
2025-06-16 19:25:16.557,7.226265975513747,56.44756481573975,63.67383076870382,-3.130550472152432e-08
2025-06-16 19:25:16.561,6.874024571643465,55.13425467797395,62.008279227147085,-3.1180266378535534e-08
2025-06-16 19:25:16.564,6.683083463023601,53.05964730655413,59.74273074721411,-3.104869535525813e-08
2025-06-16 19:25:16.568,6.470854156202901,51.00414623847989,57.475000372453096,-3.091083297436224e-08
2025-06-16 19:25:16.572,6.111519043939614,49.548268056104,55.659787077930936,-3.07667476871725e-08
2025-06-16 19:25:16.576,5.692345176353697,48.21534102981197,53.90768618413799,-3.0616516468191115e-08
2025-06-16 19:25:16.580,5.415541820759453,46.30709850000975,51.72264029883932,-3.0460206014918165e-08
2025-06-16 19:25:16.584,5.273599121963411,44.016796809348165,49.29039590952221,-3.029788572120459e-08
2025-06-16 19:25:16.588,5.0220727020437295,41.99875291468042,47.0208255950764,-3.012964324976076e-08
2025-06-16 19:25:16.592,4.595387609861238,40.34479747429668,44.94018506260895,-2.9955573875927134e-08
2025-06-16 19:25:16.596,4.2723745321706215,38.8017556901038,43.07413020081515,-2.9775771138649977e-08
2025-06-16 19:25:16.600,4.244799388939038,37.60117663560386,41.84597600321917,-2.959034138733886e-08
2025-06-16 19:25:16.603,4.307826774928768,37.20542400762698,41.51325076139017,-2.9399411818251253e-08
2025-06-16 19:25:16.607,4.18780288328288,37.410750393110966,41.59855325534554,-2.9203113227820122e-08
2025-06-16 19:25:16.611,3.9251220226362182,37.439374027915065,41.36449602958892,-2.900156567360505e-08
2025-06-16 19:25:16.615,3.739388229231172,36.910481354663375,40.64986956305451,-2.8794882108535516e-08
2025-06-16 19:25:16.619,3.7064286864943514,36.19240461346138,39.89883327927923,-2.858317031562429e-08
2025-06-16 19:25:16.623,3.726523022056349,35.73864768571228,39.465170687227726,-2.8366528351579306e-08
2025-06-16 19:25:16.627,3.7014976402678648,35.470159404442256,39.1716570242565,-2.814505359318972e-08
2025-06-16 19:25:16.631,3.620735410075351,34.97139513308346,38.59213052281054,-2.7918859110694e-08
2025-06-16 19:25:16.635,3.5084671197475275,34.06750311386968,37.57597021342714,-2.7688066138857348e-08
2025-06-16 19:25:16.639,3.392571839087477,33.00042545446857,36.392997273516286,-2.745277957449144e-08
2025-06-16 19:25:16.643,3.3371541033244334,32.1039694329954,35.44112351637341,-2.7213081291996897e-08
2025-06-16 19:25:16.646,3.3961521849653007,31.478775226673616,34.874927391780446,-2.696904225091697e-08
2025-06-16 19:25:16.650,3.502020779312892,31.011958277185,34.51397903678351,-2.672073523590192e-08
2025-06-16 19:25:16.654,3.510616542699379,30.591211453064044,34.10182797620922,-2.646824705920704e-08
2025-06-16 19:25:16.658,3.3840889662640743,30.17664972013008,33.560738666943465,-2.621168111190676e-08
2025-06-16 19:25:16.662,3.2280223736589435,29.658956387879037,32.8869787421593,-2.5951134280052738e-08
2025-06-16 19:25:16.666,3.1484704622086386,28.798875840760264,31.947346283711937,-2.568667455781736e-08
2025-06-16 19:25:16.670,3.180450393320293,27.45708746978028,30.637537844006943,-2.5418356755658223e-08
2025-06-16 19:25:16.674,3.3362673474902738,25.81618086284677,29.15244819136125,-2.5146254409782447e-08
2025-06-16 19:25:16.678,3.596794188272188,24.241549216174143,27.838343385531257,-2.487046830328454e-08
2025-06-16 19:25:16.682,3.8617035633517927,23.003500347181586,26.8652038917108,-2.4591112623493754e-08
2025-06-16 19:25:16.686,4.015304163761005,22.192042017345244,26.20734616244049,-2.430829141989649e-08
2025-06-16 19:25:16.689,4.050161347453103,21.669517011579902,25.71967834050225,-2.4022081876280983e-08
2025-06-16 19:25:16.693,4.1141626611732125,21.012725595849744,25.12688823855139,-2.373254881145049e-08
2025-06-16 19:25:16.697,4.486492036068045,19.794093038808576,24.28058505646626,-2.343977454795816e-08
2025-06-16 19:25:16.701,5.390169502512602,18.024662161645637,23.414831645885343,-2.314386355044256e-08
2025-06-16 19:25:16.705,6.620593212385598,16.04194561491325,22.66253880917508,-2.2844930568268063e-08
2025-06-16 19:25:16.709,7.531574916041738,13.876514253739648,21.40808915172595,-2.254310478807304e-08
2025-06-16 19:25:16.713,7.692629229988096,11.00392650406054,18.696555716026836,-2.2238534066789744e-08
2025-06-16 19:25:16.717,7.360773101724442,6.921676435904348,14.282449519712657,-2.1931364784878454e-08
2025-06-16 19:25:16.721,7.0502760567243286,1.869437626533717,8.919713665495912,-2.162172854840429e-08
2025-06-16 19:25:16.725,6.931101919951134,-3.247151591962728,3.6839503103123055,-2.1309762654067358e-08
2025-06-16 19:25:16.728,6.853335552483626,-7.698600030869249,-0.8452644960457418,-2.099562707136878e-08
2025-06-16 19:25:16.732,6.654396517847726,-11.529734209760573,-4.875337709507491,-2.0679483050212273e-08
2025-06-16 19:25:16.736,6.291753337398008,-15.26010220214216,-8.968348882194501,-2.036146635224034e-08
2025-06-16 19:25:16.740,5.86309765783234,-19.22082070379722,-13.357723063308132,-2.004170060932811e-08
2025-06-16 19:25:16.744,5.512370297280354,-23.380543583663663,-17.868173303712837,-1.9720324607747567e-08
2025-06-16 19:25:16.748,5.237646575241763,-27.613082699682806,-22.375436141744352,-1.9397479965665906e-08
2025-06-16 19:25:16.752,4.933130392365679,-31.727941475860728,-26.79481110067866,-1.9073281058093703e-08
2025-06-16 19:25:16.756,4.653543482259387,-35.238065645025905,-30.584522179826173,-1.8747823225306125e-08
2025-06-16 19:25:16.760,4.571621409196743,-37.57990415671793,-33.00828276455428,-1.842121783624409e-08
2025-06-16 19:25:16.764,4.629662836803105,-38.81057031921195,-34.180907499445354,-1.8093609891539077e-08
2025-06-16 19:25:16.768,4.544210407819664,-39.74702427817489,-35.20281388730834,-1.7765171707670804e-08
2025-06-16 19:25:16.771,4.221619120866572,-41.11944272921429,-36.89782362517185,-1.7436081228080612e-08
2025-06-16 19:25:16.775,3.88275115468216,-42.80710537328108,-38.9243542353733,-1.710649308597693e-08
2025-06-16 19:25:16.779,3.705066267547184,-44.17746203348131,-40.47239578272456,-1.6776533176561628e-08
2025-06-16 19:25:16.783,3.58950966548185,-44.99581511534731,-41.40630546661214,-1.6446326645999797e-08
2025-06-16 19:25:16.787,3.386169327671189,-45.64813718866846,-42.26196787762571,-1.6116013807218284e-08
2025-06-16 19:25:16.791,3.157632695689537,-46.48227526533924,-43.32464258620443,-1.5785730308760675e-08
2025-06-16 19:25:16.795,3.053602327665316,-47.29217324455019,-44.238570933451626,-1.545558610708794e-08
2025-06-16 19:25:16.799,3.034075437127344,-47.646501107762845,-44.61242568719487,-1.5125670106444698e-08
2025-06-16 19:25:16.803,2.9265054386385776,-47.51061356416741,-44.58410814199731,-1.4796070112845369e-08
2025-06-16 19:25:16.807,2.724490314112592,-47.26612704892396,-44.54163675119053,-1.4466885316150612e-08
2025-06-16 19:25:16.811,2.5974811453990565,-47.159171297590376,-44.56169016856408,-1.4138225416216048e-08
2025-06-16 19:25:16.814,2.5937117368352505,-47.01527441289277,-44.421562692446045,-1.3810209893332216e-08
2025-06-16 19:25:16.818,2.5888962209509754,-46.59481563866847,-44.00591943405095,-1.3482968260799612e-08
2025-06-16 19:25:16.822,2.564346967790284,-45.91123526354845,-43.34688831199867,-1.3156629739046018e-08
2025-06-16 19:25:16.826,2.650733041899698,-44.98592132686996,-42.3351883011773,-1.2831310402567728e-08
2025-06-16 19:25:16.830,2.8301374516892377,-43.69401840177761,-40.863880966317,-1.2507116345063273e-08
2025-06-16 19:25:16.834,2.895518016846229,-42.17946619943609,-39.28394819879972,-1.2184156075323937e-08
2025-06-16 19:25:16.838,2.8071085923660304,-40.94329570999473,-38.13618713375577,-1.1862540421937989e-08
2025-06-16 19:25:16.842,2.794381613464954,-40.13069075122729,-37.3363091538291,-1.1542373164755096e-08
2025-06-16 19:25:16.846,2.972202348901542,-39.25056808309165,-36.27836575026818,-1.1223747718784573e-08
2025-06-16 19:25:16.850,3.134466398069751,-37.98743958975972,-34.852973207779655,-1.0906747034499629e-08
2025-06-16 19:25:16.853,3.094975229169996,-36.73483975460853,-33.63986454146975,-1.0591445755374892e-08
2025-06-16 19:25:16.857,2.9812090757270604,-35.918503413614204,-32.93729435384074,-1.0277918387079124e-08
2025-06-16 19:25:16.861,2.9909819215914197,-35.30225475877217,-32.31127285312355,-9.966237372247165e-09
2025-06-16 19:25:16.865,3.078964052317956,-34.40836873427848,-31.329404697932805,-9.656458794349684e-09
2025-06-16 19:25:16.869,3.115193960685709,-33.269552551107296,-30.154358606368863,-9.348624480396456e-09
2025-06-16 19:25:16.873,3.170548198434512,-32.32927634683845,-29.15872816427128,-9.042781067917856e-09
2025-06-16 19:25:16.877,3.388622881577436,-31.773789354331026,-28.38516648858224,-8.73899192334825e-09
2025-06-16 19:25:16.881,3.703887778096736,-31.371247840852803,-27.667360078615385,-8.437339799155821e-09
2025-06-16 19:25:16.885,3.9342146485562903,-30.96559818967281,-27.0313835569861,-8.137914683672498e-09
2025-06-16 19:25:16.889,4.065864211800465,-30.73285177340938,-26.666987577414005,-7.840784189092341e-09
2025-06-16 19:25:16.893,4.233628275534744,-30.75638188437531,-26.522753624582364,-7.545982959183876e-09
2025-06-16 19:25:16.896,4.490915839070104,-30.65204878477492,-26.16113296146176,-7.253538510085847e-09
2025-06-16 19:25:16.900,4.771295308983628,-29.938906424374878,-25.167611131185723,-6.963495685204811e-09
2025-06-16 19:25:16.904,4.9957829635037525,-28.675533383390427,-23.67975043564569,-6.675912834965249e-09
2025-06-16 19:25:16.908,5.114179155015936,-27.42947820524726,-22.31529906591305,-6.390842299447155e-09
2025-06-16 19:25:16.912,5.201565236010801,-26.46099689220221,-21.259431671860703,-6.1083184693541716e-09
2025-06-16 19:25:16.916,5.531891696512272,-25.065328871032808,-19.533437190238597,-5.8283699395897514e-09
2025-06-16 19:25:16.920,6.169788128703116,-22.36019861492265,-16.19041050193652,-5.551041367163707e-09
2025-06-16 19:25:16.924,6.454426596002744,-19.367701668797714,-12.913275088436253,-5.276391479790933e-09
2025-06-16 19:25:16.928,5.548177147592537,-19.629040420307916,-14.080863288314236,-5.004474758684314e-09
2025-06-16 19:25:16.932,3.658261631363103,-26.174280785688573,-22.516019169966945,-4.735338722488806e-09
2025-06-16 19:25:16.936,1.9014002672338977,-37.79178747335932,-35.89038722179636,-4.4690308924572974e-09
2025-06-16 19:25:16.939,0.8112787166350339,-49.59055496062531,-48.77927625960182,-4.2055953945060895e-09
2025-06-16 19:25:16.943,-0.0176322181822824,-57.31384531026102,-57.331477543989145,-3.945062307293757e-09
2025-06-16 19:25:16.947,-0.7596262186616926,-60.21379217873325,-60.97341841296346,-3.687440938122907e-09
2025-06-16 19:25:16.951,-1.0771430082527909,-60.2194324715776,-61.296575495446966,-3.432727377482001e-09
2025-06-16 19:25:16.955,-1.041945040059634,-59.65024179531905,-60.69218685096101,-3.1809236620295083e-09
2025-06-16 19:25:16.959,-1.0634048718223106,-59.78953703565608,-60.85294192298543,-2.932041205481456e-09
2025-06-16 19:25:16.963,-0.9552747207782394,-60.49530204102277,-61.45057677730679,-2.686076255548091e-09
2025-06-16 19:25:16.967,-0.2522751847931171,-60.44983393333441,-60.7021091336874,-2.442988269745984e-09
2025-06-16 19:25:16.971,0.7430372597745706,-58.26121975567576,-57.518182511454,-2.2027078034214703e-09
2025-06-16 19:25:16.975,1.2605320232340531,-53.92952328406769,-52.66899127631635,-1.9651616521737123e-09
2025-06-16 19:25:16.978,1.1576138625595354,-49.01431400483684,-47.85670015774149,-1.730289978707589e-09
2025-06-16 19:25:16.982,0.9458741611480608,-45.170446832534296,-44.224572686904246,-1.498044470790127e-09
2025-06-16 19:25:16.986,0.9747632905003232,-42.87238274501255,-41.89761947004706,-1.2683828951428883e-09
2025-06-16 19:25:16.990,1.1330471264907196,-41.56999619998123,-40.436949088968944,-1.0412794182616674e-09
2025-06-16 19:25:16.994,1.230301721472911,-40.584317585315056,-39.35401587929447,-8.16733243144706e-10
2025-06-16 19:25:16.998,1.289413225570936,-39.65013039402906,-38.36071718396457,-5.947486668840885e-10
2025-06-16 19:25:17.002,1.3933111249618424,-38.84236533643114,-37.44905422701328,-3.753046179342557e-10
2025-06-16 19:25:17.006,1.4703348698449297,-38.25175537212951,-36.78142051778835,-1.5835050806629908e-10
2025-06-16 19:25:17.010,1.4135193452959842,-37.852693410192224,-36.43917408037339,5.617512283070329e-11
2025-06-16 19:25:17.014,1.292878034526617,-37.683736802454575,-36.39085878346493,2.683351462850401e-10
2025-06-16 19:25:17.018,1.2836849710833518,-37.88862510450305,-36.604940149018105,4.781960993693074e-10
2025-06-16 19:25:17.021,1.4996969438827186,-38.1732205056902,-36.6735235773849,6.85821571656108e-10
2025-06-16 19:25:17.025,2.011236507921938,-37.35839230740176,-35.347155815032245,8.912672020968191e-10
2025-06-16 19:25:17.029,2.886019216583593,-34.09437701004174,-31.208357809078656,1.0945907051588914e-09
2025-06-16 19:25:17.033,4.1495917369290165,-28.083987876122507,-23.934396154906043,1.2958500435075978e-09
2025-06-16 19:25:17.037,5.761086395295546,-20.06416845460783,-14.303082075030607,1.495086130852533e-09
2025-06-16 19:25:17.041,7.418762674774452,-10.589397936454288,-3.170635277374706,1.6923261903022655e-09
2025-06-16 19:25:17.045,8.305715796727466,0.3710437763815652,8.676759557343203,1.8875988102137487e-09
2025-06-16 19:25:17.049,7.659528955824108,12.174079685835048,19.833608625768157,2.0809261991677647e-09
2025-06-16 19:25:17.053,6.064648951467788,22.59800407413403,28.66265300966598,2.2723114812413743e-09
2025-06-16 19:25:17.057,5.408563487115831,29.34388440943532,34.752447880631664,2.461743427717504e-09
2025-06-16 19:25:17.061,6.6592462236752485,32.32417708142806,38.98342328911964,2.6492013384001894e-09
2025-06-16 19:25:17.064,8.35111228349477,33.41904110307059,41.77015337043082,2.8346580467756678e-09
2025-06-16 19:25:17.068,8.353972093081122,34.0897960008257,42.44376807767712,3.0180939258050182e-09
2025-06-16 19:25:17.072,6.485765013389546,34.18631462618056,40.67207962333499,3.1995042331251835e-09
2025-06-16 19:25:17.076,4.223523964604388,32.50579232658289,36.729316274901386,3.3788830354968653e-09
2025-06-16 19:25:17.080,2.513775007623128,27.2182737581776,29.732048749356327,3.556204204414063e-09
2025-06-16 19:25:17.084,1.0446245419147648,16.50442819267396,17.549052717997338,3.731422793352981e-09
2025-06-16 19:25:17.088,-0.7601038756942544,0.367742411792801,-0.3923614805396433,3.9044914273132475e-09
2025-06-16 19:25:17.092,-2.940280723038626,-18.31359902477316,-21.253879764491305,4.075370931952781e-09
2025-06-16 19:25:17.096,-5.096105443653975,-35.086025190606875,-40.182130651085686,4.2440255613620095e-09
2025-06-16 19:25:17.100,-6.87149579582582,-46.239174708415945,-53.11067052125273,4.4104156332531135e-09
2025-06-16 19:25:17.103,-8.261574355702356,-50.764037706074944,-59.02561207889234,4.5744957580013985e-09
2025-06-16 19:25:17.107,-9.422411948800852,-50.91062121083897,-60.33303317680291,4.7362107994144285e-09
2025-06-16 19:25:17.111,-10.282929208973451,-49.89435977077426,-60.17728899702914,4.895501035408782e-09
2025-06-16 19:25:17.115,-10.661749583482496,-48.51545208142882,-59.17720168239404,5.0523231394989636e-09
2025-06-16 19:25:17.119,-10.758874890105762,-45.16253623079851,-55.92141113855228,5.206652912376363e-09
2025-06-16 19:25:17.123,-11.10545141791815,-39.06344229712974,-50.16889373277502,5.358466801890728e-09
2025-06-16 19:25:17.127,-11.919076801640156,-31.787697196307484,-43.70677401576808,5.507741151772824e-09
2025-06-16 19:25:17.131,-12.857435862149536,-25.44276909958664,-38.300204979746425,5.654458019346854e-09
2025-06-16 19:25:17.135,-13.51901397198953,-20.958871335661083,-34.477885325874766,5.798592084971031e-09
2025-06-16 19:25:17.139,-13.894693680151526,-18.26660923667648,-32.161302935183386,5.940108362896066e-09
2025-06-16 19:25:17.143,-14.170457869807128,-16.963566955715862,-31.134024843963807,6.0789777061358245e-09
2025-06-16 19:25:17.146,-14.307944285793294,-16.61940608111901,-30.927350385513403,6.215170151697863e-09
2025-06-16 19:25:17.150,-14.077030100478888,-16.95015986496083,-31.02718998427896,6.348633820354235e-09
2025-06-16 19:25:17.154,-13.424921815170933,-17.725051353117664,-31.149973187321024,6.479302546385924e-09
2025-06-16 19:25:17.158,-12.556094589567932,-18.57307332888733,-31.12916793759174,6.607116070470588e-09
2025-06-16 19:25:17.162,-11.648133734625716,-19.16229350781122,-30.810427261701182,6.732006079239587e-09
2025-06-16 19:25:17.166,-10.695621172740276,-19.34503286415547,-30.040654056394235,6.853872319854463e-09
2025-06-16 19:25:17.170,-9.649194911022713,-18.82988690302767,-28.47908183379785,6.9726058540264024e-09
2025-06-16 19:25:17.174,-8.563406413058534,-17.03997136179434,-25.603377794748344,7.088130739715765e-09
2025-06-16 19:25:17.178,-7.583929221608531,-13.658416460129366,-21.24234570174136,7.200396155729617e-09
2025-06-16 19:25:17.182,-6.831212607087691,-9.143214440963687,-15.97442706826313,7.309339358647856e-09
2025-06-16 19:25:17.186,-6.266978426197918,-4.401117648139276,-10.668096094834569,7.4148788269417564e-09
2025-06-16 19:25:17.189,-5.690294927941009,0.0397173317172196,-5.650577616929676,7.516930386199835e-09
2025-06-16 19:25:17.193,-4.959752095812938,4.316743318617228,-0.6430087980141181,7.615418464761127e-09
2025-06-16 19:25:17.197,-4.182379127374995,8.661646751273818,4.479267602906664,7.710283351086718e-09
2025-06-16 19:25:17.201,-3.523331555002992,12.846247424141282,9.322915847849869,7.801479524283113e-09
2025-06-16 19:25:17.205,-2.885108269056732,16.435339421508495,13.550231130893147,7.888962340948041e-09
2025-06-16 19:25:17.209,-2.0466843685380893,19.350681868309152,17.30399747806897,7.972681904717954e-09
2025-06-16 19:25:17.213,-1.1134462295362737,21.82885255653018,20.7154063051452,8.052594500787781e-09
2025-06-16 19:25:17.217,-0.472742406950083,23.96728379046137,23.49454136137872,8.128679180270981e-09
2025-06-16 19:25:17.221,-0.2168081201942711,25.688538899604307,25.47173075695925,8.200940450414355e-09
2025-06-16 19:25:17.225,0.0329479602623621,27.077786119423997,27.11073405704219,8.269391660043957e-09
2025-06-16 19:25:17.228,0.591051508672864,28.425634888927902,29.016686374817123,8.33403755389363e-09
2025-06-16 19:25:17.232,1.3104608252270586,29.9410576187551,31.25151842093775,8.394873005782513e-09
2025-06-16 19:25:17.236,1.8378329767115047,31.640022889003006,33.47785584232452,8.451882590448143e-09
2025-06-16 19:25:17.240,2.006354883282308,33.53654210897733,35.542896968620425,8.505029482819791e-09
2025-06-16 19:25:17.244,1.949275963573165,35.76971210198242,37.71898804176088,8.554263161967826e-09
2025-06-16 19:25:17.248,2.0243083101967145,38.4801962559096,40.50450454207177,8.599549189910886e-09
2025-06-16 19:25:17.252,2.427726304442626,41.65419809132531,44.08192437138129,8.640868668927054e-09
2025-06-16 19:25:17.256,2.724620127939856,44.93762003211033,47.66224013536641,8.678180395882857e-09
2025-06-16 19:25:17.260,2.307659881912576,47.39339272497877,49.70105258201869,8.711403903784812e-09
2025-06-16 19:25:17.264,1.4766489425369649,47.94685193436539,49.423500851798,8.740443063848179e-09
2025-06-16 19:25:17.268,1.210770942693628,46.62731579635688,47.83808671359925,8.765214059209662e-09
2025-06-16 19:25:17.271,1.715588368687646,44.811402481551085,46.52699082445715,8.785653813616867e-09
2025-06-16 19:25:17.275,2.1539976658938507,43.70529207124942,45.859289711133215,8.801710243349328e-09
2025-06-16 19:25:17.279,1.9885141168592992,43.25598345913389,45.24449754974534,8.813325819862281e-09
2025-06-16 19:25:17.283,1.7240417297964366,42.9590431217008,44.68308482491062,8.8204384719056e-09
2025-06-16 19:25:17.287,2.0255379465363554,42.87987745653788,44.905415376140056,8.823004313539051e-09
2025-06-16 19:25:17.291,2.751608636200844,43.29021101783981,46.04181962684383,8.821007091894675e-09
2025-06-16 19:25:17.295,3.311020042590868,43.96450976698472,47.27552978212626,8.81443890579091e-09
2025-06-16 19:25:17.299,3.500958126762593,44.491257420758735,47.99221551973823,8.803282676655651e-09
2025-06-16 19:25:17.303,3.5211139997020515,44.82557113408857,48.346685105653926,8.787512004670228e-09
2025-06-16 19:25:17.307,3.6074827794459807,44.99191343312539,48.59939618414917,8.767096394488104e-09
2025-06-16 19:25:17.311,3.9556473432278847,44.76362469130252,48.71927200584035,8.74201309753866e-09
2025-06-16 19:25:17.314,4.485238644338868,44.158975378992565,48.64421399430817,8.712258393482242e-09
2025-06-16 19:25:17.318,4.701208406386508,43.65776239093572,48.3589707679429,8.677832026013169e-09
2025-06-16 19:25:17.322,4.397114827713297,43.49263771761933,47.88975251565405,8.638712057245785e-09
2025-06-16 19:25:17.326,4.130932021324453,43.37976759039199,47.51069958175999,8.59486490290508e-09
2025-06-16 19:25:17.330,4.364590658972835,43.21212388164905,47.57671451033202,8.54627231550167e-09
2025-06-16 19:25:17.334,4.746564815454191,43.292788572476006,48.03935335728059,8.492922333214998e-09
2025-06-16 19:25:17.338,4.838216432273296,43.745834434914016,48.58405083622764,8.434777588511045e-09
2025-06-16 19:25:17.342,4.815531696416088,44.366848318192375,49.182379983367305,8.371774608575515e-09
2025-06-16 19:25:17.346,4.982295751131823,44.95581102959707,49.93810674915995,8.303852668169167e-09
2025-06-16 19:25:17.350,5.307493963480202,45.19254905806457,50.50004298961371,8.230972829055161e-09
2025-06-16 19:25:17.353,5.6113615290266186,44.71419322832176,50.32555472509543,8.153118904273908e-09
2025-06-16 19:25:17.357,5.49333325505676,44.05373589746799,49.54706911999008,8.07029258275242e-09
2025-06-16 19:25:17.361,4.35481847741187,44.56315033558427,48.91796878014776,7.982502512444639e-09
2025-06-16 19:25:17.365,2.3121465938503345,46.46406236718113,48.776208927824776,7.889752705871393e-09
2025-06-16 19:25:17.369,0.4963364400223798,48.11937187741642,48.615708283898016,7.792048771774786e-09
2025-06-16 19:25:17.373,-0.3034619931832726,48.16327171808803,47.85980969108088,7.68941467313393e-09
2025-06-16 19:25:17.377,-0.5061571019142714,47.11180899174981,46.60565185571748,7.581889062900282e-09
2025-06-16 19:25:17.381,-0.7631439902848512,46.113653717747965,45.35050969299971,7.469502669977902e-09
2025-06-16 19:25:17.385,-1.0560906343570882,45.332545312073904,44.276454642910096,7.352272498972801e-09
2025-06-16 19:25:17.389,-1.1253143068729767,44.23480115899368,43.10948681702582,7.230221187611111e-09
2025-06-16 19:25:17.393,-1.008286737885103,42.6211689684608,41.612882195206986,7.103387164821376e-09
2025-06-16 19:25:17.396,-0.8862473852786855,40.86494769804404,39.97870027707375,6.9718107289128505e-09
2025-06-16 19:25:17.400,-0.814504453070044,39.453336155730895,38.63883166662406,6.835522995468229e-09
2025-06-16 19:25:17.404,-0.6470165307673228,38.45377901922213,37.8067624521223,6.694551891842084e-09
2025-06-16 19:25:17.408,-0.0836461642923397,37.42670092295571,37.34305472207413,6.5489301791816926e-09
2025-06-16 19:25:17.412,0.9761927272635424,36.0335798045583,37.0097724949388,6.3987005591229506e-09
2025-06-16 19:25:17.416,2.0508807980131336,34.63382469357597,36.684705454369386,6.243926280649315e-09
2025-06-16 19:25:17.420,2.4518473972709147,33.85070337015085,36.30255072989951,6.084698966804886e-09
2025-06-16 19:25:17.424,2.132808744742758,33.53889039460418,35.671699101578795,5.9211276141880375e-09
2025-06-16 19:25:17.428,1.7162018342228924,32.68957751767428,34.40577931386653,5.7533161244486425e-09
2025-06-16 19:25:17.432,1.6202969563338645,30.55951261663917,32.179809534625825,5.5813538611905435e-09
2025-06-16 19:25:17.436,1.6566564155707817,27.544780228271467,29.20143660519119,5.405326602273441e-09
2025-06-16 19:25:17.439,1.5598375606724275,24.674337957623152,26.23417547940463,5.225329307581265e-09
2025-06-16 19:25:17.443,1.3973515636829497,22.43969723054823,23.8370487551078,5.041466275316161e-09
2025-06-16 19:25:17.447,1.2786312416612975,20.43644081232201,21.715072014573607,4.853842331176076e-09
2025-06-16 19:25:17.451,1.0817564929072927,18.092720413862807,19.174476867065167,4.6625546658099655e-09
2025-06-16 19:25:17.455,0.7222417581595566,15.377950139729132,16.100191857948868,4.467695916451517e-09
2025-06-16 19:25:17.459,0.3997968669400032,12.692672090859814,13.09246891765407,4.269367089809849e-09
2025-06-16 19:25:17.463,0.3151112923753968,10.37617342971745,10.691284681697285,4.0676857427790875e-09
2025-06-16 19:25:17.467,0.3404291571032916,8.481198900187845,8.82162801662026,3.86278653891691e-09
2025-06-16 19:25:17.471,0.2102984992966252,6.798921153731458,7.009219612130493,3.6548199548127796e-09
2025-06-16 19:25:17.475,-0.1124489184997451,4.96637079989477,4.853921840314222,3.4439461714839442e-09
2025-06-16 19:25:17.478,-0.4745710635350818,2.717966953909815,2.243395849082811,3.230326423300323e-09
2025-06-16 19:25:17.482,-0.8022100297594338,0.1344057311552191,-0.6678043401410595,3.01412319768368e-09
2025-06-16 19:25:17.486,-1.127169423565017,-2.470348248582063,-3.5975177138954653,2.7955069544922072e-09
2025-06-16 19:25:17.490,-1.443478077902672,-4.942354016016057,-6.385832135829381,2.574660540239527e-09
2025-06-16 19:25:17.494,-1.7158548179575952,-7.3953549950114414,-9.111209855052923,2.351778016406938e-09
2025-06-16 19:25:17.498,-1.9605199811547585,-9.851470030230647,-11.811990053676258,2.12704846973594e-09
2025-06-16 19:25:17.502,-2.18895501350498,-11.99957271480996,-14.18852777079348,1.900631573912288e-09
2025-06-16 19:25:17.506,-2.341151587152719,-13.498215865227133,-15.839367494998694,1.6726548344890606e-09
2025-06-16 19:25:17.510,-2.3708512071600785,-14.367236139107026,-16.73808738902326,1.4432342368487711e-09
2025-06-16 19:25:17.514,-2.3275702923198764,-14.958714645345324,-17.286284980585975,1.2124912060941127e-09
2025-06-16 19:25:17.518,-2.2863799693258064,-15.726468126678284,-18.012848139080234,9.80554641402183e-10
2025-06-16 19:25:17.521,-2.291434788387242,-17.021178152442236,-19.31261298402074,7.47552502339209e-10
2025-06-16 19:25:17.525,-2.4345628463812843,-18.78479310325984,-21.21935599293601,5.136087966431542e-10
2025-06-16 19:25:17.529,-2.8501188825433803,-20.476170315111677,-23.326289241071336,2.78863378007783e-10
2025-06-16 19:25:17.533,-3.541227523463598,-21.621458349902618,-25.16268591689922,4.349033731230215e-11
2025-06-16 19:25:17.537,-4.3522388196044215,-22.29620767819854,-26.648446541421485,-1.9232568701245072e-10
2025-06-16 19:25:17.541,-5.149346955678128,-22.786422989686592,-27.93576998905471,-4.2843237661072344e-10
2025-06-16 19:25:17.545,-5.860453572849647,-23.08170362684462,-28.9421572434642,-6.647089293432331e-10
2025-06-16 19:25:17.549,-6.387616826453994,-23.07263014975417,-29.460247020052567,-9.010245089978101e-10
2025-06-16 19:25:17.553,-6.694851038742439,-22.985166138560544,-29.680017221197605,-1.1372201389368555e-09
2025-06-16 19:25:17.557,-6.901294062125801,-23.14929754410236,-30.050591650160275,-1.373129049092372e-09
2025-06-16 19:25:17.561,-7.098499398902693,-23.331371444324127,-30.42987088719822,-1.6085978620521722e-09
2025-06-16 19:25:17.564,-7.175576952140094,-22.69152408600193,-29.86710108214333,-1.843496266024317e-09
2025-06-16 19:25:17.568,-6.968606539864313,-20.64169863261388,-27.61030521648832,-2.0777177398266407e-09
2025-06-16 19:25:17.572,-6.497165652655646,-17.560094823628134,-24.05726052029316,-2.3111635663847e-09
2025-06-16 19:25:17.576,-5.953814506678761,-14.4594603888738,-20.413274939561283,-2.543722861114117e-09
2025-06-16 19:25:17.580,-5.507711637946529,-12.12927720558523,-17.636988887527128,-2.775273492640351e-09
2025-06-16 19:25:17.584,-5.191488727929558,-10.786630155232416,-15.978118927122177,-3.0056929034866563e-09
2025-06-16 19:25:17.588,-4.959515752056799,-10.29908108879361,-15.25859688476774,-3.2348507106227073e-09
2025-06-16 19:25:17.592,-4.744880111221342,-10.39316917548377,-15.13804933058166,-3.462595989707034e-09
2025-06-16 19:25:17.596,-4.43141135573326,-10.74528710278686,-15.176698502343076,-3.688766762097807e-09
2025-06-16 19:25:17.600,-3.936468369717208,-11.170814458344978,-15.107282871807314,-3.913208521777325e-09
2025-06-16 19:25:17.603,-3.4045943722520766,-11.772244379753012,-15.17683879566308,-4.135777705167472e-09
2025-06-16 19:25:17.607,-3.1417070236949383,-12.847193280034936,-15.988900347305202,-4.356337318692999e-09
2025-06-16 19:25:17.611,-3.264107731866816,-14.615845312069094,-17.879953087419374,-4.574761473822188e-09
2025-06-16 19:25:17.615,-3.5551507330902026,-16.828044664264144,-20.38319544072059,-4.790941730963595e-09
2025-06-16 19:25:17.619,-3.712157932793624,-18.56135329361064,-22.273511269639226,-5.004776762012496e-09
2025-06-16 19:25:17.623,-3.624517195666967,-18.852299227023824,-22.476816465798635,-5.21615399300627e-09
2025-06-16 19:25:17.627,-3.415379716575588,-17.85902605940111,-21.274405818953724,-5.424950779777964e-09
2025-06-16 19:25:17.631,-3.29698909075785,-16.947129523358655,-20.244118656939435,-5.631055349372937e-09
2025-06-16 19:25:17.635,-3.367204899862402,-17.151264219265844,-20.518469161777706,-5.834381413683074e-09
2025-06-16 19:25:17.639,-3.511315738107931,-17.982897709267217,-21.494213489851795,-6.034862026315275e-09
2025-06-16 19:25:17.643,-3.539774808189075,-18.281906389085552,-21.821681239579767,-6.232432760609294e-09
2025-06-16 19:25:17.646,-3.403930538008666,-17.752130256407774,-21.156060836532177,-6.4270224759225905e-09
2025-06-16 19:25:17.650,-3.2006525065217124,-17.01606065780405,-20.216713206228945,-6.618559113711009e-09
2025-06-16 19:25:17.654,-3.0113592417070336,-16.557378533934987,-19.568737817326955,-6.806982943723084e-09
2025-06-16 19:25:17.658,-2.8480142661308694,-16.258056328872783,-19.106070636474545,-6.9922522588883005e-09
2025-06-16 19:25:17.662,-2.720354365668918,-15.814950103594589,-18.53530451051019,-7.1743365045910914e-09
2025-06-16 19:25:17.666,-2.6439824588586647,-15.174232973722576,-17.8182154735797,-7.353210928681733e-09
2025-06-16 19:25:17.670,-2.596543638222901,-14.532564082006068,-17.129107760965695,-7.528860746334358e-09
2025-06-16 19:25:17.674,-2.5424817121888994,-14.054687489857118,-16.597169242524753,-7.701283838256265e-09
2025-06-16 19:25:17.678,-2.4839948935996983,-13.637667516941056,-16.12166245075977,-7.870485440725966e-09
2025-06-16 19:25:17.682,-2.438184347106476,-12.995914467400317,-15.434098854445178,-8.036466144147028e-09
2025-06-16 19:25:17.686,-2.397204624153048,-11.981171952424525,-14.378376616214524,-8.199210809457906e-09
2025-06-16 19:25:17.689,-2.357648577481247,-10.71363219412245,-13.071280810938475,-8.358693049908121e-09
2025-06-16 19:25:17.693,-2.3553054462796306,-9.3667039023318,-11.72200938764914,-8.514887961030133e-09
2025-06-16 19:25:17.697,-2.430650741124306,-7.993759251488281,-10.424410031339166,-8.667771410133375e-09
2025-06-16 19:25:17.701,-2.5838773807187385,-6.690391395047683,-9.274268814156358,-8.817309983012868e-09
2025-06-16 19:25:17.705,-2.7788562963497765,-5.748216139696082,-8.527072474090538,-8.963459251955666e-09
2025-06-16 19:25:17.709,-2.967438040374037,-5.404701924296976,-8.372140002378696,-9.10617164281764e-09
2025-06-16 19:25:17.713,-3.112010604950921,-5.5059447089014535,-8.617955351218434,-9.245404357334037e-09
2025-06-16 19:25:17.717,-3.2026693215058226,-5.636103517550598,-8.838772876055028,-9.38112182811846e-09
2025-06-16 19:25:17.721,-3.250589941460767,-5.5523791787847525,-8.802969156858648,-9.513291531593896e-09
2025-06-16 19:25:17.725,-3.2741808636534318,-5.311123467002737,-8.58530436689035,-9.641877047986355e-09
2025-06-16 19:25:17.728,-3.2993696732594904,-5.01271350541865,-8.312083214538514,-9.766836498914433e-09
2025-06-16 19:25:17.732,-3.342446921481226,-4.621299495542321,-7.963746452489207,-9.888122866036604e-09
2025-06-16 19:25:17.736,-3.381299646414125,-4.045653267854981,-7.426952949313712,-1.0005676871036216e-08
2025-06-16 19:25:17.740,-3.3806359314400285,-3.2850575849761148,-6.665693551039275,-1.011942448925548e-08
2025-06-16 19:25:17.744,-3.349014422351504,-2.4856489944148947,-5.8346634509803215,-1.0229291803033924e-08
2025-06-16 19:25:17.748,-3.330190161626264,-1.8656502183404573,-5.195840413760164,-1.0335217029880986e-08
2025-06-16 19:25:17.752,-3.3434109072343885,-1.5503995510657378,-4.8938104916425065,-1.0437142410658198e-08
2025-06-16 19:25:17.756,-3.3752095625075103,-1.4862278369735176,-4.861437432361289,-1.0535001272238676e-08
2025-06-16 19:25:17.760,-3.4211913031875443,-1.5141608664307404,-4.935352202050696,-1.0628713279191986e-08
2025-06-16 19:25:17.764,-3.492328469001453,-1.486169508213474,-4.978498009200215,-1.0718188304757616e-08
2025-06-16 19:25:17.768,-3.5805112060119217,-1.3444371259659589,-4.924948363487054,-1.0803341217549861e-08
2025-06-16 19:25:17.771,-3.651001468696336,-1.1568650521633634,-4.807866551870231,-1.0884104519536053e-08
2025-06-16 19:25:17.775,-3.677846119107658,-1.041402775696072,-4.719248925325737,-1.0960423398408456e-08
2025-06-16 19:25:17.779,-3.671385746335512,-1.0031360336346686,-4.674521810015551,-1.1032244205267269e-08
2025-06-16 19:25:17.783,-3.663674344334436,-0.8994799712193857,-4.563154345101102,-1.1099506754197296e-08
2025-06-16 19:25:17.787,-3.672408395660461,-0.6145332818014502,-4.286941706479521,-1.1162142703454353e-08
2025-06-16 19:25:17.791,-3.681729462118683,-0.1899522377583037,-3.871681728365534,-1.1220087672952238e-08
2025-06-16 19:25:17.795,-3.661252435018417,0.2835236070971143,-3.3777288559000223,-1.1273289771404514e-08
2025-06-16 19:25:17.799,-3.610708391522782,0.8098437656966431,-2.8008646532855983,-1.1321692611600869e-08
2025-06-16 19:25:17.803,-3.572130418014586,1.420462969007328,-2.151667475911881,-1.136522078305704e-08
2025-06-16 19:25:17.807,-3.575467998448048,2.047291256410559,-1.528176768375191,-1.1403796596838731e-08
2025-06-16 19:25:17.811,-3.593647623972121,2.5879434393034804,-1.0057042104600926,-1.1437360069332553e-08
2025-06-16 19:25:17.814,-3.5862473399760684,3.0393547952559232,-0.5468925699696771,-1.1465865485071718e-08
2025-06-16 19:25:17.818,-3.5634545141195395,3.4437837623588368,-0.1196707764351655,-1.14892757216407e-08
2025-06-16 19:25:17.822,-3.5710700444628767,3.741982532298535,0.1709124637613153,-1.1507566751064536e-08
2025-06-16 19:25:17.826,-3.633806398992388,3.794685307439361,0.160878884957396,-1.152072323988157e-08
2025-06-16 19:25:17.830,-3.7367137301902633,3.54494965826159,-0.1917640948500365,-1.1528728250595314e-08
2025-06-16 19:25:17.834,-3.842254195107345,3.099426286585669,-0.7428279308505732,-1.153156610558942e-08
2025-06-16 19:25:17.838,-3.9135711553638246,2.663905688263269,-1.2496654888022414,-1.1529228834858276e-08
2025-06-16 19:25:17.842,-3.937792586262861,2.4132251978291404,-1.524567409512477,-1.1521713079439169e-08
2025-06-16 19:25:17.846,-3.935762424526255,2.372280930720936,-1.5634815142850518,-1.1509017463903064e-08
2025-06-16 19:25:17.850,-3.9431632477179095,2.430096258182181,-1.513067009405706,-1.1491148464000929e-08
2025-06-16 19:25:17.853,-3.976530881119213,2.5491307347380543,-1.4274001656032569,-1.1468126719193553e-08
2025-06-16 19:25:17.857,-4.013399310535611,2.88975222282818,-1.1236471062720388,-1.1439982223355356e-08
2025-06-16 19:25:17.861,-4.004997440916048,3.5561913285040787,-0.4488061303433429,-1.1406745229539328e-08
2025-06-16 19:25:17.865,-3.91787897301537,4.33108995567512,0.4132109653576845,-1.1368450620748948e-08
2025-06-16 19:25:17.869,-3.770656705660433,4.939864390079015,1.1692076677796268,-1.1325143213195625e-08
2025-06-16 19:25:17.873,-3.620607575888157,5.489442475916902,1.8688348840751183,-1.1276862155788804e-08
2025-06-16 19:25:17.877,-3.506709880397528,6.359119671884374,2.85240977620118,-1.1223628064958711e-08
2025-06-16 19:25:17.881,-3.42202391011614,7.706455717421077,4.284431792671839,-1.116545968816015e-08
2025-06-16 19:25:17.885,-3.35386624602186,9.260835242467191,5.906968982487684,-1.1102390682891076e-08
2025-06-16 19:25:17.889,-3.3236810466773776,10.553948832523211,7.2302677725931614,-1.1034458293545745e-08
2025-06-16 19:25:17.893,-3.354512862294704,11.286163362723729,7.931650487875856,-1.0961691830907832e-08
2025-06-16 19:25:17.896,-3.417018963533546,11.524576175040943,8.107557199633646,-1.0884123124439933e-08
2025-06-16 19:25:17.900,-3.4510213352386843,11.562868498319563,8.11184715189538,-1.0801794249257425e-08
2025-06-16 19:25:17.904,-3.438050583381711,11.60090102585664,8.16285043200657,-1.0714746706028471e-08
2025-06-16 19:25:17.908,-3.413058541180274,11.636168988235283,8.223110437310755,-1.062300889226462e-08
2025-06-16 19:25:17.912,-3.402782332663348,11.637865465806094,8.235083124105781,-1.0526592802067912e-08
2025-06-16 19:25:17.916,-3.3943332504727977,11.658125227494184,8.263791968688334,-1.0425501820670425e-08
2025-06-16 19:25:17.920,-3.375137728776179,11.716791623496338,8.341653887111786,-1.0319752285290313e-08
2025-06-16 19:25:17.924,-3.361926744461549,11.723360833449352,8.361434082119384,-1.0209388921328452e-08
2025-06-16 19:25:17.928,-3.3670515115243886,11.61337722659293,8.246325708932968,-1.0094469163950925e-08
2025-06-16 19:25:17.932,-3.37067382507636,11.46091883287696,8.090245002388576,-9.975034140893656e-09
2025-06-16 19:25:17.936,-3.356210716988944,11.353058412127126,7.996847690458084,-9.851106180857872e-09
2025-06-16 19:25:17.939,-3.346200865780259,11.240919589138764,7.894718719426483,-9.722714696161497e-09
2025-06-16 19:25:17.943,-3.3704701551958465,11.03697167657015,7.666501518194911,-9.589917128427802e-09
2025-06-16 19:25:17.947,-3.418127458412509,10.793183119103166,7.375055658256741,-9.452799087815736e-09
2025-06-16 19:25:17.951,-3.452086089052464,10.646454540533693,7.194368449789405,-9.311461541183129e-09
2025-06-16 19:25:17.955,-3.4596627916575127,10.62992946660965,7.170266674011397,-9.166004345948757e-09
2025-06-16 19:25:17.959,-3.460096203422139,10.669166691471135,7.20907048787206,-9.01651888680262e-09
2025-06-16 19:25:17.963,-3.463256905821273,10.723717637261268,7.260460732028561,-8.863092176471591e-09
2025-06-16 19:25:17.967,-3.4506089337903147,10.822319770235568,7.3717108377897,-8.70580957113409e-09
2025-06-16 19:25:17.971,-3.411050217786377,11.044499503723994,7.63344928803478,-8.54475797431073e-09
2025-06-16 19:25:17.975,-3.364706349279004,11.547408914857511,8.182702568442036,-8.380034581992365e-09
2025-06-16 19:25:17.978,-3.324427039945408,12.408956808846792,9.084529772544276,-8.211746980003631e-09
2025-06-16 19:25:17.982,-3.2691419718047445,13.353231247098895,10.084089279708383,-8.040001912792143e-09
2025-06-16 19:25:17.986,-3.1918640970825534,13.915215691159098,10.723351599246955,-7.864899089232642e-09
2025-06-16 19:25:17.990,-3.1347731787032047,13.959971895109796,10.825198722340335,-7.686534199544051e-09
2025-06-16 19:25:17.994,-3.134467922057588,13.76377945747641,10.629311542137856,-7.505002446853986e-09
2025-06-16 19:25:17.998,-3.167836481321887,13.594420810191568,10.426584336374194,-7.320399473541925e-09
2025-06-16 19:25:18.002,-3.1884412260799166,13.480415410494746,10.291974192682066,-7.132828665388303e-09
2025-06-16 19:25:18.006,-3.183005447090664,13.347458476416229,10.16445303835104,-6.942416223749484e-09
2025-06-16 19:25:18.010,-3.163153387741027,13.17760953537171,10.01445615743972,-6.749310510765517e-09
2025-06-16 19:25:18.014,-3.1344852919546566,13.05437735997181,9.919892078621617,-6.553659843902909e-09
2025-06-16 19:25:18.018,-3.0986130339240736,13.10790880813273,10.009295785584271,-6.355600684222223e-09
2025-06-16 19:25:18.021,-3.058730623648388,13.35499406144566,10.296263449926126,-6.155265393137153e-09
2025-06-16 19:25:18.025,-3.0118977052344684,13.626972673441305,10.615074981111285,-5.9527882204646245e-09
2025-06-16 19:25:18.029,-2.961857050353577,13.77363349397298,10.811776457323122,-5.748311063862133e-09
2025-06-16 19:25:18.033,-2.9302373109931743,13.872859379490036,10.942622082980243,-5.541994384086386e-09
2025-06-16 19:25:18.037,-2.9188931180069604,14.076743305398704,11.15785020262475,-5.334010802026089e-09
2025-06-16 19:25:18.041,-2.884973150443762,14.328438906588763,11.443465772141414,-5.124523120798094e-09
2025-06-16 19:25:18.045,-2.801761636221557,14.44547554462384,11.643713925195108,-4.913682540333604e-09
2025-06-16 19:25:18.049,-2.714899195139897,14.433873630244564,11.718974452683844,-4.7016423497160444e-09
2025-06-16 19:25:18.053,-2.681354986969924,14.479145982782969,11.797791014140078,-4.488548736809835e-09
2025-06-16 19:25:18.057,-2.6801370243390594,14.620069855081391,11.93993284981873,-4.2745132313660334e-09
2025-06-16 19:25:18.061,-2.648859282441241,14.658125427916712,12.009266165339492,-4.059606497768889e-09
2025-06-16 19:25:18.064,-2.592439529778435,14.46063109529829,11.868191586174268,-3.8438800323004245e-09
2025-06-16 19:25:18.068,-2.575509072029297,14.174118701733224,11.598609651106692,-3.6273830682451373e-09
2025-06-16 19:25:18.072,-2.5994320904871064,14.000714547993516,11.401282479644266,-3.4101645159684996e-09
2025-06-16 19:25:18.076,-2.58711687072896,13.861670332153778,11.274553484335843,-3.1922799639545783e-09
2025-06-16 19:25:18.080,-2.530997988480739,13.467207301290353,10.936209336510956,-2.9737943538685766e-09
2025-06-16 19:25:18.084,-2.531573189565844,12.746471715422503,10.214898550308623,-2.75476204694899e-09
2025-06-16 19:25:18.088,-2.6065979116828184,12.055110851558885,9.448512965050096,-2.5352180213028663e-09
2025-06-16 19:25:18.092,-2.609372349848927,11.81536398753027,9.205991663608708,-2.31520223968042e-09
2025-06-16 19:25:18.096,-2.464822725752234,12.006043719287035,9.541221020245835,-2.094771816104093e-09
2025-06-16 19:25:18.100,-2.3228917852839324,12.208730051001664,9.885838293181862,-1.873983457452935e-09
2025-06-16 19:25:18.103,-2.306108623778441,12.167723273491047,9.861614677888934,-1.6528898334433204e-09
2025-06-16 19:25:18.107,-2.2832631831683377,12.043990278854778,9.760727124592677,-1.4315504465484911e-09
2025-06-16 19:25:18.111,-2.1086454404748927,12.075122519639113,9.966477108838795,-1.2100179848823335e-09
2025-06-16 19:25:18.115,-1.9042793120386872,12.299448497529973,10.395169215918616,-9.883211231422927e-10
2025-06-16 19:25:18.119,-1.857718046568234,12.678194608606267,10.820476593171856,-7.664853917360097e-10
2025-06-16 19:25:18.123,-1.9078913236423,13.164808971512295,11.256917679710202,-5.445681368111105e-10
2025-06-16 19:25:18.127,-1.870633716887187,13.551909265121456,11.681275580819085,-3.2266787868868066e-10
2025-06-16 19:25:18.131,-1.713127728587575,13.516451231191976,11.803323535935627,-1.0090873804085232e-10
2025-06-16 19:25:18.162,-1.510810287900909,12.986642930678848,11.47583267681339,1.205897741891732e-10
2025-06-16 19:25:18.166,-1.313666343968654,12.33391337752483,11.020247068278172,3.4174633920729474e-10
2025-06-16 19:25:18.169,-1.1889836905781697,12.012849924228252,10.823866269087098,5.625260388595329e-10
2025-06-16 19:25:18.173,-1.1863844083589274,12.051933257534186,10.86554888534373,7.82913112930165e-10
2025-06-16 19:25:18.177,-1.1883486574084476,12.097516834353488,10.909168213816226,1.0028890852898275e-09
2025-06-16 19:25:18.181,-1.0377801657665042,11.933522279476552,10.895742151254463,1.2224489771102202e-09
2025-06-16 19:25:18.185,-0.8361084925790968,11.697684748696917,10.861576294346175,1.441620916489086e-09
2025-06-16 19:25:18.189,-0.829199243387032,11.556927645961622,10.72772844150976,1.6604498747245072e-09
2025-06-16 19:25:18.193,-0.9818724716064692,11.45196146394969,10.470089031976045,1.878973546691306e-09
2025-06-16 19:25:18.197,-0.99278884132503,11.27768712206423,10.284898321038654,2.0972286518727412e-09
2025-06-16 19:25:18.201,-0.7872181385395456,11.088773793873443,10.301555696289478,2.315268311951009e-09
2025-06-16 19:25:18.205,-0.6457148672803642,10.956627818466188,10.310912992815291,2.5331573940410115e-09
2025-06-16 19:25:18.209,-0.7269888979568304,10.776837458293528,10.04984860265082,2.7509551443116802e-09
2025-06-16 19:25:18.212,-0.8124267887279881,10.413391511033405,9.60096476528366,2.9687072228788956e-09
2025-06-16 19:25:18.216,-0.7050796055336895,9.93298310575613,9.227903543836044,3.186447239109573e-09
2025-06-16 19:25:18.220,-0.5610591769416682,9.482795593433442,8.921736460741784,3.404202845100724e-09
2025-06-16 19:25:18.224,-0.592706299222387,9.00487386142748,8.412167607116015,3.621997254286405e-09
2025-06-16 19:25:18.228,-0.70214992784976,8.331038007699997,7.628888125422416,3.839836268567268e-09
2025-06-16 19:25:18.232,-0.6588273877349635,7.574883451264338,6.916056109724926,4.0577037632430075e-09
2025-06-16 19:25:18.236,-0.471134159163546,7.155380687097168,6.684246574728439,4.275588133700568e-09
2025-06-16 19:25:18.240,-0.3818264435893039,7.249236138432674,6.8674097422640505,4.493505718029485e-09
2025-06-16 19:25:18.244,-0.6009710599549188,7.315657470111239,6.714686458229811,4.711487730121734e-09
2025-06-16 19:25:18.248,-1.1493855644115425,6.391084292315004,5.241698776596348,4.929560099249526e-09
2025-06-16 19:25:18.251,-1.857819749392138,3.990712380004736,2.1328926798732777,5.147747023115381e-09
2025-06-16 19:25:18.255,-2.515643662395817,0.4483122244021902,-2.0673313881511364,5.366079626174586e-09
2025-06-16 19:25:18.259,-3.206988644232636,-4.180480566160866,-7.387469159916884,5.584594873063136e-09
2025-06-16 19:25:18.263,-4.376056312577246,-11.146299263397898,-15.5223555248782,5.803334827847783e-09
2025-06-16 19:25:18.267,-6.102885053352826,-21.33021640334824,-27.433101405057567,6.022337843726086e-09
2025-06-16 19:25:18.271,-7.431792096074697,-32.163546099492834,-39.59533814339044,6.241617125850517e-09
2025-06-16 19:25:18.275,-7.201534781891678,-38.250057214557344,-45.45159194366976,6.4611593197136e-09
2025-06-16 19:25:18.279,-5.617077615403256,-36.5172497393338,-42.1343273013367,6.6809444221958185e-09
2025-06-16 19:25:18.283,-4.154105590955552,-29.62676348584547,-33.780869022862355,6.900946941423365e-09
2025-06-16 19:25:18.287,-3.791762767258568,-23.09137444828334,-26.883137161115123,7.121133662715356e-09
2025-06-16 19:25:18.291,-4.13600052906104,-19.864736040568992,-24.000736514646192,7.341486592429544e-09
2025-06-16 19:25:18.294,-4.34198524177164,-18.751328299537903,-23.093313485709864,7.562004592783915e-09
2025-06-16 19:25:18.298,-4.162222580176387,-17.346008056274933,-21.508230580309263,7.782667286641813e-09
2025-06-16 19:25:18.302,-3.941548260576774,-15.18894005762446,-19.13048826160716,8.00342744453022e-09
2025-06-16 19:25:18.306,-4.0307824237151255,-13.751880435687596,-17.78266280230737,8.224247380736144e-09
2025-06-16 19:25:18.310,-4.384273938355136,-13.987237251549752,-18.371511132211754,8.445118768134924e-09
2025-06-16 19:25:18.314,-4.641078716581708,-14.833622838077988,-19.47470149641272,8.666038975641333e-09
2025-06-16 19:25:18.318,-4.537884477167862,-14.575172830267327,-19.11305724875788,8.886979590007584e-09
2025-06-16 19:25:18.322,-4.160875586985509,-12.965480606822462,-17.126356134690326,9.107885366499309e-09
2025-06-16 19:25:18.326,-3.759299584348584,-11.137371393398526,-14.8966709180676,9.328696135492395e-09
2025-06-16 19:25:18.330,-3.444113621903513,-9.892417990699164,-13.336531552358649,9.549354529049161e-09
2025-06-16 19:25:18.334,-3.1726881051774884,-9.119647170199396,-12.292335214707188,9.769792944222473e-09
2025-06-16 19:25:18.337,-2.9252378331766096,-8.659584658183782,-11.584822430307526,9.989931077987316e-09
2025-06-16 19:25:18.341,-2.7405607652848616,-8.658001417480286,-11.398562121205016,1.0209690377386837e-08
2025-06-16 19:25:18.345,-2.594369688563296,-8.942289868882748,-11.53665949532213,1.0428998518729725e-08
2025-06-16 19:25:18.349,-2.3912095783461367,-8.857856431505038,-11.2490659472927,1.0647780885900736e-08
2025-06-16 19:25:18.353,-2.1191067824577727,-8.092027403329464,-10.211134122890025,1.0865953421236232e-08
2025-06-16 19:25:18.357,-1.889021149472325,-7.271324853043357,-9.160345939178931,1.1083418102569322e-08
2025-06-16 19:25:18.361,-1.763591685301705,-7.306878047459461,-9.070469668880824,1.1300073353720928e-08
2025-06-16 19:25:18.365,-1.6573570304424583,-8.243728882881307,-9.901085848995026,1.1515848074992454e-08
2025-06-16 19:25:18.369,-1.469733452143601,-9.25899227606305,-10.7287256635656,1.1730719796309751e-08
2025-06-16 19:25:18.373,-1.2203873660377935,-9.83059134343288,-11.05097864446072,1.1944681374285343e-08
2025-06-16 19:25:18.376,-0.9816488264557904,-10.245986005261656,-11.22763476620571,1.2157699618999489e-08
2025-06-16 19:25:18.380,-0.7459472660683737,-10.805104478616451,-11.551051678716828,1.2369723348051056e-08
2025-06-16 19:25:18.384,-0.4474113946433518,-11.30123491108944,-11.748646239462143,1.2580711499923804e-08
2025-06-16 19:25:18.388,-0.095807034968803,-11.595397865045484,-11.691204833437672,1.2790629087560416e-08
2025-06-16 19:25:18.392,0.2123587076618641,-11.95670892276128,-11.744350148079716,1.2999434449869405e-08
2025-06-16 19:25:18.396,0.4573017288539503,-12.450367132156696,-11.993065335833611,1.32070921851435e-08
2025-06-16 19:25:18.400,0.7606074573708859,-12.675995255889596,-11.915387730746936,1.3413582561749376e-08
2025-06-16 19:25:18.404,1.1854508400675507,-12.525694157022798,-11.34024324892638,1.3618885217097154e-08
2025-06-16 19:25:18.408,1.5818400059311308,-12.565110003565048,-10.98326992922864,1.3822969799170685e-08
2025-06-16 19:25:18.412,1.79440082224084,-13.21968227993114,-11.425281388860537,1.402580791874614e-08
2025-06-16 19:25:18.416,1.9288366266708108,-14.103899605671948,-12.175062909868744,1.4227379642906796e-08
2025-06-16 19:25:18.419,2.1793941687512213,-14.593472128385294,-12.414077890278993,1.4427667068907945e-08
2025-06-16 19:25:18.423,2.459596770326476,-14.681018848222172,-12.221422008229498,1.462665015453916e-08
2025-06-16 19:25:18.427,2.5157741805832425,-14.817180102983208,-12.30140585234957,1.4824304613435314e-08
2025-06-16 19:25:18.431,2.398439088232361,-15.118331586105588,-12.71989242752759,1.5020595604388626e-08
2025-06-16 19:25:18.435,2.4586523599939136,-15.223475320863542,-12.764822890325773,1.5215476183986303e-08
2025-06-16 19:25:18.439,2.8056726464740662,-14.968345870996153,-12.162673153725368,1.540889505884959e-08
2025-06-16 19:25:18.443,3.127995511303956,-14.74263844053868,-11.614642858103265,1.560079921884949e-08
2025-06-16 19:25:18.447,3.1822985184362214,-14.880280274332527,-11.697981684487356,1.5791125345768946e-08
2025-06-16 19:25:18.451,3.11575278399685,-15.03770131860511,-11.921948463021812,1.5979798138529833e-08
2025-06-16 19:25:18.455,3.130020534095915,-14.748887162331542,-11.618866556446596,1.6166746788364858e-08
2025-06-16 19:25:18.459,3.1663152362170504,-14.453001007074636,-11.286685698786403,1.6351917672096745e-08
2025-06-16 19:25:18.462,3.1531048588696606,-15.09727835255901,-11.94417342136722,1.6535265374088882e-08
2025-06-16 19:25:18.466,3.24434096098562,-16.43006540567021,-13.1857243722061,1.671674579759866e-08
2025-06-16 19:25:18.470,3.53751742820906,-16.69329282804963,-13.155775327203996,1.6896327049905738e-08
2025-06-16 19:25:18.474,3.853492154015864,-15.048114250051114,-11.194622023169083,1.7073989653220613e-08
2025-06-16 19:25:18.478,4.0814175956508665,-13.709099552986675,-9.627681884250867,1.7249706789096193e-08
2025-06-16 19:25:18.482,4.4414503728425,-16.055586821351238,-11.614136375290338,1.7423436999690575e-08
2025-06-16 19:25:18.486,5.14995194744052,-22.70976832364062,-17.559816302865137,1.7595134065197426e-08
2025-06-16 19:25:18.490,6.127605997002784,-31.31014056278252,-25.18253449226739,1.7764748793772223e-08
2025-06-16 19:25:18.494,7.168331983024083,-39.82496721906092,-32.65663516234068,1.7932232113060743e-08
2025-06-16 19:25:18.498,8.128799541752684,-47.54155926049479,-39.412759644935306,1.8097549134310917e-08
2025-06-16 19:25:18.501,9.073950961922517,-53.06351119222977,-43.98956015642307,1.8260667890856784e-08
2025-06-16 19:25:18.505,10.361580124528269,-54.29458129867297,-43.933001100136536,1.842152641448165e-08
2025-06-16 19:25:18.509,12.027994433135843,-51.2057440023669,-39.177749495077535,1.8580038275108867e-08
2025-06-16 19:25:18.513,13.051861212071817,-47.0527303059508,-34.00086901963711,1.8736132478844704e-08
2025-06-16 19:25:18.517,12.164666473724338,-45.72542469487784,-33.56075814687016,1.8889767895442023e-08
2025-06-16 19:25:18.521,9.531123020167978,-47.98479103487926,-38.45366794035854,1.904091466038748e-08
2025-06-16 19:25:18.525,6.769384319792071,-50.69222312895143,-43.92283873470448,1.9189528613487958e-08
2025-06-16 19:25:18.529,5.253946639653873,-49.66978346977583,-44.41583675560105,1.9335525537418337e-08
2025-06-16 19:25:18.533,5.049483177034329,-43.9642934756736,-38.91481022410722,1.9478773441740562e-08
2025-06-16 19:25:18.537,5.403920072913622,-37.93865096678891,-32.53473081932654,1.961912141313887e-08
2025-06-16 19:25:18.541,5.75075614327467,-37.16968026822509,-31.41892405034796,1.9756423447575284e-08
2025-06-16 19:25:18.544,6.231574674276193,-41.50630578395304,-35.274731035032694,1.9890516093323993e-08
2025-06-16 19:25:18.548,7.335863525125836,-45.49989138516722,-38.16402778540913,2.0021198507197252e-08
2025-06-16 19:25:18.552,8.89976662231545,-45.511623816201606,-36.61185711928401,2.0148261513717396e-08
2025-06-16 19:25:18.556,9.750651593229756,-42.05423209200217,-32.30358042416972,2.027152010106081e-08
2025-06-16 19:25:18.560,8.944819946963554,-36.85428888908801,-27.90946886750959,2.0390811417416665e-08
2025-06-16 19:25:18.564,7.1861928143414096,-32.57474511554953,-25.38855222662129,2.050598769396517e-08
2025-06-16 19:25:18.568,6.157067452126562,-33.010222843344195,-26.853155316697716,2.0616914706993368e-08
2025-06-16 19:25:18.572,6.474396716314415,-39.01645701396055,-32.54206022318131,2.0723455472609186e-08
2025-06-16 19:25:18.576,7.233736476834061,-46.37369005199533,-39.139953500722726,2.082545892876084e-08
2025-06-16 19:25:18.580,7.457191357081252,-50.543140928302535,-43.0859494968247,2.09227765206189e-08
2025-06-16 19:25:18.584,6.978723485474863,-51.218430143918944,-44.239706584139,2.1015273843614247e-08
2025-06-16 19:25:18.587,6.0875097872727135,-50.5883854416735,-44.50087558020287,2.1102817799824153e-08
2025-06-16 19:25:18.591,5.341966989265625,-50.034017127059776,-44.69205006367063,2.1185271280424817e-08
2025-06-16 19:25:18.595,5.563801467963821,-50.12540470303029,-44.56160316100346,2.1262504112240065e-08
2025-06-16 19:25:18.599,7.098926457471085,-51.32990269277245,-44.230976161343925,2.1334392477311318e-08
2025-06-16 19:25:18.603,9.274663059779057,-53.23857513747954,-43.963912003892446,2.1400809346219764e-08
2025-06-16 19:25:18.607,11.201563582504242,-54.68366478259125,-43.4821011264077,2.1461632314653598e-08
2025-06-16 19:25:18.611,12.673758687721994,-55.3343271619796,-42.66056840066887,2.1516755759948353e-08
2025-06-16 19:25:18.615,13.804433852161486,-55.97058773351328,-42.16615380788032,2.1566077920186442e-08
2025-06-16 19:25:18.619,14.437278072829116,-56.95315209109517,-42.515873944974345,2.1609482022836385e-08
2025-06-16 19:25:18.623,14.484555356171244,-57.54804925642041,-43.06349382714029,2.164684531338804e-08
2025-06-16 19:25:18.626,14.240193571372906,-56.93634227356426,-42.69614862921617,2.16780635977076e-08
2025-06-16 19:25:18.630,13.863661264790936,-54.86085332510209,-40.99719198746959,2.1703062426520588e-08
2025-06-16 19:25:18.634,13.222854324555325,-50.90952894382473,-37.68667454662696,2.1721793995317676e-08
2025-06-16 19:25:18.638,12.658986285533604,-44.11194223555715,-31.45295587761145,2.173422944458732e-08
2025-06-16 19:25:18.642,13.036228246908804,-34.33627344453383,-21.30004512540015,2.1740350690844943e-08
2025-06-16 19:25:18.646,14.556833935624876,-23.768651741347057,-9.211817733657632,2.1740148940654922e-08
2025-06-16 19:25:18.650,16.3961526545516,-15.468456802901825,0.9276959235027372,2.1733631989748013e-08
2025-06-16 19:25:18.654,17.869171946481192,-10.182397414127587,7.686774603939829,2.1720830867307798e-08
2025-06-16 19:25:18.658,19.04913974109024,-5.926036778469407,13.12310303396134,2.1701794772978023e-08
2025-06-16 19:25:18.662,20.03865875844827,-0.6099844641543057,19.42867436543409,2.1676574215507485e-08
2025-06-16 19:25:18.666,20.661509755811583,6.333334245097819,26.994844071826,2.1645208491980644e-08
2025-06-16 19:25:18.669,21.051922120330453,14.433589246997444,35.485511437954315,2.1607728888394536e-08
2025-06-16 19:25:18.673,21.584395220764435,22.878837949218408,44.46323324030791,2.1564168589276964e-08
2025-06-16 19:25:18.677,22.14517381980626,31.048017572264257,53.1931914621433,2.151456338853925e-08
2025-06-16 19:25:18.681,22.28821634606212,38.82485063477586,61.11306705067022,2.1458937052718322e-08
2025-06-16 19:25:18.685,21.985226438837604,45.75722442519466,67.7424509335628,2.1397291199820922e-08
2025-06-16 19:25:18.689,21.47303872091408,50.30081043966295,71.77384922976054,2.132962413086048e-08
2025-06-16 19:25:18.693,20.58581952786526,51.40426691623537,71.99008651297262,2.125595918540744e-08
2025-06-16 19:25:18.697,18.892374389796597,50.37662604414016,69.26900050254068,2.1176345444799792e-08
2025-06-16 19:25:18.701,16.277808563589367,48.411532336923656,64.68934096880892,2.109083699036604e-08
2025-06-16 19:25:18.705,13.003383881133246,41.76995751529064,54.77334146433927,2.0999484243123265e-08
2025-06-16 19:25:18.709,9.522830240057155,23.791921424603387,33.31475173220377,2.0902342945426466e-08
2025-06-16 19:25:18.712,6.396324735979864,-5.073411623088672,1.322913180128273,2.0799478802404965e-08
2025-06-16 19:25:18.716,3.900188753532306,-33.187784976293266,-29.287596155836216,2.0690961081426734e-08
2025-06-16 19:25:18.720,1.6554494376532167,-48.36504095150027,-46.70959144732161,2.0576858036734767e-08
2025-06-16 19:25:18.724,-0.8411429776440364,-49.8623386778034,-50.70348158934942,2.04572425385058e-08
2025-06-16 19:25:18.728,-3.26909953515481,-46.09380894640772,-49.362908415817806,2.033220508131513e-08
2025-06-16 19:25:18.732,-4.581278783744006,-43.96782544769787,-48.54910416601586,2.0201855992070777e-08
2025-06-16 19:25:18.736,-4.363812335345118,-44.36143099239064,-48.72524326271318,2.006630415130352e-08
2025-06-16 19:25:18.740,-3.822529799326069,-45.02075297420187,-48.84328270897727,1.9925635299100835e-08
2025-06-16 19:25:18.744,-4.831983756446537,-43.93229807380417,-48.76428176610825,1.9779916713107915e-08
2025-06-16 19:25:18.748,-7.940012899963319,-40.77587720263584,-48.71589003878928,1.962922224266544e-08
2025-06-16 19:25:18.751,-11.740297173093236,-37.12490384290558,-48.86520095258461,1.9473654791370344e-08
2025-06-16 19:25:18.755,-14.35184398235004,-34.888474364571714,-49.24031828400906,1.9313345163763768e-08
2025-06-16 19:25:18.759,-15.655277864684107,-33.7701735450632,-49.4254513473027,1.914842635210357e-08
2025-06-16 19:25:18.763,-17.9646402173287,-31.13223520519555,-49.0968753604386,1.89790105478051e-08
2025-06-16 19:25:18.767,-23.240969013422983,-25.61685589507681,-48.8578248467962,1.880518765996382e-08
2025-06-16 19:25:18.771,-29.39916097987522,-19.924848519514835,-49.32400943820001,1.862703079452165e-08
2025-06-16 19:25:18.775,-31.819605716563903,-17.80851091033276,-49.62811656623347,1.8444592781514704e-08
2025-06-16 19:25:18.779,-29.588286144811345,-18.869150858522307,-48.45743694307057,1.825790937666379e-08
2025-06-16 19:25:18.783,-27.223860568951,-19.151894675155923,-46.37575518421372,1.8067021993778724e-08
2025-06-16 19:25:18.787,-28.33922679576529,-16.87404221942248,-45.21326895580201,1.7871986433897205e-08
2025-06-16 19:25:18.791,-30.859608589115496,-14.393202656719197,-45.252811187025685,1.7672846555683563e-08
2025-06-16 19:25:18.794,-31.29494424638185,-13.852178800340337,-45.14712298836825,1.7469617077933103e-08
2025-06-16 19:25:18.798,-30.57650699702293,-13.944776390370604,-44.52128332940652,1.726230420371499e-08
2025-06-16 19:25:18.802,-32.02119882125774,-12.165413081944566,-44.186611845701805,1.7050923902679842e-08
2025-06-16 19:25:18.806,-35.77139990298751,-8.191727249784467,-43.96312709588349,1.6835489400031104e-08
2025-06-16 19:25:18.810,-38.57900032885178,-4.684460936956383,-43.26346120943997,1.661599841817024e-08
2025-06-16 19:25:18.814,-37.78330848583521,-5.426715281332655,-43.21002371117964,1.6392444973296732e-08
2025-06-16 19:25:18.818,-33.880304359473655,-9.978268653768442,-43.85857295771157,1.6164837919595418e-08
2025-06-16 19:25:18.822,-30.19756691716052,-9.771728125985549,-39.96929498824409,1.5933202997510272e-08
2025-06-16 19:25:18.826,-29.038116857459052,3.6987828003203753,-25.339334002826483,1.569756671862152e-08
2025-06-16 19:25:18.830,-26.83854609739417,25.347473096290432,-1.4910729472054136,1.545793950155184e-08
2025-06-16 19:25:18.834,-17.571989585922445,40.641412156749,23.069422624295065,1.5214315641671286e-08
2025-06-16 19:25:18.837,-3.5376063174358894,45.06769390706305,41.53008764247104,1.4966687376925983e-08
2025-06-16 19:25:18.841,4.248889303493849,48.49074168779986,52.73963104348251,1.4715053033193608e-08
2025-06-16 19:25:18.845,0.3317852069839526,58.35309798044239,58.6848832391454,1.4459407535684014e-08
2025-06-16 19:25:18.849,-7.91920695586846,69.62498631632656,61.70577941176421,1.4199733884996903e-08
2025-06-16 19:25:18.853,-10.8930860890288,73.99952661040288,63.1064405720779,1.393601882488446e-08
2025-06-16 19:25:18.857,-7.671869341268501,70.52047179743028,62.848602506158926,1.36682768139282e-08
2025-06-16 19:25:18.861,-3.319174442497477,64.26264339192282,60.94346899887883,1.3396549906001632e-08
2025-06-16 19:25:18.865,-0.7438422827526705,59.4713862806662,58.72754404695029,1.3120886389996449e-08
2025-06-16 19:25:18.869,1.4369814322386705,56.394190969496414,57.83117245020437,1.2841325052674213e-08
2025-06-16 19:25:18.873,5.415865278509017,53.02070658287664,58.43657190912086,1.2557896694049085e-08
2025-06-16 19:25:18.876,10.94543493129494,48.5211812432708,59.46661622167686,1.2270632282224936e-08
2025-06-16 19:25:18.880,15.395923844736494,44.59053883663434,59.98646272803591,1.1979560707846838e-08
2025-06-16 19:25:18.884,16.593301063889044,43.1457114829947,59.73901259301892,1.1684707319490977e-08
2025-06-16 19:25:18.888,15.322551052450216,43.78266521767627,59.10521631553145,1.1386120750468556e-08
2025-06-16 19:25:18.892,14.102839720889556,45.05647487475091,59.15931464035124,1.1083901827080726e-08
2025-06-16 19:25:18.896,13.580871959267686,47.14128129499049,60.722153298469856,1.0778182363837168e-08
2025-06-16 19:25:18.900,12.161390433458006,50.78804807592053,62.94943855308624,1.04690720550138e-08
2025-06-16 19:25:18.904,9.737215601257388,54.33785243810434,64.0750680823692,1.0156639178014766e-08
2025-06-16 19:25:18.908,9.123045491656663,54.56102143050264,63.68406696442766,9.84094465404414e-09
2025-06-16 19:25:18.912,12.369079776418891,50.61029590206546,62.97937572018797,9.522085249512361e-09
2025-06-16 19:25:18.916,17.983597336044003,44.82976065418491,62.81335803143214,9.200196413061688e-09
2025-06-16 19:25:18.919,23.339935668876464,39.24669839134975,62.58663410077124,8.875417455885873e-09
2025-06-16 19:25:18.923,27.76389347889206,33.45416637880383,61.21805989748797,8.547865805325867e-09
2025-06-16 19:25:18.927,31.789835021816128,26.78847717040809,58.57831223138827,8.217650477407966e-09
2025-06-16 19:25:18.931,35.17397276169425,20.52464874510638,55.69862154544254,7.884898582398781e-09
2025-06-16 19:25:18.935,37.2193295652916,16.360666228041353,53.57999583135306,7.549746979510654e-09
2025-06-16 19:25:18.939,38.121131430130966,14.041267706146414,52.16239917355834,7.212306817158221e-09
2025-06-16 19:25:18.943,38.78765978048611,12.20500569782772,50.992665514921946,6.872659098536173e-09
2025-06-16 19:25:18.947,39.624562402246205,10.8689853800398,50.49354781833341,6.530889322763012e-09
2025-06-16 19:25:18.951,40.24245752546916,11.30145969812789,51.54391725903987,6.18710018312953e-09
2025-06-16 19:25:18.955,40.30139717135542,13.644056235718688,53.94545344180516,5.8413803740044915e-09
2025-06-16 19:25:18.959,40.07134814476902,16.385094689325044,56.45644286813346,5.4937842855451505e-09
2025-06-16 19:25:18.962,40.028676724284125,18.454169583976004,58.48284634169944,5.1443592874972775e-09
2025-06-16 19:25:18.966,40.25582050288299,20.409261628029967,60.66508216374396,4.7931862573362865e-09
2025-06-16 19:25:18.970,40.435059874069054,23.03756330717942,63.47262321339318,4.440384434520829e-09
2025-06-16 19:25:18.974,40.32544616890423,25.905979817789923,66.23142601815263,4.086078554273306e-09
2025-06-16 19:25:18.978,40.11407898745585,28.02253598420968,68.13661500250046,3.7303654942586014e-09
2025-06-16 19:25:18.982,40.23706279710073,29.280163988281966,69.51722681559443,3.373310565840948e-09
2025-06-16 19:25:18.986,40.88688091987127,30.560473154970765,71.44735410438034,3.0149737850065196e-09
2025-06-16 19:25:18.990,41.78612341628991,32.70481138016861,74.490934825328,2.6554411990721913e-09
2025-06-16 19:25:18.994,42.40217650585855,35.95273745607347,78.35491399017536,2.2948267339217656e-09
2025-06-16 19:25:18.998,42.25836509783464,40.24286623996012,82.50123136540029,1.9332450308604967e-09
2025-06-16 19:25:19.001,41.11994912275213,45.330637778683176,86.45058692836392,1.5708004238890775e-09
2025-06-16 19:25:19.005,39.17090010608081,50.32881027690475,89.49971040925797,1.2075986898964887e-09
2025-06-16 19:25:19.009,37.13021586451207,53.82057153281566,90.95078742298568,8.437403043089042e-10
2025-06-16 19:25:19.013,35.85030556288771,55.14247104566851,90.99277663357236,4.793092270773354e-10
2025-06-16 19:25:19.017,35.465144299393884,55.10655944828059,90.57170377200116,1.1439506206390244e-10
2025-06-16 19:25:19.021,35.24146093965109,54.63736771832169,89.87882868164279,-2.5089053851180145e-10
2025-06-16 19:25:19.025,34.47626812052227,53.39735061377477,87.8736187573687,-6.164436583420262e-10
2025-06-16 19:25:19.029,32.96234740310311,51.01315138960734,83.97549881515154,-9.8220420517093e-10
2025-06-16 19:25:19.033,30.54481206380449,48.688726428689954,79.23353851423659,-1.348152026463422e-09
2025-06-16 19:25:19.037,27.222056347267763,47.760062286591086,74.98211865493202,-1.7142705038756146e-09
2025-06-16 19:25:19.041,23.782432338095877,47.57464618565686,71.35707854423814,-2.0805158640831942e-09
2025-06-16 19:25:19.044,21.31400490666345,46.86389368327328,68.17789860981514,-2.4468193038209237e-09
2025-06-16 19:25:19.048,19.95401101875425,46.29776809300807,66.25177913094718,-2.813106409002368e-09
2025-06-16 19:25:19.052,18.857397712055857,47.384547348425016,66.24194507898363,-3.179300370105724e-09
2025-06-16 19:25:19.056,17.411277422736937,49.41146517744029,66.82274261809427,-3.545311175082728e-09
2025-06-16 19:25:19.060,15.976160709238831,49.82521968595625,65.80138041253417,-3.9110399840709504e-09
2025-06-16 19:25:19.064,15.359467583664944,47.71678454873481,63.07625214906886,-4.2764027867554015e-09
2025-06-16 19:25:19.068,15.767037819234938,44.93268700342814,60.69972483864567,-4.641341455941784e-09
2025-06-16 19:25:19.072,16.48604726533835,43.28197710343866,59.76802438416907,-5.005803026231856e-09
2025-06-16 19:25:19.076,16.730977899425067,42.394827628573296,59.125805542838805,-5.3697170827611774e-09
2025-06-16 19:25:19.080,16.508328096842945,41.19328205719505,57.70161016824618,-5.733002501728897e-09
2025-06-16 19:25:19.084,16.28190828579,40.03792597774624,56.31983427706855,-6.095586904737387e-09
2025-06-16 19:25:19.087,16.104700351818863,40.13746064673148,56.24216101148557,-6.457413034365862e-09
2025-06-16 19:25:19.091,15.502567641719647,41.49533866697757,56.9979063210991,-6.818430963289191e-09
2025-06-16 19:25:19.095,13.954375731695004,42.434688194982535,56.38906393849136,-7.178584154390491e-09
2025-06-16 19:25:19.099,11.342262898128528,41.029483513919935,52.37174642321438,-7.537800922727175e-09
2025-06-16 19:25:19.103,8.157085108454545,36.8617533916724,45.01883851069515,-7.895998114349351e-09
2025-06-16 19:25:19.107,4.857177009307295,31.625555048718308,36.48273206807009,-8.253086692997966e-09
2025-06-16 19:25:19.111,0.748484353233279,27.249950765352047,27.998435128084367,-8.608968084376043e-09
2025-06-16 19:25:19.115,-5.3997363003464365,22.610245546198044,17.210509254746142,-8.963531290806114e-09
2025-06-16 19:25:19.119,-12.97243295562586,13.81478358879211,0.8423506414762483,-9.31666788596945e-09
2025-06-16 19:25:19.123,-19.051505082581908,-0.3219465487025608,-19.37345162349197,-9.668288620842086e-09
2025-06-16 19:25:19.126,-21.255819598291215,-15.161201145396342,-36.417020736404815,-1.0018310494740672e-08
2025-06-16 19:25:19.130,-20.10894480073429,-24.96827122201282,-45.07721601601614,-1.0366635007991675e-08
2025-06-16 19:25:19.134,-18.07521446579048,-28.311763119655502,-46.38697757926795,-1.0713158103419828e-08
2025-06-16 19:25:19.138,-16.983643397758087,-26.718106582278786,-43.701749974364816,-1.1057791964118121e-08
2025-06-16 19:25:19.142,-16.553398840096122,-21.35313416531983,-37.90653300022599,-1.1400459726403869e-08
2025-06-16 19:25:19.146,-15.060346255238372,-13.244507051361444,-28.30485330190873,-1.174107503051904e-08
2025-06-16 19:25:19.150,-11.577724598589658,-3.763371193238088,-15.341095787642372,-1.2079536797685545e-08
2025-06-16 19:25:19.154,-7.439521555065247,6.364381898187268,-1.0751396531740145,-1.2415739932374947e-08
2025-06-16 19:25:19.158,-5.004852977660919,15.68506900257112,10.680216028157098,-1.2749579541189464e-08
2025-06-16 19:25:19.162,-5.308447065798768,19.70313741448056,14.394690351477433,-1.3080937819433736e-08
2025-06-16 19:25:19.166,-7.380263575034853,13.826773516842657,6.446509944154032,-1.3409677606893929e-08
2025-06-16 19:25:19.169,-9.292817024262243,-0.4638564762344384,-9.756673498591084,-1.3735663960948244e-08
2025-06-16 19:25:19.173,-9.552338601317356,-15.517454498217049,-25.069793098056422,-1.4058787109272561e-08
2025-06-16 19:25:19.177,-8.11485475621743,-24.92278825589804,-33.03764301104795,-1.4378958223878394e-08
2025-06-16 19:25:19.181,-6.233979373650199,-28.89961479350177,-35.133594166477124,-1.469609539958882e-08
2025-06-16 19:25:19.185,-5.122501794004844,-31.27241555063765,-36.39491734435413,-1.5010120142439273e-08
2025-06-16 19:25:19.189,-5.11460809883288,-33.66871083128702,-38.783318930219565,-1.5320960442620854e-08
2025-06-16 19:25:19.193,-5.943786389238874,-35.08260794260112,-41.0263943323136,-1.562855630062065e-08
2025-06-16 19:25:19.197,-6.943927677523379,-35.33046161893816,-42.27438929727809,-1.5932859920271624e-08
2025-06-16 19:25:19.201,-7.189352209080188,-35.72783888601748,-42.91719109624066,-1.6233821952955583e-08
2025-06-16 19:25:19.205,-6.3828426427258345,-36.59005792294863,-42.972900567152806,-1.6531381093316994e-08
2025-06-16 19:25:19.209,-5.477339405861013,-36.39733307012088,-41.87467247779511,-1.6825471625231495e-08
2025-06-16 19:25:19.212,-5.696937709639929,-34.04616876676036,-39.74310647851496,-1.7116030022136282e-08
2025-06-16 19:25:19.216,-6.9995914134993935,-30.85894690201033,-37.858538317892,-1.7402989401853735e-08
2025-06-16 19:25:19.220,-8.16364920398041,-29.41540934843438,-37.57905855506742,-1.7686275773693353e-08
2025-06-16 19:25:19.224,-8.45649046586117,-30.489073304490937,-38.94556377329053,-1.7965808908663146e-08
2025-06-16 19:25:19.228,-8.330486655945428,-32.29134993590477,-40.62183659505362,-1.8241499477968183e-08
2025-06-16 19:25:19.232,-8.145321968239553,-33.26102104620838,-41.40634301786897,-1.8513247099173077e-08
2025-06-16 19:25:19.236,-7.344751724841903,-34.167314447042514,-41.51206617550573,-1.878094378541133e-08
2025-06-16 19:25:19.240,-5.5738383480555385,-36.012311705538984,-41.58615005743808,-1.9044481085933752e-08
2025-06-16 19:25:19.244,-3.5288482267765677,-36.8736567228334,-40.4025049536784,-1.9303765411173503e-08
2025-06-16 19:25:19.248,-1.9348014114007523,-33.49014843400465,-35.42494984965094,-1.955872869944383e-08
2025-06-16 19:25:19.251,-0.7332747924376182,-26.753636344407557,-27.486911141223853,-1.980931457627271e-08
2025-06-16 19:25:19.255,-0.0518678668136559,-22.67012552632807,-22.72199339766698,-2.0055457885493613e-08
2025-06-16 19:25:19.259,-0.7369585930247411,-25.338268174698747,-26.075226772423555,-2.0297079932004654e-08
2025-06-16 19:25:19.263,-2.8072009391943515,-31.558821936907652,-34.366022880945465,-2.0534093028017673e-08
2025-06-16 19:25:19.267,-4.472046898695638,-35.46466282867539,-39.93670973229114,-2.0766405009692173e-08
2025-06-16 19:25:19.271,-4.060666683136881,-35.7961461680289,-39.856812856151976,-2.099392082937085e-08
2025-06-16 19:25:19.275,-2.2122760796433707,-35.398569939451484,-37.61084602419216,-2.1216548879108836e-08
2025-06-16 19:25:19.279,-1.0045228537210842,-35.90403564964771,-36.90855850857537,-2.1434218744194785e-08
2025-06-16 19:25:19.283,-1.7223107821905737,-35.863148730723,-37.58545951815354,-2.164688872660376e-08
2025-06-16 19:25:19.287,-4.339252683492685,-33.45210133888514,-37.79135402760768,-2.185452440042501e-08
2025-06-16 19:25:19.291,-7.799324208421804,-29.773533920244592,-37.57285813393172,-2.205707004862392e-08
2025-06-16 19:25:19.294,-9.974438477627547,-28.320690797951123,-38.29512928091168,-2.2254447272646273e-08
2025-06-16 19:25:19.298,-9.247436043347442,-29.83885086786589,-39.08628691654749,-2.244657911882682e-08
2025-06-16 19:25:19.302,-7.004030764315624,-29.92140195007153,-36.925432719648114,-2.2633401849150077e-08
2025-06-16 19:25:19.306,-6.5371765072029895,-25.311577874211103,-31.848754386631025,-2.2814853836785257e-08
2025-06-16 19:25:19.310,-8.939948917503257,-19.937661957973745,-28.87761088071013,-2.299087209065676e-08
2025-06-16 19:25:19.314,-12.184215032622872,-19.608885558820685,-31.79310059665173,-2.316139995348626e-08
2025-06-16 19:25:19.318,-14.298677801315083,-23.455770709669117,-37.7544485160736,-2.3326387298915853e-08
2025-06-16 19:25:19.322,-15.09894207952141,-26.18016451234886,-41.27910659684187,-2.348579048233325e-08
2025-06-16 19:25:19.326,-14.888986824079067,-26.140198852944835,-41.029185681951816,-2.3639574912035865e-08
2025-06-16 19:25:19.330,-13.7809153354391,-25.92055613839196,-39.70147147870688,-2.3787705070911692e-08
2025-06-16 19:25:19.334,-12.354482495626014,-27.0255990048802,-39.38008150523247,-2.3930131278601063e-08
2025-06-16 19:25:19.337,-11.278377073977929,-28.421814193984574,-39.70019127250971,-2.406679475344523e-08
2025-06-16 19:25:19.341,-10.374268906596036,-29.11152349782771,-39.4857924088642,-2.4197642520416293e-08
2025-06-16 19:25:19.345,-9.298698149595962,-29.142990115406835,-38.441688269358224,-2.4322629503105198e-08
2025-06-16 19:25:19.349,-8.751804342992225,-28.722840415992955,-37.47464476316809,-2.444170772304652e-08
2025-06-16 19:25:19.353,-9.72232195021805,-27.94539056301064,-37.66771251718502,-2.45548234198856e-08
2025-06-16 19:25:19.357,-11.86008857435562,-26.586669607396423,-38.44675818554143,-2.4661929882721347e-08
2025-06-16 19:25:19.361,-13.804100967812955,-23.35826046659537,-37.162361438074655,-2.4762998218383256e-08
2025-06-16 19:25:19.365,-14.840041253312965,-16.76323355623967,-31.6032748130263,-2.4858016581124392e-08
2025-06-16 19:25:19.369,-15.203450097689764,-7.5180159387306515,-22.72146603963192,-2.4946986650647168e-08
2025-06-16 19:25:19.373,-15.14718842343331,1.216899209901981,-13.930289216522397,-2.5029919789102333e-08
2025-06-16 19:25:19.376,-14.770250392555475,6.651685326991364,-8.118565068391359,-2.5106832569562573e-08
2025-06-16 19:25:19.380,-14.492984278974324,8.32601131104119,-6.166972970547404,-2.5177744283898772e-08
2025-06-16 19:25:19.384,-14.709203068923353,7.082212731044759,-7.62699034020337,-2.5242675583367154e-08
2025-06-16 19:25:19.388,-15.063531759258844,3.532164011269977,-11.531367750047504,-2.5301649070973593e-08
2025-06-16 19:25:19.392,-14.921282141063845,-1.7366801170267256,-16.657962259945638,-2.535468990685829e-08
2025-06-16 19:25:19.396,-14.492615321204754,-7.785778757710681,-22.2783940805375,-2.5401823840748275e-08
2025-06-16 19:25:19.400,-14.580143629527774,-14.31571121341887,-28.895854844257645,-2.5443081388061125e-08
2025-06-16 19:25:19.404,-15.091944953613275,-21.149693993526174,-36.24163894814602,-2.5478506415043905e-08
2025-06-16 19:25:19.408,-14.76806676782472,-24.588889774340487,-39.35695654293207,-2.5508149497183244e-08
2025-06-16 19:25:19.412,-12.842737150840277,-17.032153867232637,-29.87489101858916,-2.55320515119538e-08
2025-06-16 19:25:19.416,-10.225959959012236,5.316952800933104,-4.909007158268093,-2.5550244634615238e-08
2025-06-16 19:25:19.419,-8.465459639905145,35.36120402364428,26.895744383887248,-2.5562766371766106e-08
2025-06-16 19:25:19.423,-8.127625383842604,59.57347188327222,51.445846499851136,-2.5569662144585336e-08
2025-06-16 19:25:19.427,-8.722064319279015,69.51223151748292,60.790167198891375,-2.5570976635353064e-08
2025-06-16 19:25:19.431,-9.59692528917237,67.21696175162785,57.62003646348078,-2.556674626959916e-08
2025-06-16 19:25:19.435,-10.297551957562384,60.5630367559401,50.26548479976748,-2.5556994889469582e-08
2025-06-16 19:25:19.439,-10.547095703563766,55.164703038938846,44.617607337071775,-2.5541735244142807e-08
2025-06-16 19:25:19.443,-10.502097228008244,49.92889605427768,39.426798828248295,-2.55209809439836e-08
2025-06-16 19:25:19.447,-10.772979335263615,39.25231700995665,28.47933767701526,-2.5494759675739863e-08
2025-06-16 19:25:19.451,-11.7726129092939,20.221890585142862,8.449277678555827,-2.546311141688211e-08
2025-06-16 19:25:19.455,-13.175897114161623,-2.095352279756679,-15.271249390870716,-2.54260737593203e-08
2025-06-16 19:25:19.459,-14.180646912304406,-18.252498381226985,-32.43314529018031,-2.538366990229432e-08
2025-06-16 19:25:19.462,-14.174599801678612,-23.85069774170896,-38.02529753968928,-2.5335906273749265e-08
2025-06-16 19:25:19.466,-13.196682336640292,-23.036797984855205,-36.23348031740099,-2.5282779893711525e-08
2025-06-16 19:25:19.470,-11.963943711342637,-21.920933525177222,-33.88487723205425,-2.5224292775221377e-08
2025-06-16 19:25:19.474,-11.40187900209294,-22.019077270184876,-33.420956267482126,-2.5160463474608112e-08
2025-06-16 19:25:19.478,-11.871051919073762,-22.15695682295604,-34.0280087368807,-2.5091328995484645e-08
2025-06-16 19:25:19.482,-12.681004669097558,-22.75346747228045,-35.43447213582843,-2.5016942356288345e-08
2025-06-16 19:25:19.486,-12.566731236035794,-23.703138112120328,-36.26986934221166,-2.493736639707305e-08
2025-06-16 19:25:19.490,-11.03653517506522,-20.573511269449288,-31.61004643820951,-2.4852658268221047e-08
2025-06-16 19:25:19.494,-9.158609615263272,-9.29404762561706,-18.452657234209727,-2.4762859112796988e-08
2025-06-16 19:25:19.498,-8.547472171037855,5.100781387989989,-3.446690775977016,-2.46680074834032e-08
2025-06-16 19:25:19.501,-9.63667623289515,10.708001211790055,1.0713249863743814,-2.4568158581690483e-08
2025-06-16 19:25:19.505,-11.390945823695214,2.095469708901823,-9.295476106923694,-2.4463379785794067e-08
2025-06-16 19:25:19.509,-12.573659076431344,-13.271585868334329,-25.84524493651025,-2.4353732559692533e-08
2025-06-16 19:25:19.513,-12.759215459226017,-23.722752758438723,-36.48196820900803,-2.4239269974940573e-08
2025-06-16 19:25:19.517,-12.15236100604473,-23.946958742271576,-36.09931973924684,-2.4120049511029356e-08
2025-06-16 19:25:19.521,-11.10361449108407,-16.199791025949004,-27.303405507550004,-2.3996139780993564e-08
2025-06-16 19:25:19.525,-10.18240747279522,-6.8411707665994905,-17.02357822949977,-2.3867613539455552e-08
2025-06-16 19:25:19.529,-10.167846492389328,-3.0137311274951566,-13.181577609580405,-2.3734538759924693e-08
2025-06-16 19:25:19.533,-11.194478003317686,-7.262418438193602,-18.4568964307954,-2.3596979558618152e-08
2025-06-16 19:25:19.537,-12.194808910664786,-13.850680295188086,-26.045489194709003,-2.3455008368565482e-08
2025-06-16 19:25:19.541,-12.06950976057027,-14.50983192932443,-26.57934167831105,-2.330872105486741e-08
2025-06-16 19:25:19.544,-11.146139323370212,-7.967937558686235,-19.114076870046965,-2.3158234474901257e-08
2025-06-16 19:25:19.548,-10.555656542268242,0.2855107487520638,-10.270145781095254,-2.3003658394180105e-08
2025-06-16 19:25:19.552,-10.632276413722488,6.197061831432806,-4.435214569435407,-2.2845072956302008e-08
2025-06-16 19:25:19.556,-10.910897818287328,9.858601322541652,-1.0522964824280254,-2.2682544470649426e-08
2025-06-16 19:25:19.560,-10.910637372995737,12.211336401244914,1.3006990420157534,-2.2516161452727427e-08
2025-06-16 19:25:19.564,-9.92141285990395,15.396715986753996,5.475303141032772,-2.2346043880509103e-08
2025-06-16 19:25:19.568,-7.310150159363099,24.26262517078026,16.952475026032403,-2.21723195036946e-08
2025-06-16 19:25:19.572,-4.14492505320929,40.70703972627607,36.56211468816039,-2.199510629316146e-08
2025-06-16 19:25:19.576,-2.873842914890201,58.31426197496525,55.4404190756424,-2.1814515395904167e-08
2025-06-16 19:25:19.580,-4.368872037568353,68.36718705581832,63.998315034245365,-2.1630654874548352e-08
2025-06-16 19:25:19.584,-7.035540870718078,68.02384546314492,60.98830460885229,-2.1443632374262618e-08
2025-06-16 19:25:19.587,-9.331898259306897,58.24250345612877,48.91060521372984,-2.1253565816292887e-08
2025-06-16 19:25:19.591,-11.046004851190675,40.85489635606419,29.808891522274145,-2.1060588182557825e-08
2025-06-16 19:25:19.595,-11.817855698541404,23.37402175087429,11.556166070177984,-2.0864831718343216e-08
2025-06-16 19:25:19.599,-10.804135052334884,17.2631559329921,6.459020898932242,-2.0666407897780516e-08
2025-06-16 19:25:19.603,-8.461914820990458,24.07795237279819,15.616037570560882,-2.046540701929436e-08
2025-06-16 19:25:19.607,-6.650695348305697,31.551471013768385,24.900775684717573,-2.0261913496470705e-08
2025-06-16 19:25:19.611,-6.198415972438113,29.344874542600927,23.14645858987783,-2.0056015453678952e-08
2025-06-16 19:25:19.615,-6.032265330507519,21.18365507114476,15.151389760784763,-1.9847801680355792e-08
2025-06-16 19:25:19.619,-5.287148949789563,16.802051999882462,11.514903070709344,-1.963735820557263e-08
2025-06-16 19:25:19.623,-4.529873772657969,18.692281513348146,14.162407761807131,-1.9424771078987093e-08
2025-06-16 19:25:19.626,-4.376291346042488,21.693539155808345,17.3172478313534,-1.9210128347650107e-08
2025-06-16 19:25:19.630,-4.540296304166884,21.40337645102872,16.863080168885983,-1.8993518181876893e-08
2025-06-16 19:25:19.634,-4.64301718512474,18.53631701909438,13.893299856452874,-1.8775028023721793e-08
2025-06-16 19:25:19.638,-4.723313399838587,16.261434800864475,11.538121424001368,-1.8554747588810865e-08
2025-06-16 19:25:19.642,-4.876587654868679,15.94139658900418,11.06480895758546,-1.8332771992149338e-08
2025-06-16 19:25:19.646,-5.163611749038814,16.040822939973864,10.87721121482554,-1.810919768279356e-08
2025-06-16 19:25:19.650,-5.597883457520767,14.727005249777656,9.12912181659795,-1.7884108162541547e-08
2025-06-16 19:25:19.654,-5.813487333306108,12.54777564346112,6.73428833497571,-1.7657560374248412e-08
2025-06-16 19:25:19.658,-5.298154599248519,11.103045564912078,5.804890990955087,-1.7429592619971274e-08
2025-06-16 19:25:19.662,-4.195372479367044,9.541799781459844,5.3464273278252,-1.720025506526852e-08
2025-06-16 19:25:19.666,-3.210165758978302,5.171314236820038,1.9611485040162455,-1.696962874872114e-08
2025-06-16 19:25:19.669,-2.5254701583230057,-1.8088343798780595,-4.334304511562321,-1.673780897132879e-08
2025-06-16 19:25:19.673,-1.5306241068274504,-7.323879888908744,-8.854503968637367,-1.650487983879238e-08
2025-06-16 19:25:19.677,0.0247760943637939,-8.972510644238756,-8.947734522340717,-1.6270916502876433e-08
2025-06-16 19:25:19.681,1.2598626955291703,-10.070920901187788,-8.81105817769214,-1.603600727777896e-08
2025-06-16 19:25:19.685,1.2981355535672583,-15.196650029551408,-13.898514447570072,-1.5800259795698498e-08
2025-06-16 19:25:19.689,0.9684051719112776,-22.306691848388876,-21.338286647619263,-1.556377940951609e-08
2025-06-16 19:25:19.693,2.21154093951329,-23.029721635498184,-20.8181806667028,-1.5326644526610622e-08
2025-06-16 19:25:19.697,5.161105996954348,-13.271751770060847,-8.110645743404842,-1.5088903845146783e-08
2025-06-16 19:25:19.701,7.090126539892651,-0.5835791105831012,6.5065474594417205,-1.4850594776483804e-08
2025-06-16 19:25:19.705,5.712386101120488,3.866338186826824,9.578724318505504,-1.4611762182616873e-08
2025-06-16 19:25:19.709,2.3549075951810847,-0.6863567703834952,1.668550855763297,-1.4372457621482451e-08
2025-06-16 19:25:19.712,-0.0417628263250206,-4.318627929974781,-4.36039072493026,-1.4132729667097026e-08
2025-06-16 19:25:19.716,-0.8626255061266959,-0.2186712144562972,-1.081296688800455,-1.3892632159676794e-08
2025-06-16 19:25:19.720,-1.5562774625022555,7.107663023703664,5.551385593390918,-1.3652235213904972e-08
2025-06-16 19:25:19.724,-2.5357317286986887,9.300470457498909,6.764738761377947,-1.3411605343959686e-08
2025-06-16 19:25:19.728,-2.7105271734366534,5.013577563190755,2.303050422716657,-1.3170781156966957e-08
2025-06-16 19:25:19.732,-1.6293372117223617,-0.0354728328621751,-1.6648100112277913,-1.2929784862097954e-08
2025-06-16 19:25:19.736,-0.2473581577880417,-1.2012437492528387,-1.4486018732965715,-1.2688643482452598e-08
2025-06-16 19:25:19.740,0.3730321082055073,0.3941653601781849,0.7671975024952645,-1.2447388648989529e-08
2025-06-16 19:25:19.744,0.1287902307771878,0.6710643683863995,0.7998546336382855,-1.2206055684694702e-08
2025-06-16 19:25:19.748,-0.2679148052558322,-2.2311343302781057,-2.4990491006854767,-1.1964696379085793e-08
2025-06-16 19:25:19.751,-0.0919395416809378,-6.133594334967134,-6.225533841431509,-1.1723386089429892e-08
2025-06-16 19:25:19.755,0.644061926949525,-7.593938707880636,-6.949876745368574,-1.1482211518443232e-08
2025-06-16 19:25:19.759,1.2651765936552395,-5.921975679055782,-4.656799049498384,-1.124124750610548e-08
2025-06-16 19:25:19.763,1.3571641712349674,-3.6266245213883046,-2.269460313899815,-1.1000546833863072e-08
2025-06-16 19:25:19.767,1.2929768928298446,-2.7962724130753056,-1.5032954836438814,-1.076015843205088e-08
2025-06-16 19:25:19.771,1.545690986296766,-2.608241255909304,-1.062550232686262,-1.0520150100255651e-08
2025-06-16 19:25:19.775,1.7932336987696222,-1.5878470458688403,0.2053866901420247,-1.0280607450895072e-08
2025-06-16 19:25:19.779,1.308793239320968,-0.6228271277178928,0.6859661491712364,-1.0041615590052671e-08
2025-06-16 19:25:19.783,0.22485411385644,-1.1825778856325773,-0.9577237338811126,-9.803238763079257e-09
2025-06-16 19:25:19.787,-0.3892740682028194,-1.6618846764234303,-2.051158706427684,-9.565515179516396e-09
2025-06-16 19:25:19.791,-0.026106160284699,0.8183251673796643,0.7922190455836375,-9.328477047178566e-09
2025-06-16 19:25:19.794,0.533596782534974,5.156016622103609,5.689613443428334,-9.09216461568674e-09
2025-06-16 19:25:19.798,0.4983712595138362,7.004278684004065,7.502649982612092,-8.856609811834712e-09
2025-06-16 19:25:19.802,0.1950663311984694,5.313480290974709,5.508546661549966,-8.621824296330327e-09
2025-06-16 19:25:19.806,0.2545781034850574,3.930744583043652,4.185322726171436,-8.387816795321837e-09
2025-06-16 19:25:19.810,0.4794223563758559,5.54011013235198,6.019532528645421,-8.154606681696129e-09
2025-06-16 19:25:19.814,0.3816894309499187,7.803558295181777,8.185247766330308,-7.922216205903011e-09
2025-06-16 19:25:19.818,0.2799626056093076,7.144237539057995,7.42420018512765,-7.690667855574287e-09
2025-06-16 19:25:19.822,0.9015560464254344,3.3553871008137004,4.256943187942492,-7.45999687638297e-09
2025-06-16 19:25:19.826,2.1873314722126347,-1.2718625665029475,0.9154689466624186,-7.230263409324322e-09
2025-06-16 19:25:19.830,3.4040748086914534,-4.96959908329403,-1.565524233392682,-7.001552480946856e-09
2025-06-16 19:25:19.834,4.230423813682915,-6.876430888955808,-2.6460070338222925,-6.773955917550229e-09
2025-06-16 19:25:19.837,4.695018203317707,-6.237070507412192,-1.542052262422441,-6.547545383822771e-09
2025-06-16 19:25:19.841,4.067603670373188,-2.7433834038911,1.3242203083797786,-6.322360768959798e-09
2025-06-16 19:25:19.845,1.1953292746821067,3.184208037832416,4.379537354645924,-6.098415641757764e-09
2025-06-16 19:25:19.849,-3.354358707797084,10.534290898564326,7.179932233117874,-5.875699028074621e-09
2025-06-16 19:25:19.853,-6.805493132456848,17.38491859670877,10.579425506803222,-5.654176881051072e-09
2025-06-16 19:25:19.857,-7.174468387093839,21.71399258495368,14.539524240615616,-5.433812811782293e-09
2025-06-16 19:25:19.861,-5.723425828038091,23.64277386909256,17.919348084022747,-5.21459527995481e-09
2025-06-16 19:25:19.865,-5.009778251836599,25.418708427143844,20.408930218473493,-4.996534830056495e-09
2025-06-16 19:25:19.869,-5.733076224736892,28.43512862196132,22.702052440570352,-4.779629420464594e-09
2025-06-16 19:25:19.873,-7.008043991027902,31.68472918196789,24.676685234471293,-4.563840841855026e-09
2025-06-16 19:25:19.876,-8.351795330825265,33.445888882107525,25.094093595008736,-4.3491079173235876e-09
2025-06-16 19:25:19.880,-9.846607744622505,33.228758841466714,23.382151140749908,-4.135372690598004e-09
2025-06-16 19:25:19.884,-11.386462256421192,31.87816244347076,20.49170023111376,-3.922589555281052e-09
2025-06-16 19:25:19.888,-12.88243445976781,30.690394031025985,17.80795961548901,-3.7107193095249822e-09
2025-06-16 19:25:19.892,-14.55475521670758,30.662036296504755,16.107281124210303,-3.4997283424137903e-09
2025-06-16 19:25:19.896,-16.467366977400886,32.02565313186874,15.558286199047474,-3.289600716245984e-09
2025-06-16 19:25:19.900,-18.27852374347475,34.1554647407515,15.876941041996018,-3.080349766446602e-09
2025-06-16 19:25:19.904,-19.72936920762321,36.03832530415253,16.308956141395512,-2.872012114528495e-09
2025-06-16 19:25:19.908,-20.89704184067216,37.0646536169237,16.16761182128874,-2.6646272971335844e-09
2025-06-16 19:25:19.912,-21.742460931398355,37.45328754611805,15.710826659917045,-2.458223565702785e-09
2025-06-16 19:25:19.916,-22.008116402181752,37.84769362232484,15.839577265466708,-2.2528220785342776e-09
2025-06-16 19:25:19.919,-21.89720825383367,38.51515717130048,16.61794896291726,-2.0484493575709704e-09
2025-06-16 19:25:19.923,-22.13925260480892,39.05971667220821,16.920464113007284,-1.8451347368171331e-09
2025-06-16 19:25:19.927,-22.932083182330103,38.8682440470843,15.93616091051902,-1.642891723850327e-09
2025-06-16 19:25:19.931,-23.59410524619525,37.75987316613767,14.165767965827143,-1.4417145684043054e-09
2025-06-16 19:25:19.935,-23.734294929741434,36.38253489916295,12.648240015416055,-1.241601962876663e-09
2025-06-16 19:25:19.939,-23.87465565962301,36.21139890639343,12.336743292906238,-1.0425774436556963e-09
2025-06-16 19:25:19.943,-24.39142649349254,38.9313094489617,14.539883001757838,-8.446807137316536e-10
2025-06-16 19:25:19.947,-24.86296986340868,44.6717744678552,19.80880465085518,-6.479417386725932e-10
2025-06-16 19:25:19.951,-25.111105065263484,49.932023113250345,24.82091809449521,-4.523663499614913e-10
