Timestamp,GSR_Filtered,PPG_Filtered,FMS,Condition
2025-06-16 19:38:09.742,-0.0050409054284166,40.86693695186271,0,MB
2025-06-16 19:38:09.749,-0.0052096090952505,47.456467662424565,0,MB
2025-06-16 19:38:09.757,-0.0053290244399138,54.70879154242461,0,MB
2025-06-16 19:38:09.765,-0.0054018049720655,62.55927788372628,0,MB
2025-06-16 19:38:09.773,-0.0054314319849215,70.93563677911942,0,MB
2025-06-16 19:38:09.781,-0.0054220614911007,79.75855449558175,0,MB
2025-06-16 19:38:09.789,-0.0053783602737904,88.9424275781842,0,MB
2025-06-16 19:38:09.796,-0.005305337725262,98.3962009769208,0,MB
2025-06-16 19:38:09.804,-0.005208179685544,108.02431090079868,0,MB
2025-06-16 19:38:09.812,-0.0050920898822236,117.72772864165944,0,MB
2025-06-16 19:38:09.820,-0.0049621438367175,127.40509744193236,0,MB
2025-06-16 19:38:09.828,-0.0048231592480984,136.95395068492846,0,MB
2025-06-16 19:38:09.835,-0.0046795859084422,146.2719962767038,0,MB
2025-06-16 19:38:09.843,-0.0045354171796122,155.25844904597264,0,MB
2025-06-16 19:38:09.851,-0.0043941240225113,163.81539029709705,0,MB
2025-06-16 19:38:09.859,-0.0042586115863368,171.84913132187324,0,MB
2025-06-16 19:38:09.867,-0.0041311975139515,179.2715557550068,0,MB
2025-06-16 19:38:09.874,-0.0040136104454127,186.0014142245348,0,MB
2025-06-16 19:38:09.882,-0.0039070066951685,191.96554390355456,0,MB
2025-06-16 19:38:09.890,-0.0038120027002237,197.0999854235807,0,MB
2025-06-16 19:38:09.898,-0.003728720562636,201.3509702638476,0,MB
2025-06-16 19:38:09.906,-0.0036568438458235,204.67575325833627,0,MB
2025-06-16 19:38:09.914,-0.0035956807436403,207.04326729423215,0,MB
2025-06-16 19:38:09.921,-0.0035442318204214,208.4345805946649,0,MB
2025-06-16 19:38:09.929,-0.0035012597025546,208.84314112117008,0,MB
2025-06-16 19:38:09.937,-0.0034653583686471,208.2747974903261,0,MB
2025-06-16 19:38:09.945,-0.0034350200059315,206.74759122717504,0,MB
2025-06-16 19:38:09.953,-0.0034086977304615,204.2913209941184,0,MB
2025-06-16 19:38:09.960,-0.0033848627681486,200.94688543375415,0,MB
2025-06-16 19:38:09.968,-0.0033620549491444,196.765417232076,0,MB
2025-06-16 19:38:09.976,-0.0033389255988654,191.80722672781292,0,MB
2025-06-16 19:38:09.984,-0.0033142721536477,186.1405786551929,0,MB
2025-06-16 19:38:09.992,-0.0032870641143759,179.84033021909087,0,MB
2025-06-16 19:38:09.999,-0.0032564602781793,172.98646250031297,0,MB
2025-06-16 19:38:10.007,-0.0032218175389509,165.6625400515215,0,MB
2025-06-16 19:38:10.015,-0.0031826918835029,157.9541353923769,0,MB
2025-06-16 19:38:10.023,-0.0031388324781307,149.9472559070472,0,MB
2025-06-16 19:38:10.031,-0.0030901699125745,141.72681037729944,0,MB
2025-06-16 19:38:10.039,-0.0030367997584602,133.37515105306767,0,MB
2025-06-16 19:38:10.046,-0.002978962622335,124.97072478309238,0,MB
2025-06-16 19:38:10.054,-0.0029170218223485,116.58686333896304,0,MB
2025-06-16 19:38:10.062,-0.0028514396910506,108.2907387456488,0,MB
2025-06-16 19:38:10.070,-0.0027827533381332,100.1425042921507,0,MB
2025-06-16 19:38:10.078,-0.0027115505517506,92.19463605546534,0,MB
2025-06-16 19:38:10.085,-0.0026384464084411,84.49148336235626,0,MB
2025-06-16 19:38:10.093,-0.0025640610863036,77.069029862342,0,MB
2025-06-16 19:38:10.101,-0.0024889993039202,69.95486018315772,0,MB
2025-06-16 19:38:10.109,-0.0024138317337073,63.168320976418926,0,MB
2025-06-16 19:38:10.117,-0.002339078678548,56.72085994137794,0,MB
2025-06-16 19:38:10.124,-0.0022651962561121,50.6165223404825,0,MB
2025-06-16 19:38:10.132,-0.0021925652868694,44.85258161493787,0,MB
2025-06-16 19:38:10.140,-0.0021214830178312,39.42027889253485,0,MB
2025-06-16 19:38:10.148,-0.0020521577489945,34.30564532419648,0,MB
2025-06-16 19:38:10.156,-0.0019847063855634,29.490381142064344,0,MB
2025-06-16 19:38:10.164,-0.0019191549162155,24.9527659599893,0,MB
2025-06-16 19:38:10.171,-0.0018554417920481,20.66857601690309,0,MB
2025-06-16 19:38:10.179,-0.0017934241284383,16.611985694002136,0,MB
2025-06-16 19:38:10.187,-0.0017328865629258,12.756432633111263,0,MB
2025-06-16 19:38:10.195,-0.0016735524777057,9.07542807591687,0,MB
2025-06-16 19:38:10.203,-0.0016150971496654,5.543296572971847,0,MB
2025-06-16 19:38:10.210,-0.0015571622606857,2.135831922001641,0,MB
2025-06-16 19:38:10.218,-0.0014993711355223,-1.1691409710251142,0,MB
2025-06-16 19:38:10.226,-0.001441344098603,-4.391305719193952,0,MB
2025-06-16 19:38:10.234,-0.0013827134306651,-7.547500087545623,0,MB
2025-06-16 19:38:10.242,-0.001323137512756,-10.65146931665939,0,MB
2025-06-16 19:38:10.249,-0.0012623138331025,-13.713726105430634,0,MB
2025-06-16 19:38:10.257,-0.0011999905885402,-16.741513666912326,0,MB
2025-06-16 19:38:10.265,-0.0011359766349393,-19.738865919981397,0,MB
2025-06-16 19:38:10.273,-0.0010701495337534,-22.70675677277115,0,MB
2025-06-16 19:38:10.281,-0.0010024614192195,-25.643328631344037,0,MB
2025-06-16 19:38:10.289,-0.0009329424080716,-28.544188764126247,0,MB
2025-06-16 19:38:10.296,-0.0008617013305477,-31.402760994368336,0,MB
2025-06-16 19:38:10.304,-0.0007889236813476,-34.21067939225325,0,MB
2025-06-16 19:38:10.312,-0.0007148668340723,-36.95821019877389,0,MB
2025-06-16 19:38:10.320,-0.0006398526984835,-39.63468813632731,0,MB
2025-06-16 19:38:10.328,-0.0005642581156246,-42.2289535497244,0,MB
2025-06-16 19:38:10.335,-0.0004885033693112,-44.72977747874816,0,MB
2025-06-16 19:38:10.343,-0.0004130392309154,-47.12626278264227,0,MB
2025-06-16 19:38:10.351,-0.0003383329605977,-49.40821079433034,0,MB
2025-06-16 19:38:10.359,-0.0002648537001753,-51.56644463506137,0,MB
2025-06-16 19:38:10.367,-0.0001930577413082,-53.59308220751762,0,MB
2025-06-16 19:38:10.374,-0.0001233742271866,-55.481753929297966,0,MB
2025-06-16 19:38:10.382,-5.619189035852416e-05,-57.227762376800726,0,MB
2025-06-16 19:38:10.390,8.152615064158353e-06,-58.82818308068902,0,MB
2025-06-16 19:38:10.398,6.938436094376068e-05,-60.28190764804831,0,MB
2025-06-16 19:38:10.406,0.0001272974964638,-61.58963209629847,0,MB
2025-06-16 19:38:10.414,0.0001817601243596,-62.75379470817894,0,MB
2025-06-16 19:38:10.421,0.0002327165658924,-63.77846882525838,0,MB
2025-06-16 19:38:10.429,0.0002801869234644,-64.66921679027706,0,MB
2025-06-16 19:38:10.437,0.0003242639423196,-65.43291175289795,0,MB
2025-06-16 19:38:10.445,0.0003651073011151,-66.07753431109913,0,MB
2025-06-16 19:38:10.453,0.0004029355796397,-66.61195101548239,0,MB
2025-06-16 19:38:10.460,0.0004380162364206,-67.0456816530969,0,MB
2025-06-16 19:38:10.468,0.0004706539921044,-67.38866197963726,0,MB
2025-06-16 19:38:10.476,0.0005011780760628,-67.65100820629185,0,MB
2025-06-16 19:38:10.484,0.0005299288535606,-67.84278908488449,0,MB
2025-06-16 19:38:10.492,0.0005572443873797,-67.97381087833051,0,MB
2025-06-16 19:38:10.499,0.0005834474781053,-68.05341985453327,0,MB
2025-06-16 19:38:10.507,0.0006088336741142,-68.09032620693026,0,MB
2025-06-16 19:38:10.515,0.0006336606787789,-68.09245250024661,0,MB
2025-06-16 19:38:10.523,0.0006581395447676,-68.06680888993802,0,MB
2025-06-16 19:38:10.531,0.0006824280341122,-68.01939649584506,0,MB
2025-06-16 19:38:10.539,0.0007066264930717,-67.95513945386664,0,MB
2025-06-16 19:38:10.546,0.000730776496528,-67.87784535581986,0,MB
2025-06-16 19:38:10.554,0.0007548623592431,-67.7901930510482,0,MB
2025-06-16 19:38:10.562,0.0007788154303072,-67.69374615647592,0,MB
2025-06-16 19:38:10.570,0.0008025209179833,-67.588990131857,0,MB
2025-06-16 19:38:10.578,0.0008258268503955,-67.47539044109722,0,MB
2025-06-16 19:38:10.585,0.0008485546679331,-67.35146914165622,0,MB
2025-06-16 19:38:10.593,0.0008705108680323,-67.21489720850424,0,MB
2025-06-16 19:38:10.601,0.0008914990833584,-67.06259997696297,0,MB
2025-06-16 19:38:10.609,0.0009113319705945,-66.89087323635141,0,MB
2025-06-16 19:38:10.617,0.0009298423183847,-66.69550767273573,0,MB
2025-06-16 19:38:10.624,0.0009468928479426,-66.47191949661686,0,MB
2025-06-16 19:38:10.632,0.0009623842760472,-66.21528516551865,0,MB
2025-06-16 19:38:10.640,0.0009762613328289,-65.9206781045535,0,MB
2025-06-16 19:38:10.648,0.0009885165623351,-65.58320523973791,0,MB
2025-06-16 19:38:10.656,0.0009991918555601,-65.19814100601315,0,MB
2025-06-16 19:38:10.664,0.0010083777473894,-64.7610563070809,0,MB
2025-06-16 19:38:10.671,0.0010162105507696,-64.26793973011151,0,MB
2025-06-16 19:38:10.679,0.0010228674358619,-63.71530820216677,0,MB
2025-06-16 19:38:10.687,0.0010285596330753,-63.10030426340963,0,MB
2025-06-16 19:38:10.695,0.0010335240664402,-62.42077726632079,0,MB
2025-06-16 19:38:10.703,0.0010380138730168,-61.675346119050566,0,MB
2025-06-16 19:38:10.710,0.0010422883616171,-60.8634416811518,0,MB
2025-06-16 19:38:10.718,0.0010466029611133,-59.98532756877035,0,MB
2025-06-16 19:38:10.726,0.0010511996181149,-59.04209888530311,0,MB
2025-06-16 19:38:10.734,0.0010562979744158,-58.035659200901634,0,MB
2025-06-16 19:38:10.742,0.0010620875327858,-56.9686769013704,0,MB
2025-06-16 19:38:10.749,0.0010687209413931,-55.84452276808602,0,MB
2025-06-16 19:38:10.757,0.0010763085084566,-54.66719130265042,0,MB
2025-06-16 19:38:10.765,0.0010849140756819,-53.44120884777672,0,MB
2025-06-16 19:38:10.773,0.0010945523832801,-52.17153195668104,0,MB
2025-06-16 19:38:10.781,0.0011051880256554,-50.86343970647275,0,MB
2025-06-16 19:38:10.789,0.0011167360370393,-49.52242372134532,0,MB
2025-06-16 19:38:10.796,0.0011290640814096,-48.15407956077934,0,MB
2025-06-16 19:38:10.804,0.0011419961607395,-46.7640028370318,0,MB
2025-06-16 19:38:10.812,0.0011553177014994,-45.35769296725419,0,MB
2025-06-16 19:38:10.820,0.0011687818311931,-43.94046686648506,0,MB
2025-06-16 19:38:10.828,0.0011821166143102,-42.517384191362346,0,MB
2025-06-16 19:38:10.835,0.0011950329802601,-41.09318500417413,0,MB
2025-06-16 19:38:10.843,0.0012072330445452,-39.67224000198536,0,MB
2025-06-16 19:38:10.851,0.001218418500384,-38.25851280562742,0,MB
2025-06-16 19:38:10.859,0.0012282987511911,-36.85553328110181,0,MB
2025-06-16 19:38:10.867,0.0012365984859204,-35.466380510198555,0,MB
2025-06-16 19:38:10.874,0.0012430644811938,-34.09367385929792,0,MB
2025-06-16 19:38:10.882,0.0012474715210056,-32.73957061910746,0,MB
2025-06-16 19:38:10.890,0.0012496274078321,-31.405768887422497,0,MB
2025-06-16 19:38:10.898,0.0012493770734791,-30.09351470327996,0,MB
2025-06-16 19:38:10.906,0.0012466057971675,-28.803612856017885,0,MB
2025-06-16 19:38:10.914,0.0012412415251718,-27.53644122025358,0,MB
2025-06-16 19:38:10.921,0.0012332562730456,-26.291968845747625,0,MB
2025-06-16 19:38:10.929,0.0012226665823744,-25.06977831034232,0,MB
2025-06-16 19:38:10.937,0.0012095330017242,-23.869092990618604,0,MB
2025-06-16 19:38:10.945,0.0011939585684361,-22.688809900311107,0,MB
2025-06-16 19:38:10.953,0.0011760862862918,-21.52753858977225,0,MB
2025-06-16 19:38:10.960,0.0011560956239082,-20.383646308344225,0,MB
2025-06-16 19:38:10.968,0.0011341980914762,-19.255309239827497,0,MB
2025-06-16 19:38:10.976,0.0011106319690167,-18.1405691749978,0,MB
2025-06-16 19:38:10.984,0.0010856562462735,-17.037394533352256,0,MB
2025-06-16 19:38:10.992,0.0010595438179943,-15.94374423511137,0,MB
2025-06-16 19:38:10.999,0.0010325740050589,-14.857632593842157,0,MB
2025-06-16 19:38:11.007,0.0010050245552598,-13.777193180914267,0,MB
2025-06-16 19:38:11.015,0.0009771633798221,-12.70073952433244,0,MB
2025-06-16 19:38:11.023,0.0009492403544547,-11.6268205510887,0,MB
2025-06-16 19:38:11.031,0.0009214795367805,-10.554268855735682,0,MB
2025-06-16 19:38:11.039,0.00089407213293,-9.482240160381949,0,MB
2025-06-16 19:38:11.046,0.0008671705066963,-8.41024269774045,0,MB
2025-06-16 19:38:11.054,0.0008408834887839,-7.338155668915723,0,MB
2025-06-16 19:38:11.062,0.0008152732135769,-6.266236368902337,0,MB
2025-06-16 19:38:11.070,0.0007903536638149,-5.195116005973019,0,MB
2025-06-16 19:38:11.078,0.0007660910270936,-4.125784644028839,0,MB
2025-06-16 19:38:11.085,0.0007424058783348,-3.059566055181583,0,MB
2025-06-16 19:38:11.093,0.0007191771223359,-1.9980835751417332,0,MB
2025-06-16 19:38:11.101,0.0006962475715114,-0.9432183012720056,0,MB
2025-06-16 19:38:11.109,0.0006734309967148,0.1029388432814871,0,MB
2025-06-16 19:38:11.117,0.000650520463876,1.1381395443921136,0,MB
2025-06-16 19:38:11.124,0.0006272977330945,2.160033364896184,0,MB
2025-06-16 19:38:11.132,0.0006035434274842,3.166224233373736,0,MB
2025-06-16 19:38:11.140,0.0005790475801771,4.154326670806757,0,MB
2025-06-16 19:38:11.148,0.0005536200755801,5.122020454682709,0,MB
2025-06-16 19:38:11.156,0.0005271004629057,6.067102624334361,0,MB
2025-06-16 19:38:11.164,0.0004993666609955,6.98753592656638,0,MB
2025-06-16 19:38:11.171,0.0004703421717919,7.881492963613076,0,MB
2025-06-16 19:38:11.179,0.0004400015275299,8.74739542105772,0,MB
2025-06-16 19:38:11.187,0.0004083737886001,9.583947814856373,0,MB
2025-06-16 19:38:11.195,0.0003755439949013,10.39016520952585,0,MB
2025-06-16 19:38:11.203,0.0003416525635939,11.165394343091204,0,MB
2025-06-16 19:38:11.210,0.0003068927062706,11.909327574971767,0,MB
2025-06-16 19:38:11.218,0.0002715059867181,12.622009074248217,0,MB
2025-06-16 19:38:11.226,0.0002357761569858,13.303832704024536,0,MB
2025-06-16 19:38:11.234,0.0002000214186032,13.95553114396839,0,MB
2025-06-16 19:38:11.242,0.0001645852817287,14.57815593636442,0,MB
2025-06-16 19:38:11.249,0.0001298262480659,15.173048346947107,0,MB
2025-06-16 19:38:11.257,9.610662428414668e-05,15.741801198939273,0,MB
2025-06-16 19:38:11.265,6.37808774125651e-05,16.286212155039472,0,MB
2025-06-16 19:38:11.273,3.318405703540089e-05,16.808229267003686,0,MB
2025-06-16 19:38:11.281,4.6208938984923936e-06,17.309889962486864,0,MB
2025-06-16 19:38:11.289,-2.1643808940256217e-05,17.793254970675,0,MB
2025-06-16 19:38:11.296,-4.539297245324139e-05,18.260338978577785,0,MB
2025-06-16 19:38:11.304,-6.646287982596092e-05,18.713040035984605,0,MB
2025-06-16 19:38:11.312,-8.47465133958123e-05,19.153069870702573,0,MB
2025-06-16 19:38:11.320,-0.0001001946388658,19.581887326718174,0,MB
2025-06-16 19:38:11.328,-0.0001128148404315,20.00063709590552,0,MB
2025-06-16 19:38:11.335,-0.000122668803517,20.410095786886515,0,MB
2025-06-16 19:38:11.343,-0.0001298681594361,20.8106271772696,0,MB
2025-06-16 19:38:11.351,-0.0001345691737485,21.20214824701025,0,MB
2025-06-16 19:38:11.359,-0.0001369665271793,21.584107310923823,0,MB
2025-06-16 19:38:11.367,-0.0001372864315914,21.95547527159604,0,MB
2025-06-16 19:38:11.374,-0.0001357793334014,22.314750704422096,0,MB
2025-06-16 19:38:11.382,-0.0001327124637469,22.65997916100067,0,MB
2025-06-16 19:38:11.390,-0.0001283624905194,22.98878673101236,0,MB
2025-06-16 19:38:11.398,-0.0001230085121929,23.29842753470062,0,MB
2025-06-16 19:38:11.406,-0.0001169256090064,23.58584443086697,0,MB
2025-06-16 19:38:11.414,-0.0001103791352991,23.84774182512597,0,MB
2025-06-16 19:38:11.421,-0.0001036198993845,24.08066905977204,0,MB
2025-06-16 19:38:11.429,-9.68803358782853e-05,24.281112472520803,0,MB
2025-06-16 19:38:11.437,-9.037173130571076e-05,24.445593840508653,0,MB
2025-06-16 19:38:11.445,-8.428251834799176e-05,24.57077259377137,0,MB
2025-06-16 19:38:11.453,-7.87776082791701e-05,24.653548908545183,0,MB
2025-06-16 19:38:11.460,-7.39986858365202e-05,24.691164600115894,0,MB
2025-06-16 19:38:11.468,-7.006534659257186e-05,24.68129865473202,0,MB
2025-06-16 19:38:11.476,-6.707691432971495e-05,24.622154292977196,0,MB
2025-06-16 19:38:11.484,-6.511473528243245e-05,24.512534655224798,0,MB
2025-06-16 19:38:11.492,-6.424470762296745e-05,24.35190454191049,0,MB
2025-06-16 19:38:11.499,-6.451976998973983e-05,24.14043611090007,0,MB
2025-06-16 19:38:11.507,-6.598205198317064e-05,23.87903700078728,0,MB
2025-06-16 19:38:11.515,-6.8664403086648e-05,23.5693599728224,0,MB
2025-06-16 19:38:11.523,-7.259107572694685e-05,23.21379380398879,0,MB
2025-06-16 19:38:11.531,-7.777741864331564e-05,22.815435783755994,0,MB
2025-06-16 19:38:11.539,-8.422850011192307e-05,22.37804674052687,0,MB
2025-06-16 19:38:11.546,-9.19366332262952e-05,21.905990031488063,0,MB
2025-06-16 19:38:11.554,-0.0001008778713117,21.404156355774504,0,MB
2025-06-16 19:38:11.562,-0.0001110077101161,20.87787658213577,0,MB
2025-06-16 19:38:11.570,-0.0001222564312882,20.332825009429012,0,MB
2025-06-16 19:38:11.578,-0.0001345246716195,19.774915597908933,0,MB
2025-06-16 19:38:11.585,-0.0001476798550819,19.21019372413692,0,MB
2025-06-16 19:38:11.593,-0.0001615540664148,18.644725931793925,0,MB
2025-06-16 19:38:11.601,-0.0001759437861438,18.084489992083256,0,MB
2025-06-16 19:38:11.609,-0.0001906116939529,17.53526737580493,0,MB
2025-06-16 19:38:11.617,-0.0002052905564556,17.00254000500549,0,MB
2025-06-16 19:38:11.624,-0.0002196890975486,16.491392926740158,0,MB
2025-06-16 19:38:11.632,-0.0002334996943195,16.006424361029193,0,MB
2025-06-16 19:38:11.640,-0.0002464077054353,15.551664434640903,0,MB
2025-06-16 19:38:11.648,-0.0002581021894933,15.130503823951605,0,MB
2025-06-16 19:38:11.656,-0.0002682876974302,14.745633484506047,0,MB
2025-06-16 19:38:11.664,-0.0002766967263535,14.398996623692886,0,MB
2025-06-16 19:38:11.671,-0.0002831023073057,14.091754050365736,0,MB
2025-06-16 19:38:11.679,-0.0002873300827184,13.824263980995626,0,MB
2025-06-16 19:38:11.687,-0.0002892691486592,13.59607726739674,0,MB
2025-06-16 19:38:11.695,-0.0002888809409416,13.405948815585846,0,MB
2025-06-16 19:38:11.703,-0.0002862055476336,13.251865678884633,0,MB
2025-06-16 19:38:11.710,-0.0002813649880526,13.131091931659345,0,MB
2025-06-16 19:38:11.718,-0.0002745631482038,13.04022997563103,0,MB
2025-06-16 19:38:11.726,-0.0002660821924514,12.975297423238915,0,MB
2025-06-16 19:38:11.734,-0.0002562754134646,12.9318181744731,0,MB
2025-06-16 19:38:11.742,-0.0002455566561508,12.904925787418774,0,MB
2025-06-16 19:38:11.749,-0.000234386639828,12.889476768254283,0,MB
2025-06-16 19:38:11.757,-0.0002232566807109,12.880171002329922,0,MB
2025-06-16 19:38:11.765,-0.0002126704696449,12.871676240507403,0,MB
2025-06-16 19:38:11.773,-0.000203124682133,12.858753362530356,0,MB
2025-06-16 19:38:11.781,-0.0001950892853975,12.836379068986377,0,MB
2025-06-16 19:38:11.789,-0.0001889884573209,12.799862703373352,0,MB
2025-06-16 19:38:11.796,-0.0001851830420297,12.744954068887244,0,MB
2025-06-16 19:38:11.804,-0.0001839554346792,12.667939370879454,0,MB
2025-06-16 19:38:11.812,-0.0001854977124653,12.565722771505316,0,MB
2025-06-16 19:38:11.820,-0.0001899037096946,12.435891469152004,0,MB
2025-06-16 19:38:11.828,-0.0001971655724866,12.276762691396495,0,MB
2025-06-16 19:38:11.835,-0.0002071751250613,12.087411499209162,0,MB
2025-06-16 19:38:11.843,-0.0002197301374243,11.867678829003053,0,MB
2025-06-16 19:38:11.851,-0.0002345453077435,11.618159736472563,0,MB
2025-06-16 19:38:11.859,-0.0002512674688766,11.340172339280969,0,MB
2025-06-16 19:38:11.867,-0.0002694942155109,11.035708472245371,0,MB
2025-06-16 19:38:11.874,-0.0002887948662929,10.70736755983192,0,MB
2025-06-16 19:38:11.882,-0.0003087324767462,10.358275668922252,0,MB
2025-06-16 19:38:11.890,-0.0003288855327493,9.991992116677906,0,MB
2025-06-16 19:38:11.898,-0.000348867970769,9.612406351810897,0,MB
2025-06-16 19:38:11.906,-0.0003683462752684,9.223628077945682,0,MB
2025-06-16 19:38:11.914,-0.0003870526047618,8.829873728588609,0,MB
2025-06-16 19:38:11.921,-0.0004047932004879,8.435352433566669,0,MB
2025-06-16 19:38:11.929,-0.0004214517013925,8.044154550268377,0,MB
2025-06-16 19:38:11.937,-0.0004369873687316,7.660145689697463,0,MB
2025-06-16 19:38:11.945,-0.0004514285688673,7.286868964230797,0,MB
2025-06-16 19:38:11.953,-0.000464862152167,6.9274579306384885,0,MB
2025-06-16 19:38:11.960,-0.0004774195896591,6.584562402863078,0,MB
2025-06-16 19:38:11.968,-0.0004892608814884,6.260288967454439,0,MB
2025-06-16 19:38:11.976,-0.0005005573288498,5.9561576532042695,0,MB
2025-06-16 19:38:11.984,-0.000511474264495,5.673075787318237,0,MB
2025-06-16 19:38:11.992,-0.0005221547770135,5.4113296153093655,0,MB
2025-06-16 19:38:11.999,-0.000532705364925,5.170593774561812,0,MB
2025-06-16 19:38:12.007,-0.0005431843349329,4.949958200132795,0,MB
2025-06-16 19:38:12.015,-0.0005535935973201,4.747971519994947,0,MB
2025-06-16 19:38:12.023,-0.0005638742812633,4.562699486322177,0,MB
2025-06-16 19:38:12.031,-0.0005739063108347,4.391796513237422,0,MB
2025-06-16 19:38:12.039,-0.0005835118162473,4.232587971096515,0,MB
2025-06-16 19:38:12.046,-0.0005924620567432,4.082160540322734,0,MB
2025-06-16 19:38:12.054,-0.0006004873942243,3.937457668975101,0,MB
2025-06-16 19:38:12.062,-0.0006072897416887,3.795377021608782,0,MB
2025-06-16 19:38:12.070,-0.0006125567982251,3.6528667657996654,0,MB
2025-06-16 19:38:12.078,-0.0006159772877707,3.5070176278908285,0,MB
2025-06-16 19:38:12.085,-0.0006172563684025,3.355147865877904,0,MB
2025-06-16 19:38:12.093,-0.0006161303849262,3.1948786484396545,0,MB
2025-06-16 19:38:12.101,-0.0006123802009974,3.02419777393151,0,MB
2025-06-16 19:38:12.109,-0.0006058424674874,2.8415101779008025,0,MB
2025-06-16 19:38:12.117,-0.0005964183494452,2.6456742230302344,0,MB
2025-06-16 19:38:12.124,-0.000584079417162,2.436023305713059,0,MB
2025-06-16 19:38:12.132,-0.0005688705812334,2.212372822823033,0,MB
2025-06-16 19:38:12.140,-0.0005509101045293,1.9750130048331775,0,MB
2025-06-16 19:38:12.148,-0.0005303868521349,1.7246885280801256,0,MB
2025-06-16 19:38:12.156,-0.0005075550427679,1.4625661644149477,0,MB
2025-06-16 19:38:12.164,-0.0004827268419204,1.190192008349427,0,MB
2025-06-16 19:38:12.171,-0.0004562631888267,0.9094400390367582,0,MB
2025-06-16 19:38:12.179,-0.0004285632777298,0.6224539247764622,0,MB
2025-06-16 19:38:12.187,-0.0004000531207325,0.3315840563692134,0,MB
2025-06-16 19:38:12.195,-0.0003711736070248,0.0393217966104824,0,MB
2025-06-16 19:38:12.203,-0.0003423684439533,-0.2517671458093115,0,MB
2025-06-16 19:38:12.210,-0.0003140723218195,-0.5391084615590513,0,MB
2025-06-16 19:38:12.218,-0.0002866995906264,-0.8201825550136641,0,MB
2025-06-16 19:38:12.226,-0.0002606336854,-1.0925841154786082,0,MB
2025-06-16 19:38:12.234,-0.0002362175100759,-1.3540768840540705,0,MB
2025-06-16 19:38:12.242,-0.0002137450015386,-1.60264280842295,0,MB
2025-06-16 19:38:12.249,-0.0001934541207268,-1.8365250252576315,0,MB
2025-06-16 19:38:12.257,-0.0001755215085365,-2.0542643393306164,0,MB
2025-06-16 19:38:12.265,-0.0001600589760115,-2.2547290670631472,0,MB
2025-06-16 19:38:12.273,-0.0001471118858543,-2.437138271239961,0,MB
2025-06-16 19:38:12.281,-0.0001366593597947,-2.6010785282730726,0,MB
2025-06-16 19:38:12.289,-0.0001286161563737,-2.746514438459215,0,MB
2025-06-16 19:38:12.296,-0.0001228360425332,-2.873793117200468,0,MB
2025-06-16 19:38:12.304,-0.0001191165197697,-2.983642901702021,0,MB
2025-06-16 19:38:12.312,-0.0001172047986177,-3.077166486796985,0,MB
2025-06-16 19:38:12.320,-0.0001168048943286,-3.155828676442892,0,MB
2025-06-16 19:38:12.328,-0.0001175856547242,-3.2214389105636547,0,MB
2025-06-16 19:38:12.335,-0.0001191894724369,-3.2761287036649134,0,MB
2025-06-16 19:38:12.343,-0.0001212414093725,-3.322324115332796,0,MB
2025-06-16 19:38:12.351,-0.0001233584820614,-3.3627133684596235,0,MB
2025-06-16 19:38:12.359,-0.0001251589125153,-3.400209744961681,0,MB
2025-06-16 19:38:12.367,-0.0001262712129986,-3.437909925245371,0,MB
2025-06-16 19:38:12.374,-0.0001263430191897,-3.479047998023024,0,MB
2025-06-16 19:38:12.382,-0.0001250496031328,-3.5269454512899405,0,MB
2025-06-16 19:38:12.390,-0.0001221019833747,-3.584957564467919,0,MB
2025-06-16 19:38:12.398,-0.0001172545062064,-3.6564167574182505,0,MB
2025-06-16 19:38:12.406,-0.0001103117035908,-3.744573612081164,0,MB
2025-06-16 19:38:12.414,-0.0001011341542279,-3.852536456710873,0,MB
2025-06-16 19:38:12.421,-8.964301217532591e-05,-3.98321057158912,0,MB
2025-06-16 19:38:12.429,-7.58228516926388e-05,-4.139238213440495,0,MB
2025-06-16 19:38:12.437,-5.972251896996616e-05,-4.322940739099866,0,MB
2025-06-16 19:38:12.445,-4.1453772725251296e-05,-4.536264120274496,0,MB
2025-06-16 19:38:12.453,-2.118761481778752e-05,-4.780729074937535,0,MB
2025-06-16 19:38:12.460,8.516650673718772e-07,-5.057386904195909,0,MB
2025-06-16 19:38:12.468,2.439458303224826e-05,-5.366781935803127,0,MB
2025-06-16 19:38:12.476,4.913639982709223e-05,-5.7089212657524095,0,MB
2025-06-16 19:38:12.484,7.474843596369414e-05,-6.083252290275595,0,MB
2025-06-16 19:38:12.492,0.000100890116264,-6.488648360728142,0,MB
2025-06-16 19:38:12.499,0.0001272209660827,-6.923402791316708,0,MB
2025-06-16 19:38:12.507,0.0001534117351406,-7.385231408739181,0,MB
2025-06-16 19:38:12.515,0.0001791538756238,-7.871283843276728,0,MB
2025-06-16 19:38:12.523,0.0002041667468254,-8.378163799623607,0,MB
2025-06-16 19:38:12.531,0.000228202153985,-8.901958583748767,0,MB
2025-06-16 19:38:12.539,0.0002510461346307,-9.438278173151756,0,MB
2025-06-16 19:38:12.546,0.0002725182354974,-9.982304081896109,0,MB
2025-06-16 19:38:12.554,0.000292468810609,-10.528848172757236,0,MB
2025-06-16 19:38:12.562,0.0003107750518184,-11.072421394243504,0,MB
2025-06-16 19:38:12.570,0.0003273365074186,-11.607312164041112,0,MB
2025-06-16 19:38:12.578,0.0003420707751764,-12.127673785103568,0,MB
2025-06-16 19:38:12.585,0.0003549099230509,-12.62761987723013,0,MB
2025-06-16 19:38:12.593,0.0003657980329724,-13.101326355339976,0,MB
2025-06-16 19:38:12.601,0.0003746900989991,-13.54313801543331,0,MB
2025-06-16 19:38:12.609,0.0003815523499115,-13.947677338968328,0,MB
2025-06-16 19:38:12.617,0.0003863639149836,-14.309952738114246,0,MB
2025-06-16 19:38:12.624,0.0003891196170483,-14.62546317667048,0,MB
2025-06-16 19:38:12.632,0.0003898335652268,-14.890295944428477,0,MB
2025-06-16 19:38:12.640,0.0003885431362538,-15.101214355317698,0,MB
2025-06-16 19:38:12.648,0.0003853128827084,-15.255732288770488,0,MB
2025-06-16 19:38:12.656,0.0003802378921279,-15.352172794688151,0,MB
2025-06-16 19:38:12.664,0.0003734461451999,-15.38970842004434,0,MB
2025-06-16 19:38:12.671,0.0003650994850015,-15.368381466106571,0,MB
2025-06-16 19:38:12.679,0.0003553929121993,-15.289103021946696,0,MB
2025-06-16 19:38:12.687,0.0003445520614465,-15.15363031550039,0,MB
2025-06-16 19:38:12.695,0.0003328288870639,-14.964522653673583,0,MB
2025-06-16 19:38:12.703,0.0003204957754912,-14.72507696432283,0,MB
2025-06-16 19:38:12.710,0.000307838469996,-14.439244680133308,0,MB
2025-06-16 19:38:12.718,0.0002951482893097,-14.111532389901086,0,MB
2025-06-16 19:38:12.726,0.0002827141209837,-13.746889296400202,0,MB
2025-06-16 19:38:12.734,0.0002708145959751,-13.350585029678427,0,MB
2025-06-16 19:38:12.742,0.0002597107520761,-12.92808173906085,0,MB
2025-06-16 19:38:12.750,0.0002496394066079,-12.484904601571284,0,MB
2025-06-16 19:38:12.757,0.0002408073959352,-12.026514924574736,0,MB
2025-06-16 19:38:12.765,0.0002333867942439,-11.558189882150034,0,MB
2025-06-16 19:38:12.773,0.0002275111744189,-11.084912611321654,0,MB
2025-06-16 19:38:12.781,0.0002232728974451,-10.61127591506408,0,MB
2025-06-16 19:38:12.789,0.00022072131646,-10.141402192134898,0,MB
2025-06-16 19:38:12.796,0.0002198616920782,-9.678881471259205,0,MB
2025-06-16 19:38:12.804,0.0002206545840603,-9.22672861554494,0,MB
2025-06-16 19:38:12.812,0.000223015542742,-8.787359937496692,0,MB
2025-06-16 19:38:12.820,0.0002268150677783,-8.362588679899426,0,MB
2025-06-16 19:38:12.828,0.0002318789901399,-7.953638118414802,0,MB
2025-06-16 19:38:12.835,0.0002379896015099,-7.561170459860842,0,MB
2025-06-16 19:38:12.843,0.0002448879396705,-7.18532926351985,0,MB
2025-06-16 19:38:12.851,0.0002522776096675,-6.8257928076972565,0,MB
2025-06-16 19:38:12.859,0.000259830400642,-6.481835660196287,0,MB
2025-06-16 19:38:12.867,0.0002671937956982,-6.152395686897288,0,MB
2025-06-16 19:38:12.875,0.0002740003043029,-5.836143840672982,0,MB
2025-06-16 19:38:12.882,0.0002798783900024,-5.53155429739685,0,MB
2025-06-16 19:38:12.890,0.0002844646273437,-5.236972818417059,0,MB
2025-06-16 19:38:12.898,0.0002874166055189,-4.950681583356991,0,MB
2025-06-16 19:38:12.906,0.0002884260067715,-4.6709591189679545,0,MB
2025-06-16 19:38:12.914,0.0002872312288798,-4.396134323272456,0,MB
2025-06-16 19:38:12.921,0.0002836288963617,-4.124633932339744,0,MB
2025-06-16 19:38:12.929,0.0002774836170285,-3.855023087038367,0,MB
2025-06-16 19:38:12.937,0.0002687353909251,-3.586038917944974,0,MB
2025-06-16 19:38:12.945,0.0002574041684073,-3.3166172687963407,0,MB
2025-06-16 19:38:12.953,0.0002435911829145,-3.0459128152932253,0,MB
2025-06-16 19:38:12.960,0.0002274768505789,-2.7733129031114463,0,MB
2025-06-16 19:38:12.968,0.0002093152289717,-2.4984454294298173,0,MB
2025-06-16 19:38:12.976,0.0001894252458362,-2.2211810382951183,0,MB
2025-06-16 19:38:12.984,0.0001681791101104,-1.9416298134259693,0,MB
2025-06-16 19:38:12.992,0.0001459884619281,-1.6601325604838897,0,MB
2025-06-16 19:38:13.000,0.0001232889016275,-1.3772467032171811,0,MB
2025-06-16 19:38:13.007,0.0001005235953252,-1.09372679793628,0,MB
2025-06-16 19:38:13.015,7.812670891575344e-05,-0.8104997116496299,0,MB
2025-06-16 19:38:13.023,5.650745800078727e-05,-0.5286346123856853,0,MB
2025-06-16 19:38:13.031,3.603555461521452e-05,-0.2493080798959595,0,MB
2025-06-16 19:38:13.039,1.7028764788492244e-05,0.0262351480255195,0,MB
2025-06-16 19:38:13.046,-2.568572093770606e-07,0.2967250356467124,0,MB
2025-06-16 19:38:13.054,-1.563371920619754e-05,0.5609116938832645,0,MB
2025-06-16 19:38:13.062,-2.8986331505925585e-05,0.8176121193795648,0,MB
2025-06-16 19:38:13.070,-4.027191757294221e-05,1.0657566876729778,0,MB
2025-06-16 19:38:13.078,-4.9518154213762144e-05,1.3044336547311743,0,MB
2025-06-16 19:38:13.085,-5.6818240576810464e-05,1.532929791409738,0,MB
2025-06-16 19:38:13.093,-6.232356502199332e-05,1.7507652480760771,0,MB
2025-06-16 19:38:13.101,-6.62343484856221e-05,1.9577208395126136,0,MB
2025-06-16 19:38:13.109,-6.878875695311575e-05,2.153856159090894,0,MB
2025-06-16 19:38:13.117,-7.025106138581145e-05,2.3395172688872234,0,MB
2025-06-16 19:38:13.125,-7.089946847707975e-05,2.5153331492369806,0,MB
2025-06-16 19:38:13.132,-7.101424835704367e-05,2.6822005997974663,0,MB
2025-06-16 19:38:13.140,-7.08667469951873e-05,2.8412578357862217,0,MB
2025-06-16 19:38:13.148,-7.070979379003504e-05,2.993847589674202,0,MB
2025-06-16 19:38:13.156,-7.076990188382252e-05,3.1414710803121686,0,MB
2025-06-16 19:38:13.164,-7.124151418828543e-05,3.2857347154348573,0,MB
2025-06-16 19:38:13.171,-7.228337685051497e-05,3.428291817771272,0,MB
2025-06-16 19:38:13.179,-7.401693115891906e-05,3.570781982537602,0,MB
2025-06-16 19:38:13.187,-7.652642222435017e-05,3.714770861993314,0,MB
2025-06-16 19:38:13.195,-7.986026682295994e-05,3.8616932086949514,0,MB
2025-06-16 19:38:13.203,-8.403315379121666e-05,4.012801871803577,0,MB
2025-06-16 19:38:13.210,-8.902839249073745e-05,4.169125117367921,0,MB
2025-06-16 19:38:13.218,-9.480015256513982e-05,4.331434139137209,0,MB
2025-06-16 19:38:13.226,-0.0001012754000122,4.500221969501786,0,MB
2025-06-16 19:38:13.234,-0.0001083554908501,4.675694239159075,0,MB
2025-06-16 19:38:13.242,-0.0001159175162038,4.857771430327846,0,MB
2025-06-16 19:38:13.250,-0.0001238155940894,5.046101489474745,0,MB
2025-06-16 19:38:13.257,-0.0001318823689957,5.240080982004089,0,MB
2025-06-16 19:38:13.265,-0.0001399310074307,5.438882450614504,0,MB
2025-06-16 19:38:13.273,-0.0001477579642592,5.641485334343838,0,MB
2025-06-16 19:38:13.281,-0.0001551467408237,5.846707744835558,0,MB
2025-06-16 19:38:13.289,-0.0001618727630093,6.053236579348157,0,MB
2025-06-16 19:38:13.296,-0.000167709380294,6.259653850008848,0,MB
2025-06-16 19:38:13.304,-0.0001724348396965,6.464457678622763,0,MB
2025-06-16 19:38:13.312,-0.0001758399496838,6.666077084424557,0,MB
2025-06-16 19:38:13.320,-0.0001777360483374,6.86288041126523,0,MB
2025-06-16 19:38:13.328,-0.0001779628398339,7.053177937392446,0,MB
2025-06-16 19:38:13.335,-0.0001763956564634,7.235219832300105,0,MB
2025-06-16 19:38:13.343,-0.0001729517202482,7.4071911320682515,0,MB
2025-06-16 19:38:13.351,-0.0001675949967954,7.567205772617182,0,MB
2025-06-16 19:38:13.359,-0.0001603392555135,7.713301936593976,0,MB
2025-06-16 19:38:13.367,-0.0001512490086338,7.843441027591687,0,MB
2025-06-16 19:38:13.375,-0.000140438130973,7.955512479747475,0,MB
2025-06-16 19:38:13.382,-0.0001280661590278,8.04734633750661,0,MB
2025-06-16 19:38:13.390,-0.0001143324829238,8.11673510204799,0,MB
2025-06-16 19:38:13.398,-9.946881691646364e-05,8.1614657536464,0,MB
2025-06-16 19:38:13.406,-8.373043488893885e-05,8.179362157145034,0,MB
2025-06-16 19:38:13.414,-6.738669782050514e-05,8.168337290838918,0,MB
2025-06-16 19:38:13.421,-5.071140180225015e-05,8.126453965217776,0,MB
2025-06-16 19:38:13.429,-3.39734488168541e-05,8.051991972723311,0,MB
2025-06-16 19:38:13.437,-1.7428291592850597e-05,7.943518981064838,0,MB
2025-06-16 19:38:13.445,-1.3105306356616852e-06,7.799961992357977,0,MB
2025-06-16 19:38:13.453,1.4172051340978495e-05,7.620675875551443,0,MB
2025-06-16 19:38:13.460,2.8842841943832645e-05,7.405505371031395,0,MB
2025-06-16 19:38:13.468,4.255908599128141e-05,7.154837082959282,0,MB
2025-06-16 19:38:13.476,5.5212985554917705e-05,6.86963831831039,0,MB
2025-06-16 19:38:13.484,6.673141829969064e-05,6.551480181490266,0,MB
2025-06-16 19:38:13.492,7.707457453115473e-05,6.202543047384137,0,MB
2025-06-16 19:38:13.500,8.623385268814801e-05,5.825603355015585,0,MB
2025-06-16 19:38:13.507,9.422933649209816e-05,5.424001524933834,0,MB
2025-06-16 19:38:13.515,0.0001011071278778,5.0015916481752,0,MB
2025-06-16 19:38:13.523,0.0001069367444999,4.562674376262532,0,MB
2025-06-16 19:38:13.531,0.0001118087014653,4.111915124121235,0,MB
2025-06-16 19:38:13.539,0.000115832278853,3.654250254808056,0,MB
2025-06-16 19:38:13.546,0.0001191333661111,3.1947843308610184,0,MB
2025-06-16 19:38:13.554,0.0001218522337467,2.7386817867178395,0,MB
2025-06-16 19:38:13.562,0.0001241411273647,2.291056502360959,0,MB
2025-06-16 19:38:13.570,0.0001261616496194,1.856862745137948,0,MB
2025-06-16 19:38:13.578,0.0001280819233827,1.4407908002271426,0,MB
2025-06-16 19:38:13.585,0.0001300735042865,1.0471703403634254,0,MB
2025-06-16 19:38:13.593,0.0001323079685073,0.6798842117167985,0,MB
2025-06-16 19:38:13.601,0.000134953075346,0.3422948638447123,0,MB
2025-06-16 19:38:13.609,0.0001381684066491,0.037185157343117,0,MB
2025-06-16 19:38:13.617,0.0001421004183163,-0.2332852332953469,0,MB
2025-06-16 19:38:13.625,0.0001468769019645,-0.467607126755805,0,MB
2025-06-16 19:38:13.632,0.0001526009449267,-0.6649326764660851,0,MB
2025-06-16 19:38:13.640,0.0001593445889704,-0.8250700790999672,0,MB
2025-06-16 19:38:13.648,0.000167142508027,-0.9484629674622732,0,MB
2025-06-16 19:38:13.656,0.0001759861249475,-1.036155749326104,0,MB
2025-06-16 19:38:13.664,0.0001858186378121,-1.0897465333273302,0,MB
2025-06-16 19:38:13.671,0.0001965314165671,-1.1113295749755745,0,MB
2025-06-16 19:38:13.679,0.0002079621696321,-1.1034293655956142,0,MB
2025-06-16 19:38:13.687,0.0002198951897056,-1.068928571409599,0,MB
2025-06-16 19:38:13.695,0.0002320638929706,-1.0109920152938607,0,MB
2025-06-16 19:38:13.703,0.0002441557699224,-0.9329887920989424,0,MB
2025-06-16 19:38:13.710,0.0002558197484024,-0.8384144359190703,0,MB
2025-06-16 19:38:13.718,0.0002666758201717,-0.7308148354913828,0,MB
2025-06-16 19:38:13.726,0.0002763266206517,-0.6137133489971466,0,MB
2025-06-16 19:38:13.734,0.0002843705038029,-0.4905423310432535,0,MB
2025-06-16 19:38:13.742,0.0002904155355621,-0.3645800764212139,0,MB
2025-06-16 19:38:13.750,0.0002940937461624,-0.23889402051831,0,MB
2025-06-16 19:38:13.757,0.0002950749379957,-0.1162909164528121,0,MB
2025-06-16 19:38:13.765,0.0002930793445802,0.000725374467548,0,MB
2025-06-16 19:38:13.773,0.0002878884798438,0.1099879066747314,0,MB
2025-06-16 19:38:13.781,0.0002793536064311,0.2096919844246857,0,MB
2025-06-16 19:38:13.789,0.000267401387047,0.2984113944951806,0,MB
2025-06-16 19:38:13.796,0.0002520364610125,0.3751052533542147,0,MB
2025-06-16 19:38:13.804,0.0002333408952535,0.4391153459584989,0,MB
2025-06-16 19:38:13.812,0.0002114706588988,0.4901540255628678,0,MB
2025-06-16 19:38:13.820,0.000186649416521,0.5282829678811395,0,MB
2025-06-16 19:38:13.828,0.000159160012805,0.5538833302167767,0,MB
2025-06-16 19:38:13.835,0.0001293340763823,0.5676181526445021,0,MB
2025-06-16 19:38:13.843,9.754026162558344e-05,0.570388141381151,0,MB
2025-06-16 19:38:13.851,6.417177281418529e-05,0.5632822747565364,0,MB
2025-06-16 19:38:13.859,2.9633906763929976e-05,0.5475249464083659,0,MB
2025-06-16 19:38:13.867,-5.667660050627703e-06,0.524421583236498,0,MB
2025-06-16 19:38:13.875,-4.133723489836576e-05,0.4953048214100932,0,MB
2025-06-16 19:38:13.882,-7.699770981043083e-05,0.4614833687443616,0,MB
2025-06-16 19:38:13.890,-0.0001122972083159,0.4241956099737793,0,MB
2025-06-16 19:38:13.898,-0.000146913806279,0.3845698190442164,0,MB
2025-06-16 19:38:13.906,-0.0001805585342354,0.3435925384812838,0,MB
2025-06-16 19:38:13.914,-0.0002129769629134,0.3020862884189915,0,MB
2025-06-16 19:38:13.921,-0.0002439496806967,0.2606973012487262,0,MB
2025-06-16 19:38:13.929,-0.0002732919301246,0.2198934708750215,0,MB
2025-06-16 19:38:13.937,-0.0003008526141542,0.1799721892095373,0,MB
2025-06-16 19:38:13.945,-0.0003265128253533,0.1410772452867012,0,MB
2025-06-16 19:38:13.953,-0.0003501839996184,0.1032235069847485,0,MB
2025-06-16 19:38:13.960,-0.0003718057541586,0.0663277106400261,0,MB
2025-06-16 19:38:13.968,-0.0003913434391606,0.0302433698382862,0,MB
2025-06-16 19:38:13.976,-0.0004087854184464,-0.0052023954988746,0,MB
2025-06-16 19:38:13.984,-0.0004241400990364,-0.0401723924623914,0,MB
2025-06-16 19:38:13.992,-0.0004374327530111,-0.0747854757435334,0,MB
2025-06-16 19:38:14.000,-0.0004487022185098,-0.109087277346055,0,MB
2025-06-16 19:38:14.007,-0.0004579976206342,-0.1430272319835531,0,MB
2025-06-16 19:38:14.015,-0.0004653752928866,-0.1764431463340957,0,MB
2025-06-16 19:38:14.023,-0.0004708960830911,-0.2090540606401923,0,MB
2025-06-16 19:38:14.031,-0.0004746231864119,-0.2404616350968479,0,MB
2025-06-16 19:38:14.039,-0.0004766205653662,-0.2701597998247671,0,MB
2025-06-16 19:38:14.046,-0.0004769519088519,-0.2975519637910155,0,MB
2025-06-16 19:38:14.054,-0.000475679985789,-0.321974701944591,0,MB
2025-06-16 19:38:14.062,-0.0004728662050722,-0.3427265402821524,0,MB
2025-06-16 19:38:14.070,-0.0004685702069789,-0.3591002391811063,0,MB
2025-06-16 19:38:14.078,-0.0004628493472022,-0.3704168357193292,0,MB
2025-06-16 19:38:14.085,-0.0004557579706821,-0.3760596438883659,0,MB
2025-06-16 19:38:14.093,-0.0004473464215551,-0.3755064270286937,0,MB
2025-06-16 19:38:14.101,-0.0004376598088967,-0.3683580506117759,0,MB
2025-06-16 19:38:14.109,-0.0004267366295507,-0.3543620962071017,0,MB
2025-06-16 19:38:14.117,-0.000414607416401,-0.3334301676548259,0,MB
2025-06-16 19:38:14.125,-0.0004012936219797,-0.3056479461033723,0,MB
2025-06-16 19:38:14.132,-0.0003868069613615,-0.2712774497715139,0,MB
2025-06-16 19:38:14.140,-0.0003711494254809,-0.2307514198295713,0,MB
2025-06-16 19:38:14.148,-0.0003543141378461,-0.184660263146301,0,MB
2025-06-16 19:38:14.156,-0.0003362871664992,-0.1337324930368853,0,MB
2025-06-16 19:38:14.164,-0.000317050322179,-0.0788100643953427,0,MB
2025-06-16 19:38:14.171,-0.0002965848768765,-0.0208203452551388,0,MB
2025-06-16 19:38:14.179,-0.0002748760288763,0.0392533363251973,0,MB
2025-06-16 19:38:14.187,-0.0002519178275793,0.100400601591284,0,MB
2025-06-16 19:38:14.195,-0.000227718170639,0.161610554194898,0,MB
2025-06-16 19:38:14.203,-0.0002023034347393,0.2218943863392098,0,MB
2025-06-16 19:38:14.210,-0.0001757223468733,0.2803028998645211,0,MB
2025-06-16 19:38:14.218,-0.0001480488562843,0.3359382445203135,0,MB
2025-06-16 19:38:14.226,-0.0001193839685963,0.3879596602022538,0,MB
2025-06-16 19:38:14.234,-8.985665581668538e-05,0.4355834801884014,0,MB
2025-06-16 19:38:14.242,-5.962399925655413e-05,0.4780780758978142,0,MB
2025-06-16 19:38:14.250,-2.8870668288976342e-05,0.5147547734823598,0,MB
2025-06-16 19:38:14.257,2.1922646106413974e-06,0.5449560301377698,0,MB
2025-06-16 19:38:14.265,3.3329273617503545e-05,0.5680423177205112,0,MB
2025-06-16 19:38:14.273,6.428324826804655e-05,0.5833792289281906,0,MB
2025-06-16 19:38:14.281,9.477940101128338e-05,0.5903263056134161,0,MB
2025-06-16 19:38:14.289,0.0001245302220112,0.5882289932695874,0,MB
2025-06-16 19:38:14.296,0.0001532413712353,0.5764149490443607,0,MB
2025-06-16 19:38:14.304,0.0001806183352339,0.5541956740405061,0,MB
2025-06-16 19:38:14.312,0.0002063736599592,0.5208741144839643,0,MB
2025-06-16 19:38:14.320,0.0002302345533935,0.4757585000086411,0,MB
2025-06-16 19:38:14.328,0.0002519506158745,0.4181822849521406,0,MB
2025-06-16 19:38:14.335,0.000271301417012,0.3475296551171836,0,MB
2025-06-16 19:38:14.343,0.0002881036068145,0.2632656809929274,0,MB
2025-06-16 19:38:14.351,0.0003022172376441,0.1649698577730418,0,MB
2025-06-16 19:38:14.359,0.000313551007999,0.0523714872171281,0,MB
2025-06-16 19:38:14.367,0.0003220662230792,-0.0746148602712866,0,MB
2025-06-16 19:38:14.375,0.0003277793624704,-0.215855698800479,0,MB
2025-06-16 19:38:14.382,0.0003307632072476,-0.3709687277782698,0,MB
2025-06-16 19:38:14.390,0.0003311464980934,-0.5392985425782129,0,MB
2025-06-16 19:38:14.398,0.0003291120960483,-0.7198996368900094,0,MB
2025-06-16 19:38:14.406,0.0003248936240649,-0.911528092387484,0,MB
2025-06-16 19:38:14.414,0.0003187705930951,-1.112642970520331,0,MB
2025-06-16 19:38:14.421,0.0003110620644926,-1.321417963555931,0,MB
2025-06-16 19:38:14.429,0.000302118970231,-1.5357633544904932,0,MB
2025-06-16 19:38:14.437,0.0002923152937517,-1.7533578148821023,0,MB
2025-06-16 19:38:14.445,0.0002820383833284,-1.9716890772791291,0,MB
2025-06-16 19:38:14.453,0.0002716787029105,-2.188102091816045,0,MB
2025-06-16 19:38:14.460,0.0002616193224897,-2.3998529419945296,0,MB
2025-06-16 19:38:14.468,0.0002522254347971,-2.604166569947948,0,MB
2025-06-16 19:38:14.476,0.0002438341796397,-2.79829625571726,0,MB
2025-06-16 19:38:14.484,0.0002367450614509,-2.97958280936963,0,MB
2025-06-16 19:38:14.492,0.0002312112392895,-3.145511560589419,0,MB
2025-06-16 19:38:14.500,0.0002274319376676,-3.293765447701756,0,MB
2025-06-16 19:38:14.507,0.0002255461935892,-3.422272787181861,0,MB
2025-06-16 19:38:14.515,0.0002256281632109,-3.5292486120334514,0,MB
2025-06-16 19:38:14.523,0.0002276842692812,-3.61322877292155,0,MB
2025-06-16 19:38:14.531,0.0002316525274404,-3.673096277884351,0,MB
2025-06-16 19:38:14.539,0.0002374043736821,-3.708099593451673,0,MB
2025-06-16 19:38:14.546,0.0002447491916299,-3.717862840714667,0,MB
2025-06-16 19:38:14.554,0.0002534415294073,-3.702388000776241,0,MB
2025-06-16 19:38:14.562,0.0002631907537331,-3.6620494053922017,0,MB
2025-06-16 19:38:14.570,0.000273672663628,-3.5975809389206006,0,MB
2025-06-16 19:38:14.578,0.0002845424259245,-3.510056518633502,0,MB
2025-06-16 19:38:14.585,0.000295448139154,-3.400864547334005,0,MB
2025-06-16 19:38:14.593,0.0003060443717811,-3.2716771380002534,0,MB
2025-06-16 19:38:14.601,0.0003160050855765,-3.1244149879288194,0,MB
2025-06-16 19:38:14.609,0.0003250353833835,-2.9612088239803973,0,MB
2025-06-16 19:38:14.617,0.0003328815244573,-2.784358349391042,0,MB
2025-06-16 19:38:14.625,0.0003393386872702,-2.596289600353775,0,MB
2025-06-16 19:38:14.632,0.0003442560598022,-2.3995115746451234,0,MB
2025-06-16 19:38:14.640,0.0003475389872466,-2.196572931273971,0,MB
2025-06-16 19:38:14.648,0.0003491480818537,-1.9900194837197291,0,MB
2025-06-16 19:38:14.656,0.0003490953851264,-1.7823531243625428,0,MB
2025-06-16 19:38:14.664,0.0003474378608336,-1.5759927297562542,0,MB
2025-06-16 19:38:14.671,0.0003442686738255,-1.3732375106124202,0,MB
2025-06-16 19:38:14.679,0.0003397068472422,-1.1762331918007805,0,MB
2025-06-16 19:38:14.687,0.000333885963539,-0.9869413431926042,0,MB
2025-06-16 19:38:14.695,0.0003269425818851,-0.8071121399210397,0,MB
2025-06-16 19:38:14.703,0.000319005009937,-0.6382608154683284,0,MB
2025-06-16 19:38:14.710,0.0003101830169297,-0.4816480790079373,0,MB
2025-06-16 19:38:14.718,0.0003005590198256,-0.3382647856431681,0,MB
2025-06-16 19:38:14.726,0.0002901812188542,-0.2088211556572942,0,MB
2025-06-16 19:38:14.734,0.0002790591034291,-0.0937408209304205,0,MB
2025-06-16 19:38:14.742,0.0002671616842884,0.0068400734701348,0,MB
2025-06-16 19:38:14.750,0.000254418701852,0.0930685640538171,0,MB
2025-06-16 19:38:14.757,0.0002407248733166,0.1653653112022503,0,MB
2025-06-16 19:38:14.765,0.0002259469666379,0.224409847895997,0,MB
2025-06-16 19:38:14.773,0.0002099331931213,0.2711207980481178,0,MB
2025-06-16 19:38:14.781,0.0001925241935134,0.3066313217598547,0,MB
2025-06-16 19:38:14.789,0.000173564816744,0.3322601308487848,0,MB
2025-06-16 19:38:14.796,0.0001529159373935,0.3494785055956715,0,MB
2025-06-16 19:38:14.804,0.0001304656593188,0.3598738437292615,0,MB
2025-06-16 19:38:14.812,0.0001061393501896,0.3651103905414403,0,MB
2025-06-16 19:38:14.820,7.990803104970572e-05,0.3668879313656377,0,MB
2025-06-16 19:38:14.828,5.1794724570974704e-05,0.3668993640366899,0,MB
2025-06-16 19:38:14.835,2.1878459020810456e-05,0.3667881953770118,0,MB
2025-06-16 19:38:14.843,-9.704272396325816e-06,0.3681071067114178,0,MB
2025-06-16 19:38:14.851,-4.276068668513454e-05,0.3722787930401434,0,MB
2025-06-16 19:38:14.859,-7.704548092446706e-05,0.3805602853345078,0,MB
2025-06-16 19:38:14.867,-0.0001122670107686,0.3940119078376453,0,MB
2025-06-16 19:38:14.875,-0.0001480955545594,0.4134719016470703,0,MB
2025-06-16 19:38:14.882,-0.0001841732286605,0.439537567757058,0,MB
2025-06-16 19:38:14.890,-0.0002201250234369,0.4725535584798986,0,MB
2025-06-16 19:38:14.898,-0.000255570341046,0.5126076932327497,0,MB
2025-06-16 19:38:14.906,-0.0002901343614321,0.5595344150948467,0,MB
2025-06-16 19:38:14.914,-0.0003234585860234,0.6129257597779798,0,MB
2025-06-16 19:38:14.921,-0.0003552100223619,0.672149492935937,0,MB
2025-06-16 19:38:14.929,-0.0003850886301986,0.7363738879461385,0,MB
2025-06-16 19:38:14.937,-0.000412832787685,0.8045984573418896,0,MB
2025-06-16 19:38:14.945,-0.0004382226424654,0.8756898052722382,0,MB
2025-06-16 19:38:14.953,-0.0004610813196246,0.9484216250151662,0,MB
2025-06-16 19:38:14.960,-0.0004812740867565,1.0215177189291176,0,MB
2025-06-16 19:38:14.968,-0.0004987057113561,1.093696770473508,0,MB
2025-06-16 19:38:14.976,-0.0005133163644908,1.1637174611155254,0,MB
2025-06-16 19:38:14.984,-0.0005250765165148,1.230422419827375,0,MB
2025-06-16 19:38:14.992,-0.0005339813337963,1.2927794432072497,0,MB
2025-06-16 19:38:15.000,-0.0005400451209587,1.3499184490863405,0,MB
2025-06-16 19:38:15.007,-0.0005432963611697,1.4011627344068784,0,MB
2025-06-16 19:38:15.015,-0.0005437738803527,1.446053295268118,0,MB
2025-06-16 19:38:15.023,-0.0005415245807595,1.484365219261623,0,MB
2025-06-16 19:38:15.031,-0.0005366030378221,1.51611545832108,0,MB
2025-06-16 19:38:15.039,-0.0005290730396302,1.5415616135353043,0,MB
2025-06-16 19:38:15.046,-0.0005190109038499,1.5611916906859822,0,MB
2025-06-16 19:38:15.054,-0.000506510168239,1.5757050978460694,0,MB
2025-06-16 19:38:15.062,-0.0004916870488913,1.5859854421859063,0,MB
2025-06-16 19:38:15.070,-0.0004746859293216,1.5930659389116355,0,MB
2025-06-16 19:38:15.078,-0.0004556841136593,1.598088472562437,0,MB
2025-06-16 19:38:15.085,-0.0004348951522694,1.6022575496332234,0,MB
2025-06-16 19:38:15.093,-0.0004125702051965,1.6067905463873655,0,MB
2025-06-16 19:38:15.101,-0.0003889971203935,1.612865777434687,0,MB
2025-06-16 19:38:15.109,-0.0003644971434815,1.6215699794450018,0,MB
2025-06-16 19:38:15.117,-0.0003394194033497,1.6338468144056486,0,MB
2025-06-16 19:38:15.125,-0.0003141334817816,1.650447950426667,0,MB
2025-06-16 19:38:15.132,-0.0002890204489574,1.671888187161661,0,MB
2025-06-16 19:38:15.140,-0.0002644627522971,1.6984059741650102,0,MB
2025-06-16 19:38:15.148,-0.0002408333307638,1.729930537740416,0,MB
2025-06-16 19:38:15.156,-0.0002184843248259,1.7660566929202008,0,MB
2025-06-16 19:38:15.164,-0.0001977357759387,1.8060282767108264,0,MB
2025-06-16 19:38:15.171,-0.0001788647578365,1.848730999240369,0,MB
2025-06-16 19:38:15.179,-0.0001620954413923,1.8926953686974028,0,MB
2025-06-16 19:38:15.187,-0.0001475906310343,1.9361101953278743,0,MB
2025-06-16 19:38:15.195,-0.0001354452849383,1.976847007726853,0,MB
2025-06-16 19:38:15.203,-0.0001256824407107,2.012495511123767,0,MB
2025-06-16 19:38:15.210,-0.0001182518497971,2.040409974836657,0,MB
2025-06-16 19:38:15.218,-0.0001130315018677,2.0577661496826747,0,MB
2025-06-16 19:38:15.226,-0.0001098320835334,2.061627985340304,0,MB
2025-06-16 19:38:15.234,-0.0001084042546086,2.0490230492291244,0,MB
2025-06-16 19:38:15.242,-0.0001084484574135,2.0170251580047696,0,MB
2025-06-16 19:38:15.250,-0.0001096268248869,1.9628423431888515,0,MB
2025-06-16 19:38:15.257,-0.0001115766343675,1.8839079101714125,0,MB
2025-06-16 19:38:15.265,-0.0001139246697011,1.777972040931778,0,MB
2025-06-16 19:38:15.273,-0.0001163018063189,1.6431911586411652,0,MB
2025-06-16 19:38:15.281,-0.000118357122763,1.4782121343577177,0,MB
2025-06-16 19:38:15.289,-0.0001197708677361,1.2822483800953028,0,MB
2025-06-16 19:38:15.296,-0.0001202656732625,1.055144936765244,0,MB
2025-06-16 19:38:15.304,-0.0001196155004032,0.7974298252169717,0,MB
2025-06-16 19:38:15.312,-0.0001176519318696,0.5103491841063321,0,MB
2025-06-16 19:38:15.320,-0.0001142675828197,0.1958840750687598,0,MB
2025-06-16 19:38:15.328,-0.0001094165833826,-0.143252702143062,0,MB
2025-06-16 19:38:15.335,-0.0001031122880038,-0.503640877078962,0,MB
2025-06-16 19:38:15.343,-9.542257113297736e-05,-0.881198494429548,0,MB
2025-06-16 19:38:15.351,-8.646323843380348e-05,-1.2712489236384932,0,MB
2025-06-16 19:38:15.359,-7.639016812005128e-05,-1.6686080188327792,0,MB
2025-06-16 19:38:15.367,-6.53907745849705e-05,-2.0676895621447047,0,MB
2025-06-16 19:38:15.375,-5.367528193524366e-05,-2.462626356205393,0,MB
2025-06-16 19:38:15.382,-4.146815973226111e-05,-2.847403635304673,0,MB
2025-06-16 19:38:15.390,-2.8999946343107184e-05,-3.21600088263033,0,MB
2025-06-16 19:38:15.398,-1.6499584142520578e-05,-3.5625377086771204,0,MB
2025-06-16 19:38:15.406,-4.187321620656634e-06,-3.881419188358473,0,MB
2025-06-16 19:38:15.414,7.731796692068483e-06,-4.167475986302176,0,MB
2025-06-16 19:38:15.421,1.9073829231385436e-05,-4.416094726026241,0,MB
2025-06-16 19:38:15.429,2.9681165108771245e-05,-4.623334372873225,0,MB
2025-06-16 19:38:15.437,3.942696024336324e-05,-4.786024885408502,0,MB
2025-06-16 19:38:15.445,4.821860420036363e-05,-4.90184502025967,0,MB
2025-06-16 19:38:15.453,5.6000012644855465e-05,-4.96937692112574,0,MB
2025-06-16 19:38:15.460,6.275255485506829e-05,-4.988135948768407,0,MB
2025-06-16 19:38:15.468,6.849448283626365e-05,-4.958575074600294,0,MB
2025-06-16 19:38:15.476,7.327882737682367e-05,-4.882064024713406,0,MB
2025-06-16 19:38:15.484,7.718985474262491e-05,-4.760844188652014,0,MB
2025-06-16 19:38:15.492,8.033830769694553e-05,-4.597961071325314,0,MB
2025-06-16 19:38:15.500,8.285575973958902e-05,-4.397176746420081,0,MB
2025-06-16 19:38:15.507,8.488847928432351e-05,-4.162865346740556,0,MB
2025-06-16 19:38:15.515,8.659122770647389e-05,-3.899895083087428,0,MB
2025-06-16 19:38:15.523,8.812140148958053e-05,-3.613500602909503,0,MB
2025-06-16 19:38:15.531,8.963387505866796e-05,-3.3091496722353315,0,MB
2025-06-16 19:38:15.539,9.127680952172336e-05,-2.992408186285553,0,MB
2025-06-16 19:38:15.546,9.318856683876258e-05,-2.668807392331469,0,MB
2025-06-16 19:38:15.554,9.54957150070416e-05,-2.343716958728986,0,MB
2025-06-16 19:38:15.562,9.831194448051637e-05,-2.022227169095853,0,MB
2025-06-16 19:38:15.570,0.0001017375775039,-1.709043084634869,0,MB
2025-06-16 19:38:15.578,0.0001058592905375,-1.4083930214202092,0,MB
2025-06-16 19:38:15.585,0.0001107497099265,-1.1239531483857923,0,MB
2025-06-16 19:38:15.593,0.0001164666574462,-0.8587894394540828,0,MB
2025-06-16 19:38:15.601,0.0001230519646446,-0.6153176270566528,0,MB
2025-06-16 19:38:15.609,0.0001305299043705,-0.3952812269573914,0,MB
2025-06-16 19:38:15.617,0.0001389053875149,-0.1997471621883588,0,MB
2025-06-16 19:38:15.625,0.0001481621366856,-0.0291180342927954,0,MB
2025-06-16 19:38:15.632,0.0001582610731151,0.1168403028080691,0,MB
2025-06-16 19:38:15.640,0.0001691391368332,0.2389575014044187,0,MB
2025-06-16 19:38:15.648,0.0001807087043992,0.3386056314882701,0,MB
2025-06-16 19:38:15.656,0.0001928576842765,0.4176361566070566,0,MB
2025-06-16 19:38:15.664,0.0002054502823185,0.4783089015177306,0,MB
2025-06-16 19:38:15.671,0.0002183283656654,0.5232149026657433,0,MB
2025-06-16 19:38:15.679,0.0002313133240029,0.5551949669973654,0,MB
2025-06-16 19:38:15.687,0.0002442083329749,0.5772556924590468,0,MB
2025-06-16 19:38:15.695,0.0002568009647208,0.5924846425484551,0,MB
2025-06-16 19:38:15.703,0.0002688661532315,0.6039663252768712,0,MB
2025-06-16 19:38:15.711,0.0002801695803837,0.6147006007096154,0,MB
2025-06-16 19:38:15.718,0.0002904715769546,0.6275251216453874,0,MB
2025-06-16 19:38:15.726,0.0002995316208672,0.6450433893428077,0,MB
2025-06-16 19:38:15.734,0.0003071134614443,0.6695599726177087,0,MB
2025-06-16 19:38:15.742,0.0003129908077458,0.7030243871609808,0,MB
2025-06-16 19:38:15.750,0.000316953406718,0.746985054407888,0,MB
2025-06-16 19:38:15.757,0.0003188132391359,0.8025546443614491,0,MB
2025-06-16 19:38:15.765,0.0003184105189826,0.8703879396080807,0,MB
2025-06-16 19:38:15.773,0.0003156191998185,0.9506731218533364,0,MB
2025-06-16 19:38:15.781,0.0003103517352404,1.0431370627157663,0,MB
2025-06-16 19:38:15.789,0.0003025628874417,1.147064789626686,0,MB
2025-06-16 19:38:15.796,0.000292252441767,1.2613328027631263,0,MB
2025-06-16 19:38:15.804,0.0002794667759474,1.384455365523232,0,MB
2025-06-16 19:38:15.812,0.0002642993252681,1.5146423173876744,0,MB
2025-06-16 19:38:15.820,0.0002468900362572,1.6498664055704777,0,MB
2025-06-16 19:38:15.828,0.0002274238897101,1.7879376409373031,0,MB
2025-06-16 19:38:15.836,0.0002061285234351,1.926581794640364,0,MB
2025-06-16 19:38:15.843,0.0001832709462506,2.0635199041159726,0,MB
2025-06-16 19:38:15.851,0.0001591533343858,2.1965455815909816,0,MB
2025-06-16 19:38:15.859,0.0001341079289573,2.3235970307512948,0,MB
2025-06-16 19:38:15.867,0.0001084910886065,2.4428209759779587,0,MB
2025-06-16 19:38:15.875,8.267658551701205e-05,2.5526261750112704,0,MB
2025-06-16 19:38:15.882,5.704826456814676e-05,2.6517247860493307,0,MB
2025-06-16 19:38:15.890,3.199221445150533e-05,2.7391605479711627,0,MB
2025-06-16 19:38:15.898,7.888625985946169e-06,2.8143234549903813,0,MB
2025-06-16 19:38:15.906,-1.489646383544606e-05,2.8769513117349472,0,MB
2025-06-16 19:38:15.914,-3.6019324131183104e-05,2.9271191938015546,0,MB
2025-06-16 19:38:15.921,-5.516634636444861e-05,2.965218373528554,0,MB
2025-06-16 19:38:15.929,-7.206128395747778e-05,2.991926672295202,0,MB
2025-06-16 19:38:15.937,-8.647167432392052e-05,3.008172448845374,0,MB
2025-06-16 19:38:15.945,-9.821421137901362e-05,3.0150945158839964,0,MB
2025-06-16 19:38:15.953,-0.0001071588567014,3.0140001930450677,0,MB
2025-06-16 19:38:15.961,-0.0001132315103258,3.006323464640248,0,MB
2025-06-16 19:38:15.968,-0.0001164151090548,2.993584838370241,0,MB
2025-06-16 19:38:15.976,-0.0001167490823117,2.977354028586848,0,MB
2025-06-16 19:38:15.984,-0.0001143271735955,2.9592160562602725,0,MB
2025-06-16 19:38:15.992,-0.0001092937297094,2.940740819272901,0,MB
2025-06-16 19:38:16.000,-0.0001018386680046,2.9234556986349536,0,MB
2025-06-16 19:38:16.007,-9.219144138621305e-05,2.908820382564599,0,MB
2025-06-16 19:38:16.015,-8.061439785364917e-05,2.8982028521580063,0,MB
2025-06-16 19:38:16.023,-6.739593158138166e-05,2.892855402916167,0,MB
2025-06-16 19:38:16.031,-5.284373523068116e-05,2.893889679722721,0,MB
2025-06-16 19:38:16.039,-3.727833753732824e-05,2.9022499645137305,0,MB
2025-06-16 19:38:16.046,-2.102701119286932e-05,2.9186843455502087,0,MB
2025-06-16 19:38:16.054,-4.4180784077069e-06,2.9437138723444463,0,MB
2025-06-16 19:38:16.062,1.2224405777811985e-05,2.977600311226512,0,MB
2025-06-16 19:38:16.070,2.858566817408377e-05,3.0203136137633857,0,MB
2025-06-16 19:38:16.078,4.436505473070048e-05,3.07150064973152,0,MB
2025-06-16 19:38:16.086,5.928083396275377e-05,3.130457099511012,0,MB
2025-06-16 19:38:16.093,7.307508874078443e-05,3.1961046138359577,0,MB
2025-06-16 19:38:16.101,8.551875681173666e-05,3.2669754066596344,0,MB
2025-06-16 19:38:16.109,9.641678110623492e-05,3.341206338202453,0,MB
2025-06-16 19:38:16.117,0.0001056132005582,3.416544274240938,0,MB
2025-06-16 19:38:16.125,0.000112995868499,3.4903640927158164,0,MB
2025-06-16 19:38:16.132,0.0001185003683416,3.5597001809959146,0,MB
2025-06-16 19:38:16.140,0.0001221126571982,3.62129166831474,0,MB
2025-06-16 19:38:16.148,0.0001238700337483,3.6716410136796167,0,MB
2025-06-16 19:38:16.156,0.0001238601742211,3.7070849607580976,0,MB
2025-06-16 19:38:16.164,0.0001222181612006,3.723876308448148,0,MB
2025-06-16 19:38:16.171,0.0001191216057101,3.718274450437132,0,MB
2025-06-16 19:38:16.179,0.0001147841085602,3.686642225500384,0,MB
2025-06-16 19:38:16.187,0.0001094473965541,3.6255463065035873,0,MB
2025-06-16 19:38:16.195,0.0001033724889337,3.531858150946648,0,MB
2025-06-16 19:38:16.203,9.683022367722336e-05,3.4028524454311344,0,MB
2025-06-16 19:38:16.211,9.009145044177388e-05,3.2362999995428856,0,MB
2025-06-16 19:38:16.218,8.341720226820578e-05,3.030552172037107,0,MB
2025-06-16 19:38:16.226,7.704917958807537e-05,2.784614128859656,0,MB
2025-06-16 19:38:16.234,7.120089632863017e-05,2.498204522909055,0,MB
2025-06-16 19:38:16.242,6.60498389171809e-05,2.1717995380598056,0,MB
2025-06-16 19:38:16.250,6.173097296585915e-05,1.8066596485469848,0,MB
2025-06-16 19:38:16.257,5.8331899497273406e-05,1.4048379054143,0,MB
2025-06-16 19:38:16.265,5.5889913178252274e-05,0.9691690673334464,0,MB
2025-06-16 19:38:16.273,5.439114992142136e-05,0.5032394297812846,0,MB
2025-06-16 19:38:16.281,5.3771931515952e-05,0.0113377542920136,0,MB
2025-06-16 19:38:16.289,5.392232217898395e-05,-0.5016117645312663,0,MB
2025-06-16 19:38:16.296,5.469180802161582e-05,-1.030133055493874,0,MB
2025-06-16 19:38:16.304,5.589689778564709e-05,-1.568296366577901,0,MB
2025-06-16 19:38:16.312,5.733032629447022e-05,-2.109828839276471,0,MB
2025-06-16 19:38:16.320,5.877143384342708e-05,-2.648234894902973,0,MB
2025-06-16 19:38:16.328,5.9997219538292976e-05,-3.1769236238702905,0,MB
2025-06-16 19:38:16.336,6.079354125728689e-05,-3.689340182760626,0,MB
2025-06-16 19:38:16.343,6.096594717936734e-05,-4.179098073718164,0,MB
2025-06-16 19:38:16.351,6.034965063920615e-05,-4.640109111847732,0,MB
2025-06-16 19:38:16.359,5.881820104305175e-05,-5.066707885992761,0,MB
2025-06-16 19:38:16.367,5.629046958861943e-05,-5.453767593441078,0,MB
2025-06-16 19:38:16.375,5.2735647122900895e-05,-5.79680428634794,0,MB
2025-06-16 19:38:16.382,4.817600729757064e-05,-6.092066811335397,0,MB
2025-06-16 19:38:16.390,4.2687201726421225e-05,-6.336610053624647,0,MB
2025-06-16 19:38:16.398,3.639585789766469e-05,-6.528349507232659,0,MB
2025-06-16 19:38:16.406,2.9474315863326047e-05,-6.666095671144787,0,MB
2025-06-16 19:38:16.414,2.2132510222755034e-05,-6.7495673008614485,0,MB
2025-06-16 19:38:16.421,1.4607252821974067e-05,-6.779383106464401,0,MB
2025-06-16 19:38:16.429,7.149426580438934e-06,-6.757032065444281,0,MB
2025-06-16 19:38:16.437,9.806948705950673e-09,-6.684823098153618,0,MB
2025-06-16 19:38:16.445,-6.575621670190087e-06,-6.565815427581957,0,MB
2025-06-16 19:38:16.453,-1.2399885029431585e-05,-6.40373150771557,0,MB
2025-06-16 19:38:16.461,-1.729777695093408e-05,-6.202854949348937,0,MB
2025-06-16 19:38:16.468,-2.115624413067701e-05,-5.967916385908991,0,MB
2025-06-16 19:38:16.476,-2.392167877775942e-05,-5.703970682029839,0,MB
2025-06-16 19:38:16.484,-2.5603659172018383e-05,-5.416269262544829,0,MB
2025-06-16 19:38:16.492,-2.627496307407454e-05,-5.110131593108743,0,MB
2025-06-16 19:38:16.500,-2.606795960357243e-05,-4.790819941638256,0,MB
2025-06-16 19:38:16.507,-2.516773053606972e-05,-4.4634214660819405,0,MB
2025-06-16 19:38:16.515,-2.3802460248189996e-05,-4.132741397401031,0,MB
2025-06-16 19:38:16.523,-2.2231771072651747e-05,-3.8032106258716127,0,MB
2025-06-16 19:38:16.531,-2.073377713897583e-05,-3.4788103814409737,0,MB
2025-06-16 19:38:16.539,-1.9591659735872574e-05,-3.163015962178842,0,MB
2025-06-16 19:38:16.546,-1.9080496333001896e-05,-2.8587606462896065,0,MB
2025-06-16 19:38:16.554,-1.9454917997434864e-05,-2.56842005727897,0,MB
2025-06-16 19:38:16.562,-2.0937990327265045e-05,-2.293816374008609,0,MB
2025-06-16 19:38:16.570,-2.3711572563757905e-05,-2.036240927319585,0,MB
2025-06-16 19:38:16.578,-2.7908331811697755e-05,-1.7964929463451742,0,MB
2025-06-16 19:38:16.586,-3.360556736803397e-05,-1.5749315543638114,0,MB
2025-06-16 19:38:16.593,-4.082101157899513e-05,-1.371537605527498,0,MB
2025-06-16 19:38:16.601,-4.9510791139095016e-05,-1.1859816312451288,0,MB
2025-06-16 19:38:16.609,-5.9569739965753695e-05,-1.0176940495341331,0,MB
2025-06-16 19:38:16.617,-7.083423887795231e-05,-0.8659338934332679,0,MB
2025-06-16 19:38:16.625,-8.308768347513991e-05,-0.7298526344986545,0,MB
2025-06-16 19:38:16.632,-9.60685140646299e-05,-0.6085501954658389,0,MB
2025-06-16 19:38:16.640,-0.0001094804969842,-0.5011209230332941,0,MB
2025-06-16 19:38:16.648,-0.0001230047005018,-0.4066880731544688,0,MB
2025-06-16 19:38:16.656,-0.0001363124444967,-0.3244261871203015,0,MB
2025-06-16 19:38:16.664,-0.0001490784601882,-0.2535715489279725,0,MB
2025-06-16 19:38:16.671,-0.0001609935536792,-0.193421662197485,0,MB
2025-06-16 19:38:16.679,-0.0001717761767555,-0.1433253276273416,0,MB
2025-06-16 19:38:16.687,-0.0001811824335455,-0.1026654085942,0,MB
2025-06-16 19:38:16.695,-0.0001890141767765,-0.0708367187666249,0,MB
2025-06-16 19:38:16.703,-0.0001951249672249,-0.0472216338296573,0,MB
2025-06-16 19:38:16.711,-0.0001994237816043,-0.0311660119084614,0,MB
2025-06-16 19:38:16.718,-0.000201876455276,-0.0219578096122557,0,MB
2025-06-16 19:38:16.726,-0.0002025049351861,-0.0188104219449178,0,MB
2025-06-16 19:38:16.734,-0.0002013844943096,-0.0208522859145169,0,MB
2025-06-16 19:38:16.742,-0.000198639121166,-0.0271237107034667,0,MB
2025-06-16 19:38:16.750,-0.0001944353466881,-0.0365812790372639,0,MB
2025-06-16 19:38:16.757,-0.0001889748063068,-0.0481095528069494,0,MB
2025-06-16 19:38:16.765,-0.000182485858293,-0.060539254638545,0,MB
2025-06-16 19:38:16.773,-0.0001752145911326,-0.0726706234694582,0,MB
2025-06-16 19:38:16.781,-0.0001674155540944,-0.0833002878611227,0,MB
2025-06-16 19:38:16.789,-0.0001593425373194,-0.0912497897970585,0,MB
2025-06-16 19:38:16.796,-0.0001512397118557,-0.0953938365473553,0,MB
2025-06-16 19:38:16.804,-0.0001433334171312,-0.094686456316796,0,MB
2025-06-16 19:38:16.812,-0.0001358248543603,-0.0881834674357081,0,MB
2025-06-16 19:38:16.820,-0.0001288839101288,-0.0750600115355289,0,MB
2025-06-16 19:38:16.828,-0.0001226442955698,-0.054622311276411,0,MB
2025-06-16 19:38:16.836,-0.000117200143675,-0.0263132516061165,0,MB
2025-06-16 19:38:16.843,-0.0001126041608047,0.0102881898445938,0,MB
2025-06-16 19:38:16.851,-0.0001088673787128,0.0554732549043285,0,MB
2025-06-16 19:38:16.859,-0.0001059605007058,0.1094147313325189,0,MB
2025-06-16 19:38:16.867,-0.0001038167802185,0.1721823160073024,0,MB
2025-06-16 19:38:16.875,-0.0001023363125172,0.2437608626378121,0,MB
2025-06-16 19:38:16.882,-0.0001013915609186,0.3240702687958199,0,MB
2025-06-16 19:38:16.890,-0.0001008338785226,0.412985752086367,0,MB
2025-06-16 19:38:16.898,-0.0001005007258614,0.510357346807164,0,MB
2025-06-16 19:38:16.906,-0.0001002232268035,0.6160276061205353,0,MB
2025-06-16 19:38:16.914,-9.983366056058489e-05,0.729846694614492,0,MB
2025-06-16 19:38:16.921,-9.917248056572764e-05,0.851684269551284,0,MB
2025-06-16 19:38:16.929,-9.809450404148487e-05,0.9814377438176624,0,MB
2025-06-16 19:38:16.937,-9.647402554486082e-05,1.1190366757334838,0,MB
2025-06-16 19:38:16.945,-9.420873719115022e-05,1.2644431308150488,0,MB
2025-06-16 19:38:16.953,-9.122243921670896e-05,1.417647913119002,0,MB
2025-06-16 19:38:16.961,-8.74665727522673e-05,1.5786625837873205,0,MB
2025-06-16 19:38:16.968,-8.292063045485688e-05,1.747507192439156,0,MB
2025-06-16 19:38:16.976,-7.759155697430002e-05,1.924193666669055,0,MB
2025-06-16 19:38:16.984,-7.151235192907631e-05,2.1087048596444675,0,MB
2025-06-16 19:38:16.992,-6.47401716295216e-05,2.3009693648472616,0,MB
2025-06-16 19:38:17.000,-5.735422315172364e-05,2.500832380990836,0,MB
2025-06-16 19:38:17.007,-4.945364825399199e-05,2.708023148462759,0,MB
2025-06-16 19:38:17.015,-4.115545331894355e-05,2.922119769483692,0,MB
2025-06-16 19:38:17.023,-3.259241468032977e-05,3.1425125466295345,0,MB
2025-06-16 19:38:17.031,-2.3910815853819872e-05,3.368367300490005,0,MB
2025-06-16 19:38:17.039,-1.5267859122815753e-05,3.5985904231916943,0,MB
2025-06-16 19:38:17.046,-6.828618300907824e-06,3.8317976524977526,0,MB
2025-06-16 19:38:17.054,1.2375514594507308e-06,4.066288674413809,0,MB
2025-06-16 19:38:17.062,8.761147628084953e-06,4.300029652987361,0,MB
2025-06-16 19:38:17.070,1.557707475298538e-05,4.530645633628057,0,MB
2025-06-16 19:38:17.078,2.1529368785613924e-05,4.755424479567048,0,MB
2025-06-16 19:38:17.086,2.647578365569676e-05,4.971333602925405,0,MB
2025-06-16 19:38:17.093,3.029199253359573e-05,5.175050270432564,0,MB
2025-06-16 19:38:17.101,3.287530737954759e-05,5.363005725374002,0,MB
2025-06-16 19:38:17.109,3.414798129689509e-05,5.531442793528697,0,MB
2025-06-16 19:38:17.117,3.40602456857511e-05,5.676486051739922,0,MB
2025-06-16 19:38:17.125,3.2593211928930484e-05,5.794223057567004,0,MB
2025-06-16 19:38:17.132,2.976166030729229e-05,5.880794597343269,0,MB
2025-06-16 19:38:17.140,2.5616607898673385e-05,5.932491439151367,0,MB
2025-06-16 19:38:17.148,2.024745257548308e-05,5.945854702131418,0,MB
2025-06-16 19:38:17.156,1.3783461445534064e-05,5.917776689692729,0,MB
2025-06-16 19:38:17.164,6.394390686512723e-06,5.845598887417616,0,MB
2025-06-16 19:38:17.171,-1.7099549811759052e-06,5.727203796430015,0,MB
2025-06-16 19:38:17.179,-1.0281412952135086e-05,5.561097357939803,0,MB
2025-06-16 19:38:17.187,-1.903659607699057e-05,5.346478922999736,0,MB
2025-06-16 19:38:17.195,-2.766164596531497e-05,5.083296029752828,0,MB
2025-06-16 19:38:17.203,-3.581873952961282e-05,4.772281661085648,0,MB
2025-06-16 19:38:17.211,-4.315440803665298e-05,4.414972158985136,0,MB
2025-06-16 19:38:17.218,-4.930962560312362e-05,4.01370456015346,0,MB
2025-06-16 19:38:17.226,-5.3931496483757226e-05,3.571592783906047,0,MB
2025-06-16 19:38:17.234,-5.668622202698502e-05,3.0924828357648813,0,MB
2025-06-16 19:38:17.242,-5.727286442472377e-05,2.5808879642242486,0,MB
2025-06-16 19:38:17.250,-5.543725369837143e-05,2.041905488034768,0,MB
2025-06-16 19:38:17.257,-5.098522570007959e-05,1.481117753794148,0,MB
2025-06-16 19:38:17.265,-4.379427254650272e-05,0.9044803415751494,0,MB
2025-06-16 19:38:17.273,-3.382268476764394e-05,0.3182011628814983,0,MB
2025-06-16 19:38:17.281,-2.1115392303771645e-05,-0.271385549052514,0,MB
2025-06-16 19:38:17.289,-5.805945071808022e-06,-0.8579461965328798,0,MB
2025-06-16 19:38:17.296,1.188563751276148e-05,-1.4352716057276471,0,MB
2025-06-16 19:38:17.304,3.165911442798348e-05,-1.9973937700873992,0,MB
2025-06-16 19:38:17.312,5.314403538858774e-05,-2.538692092127257,0,MB
2025-06-16 19:38:17.320,7.59129106835438e-05,-3.053986236722165,0,MB
2025-06-16 19:38:17.328,9.949672057056904e-05,-3.5386133932595745,0,MB
2025-06-16 19:38:17.336,0.0001234018389626,-3.988488498288555,0,MB
2025-06-16 19:38:17.343,0.0001471274456242,-4.400146745241823,0,MB
2025-06-16 19:38:17.351,0.0001701825697987,-4.7707684556465,0,MB
2025-06-16 19:38:17.359,0.0001921020180723,-5.098187068701286,0,MB
2025-06-16 19:38:17.367,0.0002124605892153,-5.380881596756098,0,MB
2025-06-16 19:38:17.375,0.0002308851522349,-5.617955375738002,0,MB
2025-06-16 19:38:17.382,0.0002470643182464,-5.8091033004414445,0,MB
2025-06-16 19:38:17.390,0.0002607555470268,-5.954569966957663,0,MB
2025-06-16 19:38:17.398,0.0002717896066489,-6.055101242249552,0,MB
2025-06-16 19:38:17.406,0.000280072370675,-6.111891740989814,0,MB
2025-06-16 19:38:17.414,0.000285584002654,-6.126530518510755,0,MB
2025-06-16 19:38:17.421,0.0002883756465117,-6.100947006971072,0,MB
2025-06-16 19:38:17.429,0.0002885638230727,-6.037358862313093,0,MB
2025-06-16 19:38:17.437,0.0002863228393868,-5.938222985878848,0,MB
2025-06-16 19:38:17.445,0.0002818756384916,-5.8061905622286165,0,MB
2025-06-16 19:38:17.453,0.000275483605905,-5.644066532334079,0,MB
2025-06-16 19:38:17.461,0.0002674358596457,-5.454773518265175,0,MB
2025-06-16 19:38:17.468,0.0002580384852381,-5.241319856745837,0,MB
2025-06-16 19:38:17.476,0.0002476040766055,-5.006771112982058,0,MB
2025-06-16 19:38:17.484,0.0002364418446719,-4.754224258435329,0,MB
2025-06-16 19:38:17.492,0.0002248484745361,-4.486783622623641,0,MB
2025-06-16 19:38:17.500,0.0002130998550379,-4.2075377724761855,0,MB
2025-06-16 19:38:17.507,0.0002014437742321,-3.919536622810252,0,MB
2025-06-16 19:38:17.515,0.0001900936721378,-3.62576831464046,0,MB
2025-06-16 19:38:17.523,0.0001792235665314,-3.3291356788359296,0,MB
2025-06-16 19:38:17.531,0.000168964307365,-3.032432388640588,0,MB
2025-06-16 19:38:17.539,0.0001594013456459,-2.7383191550878325,0,MB
2025-06-16 19:38:17.546,0.0001505741967553,-2.449300504179564,0,MB
2025-06-16 19:38:17.554,0.0001424777255261,-2.167702778391749,0,MB
2025-06-16 19:38:17.562,0.0001350652832535,-1.8956540263434627,0,MB
2025-06-16 19:38:17.570,0.000128253597256,-1.6350663937535714,0,MB
2025-06-16 19:38:17.578,0.0001219291860808,-1.3876215252357784,0,MB
2025-06-16 19:38:17.586,0.0001159559888668,-1.154759353887682,0,MB
2025-06-16 19:38:17.593,0.0001101838577022,-0.937670517689681,0,MB
2025-06-16 19:38:17.601,0.000104457531699,-0.7372925174204086,0,MB
2025-06-16 19:38:17.609,9.86256701322078e-05,-0.5543096314245634,0,MB
2025-06-16 19:38:17.617,9.25494834679205e-05,-0.3891565308086173,0,MB
2025-06-16 19:38:17.625,8.611048791729786e-05,-0.242025489076739,0,MB
2025-06-16 19:38:17.632,7.921693179596898e-05,-0.1128770407794245,0,MB
2025-06-16 19:38:17.640,7.180850178653188e-05,-0.0014538985813704,0,MB
2025-06-16 19:38:17.648,6.385901278979292e-05,0.092702126679179,0,MB
2025-06-16 19:38:17.656,5.537691391249693e-05,0.1702305479075477,0,MB
2025-06-16 19:38:17.664,4.640360168629525e-05,0.2319304174339856,0,MB
2025-06-16 19:38:17.671,3.700971358779355e-05,0.2787368949732172,0,MB
2025-06-16 19:38:17.679,2.728976340381377e-05,0.3116968122282349,0,MB
2025-06-16 19:38:17.687,1.7355636524270286e-05,0.3319439265518187,0,MB
2025-06-16 19:38:17.695,7.3295374361706176e-06,0.3406745586576631,0,MB
2025-06-16 19:38:17.703,-2.6630511883976866e-06,0.3391242691218501,0,MB
2025-06-16 19:38:17.711,-1.2499953725092714e-05,0.3285461544714194,0,MB
2025-06-16 19:38:17.718,-2.206813452211929e-05,0.3101912468558989,0,MB
2025-06-16 19:38:17.726,-3.126862329325218e-05,0.285291392433842,0,MB
2025-06-16 19:38:17.734,-4.002049656052685e-05,0.2550448740056331,0,MB
2025-06-16 19:38:17.742,-4.82639692336631e-05,0.2206049439670419,0,MB
2025-06-16 19:38:17.750,-5.5962709788123707e-05,0.1830713502194673,0,MB
2025-06-16 19:38:17.757,-6.310551920379183e-05,0.1434848664195919,0,MB
2025-06-16 19:38:17.765,-6.970750760433992e-05,0.1028247668551602,0,MB
2025-06-16 19:38:17.773,-7.581086441944048e-05,0.0620091031638593,0,MB
2025-06-16 19:38:17.781,-8.148525012237826e-05,0.0218975405911398,0,MB
2025-06-16 19:38:17.789,-8.682774517790842e-05,-0.0167035992697143,0,MB
2025-06-16 19:38:17.796,-9.196218885519687e-05,-0.0530345529661061,0,MB
2025-06-16 19:38:17.804,-9.703765453345616e-05,-0.0863741496742541,0,MB
2025-06-16 19:38:17.812,-0.0001022257675594,-0.1160313076128091,0,MB
2025-06-16 19:38:17.820,-0.0001077165887398,-0.1413366867010017,0,MB
2025-06-16 19:38:17.828,-0.0001137128613193,-0.1616352090857509,0,MB
2025-06-16 19:38:17.836,-0.0001204225496999,-0.1762801326015582,0,MB
2025-06-16 19:38:17.843,-0.000128049770089,-0.1846292866634531,0,MB
2025-06-16 19:38:17.851,-0.0001367843962343,-0.1860439566972308,0,MB
2025-06-16 19:38:17.859,-0.000146790787875,-0.1798907394416773,0,MB
2025-06-16 19:38:17.867,-0.0001581962194055,-0.1655465003676453,0,MB
2025-06-16 19:38:17.875,-0.0001710796744851,-0.1424063632411364,0,MB
2025-06-16 19:38:17.882,-0.0001854617147067,-0.1098944672361794,0,MB
2025-06-16 19:38:17.890,-0.0002012961240658,-0.0674770496046937,0,MB
2025-06-16 19:38:17.898,-0.0002184639743602,-0.0146772567702397,0,MB
2025-06-16 19:38:17.906,-0.0002367706498683,0.0489090392530781,0,MB
2025-06-16 19:38:17.914,-0.0002559462143751,0.1235972252761443,0,MB
2025-06-16 19:38:17.921,-0.0002756493048156,0.2095985623101759,0,MB
2025-06-16 19:38:17.929,-0.000295474509833,0.3070062170028927,0,MB
2025-06-16 19:38:17.937,-0.0003149629770307,0.4157833814204431,0,MB
2025-06-16 19:38:17.945,-0.0003336158394375,0.5357539841623136,0,MB
2025-06-16 19:38:17.953,-0.0003509099766034,0.6665962882817665,0,MB
2025-06-16 19:38:17.961,-0.0003663155862581,0.8078394480641208,0,MB
2025-06-16 19:38:17.968,-0.0003793149807014,0.9588628804966268,0,MB
2025-06-16 19:38:17.976,-0.000389421930495,1.1188981182946365,0,MB
2025-06-16 19:38:17.984,-0.000396200794956,1.2870326640668357,0,MB
2025-06-16 19:38:17.992,-0.0003992846302379,1.462215268750491,0,MB
2025-06-16 19:38:18.000,-0.0003983914442791,1.643262017491687,0,MB
2025-06-16 19:38:18.007,-0.0003933377678787,1.8288626260738383,0,MB
2025-06-16 19:38:18.015,-0.0003840487577624,2.0175864324771804,0,MB
2025-06-16 19:38:18.023,-0.0003705641778182,2.207887711066487,0,MB
2025-06-16 19:38:18.031,-0.0003530398206237,2.3981101380612424,0,MB
2025-06-16 19:38:18.039,-0.0003317441946104,2.5864904889639457,0,MB
2025-06-16 19:38:18.046,-0.0003070505841453,2.7711619396325227,0,MB
2025-06-16 19:38:18.054,-0.0002794248872331,2.950157653670975,0,MB
2025-06-16 19:38:18.062,-0.0002494099216181,3.121415639133055,0,MB
2025-06-16 19:38:18.070,-0.0002176070989685,3.282786106274325,0,MB
2025-06-16 19:38:18.078,-0.000184656451317,3.43204271432294,0,MB
2025-06-16 19:38:18.086,-0.0001512159677312,3.5668991284719573,0,MB
2025-06-16 19:38:18.093,-0.0001179411102752,3.685032201799111,0,MB
2025-06-16 19:38:18.101,-8.546526474197512e-05,3.7841128472462056,0,MB
2025-06-16 19:38:18.109,-5.4381760215765006e-05,3.861845281880252,0,MB
2025-06-16 19:38:18.117,-2.522796865966299e-05,3.916014830073798,0,MB
2025-06-16 19:38:18.125,1.5281247072022545e-06,3.944543891546625,0,MB
2025-06-16 19:38:18.132,2.5498604516933892e-05,3.945555047057689,0,MB
2025-06-16 19:38:18.140,4.638339376844787e-05,3.917439627616932,0,MB
2025-06-16 19:38:18.148,6.397503884144426e-05,3.858929456680906,0,MB
2025-06-16 19:38:18.156,7.816053252412287e-05,3.769168934891844,0,MB
2025-06-16 19:38:18.164,8.892027871325312e-05,3.647784216472048,0,MB
2025-06-16 19:38:18.171,9.632437733857562e-05,3.494945962202881,0,MB
2025-06-16 19:38:18.179,0.0001005264771449,3.311422074684559,0,MB
2025-06-16 19:38:18.187,0.0001017555088986,3.098616945480834,0,MB
2025-06-16 19:38:18.195,0.0001003056740687,2.858594075875573,0,MB
2025-06-16 19:38:18.203,9.652512400836472e-05,2.5940794640379146,0,MB
2025-06-16 19:38:18.211,9.080381204687507e-05,2.308443858133532,0,MB
2025-06-16 19:38:18.218,8.356100620472675e-05,2.00566282063548,0,MB
2025-06-16 19:38:18.226,7.523288184665986e-05,1.6902544857915125,0,MB
2025-06-16 19:38:18.234,6.626048617712308e-05,1.3671958667341313,0,MB
2025-06-16 19:38:18.242,5.707825339734861e-05,1.0418195302613058,0,MB
2025-06-16 19:38:18.250,4.810321471932728e-05,0.7196933605524327,0,MB
2025-06-16 19:38:18.257,3.972508026542308e-05,0.4064869365726795,0,MB
2025-06-16 19:38:18.265,3.229741050290453e-05,0.1078287131704126,0,MB
2025-06-16 19:38:18.273,2.6130100694771063e-05,-0.1708413099984743,0,MB
2025-06-16 19:38:18.281,2.148336211680745e-05,-0.4244184482051606,0,MB
2025-06-16 19:38:18.289,1.8563306972116568e-05,-0.6482746442110874,0,MB
2025-06-16 19:38:18.296,1.751916234063077e-05,-0.8383892733293844,0,MB
2025-06-16 19:38:18.304,1.8442090807980632e-05,-0.9914647947048194,0,MB
2025-06-16 19:38:18.312,2.136558131995241e-05,-1.10502309926747,0,MB
2025-06-16 19:38:18.320,2.6267355729654437e-05,-1.17747906510404,0,MB
2025-06-16 19:38:18.328,3.307269154469631e-05,-1.2081886326036817,0,MB
2025-06-16 19:38:18.336,4.165900180088672e-05,-1.1974696261398678,0,MB
2025-06-16 19:38:18.343,5.186145978762968e-05,-1.146594538402676,0,MB
2025-06-16 19:38:18.351,6.34794190056789e-05,-1.0577555116339854,0,MB
2025-06-16 19:38:18.359,7.628335814932922e-05,-0.934002747669592,0,MB
2025-06-16 19:38:18.367,9.002207592151364e-05,-0.7791585090730352,0,MB
2025-06-16 19:38:18.375,0.0001044298696315,-0.5977096959108177,0,MB
2025-06-16 19:38:18.382,0.0001192334530763,-0.3946826654323457,0,MB
2025-06-16 19:38:18.390,0.0001341584013058,-0.175504487122199,0,MB
2025-06-16 19:38:18.398,0.0001489349505964,0.0541448111852031,0,MB
2025-06-16 19:38:18.406,0.0001633030293816,0.2884842464601436,0,MB
2025-06-16 19:38:18.414,0.0001770164481668,0.5217833256913992,0,MB
2025-06-16 19:38:18.421,0.0001898462318404,0.7485082334292369,0,MB
2025-06-16 19:38:18.429,0.0002015831346972,0.9634583208476838,0,MB
2025-06-16 19:38:18.437,0.0002120394354921,1.1618888575380335,0,MB
2025-06-16 19:38:18.445,0.0002210501656954,1.339616540544453,0,MB
2025-06-16 19:38:18.453,0.0002284739761451,1.4931049066928472,0,MB
2025-06-16 19:38:18.461,0.0002341938832797,1.6195275486855127,0,MB
2025-06-16 19:38:18.468,0.0002381181250675,1.7168078702093528,0,MB
2025-06-16 19:38:18.476,0.000240181266233,1.7836349980733723,0,MB
2025-06-16 19:38:18.484,0.0002403455370944,1.8194563621053568,0,MB
2025-06-16 19:38:18.492,0.0002386022444346,1.8244483181276985,0,MB
2025-06-16 19:38:18.500,0.0002349730220995,1.799466987398071,0,MB
2025-06-16 19:38:18.507,0.0002295106864596,1.745982176141513,0,MB
2025-06-16 19:38:18.515,0.0002222994821824,1.665997781014139,0,MB
2025-06-16 19:38:18.523,0.0002134545382643,1.56196245053118,0,MB
2025-06-16 19:38:18.531,0.0002031204279305,1.4366744437369088,0,MB
2025-06-16 19:38:18.539,0.0001914688363269,1.2931846036779198,0,MB
2025-06-16 19:38:18.546,0.0001786954471325,1.1347011523545034,0,MB
2025-06-16 19:38:18.554,0.0001650162300806,0.96449963329497,0,MB
2025-06-16 19:38:18.562,0.0001506633350719,0.7858408044548837,0,MB
2025-06-16 19:38:18.570,0.000135880773999,0.6018986495679229,0,MB
2025-06-16 19:38:18.578,0.0001209200105434,0.4156999641360492,0,MB
2025-06-16 19:38:18.586,0.000106035508789,0.2300762220829689,0,MB
2025-06-16 19:38:18.593,9.148023969882132e-05,0.0476276904564691,0,MB
2025-06-16 19:38:18.601,7.750112255993353e-05,-0.129300909744451,0,MB
2025-06-16 19:38:18.609,6.433438911524595e-05,-0.2986344448346116,0,MB
2025-06-16 19:38:18.617,5.220090080825351e-05,-0.4585727472534033,0,MB
2025-06-16 19:38:18.625,4.130152081744974e-05,-0.60758918340787,0,MB
2025-06-16 19:38:18.632,3.18127276370969e-05,-0.7444243165656687,0,MB
2025-06-16 19:38:18.640,2.388271923156702e-05,-0.8680764890496548,0,MB
2025-06-16 19:38:18.648,1.7628248841056174e-05,-0.9777909627904948,0,MB
2025-06-16 19:38:18.656,1.3132341320135398e-05,-1.0730490016116714,0,MB
2025-06-16 19:38:18.664,1.0442908391542487e-05,-1.1535579803876197,0,MB
2025-06-16 19:38:18.672,9.572175916185613e-06,-1.2192432863655998,0,MB
2025-06-16 19:38:18.679,1.0496779610405535e-05,-1.2702424504210306,0,MB
2025-06-16 19:38:18.687,1.3158374627922967e-05,-1.3069016196737837,0,MB
2025-06-16 19:38:18.695,1.746465057254275e-05,-1.3297741651191552,0,MB
2025-06-16 19:38:18.703,2.329074635852892e-05,-1.3396209175738851,0,MB
2025-06-16 19:38:18.711,3.048116585618678e-05,-1.3374112525847952,0,MB
2025-06-16 19:38:18.718,3.885234094858643e-05,-1.324324010236629,0,MB
2025-06-16 19:38:18.726,4.8195961822271386e-05,-1.301747049063075,0,MB
2025-06-16 19:38:18.734,5.828312854637895e-05,-1.271274104780315,0,MB
2025-06-16 19:38:18.742,6.886930516104951e-05,-1.234697563433083,0,MB
2025-06-16 19:38:18.750,7.969999039856836e-05,-1.1939957705017472,0,MB
2025-06-16 19:38:18.757,9.051696080209236e-05,-1.1513135855181234,0,MB
2025-06-16 19:38:18.765,0.0001010648936557,-1.10893505924739,0,MB
2025-06-16 19:38:18.773,0.0001110981399559,-1.069247363184618,0,MB
2025-06-16 19:38:18.781,0.0001203873926794,-1.0346954451224135,0,MB
2025-06-16 19:38:18.789,0.0001287259837512,-1.0077273235556783,0,MB
2025-06-16 19:38:18.797,0.0001359355451412,-0.9907304660062998,0,MB
2025-06-16 19:38:18.804,0.0001418707859936,-0.9859603109294056,0,MB
2025-06-16 19:38:18.812,0.0001464231689674,-0.9954626652891198,0,MB
2025-06-16 19:38:18.820,0.0001495233151226,-1.0209924021138557,0,MB
2025-06-16 19:38:18.828,0.0001511420258679,-1.0639315467728854,0,MB
2025-06-16 19:38:18.836,0.0001512898724258,-1.1252104235344356,0,MB
2025-06-16 19:38:18.843,0.0001500153463749,-1.205235974957055,0,MB
2025-06-16 19:38:18.851,0.0001474015764869,-1.3038316013735594,0,MB
2025-06-16 19:38:18.859,0.0001435616217402,-1.420192837482989,0,MB
2025-06-16 19:38:18.867,0.0001386323955488,-1.552862849727482,0,MB
2025-06-16 19:38:18.875,0.0001327673849461,-1.699731095982088,0,MB
2025-06-16 19:38:18.882,0.0001261284837674,-1.858057568778591,0,MB
2025-06-16 19:38:18.890,0.000118877423858,-2.024523905986644,0,MB
2025-06-16 19:38:18.898,0.0001111674156642,-2.195311376888664,0,MB
2025-06-16 19:38:18.906,0.0001031356481068,-2.3662044181128232,0,MB
2025-06-16 19:38:18.914,9.489722371061562e-05,-2.532717078141784,0,MB
2025-06-16 19:38:18.922,8.65409443825002e-05,-2.6902384975486884,0,MB
2025-06-16 19:38:18.929,7.812716757031406e-05,-2.834192462191818,0,MB
2025-06-16 19:38:18.937,6.968776139813462e-05,-2.9602051660948585,0,MB
2025-06-16 19:38:18.945,6.122801884415034e-05,-3.0642746477802767,0,MB
2025-06-16 19:38:18.953,5.273025240971047e-05,-3.142934949921842,0,MB
2025-06-16 19:38:18.961,4.415868655225219e-05,-3.193407925551114,0,MB
2025-06-16 19:38:18.968,3.546519869999072e-05,-3.213735798305117,0,MB
2025-06-16 19:38:18.976,2.659543292866976e-05,-3.202888092395537,0,MB
2025-06-16 19:38:18.984,1.749482404809557e-05,-3.160837376168305,0,MB
2025-06-16 19:38:18.992,8.114123300894918e-06,-3.0885993868242854,0,MB
2025-06-16 19:38:19.000,-1.5858917810686428e-06,-2.9882344790796704,0,MB
2025-06-16 19:38:19.007,-1.16307163457122e-05,-2.8628089089838222,0,MB
2025-06-16 19:38:19.015,-2.202947701183215e-05,-2.7163161591800424,0,MB
2025-06-16 19:38:19.023,-3.2773277649445006e-05,-2.553560260761699,0,MB
2025-06-16 19:38:19.031,-4.383439340868386e-05,-2.380004787988274,0,MB
2025-06-16 19:38:19.039,-5.516616961311762e-05,-2.201592803002548,0,MB
2025-06-16 19:38:19.047,-6.670350234522832e-05,-2.024544410136744,0,MB
2025-06-16 19:38:19.054,-7.836379831872132e-05,-1.855139653643238,0,MB
2025-06-16 19:38:19.062,-9.004834449404569e-05,-1.6994951932205529,0,MB
2025-06-16 19:38:19.070,-0.0001016440723884,-1.5633434858629205,0,MB
2025-06-16 19:38:19.078,-0.0001130257609281,-1.4518230892100872,0,MB
2025-06-16 19:38:19.086,-0.0001240587611563,-1.3692882042114118,0,MB
2025-06-16 19:38:19.093,-0.0001346023345279,-1.3191447353368573,0,MB
2025-06-16 19:38:19.101,-0.0001445136716796,-1.3037190207713667,0,MB
2025-06-16 19:38:19.109,-0.0001536526012652,-1.3241640387733629,0,MB
2025-06-16 19:38:19.117,-0.0001618869108554,-1.3804063994919022,0,MB
2025-06-16 19:38:19.125,-0.0001690980891384,-1.4711358535832268,0,MB
2025-06-16 19:38:19.132,-0.0001751871751344,-1.5938374573893253,0,MB
2025-06-16 19:38:19.140,-0.0001800802939444,-1.7448649923276267,0,MB
2025-06-16 19:38:19.148,-0.0001837333989927,-1.91955279718665,0,MB
2025-06-16 19:38:19.156,-0.0001861357409661,-2.112361875787647,0,MB
2025-06-16 19:38:19.164,-0.0001873116450929,-2.3170550148677025,0,MB
2025-06-16 19:38:19.172,-0.0001873203003202,-2.526894705797533,0,MB
2025-06-16 19:38:19.179,-0.0001862534337588,-2.7348569248312264,0,MB
2025-06-16 19:38:19.187,-0.0001842309324954,-2.9338533086165075,0,MB
2025-06-16 19:38:19.195,-0.000181394654521,-3.116953986437214,0,MB
2025-06-16 19:38:19.203,-0.0001779008263249,-3.277603318635839,0,MB
2025-06-16 19:38:19.211,-0.0001739115507931,-3.4098210551786554,0,MB
2025-06-16 19:38:19.218,-0.0001695860403869,-3.5083819729053,0,MB
2025-06-16 19:38:19.226,-0.0001650722349677,-3.5689678689305957,0,MB
2025-06-16 19:38:19.234,-0.0001604994388792,-3.588286865196319,0,MB
2025-06-16 19:38:19.242,-0.0001559725061665,-3.564156285795757,0,MB
2025-06-16 19:38:19.250,-0.0001515679427507,-3.4955468566533145,0,MB
2025-06-16 19:38:19.257,-0.0001473321311388,-3.3825875787088955,0,MB
2025-06-16 19:38:19.265,-0.0001432817449865,-3.226532256946448,0,MB
2025-06-16 19:38:19.273,-0.0001394062987625,-3.029690236468539,0,MB
2025-06-16 19:38:19.281,-0.000135672654177,-2.795325313045564,0,MB
2025-06-16 19:38:19.289,-0.0001320311753076,-2.5275279691779,0,MB
2025-06-16 19:38:19.297,-0.0001284231004186,-2.231066974827872,0,MB
2025-06-16 19:38:19.304,-0.0001247886052383,-1.9112269433861409,0,MB
2025-06-16 19:38:19.312,-0.0001210749873891,-1.5736386316228907,0,MB
2025-06-16 19:38:19.320,-0.0001172443946258,-1.2241086273691593,0,MB
2025-06-16 19:38:19.328,-0.0001132805376398,-0.8684546156620011,0,MB
2025-06-16 19:38:19.336,-0.0001091938920513,-0.5123517062793901,0,MB
2025-06-16 19:38:19.343,-0.0001050250278621,-0.1611944031609241,0,MB
2025-06-16 19:38:19.351,-0.000100845879258,0.1800222415865393,0,MB
2025-06-16 19:38:19.359,-9.675891883928306e-05,0.5067998612030054,0,MB
2025-06-16 19:38:19.367,-9.28942940502568e-05,0.8152110981638334,0,MB
2025-06-16 19:38:19.375,-8.940503835422545e-05,1.1019508049824314,0,MB
2025-06-16 19:38:19.382,-8.646052837400893e-05,1.364364887148828,0,MB
2025-06-16 19:38:19.390,-8.423845191850998e-05,1.6004583826130807,0,MB
2025-06-16 19:38:19.398,-8.291567752690184e-05,1.80888502489943,0,MB
2025-06-16 19:38:19.406,-8.265853680452927e-05,1.9889210020824049,0,MB
2025-06-16 19:38:19.414,-8.361309775840143e-05,2.1404259031123307,0,MB
2025-06-16 19:38:19.422,-8.589599476224396e-05,2.263793948552576,0,MB
2025-06-16 19:38:19.429,-8.958630947166389e-05,2.359898554944364,0,MB
2025-06-16 19:38:19.437,-9.471891401225844e-05,2.4300331039875718,0,MB
2025-06-16 19:38:19.445,-0.0001012796174222,2.4758505009639045,0,MB
2025-06-16 19:38:19.453,-0.0001092023863875,2.4993037309568744,0,MB
2025-06-16 19:38:19.461,-0.0001183688210913,2.50258917785748,0,MB
2025-06-16 19:38:19.468,-0.0001286099478533,2.488093984859156,0,MB
2025-06-16 19:38:19.476,-0.0001397102443158,2.4583482332447444,0,MB
2025-06-16 19:38:19.484,-0.0001514136548947,2.415982227299906,0,MB
2025-06-16 19:38:19.492,-0.0001634312204805,2.3636887276326566,0,MB
2025-06-16 19:38:19.500,-0.0001754498856811,2.3041896026815976,0,MB
2025-06-16 19:38:19.507,-0.0001871420810945,2.2402060908988157,0,MB
2025-06-16 19:38:19.515,-0.0001981757720613,2.1744316935018007,0,MB
2025-06-16 19:38:19.523,-0.0002082247478989,2.109506647673409,0,MB
2025-06-16 19:38:19.531,-0.00021697894764,2.047992954778119,0,MB
2025-06-16 19:38:19.539,-0.0002241545903644,1.992349049009518,0,MB
2025-06-16 19:38:19.547,-0.0002295038458355,1.9449033793916732,0,MB
2025-06-16 19:38:19.554,-0.0002328237692747,1.9078264280574664,0,MB
2025-06-16 19:38:19.562,-0.0002339642215278,1.8831009809864676,0,MB
2025-06-16 19:38:19.570,-0.0002328344832688,1.8724907848982832,0,MB
2025-06-16 19:38:19.578,-0.0002294082437147,1.8775080513054536,0,MB
2025-06-16 19:38:19.586,-0.0002237266122624,1.899380593281235,0,MB
2025-06-16 19:38:19.593,-0.0002158987923,1.939019686245237,0,MB
2025-06-16 19:38:19.601,-0.0002061000979582,1.996990010984429,0,MB
2025-06-16 19:38:19.609,-0.0001945670981354,2.0734832447703853,0,MB
2025-06-16 19:38:19.617,-0.0001815898370237,2.168296994436296,0,MB
2025-06-16 19:38:19.625,-0.0001675013034621,2.2808207906855045,0,MB
2025-06-16 19:38:19.632,-0.0001526645857825,2.4100307626646584,0,MB
2025-06-16 19:38:19.640,-0.0001374584111028,2.554494372316808,0,MB
2025-06-16 19:38:19.648,-0.0001222619650384,2.7123862131829504,0,MB
2025-06-16 19:38:19.656,-0.0001074399598805,2.8815153905509776,0,MB
2025-06-16 19:38:19.664,-9.3328849932581e-05,3.0593644355740848,0,MB
2025-06-16 19:38:19.672,-8.022492870493974e-05,3.2431391095482103,0,MB
2025-06-16 19:38:19.679,-6.837484839497888e-05,3.42982787265697,0,MB
2025-06-16 19:38:19.687,-5.796889523019562e-05,3.616269268912544,0,MB
2025-06-16 19:38:19.695,-4.913711828167464e-05,3.799225054633794,0,MB
2025-06-16 19:38:19.703,-4.194816258519251e-05,3.975456600280893,0,MB
2025-06-16 19:38:19.711,-3.641046545734812e-05,4.141801939441863,0,MB
2025-06-16 19:38:19.718,-3.247538649551378e-05,4.295250823427792,0,MB
2025-06-16 19:38:19.726,-3.0041844697022404e-05,4.433015251251632,0,MB
2025-06-16 19:38:19.734,-2.89620838785798e-05,4.552593161030278,0,MB
2025-06-16 19:38:19.742,-2.904824340888796e-05,4.65182326701357,0,MB
2025-06-16 19:38:19.750,-3.0079461177845578e-05,4.728929386515515,0,MB
2025-06-16 19:38:19.757,-3.180928410568073e-05,4.7825530074400495,0,MB
2025-06-16 19:38:19.765,-3.397322608607497e-05,4.811773286528379,0,MB
2025-06-16 19:38:19.773,-3.629640330751983e-05,4.81611412512373,0,MB
2025-06-16 19:38:19.781,-3.8501265148738126e-05,4.795538423053063,0,MB
2025-06-16 19:38:19.789,-4.031547559468124e-05,4.750430042783627,0,MB
2025-06-16 19:38:19.797,-4.147996068696952e-05,4.681564413557531,0,MB
2025-06-16 19:38:19.804,-4.175703785117064e-05,4.590069064449676,0,MB
2025-06-16 19:38:19.812,-4.0938417864603766e-05,4.47737569184947,0,MB
2025-06-16 19:38:19.820,-3.885275749114349e-05,4.345165629827044,0,MB
2025-06-16 19:38:19.828,-3.5372371502122406e-05,4.195310785087465,0,MB
2025-06-16 19:38:19.836,-3.04187004052097e-05,4.029812207673017,0,MB
2025-06-16 19:38:19.843,-2.39661749416885e-05,3.8507384887722327,0,MB
2025-06-16 19:38:19.851,-1.6044210478169274e-05,3.6601661116943216,0,MB
2025-06-16 19:38:19.859,-6.737171302142444e-06,3.460123739342348,0,MB
2025-06-16 19:38:19.867,3.8177728379262734e-06,3.252542208686413,0,MB
2025-06-16 19:38:19.875,1.543491870449205e-05,3.03921172603412,0,MB
2025-06-16 19:38:19.882,2.788638340584485e-05,2.8217474253003108,0,MB
2025-06-16 19:38:19.890,4.091039470235116e-05,2.6015640803881626,0,MB
2025-06-16 19:38:19.898,5.422125700008531e-05,2.3798603743164053,0,MB
2025-06-16 19:38:19.906,6.752062392392272e-05,2.1576127472000524,0,MB
2025-06-16 19:38:19.914,8.050961950298042e-05,1.9355784956240116,0,MB
2025-06-16 19:38:19.922,9.290128452693066e-05,1.7143074929510411,0,MB
2025-06-16 19:38:19.929,0.0001044327844028,1.4941616492015382,0,MB
2025-06-16 19:38:19.937,0.0001148768012626,1.275341026682841,0,MB
2025-06-16 19:38:19.945,0.0001240515470546,1.0579153654955071,0,MB
2025-06-16 19:38:19.953,0.0001318288762952,0.8418596448221868,0,MB
2025-06-16 19:38:19.961,0.0001381400468734,0.6270922091215178,0,MB
2025-06-16 19:38:19.968,0.000142978774012,0.4135139241437832,0,MB
2025-06-16 19:38:19.976,0.0001464013447313,0.2010467995554377,0,MB
2025-06-16 19:38:19.984,0.0001485237057908,-0.0103294719573882,0,MB
2025-06-16 19:38:19.992,0.0001495156041885,-0.2205445495940927,0,MB
2025-06-16 19:38:20.000,0.0001495920422272,-0.4294094333071268,0,MB
2025-06-16 19:38:20.007,0.0001490025028383,-0.6365946205886723,0,MB
2025-06-16 19:38:20.015,0.0001480185887903,-0.8416154168782254,0,MB
2025-06-16 19:38:20.023,0.0001469208637745,-1.0438250880791926,0,MB
2025-06-16 19:38:20.031,0.0001459857345094,-1.2424161787164154,0,MB
2025-06-16 19:38:20.039,0.000145473147111,-1.4364299039067945,0,MB
2025-06-16 19:38:20.047,0.000145615713672,-1.6247730928603936,0,MB
2025-06-16 19:38:20.054,0.000146609687654,-1.8062417617762043,0,MB
2025-06-16 19:38:20.062,0.0001486080103137,-1.979550067609862,0,MB
2025-06-16 19:38:20.070,0.000151715482457,-2.1433631715758024,0,MB
2025-06-16 19:38:20.078,0.0001559860039791,-2.296332438698844,0,MB
2025-06-16 19:38:20.086,0.0001614217833576,-2.4371314201188645,0,MB
2025-06-16 19:38:20.093,0.0001679744272409,-2.56449119376516,0,MB
2025-06-16 19:38:20.101,0.0001755478285283,-2.6772338426529982,0,MB
2025-06-16 19:38:20.109,0.0001840027546264,-2.7743030847122703,0,MB
2025-06-16 19:38:20.117,0.0001931630074542,-2.854791297482007,0,MB
2025-06-16 19:38:20.125,0.0002028230019528,-2.917962387138001,0,MB
2025-06-16 19:38:20.132,0.0002127565894532,-2.9632701315900567,0,MB
2025-06-16 19:38:20.140,0.0002227269159151,-2.9903717857740126,0,MB
2025-06-16 19:38:20.148,0.0002324970381539,-2.9991368782009693,0,MB
2025-06-16 19:38:20.156,0.0002418409382552,-2.9896512539682165,0,MB
2025-06-16 19:38:20.164,0.0002505545026853,-2.962216531285299,0,MB
2025-06-16 19:38:20.172,0.0002584659706914,-2.917345235462999,0,MB
2025-06-16 19:38:20.179,0.0002654452975632,-2.8557519557893944,0,MB
2025-06-16 19:38:20.187,0.0002714118364582,-2.778340936366689,0,MB
2025-06-16 19:38:20.195,0.0002763397561965,-2.686190559385198,0,MB
2025-06-16 19:38:20.203,0.0002802607135327,-2.580535202358759,0,MB
2025-06-16 19:38:20.211,0.0002832634847963,-2.46274494201492,0,MB
2025-06-16 19:38:20.218,0.0002854904957618,-2.334303534045014,0,MB
2025-06-16 19:38:20.226,0.0002871314177534,-2.1967850265382047,0,MB
2025-06-16 19:38:20.234,0.0002884141831076,-2.0518292810710457,0,MB
2025-06-16 19:38:20.242,0.0002895939074678,-1.9011165981973548,0,MB
2025-06-16 19:38:20.250,0.0002909403076989,-1.746341591823546,0,MB
2025-06-16 19:38:20.257,0.000292724282958,-1.589186445783919,0,MB
2025-06-16 19:38:20.265,0.0002952043674622,-1.4312937291062469,0,MB
2025-06-16 19:38:20.273,0.0002986137443629,-1.27423905040613,0,MB
2025-06-16 19:38:20.281,0.0003031484313456,-1.1195039895630337,0,MB
2025-06-16 19:38:20.289,0.0003089571351429,-0.9684499333638328,0,MB
2025-06-16 19:38:20.297,0.0003161331498679,-0.8222936279176559,0,MB
2025-06-16 19:38:20.304,0.0003247085556404,-0.6820854110579865,0,MB
2025-06-16 19:38:20.312,0.0003346508633929,-0.5486911777645848,0,MB
2025-06-16 19:38:20.320,0.0003458621508052,-0.4227791473035044,0,MB
2025-06-16 19:38:20.328,0.0003581806442868,-0.3048124377323323,0,MB
2025-06-16 19:38:20.336,0.0003713846235693,-0.1950483114720476,0,MB
2025-06-16 19:38:20.343,0.0003851984591493,-0.0935447354834626,0,MB
2025-06-16 19:38:20.351,0.0003993005385745,-0.0001746027149382,0,MB
2025-06-16 19:38:20.359,0.000413332795198,0.0853524057524225,0,MB
2025-06-16 19:38:20.367,0.000426911522198,0.1634607600356604,0,MB
2025-06-16 19:38:20.375,0.0004396391349676,0.2346737137014636,0,MB
2025-06-16 19:38:20.382,0.0004511165360272,0.2995729635421294,0,MB
2025-06-16 19:38:20.390,0.0004609557364416,0.3587550724564627,0,MB
2025-06-16 19:38:20.398,0.000468792386411,0.4127867153305907,0,MB
2025-06-16 19:38:20.406,0.0004742978445397,0.4621610255623274,0,MB
2025-06-16 19:38:20.414,0.0004771903590869,0.5072574075880507,0,MB
2025-06-16 19:38:20.422,0.0004772448717156,0.5483071233384218,0,MB
2025-06-16 19:38:20.429,0.0004743009349011,0.5853667549143465,0,MB
2025-06-16 19:38:20.437,0.0004682682843205,0.6183013035929383,0,MB
2025-06-16 19:38:20.445,0.0004591297153024,0.646778230532971,0,MB
2025-06-16 19:38:20.453,0.0004469410558639,0.6702732082884717,0,MB
2025-06-16 19:38:20.461,0.0004318281947655,0.6880877687858409,0,MB
2025-06-16 19:38:20.468,0.0004139812974247,0.6993784377166082,0,MB
2025-06-16 19:38:20.476,0.0003936464998368,0.703196368437636,0,MB
2025-06-16 19:38:20.484,0.0003711154857877,0.698535953257018,0,MB
2025-06-16 19:38:20.492,0.0003467134247327,0.6843904116256775,0,MB
2025-06-16 19:38:20.500,0.0003207857983062,0.6598119461872549,0,MB
2025-06-16 19:38:20.507,0.0002936846863473,0.6239737333967235,0,MB
2025-06-16 19:38:20.515,0.0002657551061096,0.5762307917146042,0,MB
2025-06-16 19:38:20.523,0.0002373219805936,0.5161766638209072,0,MB
2025-06-16 19:38:20.531,0.0002086782554329,0.4436928751528751,0,MB
2025-06-16 19:38:20.539,0.0001800746138597,0.3589883006803797,0,MB
2025-06-16 19:38:20.547,0.000151711181317,0.2626258903631237,0,MB
2025-06-16 19:38:20.554,0.0001237315749474,0.1555346698823208,0,MB
2025-06-16 19:38:20.562,9.621962890679105e-05,0.039005539393081,0,MB
2025-06-16 19:38:20.570,6.919908262685082e-05,-0.0853298766260909,0,MB
2025-06-16 19:38:20.578,4.263641970229877e-05,-0.2155372489277759,0,MB
2025-06-16 19:38:20.586,1.6446889978981537e-05,-0.3494334737433586,0,MB
2025-06-16 19:38:20.593,-9.49642393394126e-06,-0.4846546794615492,0,MB
2025-06-16 19:38:20.601,-3.535079514825179e-05,-0.6187356654719386,0,MB
2025-06-16 19:38:20.609,-6.128975445029224e-05,-0.7491974424793792,0,MB
2025-06-16 19:38:20.617,-8.748732900466288e-05,-0.8736390285999511,0,MB
2025-06-16 19:38:20.625,-0.000114101392408,-0.9898293475644504,0,MB
2025-06-16 19:38:20.632,-0.0001412570128431,-1.0957949980043986,0,MB
2025-06-16 19:38:20.640,-0.0001690307457488,-1.189899827474127,0,MB
2025-06-16 19:38:20.648,-0.0001974368208688,-1.2709126471984695,0,MB
2025-06-16 19:38:20.656,-0.0002264161202407,-1.3380600374437674,0,MB
2025-06-16 19:38:20.664,-0.0002558287347375,-1.3910619684039924,0,MB
2025-06-16 19:38:20.672,-0.0002854507249141,-1.430148828454788,0,MB
2025-06-16 19:38:20.679,-0.0003149755015516,-1.456059335444395,0,MB
2025-06-16 19:38:20.687,-0.0003440199900857,-1.4700196397383438,0,MB
2025-06-16 19:38:20.695,-0.0003721354683641,-1.473704660071928,0,MB
2025-06-16 19:38:20.703,-0.000398822698625,-1.4691832978402466,0,MB
2025-06-16 19:38:20.711,-0.0004235507355285,-1.4588496471044612,0,MB
2025-06-16 19:38:20.718,-0.0004457785791821,-1.4453426664453286,0,MB
2025-06-16 19:38:20.726,-0.0004649786501206,-1.4314570220089038,0,MB
2025-06-16 19:38:20.734,-0.0004806609227234,-1.4200479670485384,0,MB
2025-06-16 19:38:20.742,-0.0004923965071313,-1.4139332087222278,0,MB
2025-06-16 19:38:20.750,-0.0004998395199543,-1.415794741021404,0,MB
2025-06-16 19:38:20.757,-0.0005027461966222,-1.428083601082981,0,MB
2025-06-16 19:38:20.765,-0.0005009903423463,-1.4529304352007597,0,MB
2025-06-16 19:38:20.773,-0.0004945743827017,-1.4920646337152226,0,MB
2025-06-16 19:38:20.781,-0.0004836354570104,-1.5467445993703328,0,MB
2025-06-16 19:38:20.789,-0.0004684461977034,-1.6177014419136264,0,MB
2025-06-16 19:38:20.797,-0.0004494100544769,-1.7050980395709887,0,MB
2025-06-16 19:38:20.804,-0.0004270512425814,-1.8085049810591385,0,MB
2025-06-16 19:38:20.812,-0.000401999597638,-1.926894413791386,0,MB
2025-06-16 19:38:20.820,-0.0003749707911593,-2.0586522941597263,0,MB
2025-06-16 19:38:20.828,-0.0003467425225298,-2.201608982902721,0,MB
2025-06-16 19:38:20.836,-0.0003181274899716,-2.3530875659848065,0,MB
2025-06-16 19:38:20.843,-0.0002899441527258,-2.5099687194820373,0,MB
2025-06-16 19:38:20.851,-0.0002629864876588,-2.668770388340452,0,MB
2025-06-16 19:38:20.859,-0.0002379940801252,-2.825740030377256,0,MB
2025-06-16 19:38:20.867,-0.0002156239574237,-2.976956709510444,0,MB
2025-06-16 19:38:20.875,-0.0001964255675905,-3.118439932095136,0,MB
2025-06-16 19:38:20.882,-0.0001808202236612,-3.246261837196075,0,MB
2025-06-16 19:38:20.890,-0.000169086166126,-3.3566592010502454,0,MB
2025-06-16 19:38:20.898,-0.0001613501237314,-3.446141708685933,0,MB
2025-06-16 19:38:20.906,-0.0001575858691301,-3.511593073584388,0,MB
2025-06-16 19:38:20.914,-0.0001576198143077,-3.5503618273978543,0,MB
2025-06-16 19:38:20.922,-0.0001611432490642,-3.5603389305825583,0,MB
2025-06-16 19:38:20.929,-0.0001677304519076,-3.540019752582208,0,MB
2025-06-16 19:38:20.937,-0.000176861603099,-3.4885484309973003,0,MB
2025-06-16 19:38:20.945,-0.0001879491889799,-3.4057431486604,0,MB
2025-06-16 19:38:20.953,-0.0002003664110714,-3.292101473186436,0,MB
2025-06-16 19:38:20.961,-0.0002134760284128,-3.148785583009898,0,MB
2025-06-16 19:38:20.968,-0.000226658088895,-2.977587939886361,0,MB
2025-06-16 19:38:20.976,-0.0002393351521947,-2.780878730201916,0,MB
2025-06-16 19:38:20.984,-0.0002509938593353,-2.561537147013214,0,MB
2025-06-16 19:38:20.992,-0.00026120202879,-2.322869276057508,0,MB
2025-06-16 19:38:21.000,-0.0002696208215592,-2.0685159332722747,0,MB
2025-06-16 19:38:21.007,-0.0002760118856797,-1.8023542311752656,0,MB
2025-06-16 19:38:21.015,-0.0002802397195021,-1.5283968862078368,0,MB
2025-06-16 19:38:21.023,-0.0002822697287235,-1.250693290352627,0,MB
2025-06-16 19:38:21.031,-0.000282162567171,-0.97323614491332,0,MB
2025-06-16 19:38:21.039,-0.0002800653684864,-0.699876996142246,0,MB
2025-06-16 19:38:21.047,-0.0002762004444364,-0.4342533436559956,0,MB
2025-06-16 19:38:21.054,-0.0002708519834044,-0.1797291552383903,0,MB
2025-06-16 19:38:21.062,-0.0002643512464927,0.0606503239872063,0,MB
2025-06-16 19:38:21.070,-0.0002570607349004,0.2841895601752936,0,MB
2025-06-16 19:38:21.078,-0.0002493577945862,0.4885605432739736,0,MB
2025-06-16 19:38:21.086,-0.0002416181352611,0.6718092570312666,0,MB
2025-06-16 19:38:21.093,-0.0002341997717791,0.8323532511617205,0,MB
2025-06-16 19:38:21.101,-0.0002274279453004,0.9689731260887252,0,MB
2025-06-16 19:38:21.109,-0.0002215816363829,1.0808008389361166,0,MB
2025-06-16 19:38:21.117,-0.0002168823076452,1.1673075728118243,0,MB
2025-06-16 19:38:21.125,-0.0002134854625496,1.2282935014899408,0,MB
2025-06-16 19:38:21.132,-0.0002114754571074,1.2638811657513558,0,MB
2025-06-16 19:38:21.140,-0.000210863779698,1.274513409547274,0,MB
2025-06-16 19:38:21.148,-0.0002115907727181,1.2609559721625143,0,MB
2025-06-16 19:38:21.156,-0.0002135305479706,1.2243039723665428,0,MB
2025-06-16 19:38:21.164,-0.0002164986631137,1.1659907265763112,0,MB
2025-06-16 19:38:21.172,-0.0002202619855715,1.087796684312024,0,MB
2025-06-16 19:38:21.179,-0.0002245500764363,0.9918558016732288,0,MB
2025-06-16 19:38:21.187,-0.0002290673820038,0.8806564526284605,0,MB
2025-06-16 19:38:21.195,-0.0002335055252037,0.7570340182598732,0,MB
2025-06-16 19:38:21.203,-0.0002375550424891,0.6241525863698811,0,MB
2025-06-16 19:38:21.211,-0.0002409160115765,0.4854737068562458,0,MB
2025-06-16 19:38:21.218,-0.0002433071584205,0.3447108399844716,0,MB
2025-06-16 19:38:21.226,-0.0002444732118094,0.2057689595708555,0,MB
2025-06-16 19:38:21.234,-0.0002441904740884,0.0726696837490292,0,MB
2025-06-16 19:38:21.242,-0.0002422707599279,-0.0505367479648272,0,MB
2025-06-16 19:38:21.250,-0.000238563980969,-0.1598704047235158,0,MB
2025-06-16 19:38:21.257,-0.0002329597183357,-0.2515283993818148,0,MB
2025-06-16 19:38:21.265,-0.0002253881613858,-0.3219955944827762,0,MB
2025-06-16 19:38:21.273,-0.0002158208119507,-0.3681548830830957,0,MB
2025-06-16 19:38:21.281,-0.0002042713161832,-0.3873922941136309,0,MB
2025-06-16 19:38:21.289,-0.0001907966474106,-0.3776920519783715,0,MB
2025-06-16 19:38:21.297,-0.0001754986435188,-0.3377168483135044,0,MB
2025-06-16 19:38:21.304,-0.0001585256704561,-0.2668689657704112,0,MB
2025-06-16 19:38:21.312,-0.0001400739943606,-0.1653285279999399,0,MB
2025-06-16 19:38:21.320,-0.0001203883274742,-0.0340660234307953,0,MB
2025-06-16 19:38:21.328,-9.976099683788e-05,0.1251726688496467,0,MB
2025-06-16 19:38:21.336,-7.852927742713803e-05,0.3099092850495462,0,MB
2025-06-16 19:38:21.343,-5.707058434800158e-05,0.517003415743011,0,MB
2025-06-16 19:38:21.351,-3.579536969713869e-05,0.7427478209023295,0,MB
2025-06-16 19:38:21.359,-1.5137706829887403e-05,0.9829853561113352,0,MB
2025-06-16 19:38:21.367,4.4563027976845465e-06,1.233242872523638,0,MB
2025-06-16 19:38:21.375,2.254198213579631e-05,1.4888765007519316,0,MB
2025-06-16 19:38:21.382,3.869088600251708e-05,1.7452220712580426,0,MB
2025-06-16 19:38:21.390,5.250631991314349e-05,1.997744113305653,0,MB
2025-06-16 19:38:21.398,6.363886281917796e-05,2.2421769351719565,0,MB
2025-06-16 19:38:21.406,7.180117817810455e-05,2.4746517143244464,0,MB
2025-06-16 19:38:21.414,7.678140326114058e-05,2.6918042844802805,0,MB
2025-06-16 19:38:21.422,7.845440653433512e-05,2.890859343170417,0,MB
2025-06-16 19:38:21.429,7.679022136537964e-05,3.0696880527318986,0,MB
2025-06-16 19:38:21.437,7.185904795016081e-05,3.226837395704194,0,MB
2025-06-16 19:38:21.445,6.383238780973302e-05,3.361531090291366,0,MB
2025-06-16 19:38:21.453,5.29801114741423e-05,3.4736432827888164,0,MB
2025-06-16 19:38:21.461,3.966351001522347e-05,3.5636475192844936,0,MB
2025-06-16 19:38:21.468,2.432460740227884e-05,3.632544575729407,0,MB
2025-06-16 19:38:21.476,7.472197632976596e-06,3.681773534384486,0,MB
2025-06-16 19:38:21.484,-1.0334786416156763e-05,3.713111008161158,0,MB
2025-06-16 19:38:21.492,-2.850586668027052e-05,3.7285636344051456,0,MB
2025-06-16 19:38:21.500,-4.64388068401536e-05,3.730258908843009,0,MB
2025-06-16 19:38:21.507,-6.353977397701699e-05,3.720339143811509,0,MB
2025-06-16 19:38:21.515,-7.924300911084019e-05,3.700862854758269,0,MB
2025-06-16 19:38:21.523,-9.302911962148132e-05,3.673717250403602,0,MB
2025-06-16 19:38:21.531,-0.0001044411568798,3.640544769065759,0,MB
2025-06-16 19:38:21.539,-0.0001130977768543,3.6026858082998867,0,MB
2025-06-16 19:38:21.547,-0.0001187029630874,3.5611389769012107,0,MB
2025-06-16 19:38:21.554,-0.0001210519823037,3.516539394876241,0,MB
2025-06-16 19:38:21.562,-0.0001200334508742,3.469154812056436,0,MB
2025-06-16 19:38:21.570,-0.0001156276442511,3.418898637665857,0,MB
2025-06-16 19:38:21.578,-0.0001079014663213,3.365358390772916,0,MB
2025-06-16 19:38:21.586,-9.700074489402544e-05,3.30783760547248,0,MB
2025-06-16 19:38:21.593,-8.314067284823316e-05,3.2454088591127626,0,MB
2025-06-16 19:38:21.601,-6.659525063799351e-05,3.176975337066566,0,MB
2025-06-16 19:38:21.609,-4.7686505722818735e-05,3.1013381974419105,0,MB
2025-06-16 19:38:21.617,-2.6774084299675257e-05,3.0172669412566933,0,MB
2025-06-16 19:38:21.625,-4.245574426958991e-06,2.923570015634142,0,MB
2025-06-16 19:38:21.633,1.949231411648795e-05,2.8191629741495694,0,MB
2025-06-16 19:38:21.640,4.4021775699691645e-05,2.7031316894501525,0,MB
2025-06-16 19:38:21.648,6.89213247106997e-05,2.5747883567042185,0,MB
2025-06-16 19:38:21.656,9.377283417011372e-05,2.433718335239869,0,MB
2025-06-16 19:38:21.664,0.0001181684040135,2.2798162398945423,0,MB
2025-06-16 19:38:21.672,0.0001417171778988,2.1133101023656944,0,MB
2025-06-16 19:38:21.679,0.0001640521129431,1.9347728644953448,0,MB
2025-06-16 19:38:21.687,0.000184836616187,1.7451209266623915,0,MB
2025-06-16 19:38:21.695,0.0002037709216705,1.5455999403341645,0,MB
2025-06-16 19:38:21.703,0.0002205980724879,1.3377584870748902,0,MB
2025-06-16 19:38:21.711,0.0002351093508155,1.1234107079133009,0,MB
2025-06-16 19:38:21.718,0.000247148947034,0.9045893202280604,0,MB
2025-06-16 19:38:21.726,0.0002566176018971,0.6834907748194358,0,MB
2025-06-16 19:38:21.734,0.0002634749417746,0.4624145620037906,0,MB
2025-06-16 19:38:21.742,0.0002677402823261,0.2436988741580097,0,MB
2025-06-16 19:38:21.750,0.0002694917786082,0.029654973661421,0,MB
2025-06-16 19:38:21.758,0.0002688639048297,-0.1774973034823799,0,MB
2025-06-16 19:38:21.765,0.0002660433311546,-0.3756904646365411,0,MB
2025-06-16 19:38:21.773,0.0002612633378779,-0.5630643204560679,0,MB
2025-06-16 19:38:21.781,0.0002547969823323,-0.7380127676769264,0,MB
2025-06-16 19:38:21.789,0.0002469492981279,-0.8992204327556691,0,MB
2025-06-16 19:38:21.797,0.0002380488372831,-1.0456875759309767,0,MB
2025-06-16 19:38:21.804,0.0002284388647142,-1.17674211603262,0,MB
2025-06-16 19:38:21.812,0.0002184684965212,-1.2920381832490588,0,MB
2025-06-16 19:38:21.820,0.0002084840409067,-1.39154121877818,0,MB
2025-06-16 19:38:21.828,0.0001988207526412,-1.4755002899642145,0,MB
2025-06-16 19:38:21.836,0.0001897951660422,-1.544408948002138,0,MB
2025-06-16 19:38:21.843,0.0001816981507857,-1.5989565918220745,0,MB
2025-06-16 19:38:21.851,0.0001747888402894,-1.6399728808967848,0,MB
2025-06-16 19:38:21.859,0.0001692895905182,-1.668368218247966,0,MB
2025-06-16 19:38:21.867,0.0001653821140208,-1.685073655293647,0,MB
2025-06-16 19:38:21.875,0.0001632048894756,-1.6909837103897698,0,MB
2025-06-16 19:38:21.883,0.0001628518714048,-1.6869055159132933,0,MB
2025-06-16 19:38:21.890,0.0001643724291407,-1.6735174052331403,0,MB
2025-06-16 19:38:21.898,0.0001677723534006,-1.6513395275329137,0,MB
2025-06-16 19:38:21.906,0.0001730157090861,-1.620718357064662,0,MB
2025-06-16 19:38:21.914,0.0001800272944762,-1.5818260839946814,0,MB
2025-06-16 19:38:21.922,0.0001886954888263,-1.5346748967542598,0,MB
2025-06-16 19:38:21.929,0.0001988753300232,-1.4791451673673068,0,MB
2025-06-16 19:38:21.937,0.0002103917478054,-1.4150256143741404,0,MB
2025-06-16 19:38:21.945,0.0002230429571112,-1.342062719474201,0,MB
2025-06-16 19:38:21.953,0.0002366040633048,-1.2600160752880123,0,MB
2025-06-16 19:38:21.961,0.0002508309337096,-1.1687159828812594,0,MB
2025-06-16 19:38:21.968,0.0002654643470604,-1.0681195144306996,0,MB
2025-06-16 19:38:21.976,0.0002802343565326,-0.9583613999372907,0,MB
2025-06-16 19:38:21.984,0.0002948647279447,-0.8397964599986087,0,MB
2025-06-16 19:38:21.992,0.0003090772907471,-0.7130308513568808,0,MB
2025-06-16 19:38:22.000,0.0003225960892487,-0.5789400746740211,0,MB
2025-06-16 19:38:22.008,0.0003351513207979,-0.4386724687206281,0,MB
2025-06-16 19:38:22.015,0.0003464831474882,-0.2936377366706685,0,MB
2025-06-16 19:38:22.023,0.0003563455328067,-0.1454808764340771,0,MB
2025-06-16 19:38:22.031,0.0003645102716001,0.0039573206549335,0,MB
2025-06-16 19:38:22.039,0.0003707713497345,0.152691315608074,0,MB
2025-06-16 19:38:22.047,0.0003749496931479,0.2986509039262102,0,MB
2025-06-16 19:38:22.054,0.0003768982589597,0.4397473357962366,0,MB
2025-06-16 19:38:22.062,0.0003765073109914,0.5739421411541543,0,MB
2025-06-16 19:38:22.070,0.0003737096293628,0.6993151664567114,0,MB
2025-06-16 19:38:22.078,0.000368485323228,0.8141283568747697,0,MB
2025-06-16 19:38:22.086,0.0003608658398005,0.9168820338672786,0,MB
2025-06-16 19:38:22.093,0.0003509367200861,1.0063608166756708,0,MB
2025-06-16 19:38:22.101,0.0003388386826468,1.0816669010597502,0,MB
2025-06-16 19:38:22.109,0.000324766721679,1.1422391142770012,0,MB
2025-06-16 19:38:22.117,0.0003089670482509,1.1878569769812064,0,MB
2025-06-16 19:38:22.125,0.0002917318507405,1.2186298754513631,0,MB
2025-06-16 19:38:22.133,0.0002733919886887,1.2349723260772898,0,MB
2025-06-16 19:38:22.140,0.0002543078597495,1.2375671353879896,0,MB
2025-06-16 19:38:22.148,0.0002348587903467,1.2273189612542768,0,MB
2025-06-16 19:38:22.156,0.0002154313937902,1.2053013132254613,0,MB
2025-06-16 19:38:22.164,0.000196407403806,1.1727003554174444,0,MB
2025-06-16 19:38:22.172,0.0001781515047549,1.1307589705446432,0,MB
2025-06-16 19:38:22.179,0.0001609996298652,1.080724401790548,0,MB
2025-06-16 19:38:22.187,0.0001452481108669,1.0238024263081804,0,MB
2025-06-16 19:38:22.195,0.0001311439854256,0.9611204692465044,0,MB
2025-06-16 19:38:22.203,0.0001188767279766,0.8937013926391016,0,MB
2025-06-16 19:38:22.211,0.0001085716524924,0.82244894301456,0,MB
2025-06-16 19:38:22.218,0.0001002852204697,0.7481450638916914,0,MB
2025-06-16 19:38:22.226,9.40024629970597e-05,0.6714585168524756,0,MB
2025-06-16 19:38:22.234,8.963668940218927e-05,0.5929635447196607,0,MB
2025-06-16 19:38:22.242,8.703160576456178e-05,0.5131666858007435,0,MB
2025-06-16 19:38:22.250,8.596590397929918e-05,0.4325393399367339,0,MB
2025-06-16 19:38:22.258,8.616030601455064e-05,0.3515533222554087,0,MB
2025-06-16 19:38:22.265,8.728695901272591e-05,0.2707164381220311,0,MB
2025-06-16 19:38:22.273,8.898097611054429e-05,0.1906050796410068,0,MB
2025-06-16 19:38:22.281,9.085380716104564e-05,0.1118909757637364,0,MB
2025-06-16 19:38:22.289,9.25080055495724e-05,0.0353595149612437,0,MB
2025-06-16 19:38:22.297,9.35528369960402e-05,-0.0380825087003209,0,MB
2025-06-16 19:38:22.304,9.362006739610004e-05,-0.107411310940111,0,MB
2025-06-16 19:38:22.312,9.237919471022882e-05,-0.1715036028625591,0,MB
2025-06-16 19:38:22.320,8.955137274578417e-05,-0.2291672996849329,0,MB
2025-06-16 19:38:22.328,8.492130303557231e-05,-0.279184810513536,0,MB
2025-06-16 19:38:22.336,7.834643284718053e-05,-0.3203674761963833,0,MB
2025-06-16 19:38:22.343,6.976291410573186e-05,-0.3516189779400771,0,MB
2025-06-16 19:38:22.351,5.918797442490763e-05,-0.3720048831977499,0,MB
2025-06-16 19:38:22.359,4.671859919079711e-05,-0.380824966608578,0,MB
2025-06-16 19:38:22.367,3.252665854245579e-05,-0.3776845748822866,0,MB
2025-06-16 19:38:22.375,1.6850799213038326e-05,-0.362561116739883,0,MB
2025-06-16 19:38:22.383,-1.4434897153748582e-08,-0.3358617619286568,0,MB
2025-06-16 19:38:22.390,-1.7731676608023786e-05,-0.2984686269545255,0,MB
2025-06-16 19:38:22.398,-3.5935349222926016e-05,-0.2517681019560979,0,MB
2025-06-16 19:38:22.406,-5.424712303964181e-05,-0.1976615192257653,0,MB
2025-06-16 19:38:22.414,-7.229149646962401e-05,-0.1385550608282329,0,MB
2025-06-16 19:38:22.422,-8.971078328510386e-05,-0.0773276286272026,0,MB
2025-06-16 19:38:22.429,-0.0001061788296399,-0.0172763275687262,0,MB
2025-06-16 19:38:22.437,-0.0001214128801907,0.037959794087012,0,MB
2025-06-16 19:38:22.445,-0.0001351831439034,0.0844960930372751,0,MB
2025-06-16 19:38:22.453,-0.0001473197517124,0.1183161381250611,0,MB
2025-06-16 19:38:22.461,-0.0001577169363391,0.1353994580712978,0,MB
2025-06-16 19:38:22.468,-0.0001663343942088,0.1318589480613335,0,MB
2025-06-16 19:38:22.476,-0.0001731959077144,0.1040830457731332,0,MB
2025-06-16 19:38:22.484,-0.0001783854108693,0.0488773647440078,0,MB
2025-06-16 19:38:22.492,-0.0001820407710654,-0.0363997341611937,0,MB
2025-06-16 19:38:22.500,-0.0001843456331369,-0.153713122037509,0,MB
2025-06-16 19:38:22.508,-0.0001855197286177,-0.3042436500235077,0,MB
2025-06-16 19:38:22.515,-0.0001858080927776,-0.4883023885044855,0,MB
2025-06-16 19:38:22.523,-0.0001854696548605,-0.705270383276668,0,MB
2025-06-16 19:38:22.531,-0.0001847656733312,-0.9535670823975368,0,MB
2025-06-16 19:38:22.539,-0.0001839484784698,-1.2306495666149089,0,MB
2025-06-16 19:38:22.547,-0.0001832509601125,-1.533043580131748,0,MB
2025-06-16 19:38:22.554,-0.0001828771996053,-1.856406149665575,0,MB
2025-06-16 19:38:22.562,-0.0001829945931183,-2.1956183502926736,0,MB
2025-06-16 19:38:22.570,-0.0001837277494282,-2.5449055858981264,0,MB
2025-06-16 19:38:22.578,-0.0001851543703066,-2.897981661993009,0,MB
2025-06-16 19:38:22.586,-0.0001873032370252,-3.2482119949926425,0,MB
2025-06-16 19:38:22.593,-0.0001901543336223,-3.5887905665616846,0,MB
2025-06-16 19:38:22.601,-0.0001936410380454,-3.912924719285485,0,MB
2025-06-16 19:38:22.609,-0.0001976542078555,-4.214021612098573,0,MB
2025-06-16 19:38:22.617,-0.0002020478814697,-4.485870113019783,0,MB
2025-06-16 19:38:22.625,-0.0002066462224672,-4.722812098051212,0,MB
2025-06-16 19:38:22.633,-0.0002112512860826,-4.919897536926443,0,MB
2025-06-16 19:38:22.640,-0.0002156512181925,-5.07301836125225,0,MB
2025-06-16 19:38:22.648,-0.0002196285957058,-5.179016905481291,0,MB
2025-06-16 19:38:22.656,-0.0002229687119221,-5.235765655812134,0,MB
2025-06-16 19:38:22.664,-0.0002254676383705,-5.242216097820021,0,MB
2025-06-16 19:38:22.672,-0.0002269398676244,-5.198415575900698,0,MB
2025-06-16 19:38:22.679,-0.0002272253176958,-5.105492222072964,0,MB
2025-06-16 19:38:22.687,-0.0002261954884991,-4.9656091383488725,0,MB
2025-06-16 19:38:22.695,-0.000223758585351,-4.781890088669133,0,MB
2025-06-16 19:38:22.703,-0.0002198634310605,-4.558319932867304,0,MB
2025-06-16 19:38:22.711,-0.0002145019778408,-4.299623868521499,0,MB
2025-06-16 19:38:22.718,-0.0002077102471652,-4.011130186975007,0,MB
2025-06-16 19:38:22.726,-0.0001995676065239,-3.698621656968972,0,MB
2025-06-16 19:38:22.734,-0.0001901944126117,-3.368180801828656,0,MB
2025-06-16 19:38:22.742,-0.0001797481492906,-3.026034234319672,0,MB
2025-06-16 19:38:22.750,-0.0001684182343295,-2.6784008787135054,0,MB
2025-06-16 19:38:22.758,-0.0001564196823935,-2.331348382461537,0,MB
2025-06-16 19:38:22.765,-0.000143985836226,-1.990661352186855,0,MB
2025-06-16 19:38:22.773,-0.0001313604364636,-1.661724294384884,0,MB
2025-06-16 19:38:22.781,-0.0001187893721293,-1.3494213486321975,0,MB
2025-06-16 19:38:22.789,-0.0001065124989453,-1.0580541121165896,0,MB
2025-06-16 19:38:22.797,-9.475591982048922e-05,-0.7912781078565624,0,MB
2025-06-16 19:38:22.804,-8.37251037192736e-05,-0.5520577828843158,0,MB
2025-06-16 19:38:22.812,-7.359917402676297e-05,-0.3426393698680045,0,MB
2025-06-16 19:38:22.820,-6.452661323356926e-05,-0.1645405270298394,0,MB
2025-06-16 19:38:22.828,-5.662251080640398e-05,-0.0185553907754837,0,MB
2025-06-16 19:38:22.836,-4.996734314574909e-05,0.095226478495987,0,MB
2025-06-16 19:38:22.843,-4.4607139975077e-05,0.1773888268110375,0,MB
2025-06-16 19:38:22.851,-4.0554788020507576e-05,0.2291466574855724,0,MB
2025-06-16 19:38:22.859,-3.779217521473562e-05,0.2522948787511466,0,MB
2025-06-16 19:38:22.867,-3.627288677600789e-05,0.2491490444463441,0,MB
2025-06-16 19:38:22.875,-3.592520340946196e-05,0.2224795141202907,0,MB
2025-06-16 19:38:22.883,-3.665519552731333e-05,0.1754403092067137,0,MB
2025-06-16 19:38:22.890,-3.834974437093565e-05,0.1114939131569376,0,MB
2025-06-16 19:38:22.898,-4.087935651937224e-05,0.0343332523588343,0,MB
2025-06-16 19:38:22.906,-4.410069098931123e-05,-0.0521979021688201,0,MB
2025-06-16 19:38:22.914,-4.785879782503886e-05,-0.1441848590151196,0,MB
2025-06-16 19:38:22.922,-5.1989148532288526e-05,-0.237720986113868,0,MB
2025-06-16 19:38:22.929,-5.631958213221215e-05,-0.328984463946301,0,MB
2025-06-16 19:38:22.937,-6.0672293563097386e-05,-0.4143115362191226,0,MB
2025-06-16 19:38:22.945,-6.486598863788434e-05,-0.4902650180068476,0,MB
2025-06-16 19:38:22.953,-6.871834080612108e-05,-0.5536968958458001,0,MB
2025-06-16 19:38:22.961,-7.204888749655705e-05,-0.6018039695732922,0,MB
2025-06-16 19:38:22.968,-7.468246479211017e-05,-0.6321756376880772,0,MB
2025-06-16 19:38:22.976,-7.645319819243891e-05,-0.6428331065893934,0,MB
2025-06-16 19:38:22.984,-7.720898136690808e-05,-0.632259493736765,0,MB
2025-06-16 19:38:22.992,-7.681631179591873e-05,-0.5994204773155006,0,MB
2025-06-16 19:38:23.000,-7.516530163887562e-05,-0.5437753043520308,0,MB
2025-06-16 19:38:23.008,-7.217463337006376e-05,-0.4652780965591658,0,MB
2025-06-16 19:38:23.015,-6.779619980296286e-05,-0.3643694905168277,0,MB
2025-06-16 19:38:23.023,-6.201917043782851e-05,-0.241958729615663,0,MB
2025-06-16 19:38:23.031,-5.487324692994957e-05,-0.0993964103540823,0,MB
2025-06-16 19:38:23.039,-4.643088918077184e-05,0.0615618043666832,0,MB
2025-06-16 19:38:23.047,-3.680830267049566e-05,0.238800044642459,0,MB
2025-06-16 19:38:23.054,-2.6164986531381708e-05,0.4298950187729063,0,MB
2025-06-16 19:38:23.062,-1.470167297513132e-05,0.6321758594171359,0,MB
2025-06-16 19:38:23.070,-2.656555549452353e-06,0.8427899273465793,0,MB
2025-06-16 19:38:23.078,9.700215731892134e-06,1.0587732220837058,0,MB
2025-06-16 19:38:23.086,2.2073735719782318e-05,1.2771238068624535,0,MB
2025-06-16 19:38:23.093,3.415315962032709e-05,1.4948764390148312,0,MB
2025-06-16 19:38:23.101,4.562196129581848e-05,1.7091764308061204,0,MB
2025-06-16 19:38:23.109,5.616929893118368e-05,1.9173506723940577,0,MB
2025-06-16 19:38:23.117,6.550195509113424e-05,2.1169737397588064,0,MB
2025-06-16 19:38:23.125,7.335616314947236e-05,2.3059270850655027,0,MB
2025-06-16 19:38:23.133,7.950856831049015e-05,2.482449456453462,0,MB
2025-06-16 19:38:23.140,8.378561225913042e-05,2.6451769092537107,0,MB
2025-06-16 19:38:23.148,8.607076778257781e-05,2.793171043478127,0,MB
2025-06-16 19:38:23.156,8.630924780441584e-05,2.9259344269444263,0,MB
2025-06-16 19:38:23.164,8.451001830432487e-05,3.0434125338110776,0,MB
2025-06-16 19:38:23.172,8.074511904665138e-05,3.145981937510876,0,MB
2025-06-16 19:38:23.179,7.514642657658665e-05,3.234424934117939,0,MB
2025-06-16 19:38:23.187,6.790007716374344e-05,3.309891220499603,0,MB
2025-06-16 19:38:23.195,5.923881306780677e-05,3.3738476910375272,0,MB
2025-06-16 19:38:23.203,4.943254939827645e-05,3.428017827682845,0,MB
2025-06-16 19:38:23.211,3.877750524584345e-05,3.4743125233165246,0,MB
2025-06-16 19:38:23.218,2.758431214025517e-05,3.5147544811457907,0,MB
2025-06-16 19:38:23.226,1.6165604621757875e-05,3.551398556487537,0,MB
2025-06-16 19:38:23.234,4.823698428799448e-06,3.5862505384453764,0,MB
2025-06-16 19:38:23.242,-6.160963913355446e-06,3.62118690284974,0,MB
2025-06-16 19:38:23.250,-1.6539920455292205e-05,3.657878009460972,0,MB
2025-06-16 19:38:23.258,-2.6104767962924657e-05,3.697717076755414,0,MB
2025-06-16 19:38:23.265,-3.46927976383336e-05,3.7417570586225417,0,MB
2025-06-16 19:38:23.273,-4.218996647211242e-05,3.790657281678188,0,MB
2025-06-16 19:38:23.281,-4.853116724798235e-05,3.8446413960960775,0,MB
2025-06-16 19:38:23.289,-5.369794344594594e-05,3.9034678678756554,0,MB
2025-06-16 19:38:23.297,-5.771398315967266e-05,3.966413916693272,0,MB
2025-06-16 19:38:23.304,-6.063889074173569e-05,4.0322734922663575,0,MB
2025-06-16 19:38:23.312,-6.25608263400996e-05,4.09936958022163,0,MB
2025-06-16 19:38:23.320,-6.358859894979842e-05,4.165580819897104,0,MB
2025-06-16 19:38:23.328,-6.384372260071657e-05,4.228382082377122,0,MB
2025-06-16 19:38:23.336,-6.345284433864266e-05,4.284898287920277,0,MB
2025-06-16 19:38:23.343,-6.254085598701439e-05,4.331970346090918,0,MB
2025-06-16 19:38:23.351,-6.122490392610482e-05,4.366231703810354,0,MB
2025-06-16 19:38:23.359,-5.9609403434974106e-05,4.3841936170840645,0,MB
2025-06-16 19:38:23.367,-5.778207358048886e-05,4.382336948017424,0,MB
2025-06-16 19:38:23.375,-5.581097443581538e-05,4.357208046669896,0,MB
2025-06-16 19:38:23.383,-5.3742550057845695e-05,4.305516114728855,0,MB
2025-06-16 19:38:23.390,-5.1600721199094565e-05,4.224229367763482,0,MB
2025-06-16 19:38:23.398,-4.938709827199056e-05,4.11066731782597,0,MB
2025-06-16 19:38:23.406,-4.708238470557376e-05,3.9625865925133272,0,MB
2025-06-16 19:38:23.414,-4.464901137338367e-05,3.778257893438568,0,MB
2025-06-16 19:38:23.422,-4.203498479366235e-05,3.556531973949014,0,MB
