Timestamp,GSR_Filtered,PPG_Filtered
2025-07-09 21:45:25.631,0.000651364980016,-17.293226231971868
2025-07-09 21:45:25.639,0.0006736779349528,-16.782204581114296
2025-07-09 21:45:25.647,0.0006953184427102,-16.179301693343838
2025-07-09 21:45:25.655,0.0007141153205377,-15.494266933757618
2025-07-09 21:45:25.663,0.0007279978924743,-14.738234359329107
2025-07-09 21:45:25.671,0.0007350675565687,-13.92344535116674
2025-07-09 21:45:25.678,0.0007336656472813,-13.06294491967117
2025-07-09 21:45:25.686,0.0007224350898209,-12.170260576432264
2025-07-09 21:45:25.694,0.0007003727024251,-11.259073084277372
2025-07-09 21:45:25.702,0.0006668687103681,-10.342888527742389
2025-07-09 21:45:25.710,0.0006217304007528,-9.434721010350946
2025-07-09 21:45:25.717,0.0005651879411337,-8.546794896878358
2025-07-09 21:45:25.725,0.0004978819680837,-7.690274889317713
2025-07-09 21:45:25.733,0.0004208341411232,-6.875031368197437
2025-07-09 21:45:25.741,0.0003354029971087,-6.10944736430062
2025-07-09 21:45:25.749,0.0002432279918839,-5.400272269523333
2025-07-09 21:45:25.756,0.0001461647634031,-4.752525971831866
2025-07-09 21:45:25.764,4.621464999359474e-05,-4.169455539941383
2025-07-09 21:45:25.772,-5.4548525864243874e-05,-3.6525449347152086
2025-07-09 21:45:25.780,-0.000154051465762,-3.2015765410635604
2025-07-09 21:45:25.788,-0.0002502914320286,-2.814741648645858
2025-07-09 21:45:25.796,-0.0003414008616323,-2.488795408709432
2025-07-09 21:45:25.803,-0.0004257045402306,-2.219250306393852
2025-07-09 21:45:25.811,-0.0005017678617184,-2.00060087146833
2025-07-09 21:45:25.819,-0.0005684353022787,-1.8265712737644568
2025-07-09 21:45:25.827,-0.0006248588073813,-1.6903766792275083
2025-07-09 21:45:25.835,-0.0006705162385959,-1.584988832361189
2025-07-09 21:45:25.842,-0.000705220316765,-1.5033963163993762
2025-07-09 21:45:25.850,-0.0007291186253673,-1.4388503394707368
2025-07-09 21:45:25.858,-0.0007426852167654,-1.3850876950570945
2025-07-09 21:45:25.866,-0.0007467042467052,-1.3365237104114829
2025-07-09 21:45:25.874,-0.0007422459691626,-1.288409461043733
2025-07-09 21:45:25.881,-0.0007306354893921,-1.2369492075816066
2025-07-09 21:45:25.889,-0.0007134149078425,-1.179375809339461
2025-07-09 21:45:25.897,-0.0006922997436172,-1.1139836907360423
2025-07-09 21:45:25.905,-0.0006691306587985,-1.0401206889300056
2025-07-09 21:45:25.913,-0.0006458215178062,-0.9581417083199988
2025-07-09 21:45:25.921,-0.0006243048281695,-0.8693284769424594
2025-07-09 21:45:25.928,-0.000606475727087,-0.775780782893902
2025-07-09 21:45:25.936,-0.0005941359054432,-0.6802853233456174
2025-07-09 21:45:25.944,-0.0005889391139152,-0.5861687019968328
2025-07-09 21:45:25.952,-0.0005923400873617,-0.4971411660716452
2025-07-09 21:45:25.960,-0.0006055488095594,-0.4171374120713803
2025-07-09 21:45:25.967,-0.0006294920047315,-0.3501602623344156
2025-07-09 21:45:25.975,-0.0006647835770754,-0.3001322831486187
2025-07-09 21:45:25.983,-0.0007117054194001,-0.2707595415784075
2025-07-09 21:45:25.991,-0.0007701995751059,-0.2654107423274146
2025-07-09 21:45:25.999,-0.0008398721714146,-0.28701400526576
2025-07-09 21:45:26.006,-0.0009200088895514,-0.3379725912761676
2025-07-09 21:45:26.014,-0.0010096011157595,-0.4201000034517314
2025-07-09 21:45:26.022,-0.0011073814836987,-0.5345741176131307
2025-07-09 21:45:26.030,-0.0012118673502156,-0.6503272405677752
2025-07-09 21:45:26.038,-0.0013214107594947,-0.7965132244082954
2025-07-09 21:45:26.046,-0.0014342534813283,-0.9738835694180286
2025-07-09 21:45:26.053,-0.0015485856432711,-1.1826317313735244
2025-07-09 21:45:26.061,-0.0016626063018336,-1.422357711190159
2025-07-09 21:45:26.069,-0.0017745840843911,-1.6920341724217378
2025-07-09 21:45:26.077,-0.0018829158656107,-1.9899745044985877
2025-07-09 21:45:26.085,-0.0019861813569174,-2.313803915314577
2025-07-09 21:45:26.092,-0.0020831914890121,-2.6604352873439847
2025-07-09 21:45:26.100,-0.0021730285644747,-3.026052107062158
2025-07-09 21:45:26.108,-0.002255076352196,-3.406101224588416
2025-07-09 21:45:26.116,-0.0023290385830615,-3.7952984775373584
2025-07-09 21:45:26.124,-0.0023949446913193,-4.18765029109137
2025-07-09 21:45:26.131,-0.0024531421252336,-4.576494226117597
2025-07-09 21:45:26.139,-0.0025042751128449,-4.954561078281996
2025-07-09 21:45:26.147,-0.0025492504055655,-5.314060535485672
2025-07-09 21:45:26.155,-0.0025891911904518,-5.646791597007713
2025-07-09 21:45:26.163,-0.0026253809677771,-5.94427797953067
2025-07-09 21:45:26.171,-0.0026591996470955,-6.197927626608764
2025-07-09 21:45:26.178,-0.0026920543879605,-6.399214247274322
2025-07-09 21:45:26.186,-0.0027253078252457,-6.539877587948413
2025-07-09 21:45:26.194,-0.0027602063501687,-6.612137947012952
2025-07-09 21:45:26.202,-0.0027978111492119,-6.6089193375101685
2025-07-09 21:45:26.210,-0.0028389347604033,-6.5240747594573625
2025-07-09 21:45:26.217,-0.0028840859480024,-6.352606328851284
2025-07-09 21:45:26.225,-0.0029334256142873,-6.0908725884136015
2025-07-09 21:45:26.233,-0.002986736112227,-5.7367752394084
2025-07-09 21:45:26.241,-0.0030434056519403,-5.289917797666899
2025-07-09 21:45:26.249,-0.0031024286729468,-4.751729270282763
2025-07-09 21:45:26.256,-0.0031624222971095,-4.125546828779395
2025-07-09 21:45:26.264,-0.003221658333895,-3.4166525680813797
2025-07-09 21:45:26.272,-0.0032781097134743,-2.632260739312402
2025-07-09 21:45:26.280,-0.0033295096605159,-1.781453285323177
2025-07-09 21:45:26.288,-0.0033734214487867,-0.8750630526725603
2025-07-09 21:45:26.296,-0.0034073162331551,0.0744943334724794
2025-07-09 21:45:26.303,-0.0034286562515709,1.0534373018003689
2025-07-09 21:45:26.311,-0.0034349806331302,2.046879615422159
2025-07-09 21:45:26.319,-0.0034239911130244,3.039130281043104
2025-07-09 21:45:26.327,-0.0033936350652113,4.014024841833213
2025-07-09 21:45:26.335,-0.0033421833504706,4.955279584713377
2025-07-09 21:45:26.342,-0.0032683005199484,5.846859224986032
2025-07-09 21:45:26.350,-0.0031711049231558,6.673347960004771
2025-07-09 21:45:26.358,-0.0030502162653314,7.420313435374941
2025-07-09 21:45:26.366,-0.0029057881715251,8.074653156433463
2025-07-09 21:45:26.374,-0.0027385234072173,8.624913203242372
2025-07-09 21:45:26.381,-0.0025496697099534,9.061569750150728
2025-07-09 21:45:26.389,-0.0023409948716517,9.37726482150303
2025-07-09 21:45:26.397,-0.0021147408559339,9.566988904161974
2025-07-09 21:45:26.405,-0.0018735582442704,9.62820446059146
2025-07-09 21:45:26.413,-0.001620423955895,9.560906017614506
2025-07-09 21:45:26.421,-0.0013585466893359,9.367614311304267
2025-07-09 21:45:26.428,-0.0010912655573448,9.05330390087841
2025-07-09 21:45:26.436,-0.0008219476799914,8.625265663409786
2025-07-09 21:45:26.444,-0.0005538900648125,8.092907575225992
2025-07-09 21:45:26.452,-0.0002902301886046,7.467499100612176
2025-07-09 21:45:26.460,-3.3868598431281446e-05,6.761866275830629
2025-07-09 21:45:26.467,0.0002125942454237,5.990046140361244
2025-07-09 21:45:26.475,0.0004469056764449,5.166910482372445
2025-07-09 21:45:26.483,0.0006671927718573,4.307769892379786
2025-07-09 21:45:26.491,0.0008719790061833,3.427969820674399
2025-07-09 21:45:26.499,0.0010601866906161,2.542490676633425
2025-07-09 21:45:26.506,0.0012311267512942,1.6655639663887605
2025-07-09 21:45:26.514,0.0013844777218098,0.8103160289072909
2025-07-09 21:45:26.522,0.0015202560074125,-0.0115498942499714
2025-07-09 21:45:26.530,0.0016387795343153,-0.7900237106356286
2025-07-09 21:45:26.538,0.0017406268456779,-1.5170026227197175
2025-07-09 21:45:26.546,0.0018265935680282,-2.186443129350975
2025-07-09 21:45:26.553,0.0018976479721575,-2.794446634384652
2025-07-09 21:45:26.561,0.0019548871160959,-3.3392765298326337
2025-07-09 21:45:26.569,0.001999494809886,-3.8213067948633896
2025-07-09 21:45:26.577,0.0020327024067277,-4.242904327529844
2025-07-09 21:45:26.585,0.0020557532248842,-4.60824935177109
2025-07-09 21:45:26.592,0.0020698712588518,-4.9231002619523885
2025-07-09 21:45:26.600,0.0020762347570591,-5.194511114595921
2025-07-09 21:45:26.608,0.0020759552063158,-5.4305115772869454
2025-07-09 21:45:26.616,0.0020700622038424,-5.6397604230247
2025-07-09 21:45:26.624,0.002059494543634,-5.831184548581264
2025-07-09 21:45:26.631,0.0020450975735465,-6.013615947855528
2025-07-09 21:45:26.639,0.0020276265069481,-6.195439056937343
2025-07-09 21:45:26.647,0.0020077549153207,-6.38426040271677
2025-07-09 21:45:26.655,0.0019860871380221,-6.586611553518537
2025-07-09 21:45:26.663,0.001963172924044,-6.8076950339886775
2025-07-09 21:45:26.671,0.0019395223614593,-7.051181192003843
2025-07-09 21:45:26.678,0.0019156191031425,-7.319062071549822
2025-07-09 21:45:26.686,0.001891930104167,-7.611566238594914
2025-07-09 21:45:26.694,0.0018689106062001,-7.927136314222083
2025-07-09 21:45:26.702,0.0018470039254495,-8.262468777129701
2025-07-09 21:45:26.710,0.0018266365119042,-8.61261349336218
2025-07-09 21:45:26.717,0.0018082094156591,-8.971128501060164
2025-07-09 21:45:26.725,0.0017920875470858,-9.33028389836834
2025-07-09 21:45:26.733,0.0017785880614055,-9.681307308039004
2025-07-09 21:45:26.741,0.0017679690576858,-10.014662349810434
2025-07-09 21:45:26.749,0.0017604196966491,-10.32035084379872
2025-07-09 21:45:26.756,0.0017560528181293,-10.588229080149274
2025-07-09 21:45:26.764,0.0017549010739513,-10.80832839741127
2025-07-09 21:45:26.772,0.0017569173396894,-10.97117048721409
2025-07-09 21:45:26.780,0.0017619796920261,-11.068068261551964
2025-07-09 21:45:26.788,0.0017699006962676,-11.091403761267443
2025-07-09 21:45:26.796,0.0017804403506252,-11.034875431999543
2025-07-09 21:45:26.803,0.0017933218232556,-10.893708128260558
2025-07-09 21:45:26.811,0.0018082489860221,-10.664820406351003
2025-07-09 21:45:26.819,0.0018249246271545,-10.346945006421905
2025-07-09 21:45:26.827,0.0018430681580936,-9.940699869647494
2025-07-09 21:45:26.835,0.0018624316879799,-9.448608546343223
2025-07-09 21:45:26.842,0.0018828135510138,-8.875070375081767
2025-07-09 21:45:26.850,0.0019040687283686,-8.226282295503468
2025-07-09 21:45:26.858,0.0019261160559444,-7.510115541003745
2025-07-09 21:45:26.866,0.0019489425275297,-6.735951687586788
2025-07-09 21:45:26.874,0.0019726052239351,-5.914483563894546
2025-07-09 21:45:26.881,0.0019972313393474,-5.057487313980493
2025-07-09 21:45:26.889,0.0020230165146224,-4.177572418467239
2025-07-09 21:45:26.897,0.0020502213845026,-3.2879167088055907
2025-07-09 21:45:26.905,0.0020791660213524,-2.401993365372512
2025-07-09 21:45:26.913,0.0021102218532045,-1.5332966082457231
2025-07-09 21:45:26.921,0.0021438006261521,-0.6950723191808956
2025-07-09 21:45:26.928,0.0021803400011126,0.0999407704420576
2025-07-09 21:45:26.936,0.0022202853791494,0.8397543724359096
2025-07-09 21:45:26.944,0.0022640676129027,1.513354169119307
2025-07-09 21:45:26.952,0.0023120765265684,2.1109000188650024
2025-07-09 21:45:26.960,0.0023646306601315,2.623899928769993
2025-07-09 21:45:26.967,0.0024219442102692,3.045355471799474
2025-07-09 21:45:26.975,0.0024840925495573,3.369876861006897
2025-07-09 21:45:26.983,0.0025509779116565,3.593766391449596
2025-07-09 21:45:26.991,0.0026222969346488,3.715069444448371
2025-07-09 21:45:26.999,0.002697511824749,3.733592742698784
2025-07-09 21:45:27.006,0.0027758268877148,3.6508900654030167
2025-07-09 21:45:27.014,0.0028561720327912,3.4702161834086063
2025-07-09 21:45:27.022,0.0029371946315101,3.1964503433255134
2025-07-09 21:45:27.030,0.0030172608829134,2.835991195373132
2025-07-09 21:45:27.038,0.0030944676322526,2.396625600220535
2025-07-09 21:45:27.046,0.0031666654187867,1.887374246664649
2025-07-09 21:45:27.053,0.0032314933853357,1.3183174486152125
2025-07-09 21:45:27.061,0.0032864265307199,0.7004048529061224
2025-07-09 21:45:27.069,0.0033288355209062,0.0452530700173077
2025-07-09 21:45:27.077,0.0033560587535386,-0.6350645650817589
2025-07-09 21:45:27.085,0.0033654855386534,-1.328231784218873
2025-07-09 21:45:27.092,0.0033546482257824,-2.0219023843777246
2025-07-09 21:45:27.100,0.0033213200702906,-2.703908143631175
2025-07-09 21:45:27.108,0.0032636147464203,-3.362457504261383
2025-07-09 21:45:27.116,0.0031800827660318,-3.986321097408224
2025-07-09 21:45:27.124,0.0030697996981477,-4.565000498337794
2025-07-09 21:45:27.132,0.0029324410352881,-5.0888770129450105
2025-07-09 21:45:27.139,0.0027683388135517,-5.549337811427884
2025-07-09 21:45:27.147,0.0025785156140373,-5.938877346682002
2025-07-09 21:45:27.155,0.0023646923231888,-6.251172714050001
2025-07-09 21:45:27.163,0.0021292670849404,-6.481132401108414
2025-07-09 21:45:27.171,0.0018752643466024,-6.624918702894856
2025-07-09 21:45:27.178,0.0016062547309634,-6.679944894240209
2025-07-09 21:45:27.186,0.001326248430529,-6.64484901288528
2025-07-09 21:45:27.194,0.001039566717307,-6.51944677964501
2025-07-09 21:45:27.202,0.0007506979105942,-6.304666742050546
2025-07-09 21:45:27.210,0.0004641455937163,-6.002471161396159
2025-07-09 21:45:27.217,0.0001842776728446,-5.615766456180272
2025-07-09 21:45:27.225,-8.481529601443889e-05,-5.148307149943732
2025-07-09 21:45:27.233,-0.0003394452361054,-4.604597230708505
2025-07-09 21:45:27.241,-0.0005764296923081,-3.9897926004852406
2025-07-09 21:45:27.249,-0.0007931696109695,-3.3096078720056297
2025-07-09 21:45:27.257,-0.0009877002523947,-2.570230158926745
2025-07-09 21:45:27.264,-0.0011587151934933,-1.778241718872985
2025-07-09 21:45:27.272,-0.001305564517622,-0.9405523747333744
2025-07-09 21:45:27.280,-0.0014282292818324,-0.0643416052553524
2025-07-09 21:45:27.288,-0.001527275226257,0.8429908741921546
2025-07-09 21:45:27.296,-0.0016037893659831,1.773868243297718
2025-07-09 21:45:27.303,-0.0016593035572793,2.720576502397351
2025-07-09 21:45:27.311,-0.0016957093766345,3.675304903749407
2025-07-09 21:45:27.319,-0.0017151686368817,4.630190890078439
2025-07-09 21:45:27.327,-0.0017200235033086,5.577373430825223
2025-07-09 21:45:27.335,-0.001712709532676,6.509058117687124
2025-07-09 21:45:27.342,-0.0016956742762524,7.417596464472547
2025-07-09 21:45:27.350,-0.001671303550799,8.295580624992622
2025-07-09 21:45:27.358,-0.0016418570783901,9.135953303264222
2025-07-09 21:45:27.366,-0.0016094148059953,9.93213110828125
2025-07-09 21:45:27.374,-0.0015758347518788,10.678138126844315
2025-07-09 21:45:27.382,-0.0015427226764174,11.368745160147478
2025-07-09 21:45:27.389,-0.0015114132883367,11.999608971988918
2025-07-09 21:45:27.397,-0.0014829621699457,12.567405079804583
2025-07-09 21:45:27.405,-0.0014581472293127,13.069947116898348
2025-07-09 21:45:27.413,-0.0014374782740447,13.506285629043903
2025-07-09 21:45:27.421,-0.0014212131843594,13.876779359739926
2025-07-09 21:45:27.428,-0.0014093790993237,14.183132638018671
2025-07-09 21:45:27.436,-0.0014017970602425,14.428393414679675
2025-07-09 21:45:27.444,-0.0013981087435553,14.616907790057612
2025-07-09 21:45:27.452,-0.0013978042511407,14.75422851348046
2025-07-09 21:45:27.460,-0.0014002503173398,14.846976857220042
2025-07-09 21:45:27.467,-0.0014047186464125,14.902659388386612
2025-07-09 21:45:27.475,-0.0014104143637024,14.929443365379065
2025-07-09 21:45:27.483,-0.0014165047313943,14.93589664005565
2025-07-09 21:45:27.491,-0.0014221483382425,14.930699920981484
2025-07-09 21:45:27.499,-0.001426524919646,14.922340930005875
2025-07-09 21:45:27.507,-0.0014288658025515,14.9188012743395
2025-07-09 21:45:27.514,-0.0014284847116911,14.927247701853764
2025-07-09 21:45:27.522,-0.0014248083637809,14.95373978027422
2025-07-09 21:45:27.530,-0.0014174059990582,15.002965934348037
2025-07-09 21:45:27.538,-0.0014060168176532,15.078019195825393
2025-07-09 21:45:27.546,-0.0013905741758833,15.180222987225989
2025-07-09 21:45:27.553,-0.0013712253162923,15.3090158026706
2025-07-09 21:45:27.561,-0.0013483454023698,15.461901810921823
2025-07-09 21:45:27.569,-0.0013225447279439,15.634472238302113
2025-07-09 21:45:27.577,-0.0012946680584439,15.82049994815888
2025-07-09 21:45:27.585,-0.001265785055995,16.012106983825472
2025-07-09 21:45:27.592,-0.001237170775265,16.20000206394529
2025-07-09 21:45:27.600,-0.0012102754876658,16.37378220890869
2025-07-09 21:45:27.608,-0.0011866836230218,16.52228994130478
2025-07-09 21:45:27.616,-0.0011680622849492,16.63401495195446
2025-07-09 21:45:27.624,-0.0011561004781295,16.697526866441848
2025-07-09 21:45:27.632,-0.0011524408239331,16.70192389028659
2025-07-09 21:45:27.639,-0.0011586061090145,16.637280748314396
2025-07-09 21:45:27.647,-0.0011759234888805,16.495078545712442
2025-07-09 21:45:27.655,-0.0012054495353054,16.26859903128568
2025-07-09 21:45:27.663,-0.0012478995545264,15.953266289884844
2025-07-09 21:45:27.671,-0.0013035846961699,15.54692016535217
2025-07-09 21:45:27.678,-0.0013723603073527,15.050007729944364
2025-07-09 21:45:27.686,-0.0014535887523029,14.465681856968825
2025-07-09 21:45:27.694,-0.0015461195092835,13.799799372441468
2025-07-09 21:45:27.702,-0.0016482887725529,13.060815264922446
2025-07-09 21:45:27.710,-0.0017579400320875,12.259573868091234
2025-07-09 21:45:27.717,-0.0018724661884546,11.409002585467205
2025-07-09 21:45:27.725,-0.0019888727071126,10.523718341260516
2025-07-09 21:45:27.733,-0.002103860186903,9.619561235576096
2025-07-09 21:45:27.741,-0.0022139236478642,8.713073587341114
2025-07-09 21:45:27.749,-0.002315465013698,7.8209454331208335
2025-07-09 21:45:27.757,-0.0024049147736045,6.959449436062805
2025-07-09 21:45:27.764,-0.002478858597183,6.143888929040292
2025-07-09 21:45:27.772,-0.0025341646040659,5.388082418670419
2025-07-09 21:45:27.780,-0.0025681069591455,4.703906331822892
2025-07-09 21:45:27.788,-0.0025784814504452,4.100915182417889
2025-07-09 21:45:27.796,-0.0025637087225792,3.5860548232810605
2025-07-09 21:45:27.803,-0.0025229209063337,3.163480221580891
2025-07-09 21:45:27.811,-0.002456027528933,2.8344844827306668
2025-07-09 21:45:27.819,-0.0023637568414008,2.5975408838558893
2025-07-09 21:45:27.827,-0.0022476691220522,2.448454694620977
2025-07-09 21:45:27.835,-0.002110139237399,2.380616772523735
2025-07-09 21:45:27.842,-0.0019543069200761,2.3853465139550685
2025-07-09 21:45:27.850,-0.001783994889662,2.4523078978742903
2025-07-09 21:45:27.858,-0.0016035968884535,2.5699792374637025
2025-07-09 21:45:27.866,-0.0014179395856535,2.726154998490886
2025-07-09 21:45:27.874,-0.0012321238598667,2.908456766600413
2025-07-09 21:45:27.882,-0.001051352098746,3.104830230993955
2025-07-09 21:45:27.889,-0.0008807488280846,3.3040059383727827
2025-07-09 21:45:27.897,-0.0007251822204165,3.4959035451956386
2025-07-09 21:45:27.905,-0.000589093938955,3.671962282093319
2025-07-09 21:45:27.913,-0.000476344459917,3.8253841996282136
2025-07-09 21:45:27.921,-0.0003900804482136,3.951281288815744
2025-07-09 21:45:27.928,-0.0003326297262628,4.0467225173067165
2025-07-09 21:45:27.936,-0.00030542770474,4.110681915665289
2025-07-09 21:45:27.944,-0.0003089769828371,4.143893793052922
2025-07-09 21:45:27.952,-0.0003428396346154,4.148625666602197
2025-07-09 21:45:27.960,-0.000405659962961,4.128383294388641
2025-07-09 21:45:27.967,-0.0004952144700842,4.087565108554867
2025-07-09 21:45:27.975,-0.0006084854307095,4.031085231086743
2025-07-09 21:45:27.983,-0.0007417545589765,3.96398507949192
2025-07-09 21:45:27.991,-0.000890713598995,3.8910533656381032
2025-07-09 21:45:27.999,-0.0010505890457974,3.8164731496196382
2025-07-09 21:45:28.007,-0.0012162784302386,3.743512664051304
2025-07-09 21:45:28.014,-0.0013824954957284,3.674274024540525
2025-07-09 21:45:28.022,-0.0015439211051668,3.60951084080101
2025-07-09 21:45:28.030,-0.0016953560325527,3.5485222803253964
2025-07-09 21:45:28.038,-0.0018318712367758,3.489127443217912
2025-07-09 21:45:28.046,-0.0019489509953581,3.4277201109657853
2025-07-09 21:45:28.053,-0.002042624404007,3.359400165389149
2025-07-09 21:45:28.061,-0.0021095811577725,3.278174373629718
2025-07-09 21:45:28.069,-0.0021472681614885,3.177215944118201
2025-07-09 21:45:28.077,-0.0021539642601475,3.0491694289140074
2025-07-09 21:45:28.085,-0.0021288310810142,2.8864853374590065
2025-07-09 21:45:28.092,-0.0020719385722202,2.681767385670187
2025-07-09 21:45:28.100,-0.0019842643665338,2.4281147509561007
2025-07-09 21:45:28.108,-0.0018676666788999,2.119442100234552
2025-07-09 21:45:28.116,-0.0017248310825167,1.7507614938790288
2025-07-09 21:45:28.124,-0.0015591921544877,1.3184124580798189
2025-07-09 21:45:28.132,-0.0013748316069429,0.8202294098973707
2025-07-09 21:45:28.139,-0.0011763551759984,0.2556390138215194
2025-07-09 21:45:28.147,-0.0009687512829544,-0.3743162788344953
2025-07-09 21:45:28.155,-0.0007572352380416,-1.0670285316949526
2025-07-09 21:45:28.163,-0.0005470834065112,-1.818444918659093
2025-07-09 21:45:28.171,-0.0003434622958051,-2.6232518159190388
2025-07-09 21:45:28.178,-0.0001512580249408,-3.4751127917064526
2025-07-09 21:45:28.186,2.5087914539782407e-05,-4.36694862311981
2025-07-09 21:45:28.194,0.0001817304384527,-5.291245781711217
2025-07-09 21:45:28.202,0.0003155540800369,-6.240378763900821
2025-07-09 21:45:28.210,0.000424281937055,-7.206931225008768
2025-07-09 21:45:28.217,0.000506555446869,-8.18400111444126
2025-07-09 21:45:28.225,0.000561981196926,-9.165475884893995
2025-07-09 21:45:28.233,0.0005911423046108,-10.146265310709582
2025-07-09 21:45:28.241,0.0005955732728729,-11.122481422803364
2025-07-09 21:45:28.249,0.0005776985636453,-12.09155745102357
2025-07-09 21:45:28.257,0.0005407364890562,-13.052300343578096
2025-07-09 21:45:28.264,0.0004885715283408,-14.004874279575144
2025-07-09 21:45:28.272,0.0004255998536249,-14.95071547551868
2025-07-09 21:45:28.280,0.0003565544774271,-15.8923813945774
2025-07-09 21:45:28.288,0.0002863176842221,-16.83334011036883
2025-07-09 21:45:28.296,0.0002197290693994,-17.777707994555964
2025-07-09 21:45:28.303,0.0001613976031058,-18.72994604681022
2025-07-09 21:45:28.311,0.0001155257797917,-19.69452702783238
2025-07-09 21:45:28.319,8.57531567996062e-05,-20.6755870477574
2025-07-09 21:45:28.327,7.50254414206277e-05,-21.676576352040914
2025-07-09 21:45:28.335,8.549386306474354e-05,-22.699924674447683
2025-07-09 21:45:28.342,0.0001184480468899,-23.74673662248853
2025-07-09 21:45:28.350,0.0001742840917889,-24.816532050232887
2025-07-09 21:45:28.358,0.0002525080361905,-25.907045191140725
2025-07-09 21:45:28.366,0.0003517733597261,-27.014094431516853
2025-07-09 21:45:28.374,0.000469949714234,-28.13153200914587
2025-07-09 21:45:28.382,0.0006042188676841,-29.25127967980828
2025-07-09 21:45:28.389,0.000751192971174,-30.36345262180672
2025-07-09 21:45:28.397,0.0009070496860765,-31.45656971696621
2025-07-09 21:45:28.405,0.0010676783868776,-32.51784407354539
2025-07-09 21:45:28.413,0.001228831617774,-33.533543486415184
2025-07-09 21:45:28.421,0.0013862762497629,-34.48940671383976
2025-07-09 21:45:28.428,0.0015359392581851,-35.371098231001184
2025-07-09 21:45:28.436,0.0016740435510992,-36.16468171725932
2025-07-09 21:45:28.444,0.0017972297392221,-36.857091122996735
2025-07-09 21:45:28.452,0.0019026602089558,-37.436577856043385
2025-07-09 21:45:28.460,0.001988102482182,-37.89311346801056
2025-07-09 21:45:28.467,0.0020519896905383,-38.21872917872136
2025-07-09 21:45:28.475,0.0020934569737358,-38.40777656171899
2025-07-09 21:45:28.483,0.0021123535701597,-38.45709757643673
2025-07-09 21:45:28.491,0.0021092311942625,-38.36609666479577
2025-07-09 21:45:28.499,0.0020853099885717,-38.13671256965435
2025-07-09 21:45:28.507,0.0020424240001799,-37.7732925817852
2025-07-09 21:45:28.514,0.0019829488807677,-37.28237677389314
2025-07-09 21:45:28.522,0.0019097153139957,-36.67240414432644
2025-07-09 21:45:28.530,0.0018259123049948,-35.953356217204465
2025-07-09 21:45:28.538,0.0017349846975766,-35.13635633305491
2025-07-09 21:45:28.546,0.001640529094222,-34.2332444880702
2025-07-09 21:45:28.553,0.0015461918772447,-33.2561480914163
2025-07-09 21:45:28.561,0.0014555723977055,-32.21706843609543
2025-07-09 21:45:28.569,0.0013721336794408,-31.12750111631529
2025-07-09 21:45:28.577,0.0012991222132349,-29.998106224482907
2025-07-09 21:45:28.585,0.0012394976227032,-28.83844110989516
2025-07-09 21:45:28.592,0.0011958722300046,-27.65676497808227
2025-07-09 21:45:28.600,0.0011704599620278,-26.45992084681624
2025-07-09 21:45:28.608,0.0011650337757483,-25.25329652355312
2025-07-09 21:45:28.616,0.0011808909143492,-24.040862478045195
2025-07-09 21:45:28.624,0.0012188257351113,-22.82528088693942
2025-07-09 21:45:28.632,0.0012791103839311,-21.60807685325444
2025-07-09 21:45:28.639,0.0013614840481612,-20.389859979336112
2025-07-09 21:45:28.647,0.0014651517519055,-19.170582219241577
2025-07-09 21:45:28.655,0.0015887935855096,-17.949816369340745
2025-07-09 21:45:28.663,0.0017305849381521,-16.727038773082135
2025-07-09 21:45:28.671,0.0018882278684283,-15.501899887699487
2025-07-09 21:45:28.678,0.0020589932716101,-14.274467312126196
2025-07-09 21:45:28.686,0.0022397729430045,-13.04542767395965
2025-07-09 21:45:28.694,0.00242713996954,-11.816236326950545
2025-07-09 21:45:28.702,0.0026174152277356,-10.58920697427082
2025-07-09 21:45:28.710,0.0028067373891738,-9.367536917377755
2025-07-09 21:45:28.717,0.0029911339642459,-8.15526740991637
2025-07-09 21:45:28.725,0.0031665915399226,-6.957182321922343
2025-07-09 21:45:28.733,0.0033291242358433,-5.778651742033722
2025-07-09 21:45:28.741,0.0034748402257892,-4.625430041236101
2025-07-09 21:45:28.749,0.0036000067777568,-3.5034201177583166
2025-07-09 21:45:28.757,0.003701114598689,-2.418416931813926
2025-07-09 21:45:28.764,0.0037749423243576,-1.3758439849485296
2025-07-09 21:45:28.772,0.0038186217852326,-0.3804961346359736
2025-07-09 21:45:28.780,0.0038297042329045,0.5636988452567387
2025-07-09 21:45:28.788,0.0038062270736834,1.4538891014924056
2025-07-09 21:45:28.796,0.0037467799083517,2.2884690390469653
2025-07-09 21:45:28.803,0.0036505679462592,3.0672044575037614
2025-07-09 21:45:28.811,0.0035174702498188,3.791308063059743
2025-07-09 21:45:28.819,0.0033480897537746,4.463463174200925
2025-07-09 21:45:28.827,0.003143791503102,5.087795559124924
2025-07-09 21:45:28.835,0.0029067250840959,5.669795290991163
2025-07-09 21:45:28.842,0.0026398269938163,6.216192254854062
2025-07-09 21:45:28.850,0.0023467989743354,6.734790470424766
2025-07-09 21:45:28.858,0.0020320592691407,7.234267692837416
2025-07-09 21:45:28.866,0.0017006652760895,7.7239477998792605
2025-07-09 21:45:28.874,0.0013582080009407,8.213554237297187
2025-07-09 21:45:28.882,0.0010106808707167,8.712953229486235
2025-07-09 21:45:28.889,0.0006643276093684,9.231895525723267
2025-07-09 21:45:28.897,0.0003254756538058,9.77976511692
2025-07-09 21:45:28.905,3.626156732846002e-07,10.3653426374385
2025-07-09 21:45:28.913,-0.0003050366039604,10.99659011647906
2025-07-09 21:45:28.921,-0.0005851751131363,11.680462454941235
2025-07-09 21:45:28.928,-0.0008350859013985,12.42274958900654
2025-07-09 21:45:28.936,-0.0010505156385352,13.227951877520832
2025-07-09 21:45:28.944,-0.0012280368670429,14.09918991811032
2025-07-09 21:45:28.952,-0.0013651360371549,15.038148828632082
2025-07-09 21:45:28.960,-0.0014602756740584,16.045056062602455
2025-07-09 21:45:28.967,-0.0015129296759074,17.118691065654737
2025-07-09 21:45:28.975,-0.0015235913364677,18.25642451086498
2025-07-09 21:45:28.983,-0.0014937541930296,19.45428444911547
2025-07-09 21:45:28.991,-0.0014258662489892,20.70704644478933
2025-07-09 21:45:28.999,-0.001323258544347,22.008344600466582
2025-07-09 21:45:29.007,-0.0011900494797102,23.35080027052604
2025-07-09 21:45:29.014,-0.0010310267714863,24.726165194275797
2025-07-09 21:45:29.022,-0.0008515094546605,26.12547572908581
2025-07-09 21:45:29.030,-0.0006571929751951,27.53921482670992
2025-07-09 21:45:29.038,-0.0004539811386925,28.957478366219664
2025-07-09 21:45:29.046,-0.0002478095024301,30.370142430694127
2025-07-09 21:45:29.053,-4.446566846419062e-05,31.76702809953866
2025-07-09 21:45:29.061,0.0001505872687961,33.13806034914761
2025-07-09 21:45:29.069,0.0003323773247341,34.47341774778258
2025-07-09 21:45:29.077,0.0004965733255729,35.76366983165324
2025-07-09 21:45:29.085,0.000639611036925,36.99989938383179
2025-07-09 21:45:29.092,0.0007587897738682,38.17380731371205
2025-07-09 21:45:29.100,0.0008523347199238,39.27779843871022
2025-07-09 21:45:29.108,0.0009194217787196,40.305047170314566
2025-07-09 21:45:29.116,0.0009601637335222,41.24954286031491
2025-07-09 21:45:29.124,0.0009755586216156,42.10611531803251
2025-07-09 21:45:29.132,0.000967403239881,42.87044170681446
2025-07-09 21:45:29.139,0.0009381763194194,43.539036610034266
2025-07-09 21:45:29.147,0.0008908970875266,44.10922747659588
2025-07-09 21:45:29.155,0.000828965775363,44.57911788531105
2025-07-09 21:45:29.163,0.0007559931958214,44.94754110213059
2025-07-09 21:45:29.171,0.0006756267513396,45.21400626660835
2025-07-09 21:45:29.178,0.0005913800424339,45.37863928078037
2025-07-09 21:45:29.186,0.0005064726905896,45.442120146357
2025-07-09 21:45:29.194,0.0004236863152167,45.40561817128679
2025-07-09 21:45:29.202,0.0003452420306524,45.27072620827576
2025-07-09 21:45:29.210,0.0002727042994486,45.039394947788296
2025-07-09 21:45:29.217,0.0002069152409133,44.71386829337771
2025-07-09 21:45:29.225,0.000147962386563,44.29662098889983
2025-07-09 21:45:29.233,9.518145941179358e-05,43.790299900103626
2025-07-09 21:45:29.241,4.719421104013146e-05,43.19767060679009
2025-07-09 21:45:29.249,1.979824288205204e-06,42.52157115580267
2025-07-09 21:45:29.257,-4.302304521165208e-05,41.76487488497514
2025-07-09 21:45:29.264,-9.078781847009824e-05,40.93046410021732
2025-07-09 21:45:29.272,-0.0001445505024835,40.02121605113459
2025-07-09 21:45:29.280,-0.0002076454738351,39.04000211863029
2025-07-09 21:45:29.288,-0.0002833335699458,37.98970044079381
2025-07-09 21:45:29.296,-0.0003746299575301,36.87322141435099
2025-07-09 21:45:29.303,-0.0004841393116393,35.69354467421501
2025-07-09 21:45:29.311,-0.0006139054753927,34.4537653266767
2025-07-09 21:45:29.319,-0.0007652820533928,33.15714644205133
2025-07-09 21:45:29.327,-0.0009388294768546,31.80717414775368
2025-07-09 21:45:29.335,-0.0011342430485774,30.407611151639166
2025-07-09 21:45:29.342,-0.0013503152957685,28.962544219590928
2025-07-09 21:45:29.350,-0.0015849345740062,27.47642108169188
2025-07-09 21:45:29.358,-0.0018351202975623,25.95407248806525
2025-07-09 21:45:29.366,-0.0020970935443119,24.400715694300462
2025-07-09 21:45:29.374,-0.0023663802735124,22.82193650961321
2025-07-09 21:45:29.382,-0.0026379431060299,21.223648138616667
2025-07-09 21:45:29.389,-0.0029063365307093,19.61202631651102
2025-07-09 21:45:29.397,-0.0031658794912863,17.99342159158292
2025-07-09 21:45:29.405,-0.0034108386402592,16.374250958576944
2025-07-09 21:45:29.413,-0.0036356152092425,14.760872307013525
2025-07-09 21:45:29.421,-0.0038349284763492,13.1594462480351
2025-07-09 21:45:29.428,-0.0040039892143096,11.575790768047533
2025-07-09 21:45:29.436,-0.0041386572444407,10.015234790228416
2025-07-09 21:45:29.444,-0.0042355781819064,8.482477079886689
2025-07-09 21:45:29.452,-0.0042922954738547,6.9814569883788895
2025-07-09 21:45:29.460,-0.0043073347937834,5.515243284418995
2025-07-09 21:45:29.467,-0.0042802587303327,4.0859467773863205
2025-07-09 21:45:29.475,-0.0042116905042638,2.6946616193848074
2025-07-09 21:45:29.483,-0.0041033061830549,1.341439125945731
2025-07-09 21:45:29.491,-0.0039577955620817,0.0252967403750238
2025-07-09 21:45:29.499,-0.0037787925705842,-1.2557365481818177
2025-07-09 21:45:29.507,-0.003570776765149,-2.504538374730364
2025-07-09 21:45:29.514,-0.0033389482163295,-3.724776137317158
2025-07-09 21:45:29.522,-0.0030890788936181,-4.9207577765618415
2025-07-09 21:45:29.530,-0.0028273445165755,-6.0972540826310935
2025-07-09 21:45:29.538,-0.0025601417315231,-7.259297528859102
2025-07-09 21:45:29.546,-0.0022938962822374,-8.411963615620758
2025-07-09 21:45:29.553,-0.0020348684106912,-9.560141544668364
2025-07-09 21:45:29.561,-0.0017889619674631,-10.708301715604486
2025-07-09 21:45:29.569,-0.0015615437025157,-11.860268017817711
2025-07-09 21:45:29.577,-0.0013572790877501,-13.019003146139742
2025-07-09 21:45:29.585,-0.001179990855462,-14.1864151540352
2025-07-09 21:45:29.592,-0.0010325461322239,-15.363193139412092
2025-07-09 21:45:29.600,-0.0009167774065039,-16.548679318614816
2025-07-09 21:45:29.608,-0.0008334413972207,-17.740783787622362
2025-07-09 21:45:29.616,-0.0007822181183011,-18.935947017428497
2025-07-09 21:45:29.624,-0.0007617501648292,-20.12915362210728
2025-07-09 21:45:29.632,-0.0007697197450565,-21.313999231067584
2025-07-09 21:45:29.639,-0.0008029586308062,-22.482810464278167
2025-07-09 21:45:29.647,-0.0008575844113163,-23.626816127559103
2025-07-09 21:45:29.655,-0.0009291555010908,-24.736365882717564
2025-07-09 21:45:29.663,-0.0010128372737971,-25.80119085843754
2025-07-09 21:45:29.671,-0.0011035722167806,-26.810698996127144
2025-07-09 21:45:29.678,-0.001196247820968,-27.75429641265063
2025-07-09 21:45:29.686,-0.0012858568440398,-28.62172475733046
2025-07-09 21:45:29.694,-0.0013676455215945,-29.4034035018618
2025-07-09 21:45:29.702,-0.0014372462068175,-30.090765395968628
2025-07-09 21:45:29.710,-0.0014907917626195,-30.67657301780701
2025-07-09 21:45:29.717,-0.0015250097887841,-31.15520450338866
2025-07-09 21:45:29.725,-0.001537295426737,-31.522897184627546
2025-07-09 21:45:29.733,-0.0015257620412066,-31.77793900083359
2025-07-09 21:45:29.741,-0.0014892695344827,-31.920799146487447
2025-07-09 21:45:29.749,-0.0014274304155564,-31.95419142789144
2025-07-09 21:45:29.757,-0.0013405940394491,-31.88306614435832
2025-07-09 21:45:29.764,-0.0012298096777011,-31.71452887877241
2025-07-09 21:45:29.772,-0.0010967693403226,-31.45768725281708
2025-07-09 21:45:29.780,-0.0009437316727628,-31.12342935133339
2025-07-09 21:45:29.788,-0.000773428959851,-30.724140041676183
2025-07-09 21:45:29.796,-0.0005889603223573,-30.27336371783222
2025-07-09 21:45:29.803,-0.0003936753892526,-29.78542400636328
2025-07-09 21:45:29.811,-0.0001910537087517,-29.27501260880467
2025-07-09 21:45:29.819,1.541438516324907e-05,-28.756760655970748
2025-07-09 21:45:29.827,0.0002223399233656,-28.244806659237742
2025-07-09 21:45:29.835,0.0004265356887905,-27.752375331089087
2025-07-09 21:45:29.842,0.0006251011497339,-27.29138121131845
2025-07-09 21:45:29.850,0.0008154894544773,-26.87207020440193
2025-07-09 21:45:29.858,0.0009955551717793,-26.502710856854964
2025-07-09 21:45:29.866,0.0011635825233161,-26.18934554186968
2025-07-09 21:45:29.874,0.0013182947763538,-25.935609736406008
2025-07-09 21:45:29.882,0.0014588462294711,-25.74262533704665
2025-07-09 21:45:29.889,0.0015847988204882,-25.60897153274273
2025-07-09 21:45:29.897,0.001696085810701,-25.530734210572483
2025-07-09 21:45:29.905,0.0017929652566896,-25.50163229577884
2025-07-09 21:45:29.913,0.0018759660800009,-25.513216900364988
2025-07-09 21:45:29.921,0.0019458295007162,-25.55513675514653
2025-07-09 21:45:29.928,0.0020034484377127,-25.61546120999249
2025-07-09 21:45:29.936,0.0020498072505122,-25.681050189105733
2025-07-09 21:45:29.944,0.0020859239974627,-25.737958961365493
2025-07-09 21:45:29.952,0.002112797275166,-25.771864495900928
2025-07-09 21:45:29.960,0.002131359623577,-25.768499566276223
2025-07-09 21:45:29.968,0.002142439290788,-25.714080667243685
2025-07-09 21:45:29.975,0.0021467317894941,-25.59571622008022
2025-07-09 21:45:29.983,0.0021447821994535,-25.4017824506986
2025-07-09 21:45:29.991,0.0021369786359373,-25.122255692283243
2025-07-09 21:45:29.999,0.0021235566981845,-24.748991630616512
2025-07-09 21:45:30.007,0.0021046140212745,-24.275944091247013
2025-07-09 21:45:30.014,0.0020801333823446,-23.69931825958205
2025-07-09 21:45:30.022,0.0020500123349862,-23.01765561347316
2025-07-09 21:45:30.030,0.0020140971536646,-22.23185021829669
2025-07-09 21:45:30.038,0.0019722188976633,-21.345098282479796
2025-07-09 21:45:30.046,0.0019242295140404,-20.362784911693147
2025-07-09 21:45:30.053,0.0018700360164913,-19.292313771677158
2025-07-09 21:45:30.061,0.0018096309674044,-18.142886834289417
2025-07-09 21:45:30.069,0.0017431178659213,-16.925242515970048
2025-07-09 21:45:30.077,0.0016707305665089,-15.65136131143668
2025-07-09 21:45:30.085,0.0015928463154888,-14.334148478800934
2025-07-09 21:45:30.093,0.0015099922433412,-12.98710345627462
2025-07-09 21:45:30.100,0.0014228452308849,-11.623985502985182
2025-07-09 21:45:30.108,0.0013322251287214,-10.258484583227226
2025-07-09 21:45:30.116,0.0012390814655441,-8.903905795073912
2025-07-09 21:45:30.124,0.0011444740666129,-7.572874737021356
2025-07-09 21:45:30.132,0.0010495483831269,-6.277070174292017
2025-07-09 21:45:30.139,0.0009555066908072,-5.026989268125738
2025-07-09 21:45:30.147,0.0008635764927773,-3.83174951177597
2025-07-09 21:45:30.155,0.0007749773796136,-2.698930407327848
2025-07-09 21:45:30.163,0.0006908873388107,-1.6344568386873777
2025-07-09 21:45:30.171,0.0006124092279748,-0.6425250610543088
2025-07-09 21:45:30.178,0.00054053794807,0.2744287557285653
2025-07-09 21:45:30.186,0.0004761288170825,1.1157184141974
2025-07-09 21:45:30.194,0.0004198677534446,1.882357836863801
2025-07-09 21:45:30.202,0.0003722441176132,2.576974055701501
2025-07-09 21:45:30.210,0.0003335273758861,3.203686263338065
2025-07-09 21:45:30.218,0.0003037490154202,3.767954662356822
2025-07-09 21:45:30.225,0.0002826911839217,4.276403245938884
2025-07-09 21:45:30.233,0.0002698832647303,4.736620932260755
2025-07-09 21:45:30.241,0.0002646071025797,5.156945675559836
2025-07-09 21:45:30.249,0.0002659110254054,5.546236310337982
2025-07-09 21:45:30.257,0.0002726322812979,5.913636969912769
2025-07-09 21:45:30.264,0.0002834270739945,6.268338963545799
2025-07-09 21:45:30.272,0.0002968070471206,6.619344991386303
2025-07-09 21:45:30.280,0.0003111808405227,6.975240509168981
2025-07-09 21:45:30.288,0.0003248992226616,7.343976910317335
2025-07-09 21:45:30.296,0.0003363022900201,7.732670959543843
2025-07-09 21:45:30.303,0.0003437673145361,8.147424577209124
2025-07-09 21:45:30.311,0.0003457560026928,8.593168625359347
2025-07-09 21:45:30.319,0.0003408601662178,9.073533778520853
2025-07-09 21:45:30.327,0.0003278450125889,9.590750885789928
2025-07-09 21:45:30.335,0.0003056893649729,10.145582476646473
2025-07-09 21:45:30.343,0.0002736221182152,10.737286273825672
2025-07-09 21:45:30.350,0.0002311542078775,11.363610794156076
2025-07-09 21:45:30.358,0.0001781053665744,12.020822378087114
2025-07-09 21:45:30.366,0.0001146249338154,12.703762321299276
2025-07-09 21:45:30.374,4.120591445810535e-05,13.405932213580968
2025-07-09 21:45:30.382,-4.130863796540732e-05,14.11960514045471
2025-07-09 21:45:30.389,-0.0001317279104761,14.83596008131371
2025-07-09 21:45:30.397,-0.0002285252269121,15.54523664397156
2025-07-09 21:45:30.405,-0.0003298602428841,16.236907203172496
2025-07-09 21:45:30.413,-0.0004336117047219,16.899863548295038
2025-07-09 21:45:30.421,-0.0005374204696989,17.522615273211876
2025-07-09 21:45:30.428,-0.0006387418935893,18.09349732733125
2025-07-09 21:45:30.436,-0.0007349062411731,18.60088434926126
2025-07-09 21:45:30.444,-0.0008231855512558,19.033409574985388
2025-07-09 21:45:30.452,-0.0009008653192199,19.38018620034538
2025-07-09 21:45:30.460,-0.0009653192979523,19.63102903761788
2025-07-09 21:45:30.468,-0.0010140855642704,19.77667411023065
2025-07-09 21:45:30.475,-0.0010449417636944,19.80899347846271
2025-07-09 21:45:30.483,-0.0010559772457024,19.721202110862315
2025-07-09 21:45:30.491,-0.0010456597667579,19.508053059051303
2025-07-09 21:45:30.499,-0.0010128945590055,19.166016616484807
2025-07-09 21:45:30.507,-0.0009570736642742,18.693438612411324
2025-07-09 21:45:30.514,-0.000878113414957,18.090672587582045
2025-07-09 21:45:30.522,-0.000776477947822,17.36018039755587
2025-07-09 21:45:30.530,-0.0006531868772134,16.506595859493736
2025-07-09 21:45:30.538,-0.0005098057751463,15.536746440022135
2025-07-09 21:45:30.546,-0.0003484188027054,14.45962868859692
2025-07-09 21:45:30.553,-0.0001715836091645,13.286334145011487
2025-07-09 21:45:30.561,1.773057751239653e-05,12.029923765001426
2025-07-09 21:45:30.569,0.0002162199131682,10.705250466852874
2025-07-09 21:45:30.577,0.0004203353544835,9.328731134042032
2025-07-09 21:45:30.585,0.0006263811280437,7.918071225748799
2025-07-09 21:45:30.593,0.0008306182056735,6.491946953310748
2025-07-09 21:45:30.600,0.0010293684210366,5.069651685215614
2025-07-09 21:45:30.608,0.0012191149479192,3.670714765753252
2025-07-09 21:45:30.616,0.0013965952706847,2.314502207439375
2025-07-09 21:45:30.624,0.0015588833497117,1.019809697214875
2025-07-09 21:45:30.632,0.001703458298702,-0.1955409895069612
2025-07-09 21:45:30.639,0.0018282574990989,-1.3150907649391077
2025-07-09 21:45:30.647,0.0019317126688445,-2.324105846209262
2025-07-09 21:45:30.655,0.0020127679828752,-3.209903286673437
2025-07-09 21:45:30.663,0.0020708799459829,-3.962129281508536
2025-07-09 21:45:30.671,0.0021059994188311,-4.5729812469762905
2025-07-09 21:45:30.678,0.0021185370397014,-5.037366141659537
2025-07-09 21:45:30.686,0.0021093141897014,-5.35298926753125
2025-07-09 21:45:30.694,0.0020795024561929,-5.52036982052562
2025-07-09 21:45:30.702,0.0020305551422692,-5.542781704038005
2025-07-09 21:45:30.710,0.0019641346881752,-5.426120512028762
2025-07-09 21:45:30.718,0.0018820398447767,-5.178700058618553
2025-07-09 21:45:30.725,0.0017861360488032,-4.810984297337313
2025-07-09 21:45:30.733,0.0016782918083576,-4.335262846582516
2025-07-09 21:45:30.741,0.0015603232052476,-3.765280521548909
2025-07-09 21:45:30.749,0.0014339480045086,-3.1158331622867417
2025-07-09 21:45:30.757,0.0013007504015539,-2.4023435310633765
2025-07-09 21:45:30.764,0.0011621571525043,-1.6404320170175664
2025-07-09 21:45:30.772,0.0010194256633061,-0.845497231425143
2025-07-09 21:45:30.780,0.0008736443521223,-0.0323212329731537
2025-07-09 21:45:30.788,0.00072574496257,0.785286931649851
2025-07-09 21:45:30.796,0.0005765254040809,1.5947974147152058
2025-07-09 21:45:30.803,0.0004266804292091,2.385205839230656
2025-07-09 21:45:30.811,0.000276836524913,3.147212786614177
2025-07-09 21:45:30.819,0.0001275871209755,3.873332709698776
2025-07-09 21:45:30.827,-2.047539094785639e-05,4.557931687110524
2025-07-09 21:45:30.835,-0.0001667334710537,5.197196581287487
2025-07-09 21:45:30.843,-0.0003105256372165,5.7890410624030615
2025-07-09 21:45:30.850,-0.0004511355822758,6.332956448570977
2025-07-09 21:45:30.858,-0.0005877889516899,6.829817257181451
2025-07-09 21:45:30.866,-0.0007196571317767,7.281652673446943
2025-07-09 21:45:30.874,-0.0008458673098082,7.691395778412097
2025-07-09 21:45:30.882,-0.0009655181127211,8.062622350113784
2025-07-09 21:45:30.889,-0.001077700153113,8.399290420190049
2025-07-09 21:45:30.897,-0.0011815207662585,8.705490638886674
2025-07-09 21:45:30.905,-0.0012761321190127,8.985216006593198
2025-07-09 21:45:30.913,-0.0013607616427169,9.242157812826374
2025-07-09 21:45:30.921,-0.0014347432938257,9.479532822618271
2025-07-09 21:45:30.928,-0.0014975475714281,9.699944987904589
2025-07-09 21:45:30.936,-0.0015488078455788,9.905283334194047
2025-07-09 21:45:30.944,-0.0015883406616033,10.096656244243675
2025-07-09 21:45:30.952,-0.0016161582526374,10.274361161246016
2025-07-09 21:45:30.960,-0.001632472243295,10.437887769173251
2025-07-09 21:45:30.968,-0.0016376882636388,10.58595196684184
2025-07-09 21:45:30.975,-0.0016323919057573,10.716557414592373
2025-07-09 21:45:30.983,-0.0016173271643342,10.827081069675582
2025-07-09 21:45:30.991,-0.0015933691406243,10.91437890342201
2025-07-09 21:45:30.999,-0.001561493242766,10.974907871978251
2025-07-09 21:45:31.007,-0.0015227432766807,11.004860154539388
2025-07-09 21:45:31.014,-0.001478200646634,11.000305640888378
2025-07-09 21:45:31.022,-0.0014289564631922,10.957338609764072
2025-07-09 21:45:31.030,-0.0013760878619052,10.87222447064332
2025-07-09 21:45:31.038,-0.0013206393675095,10.741542347887398
2025-07-09 21:45:31.046,-0.0012636096739611,10.562319198497711
2025-07-09 21:45:31.053,-0.0012059436998812,10.33215112166365
2025-07-09 21:45:31.061,-0.0011485292153973,10.049307595748134
2025-07-09 21:45:31.069,-0.001092196773538,9.71281462230536
2025-07-09 21:45:31.077,-0.0010377212456198,9.322513216822108
2025-07-09 21:45:31.085,-0.0009858231214408,8.879090396014035
2025-07-09 21:45:31.093,-0.0009371679709265,8.38408077988464
2025-07-09 21:45:31.100,-0.0008923629886986,7.839838130136298
2025-07-09 21:45:31.108,-0.0008519501850124,7.249477529582787
2025-07-09 21:45:31.116,-0.0008163964120488,6.6167903857312265
2025-07-09 21:45:31.124,-0.0007860809601093,5.946135910062602
2025-07-09 21:45:31.132,-0.0007612818950927,5.242314067905534
2025-07-09 21:45:31.139,-0.0007421626113773,4.510426103250718
2025-07-09 21:45:31.147,-0.0007287601950112,3.7557295297986086
2025-07-09 21:45:31.155,-0.0007209770515501,2.9834948846032114
2025-07-09 21:45:31.163,-0.000718576813064,2.1988715342782514
2025-07-09 21:45:31.171,-0.0007211849176723,1.4067694005976294
2025-07-09 21:45:31.178,-0.0007282936949673,0.6117626474516434
2025-07-09 21:45:31.186,-0.0007392714620501,-0.1819798178674916
2025-07-09 21:45:31.194,-0.0007533750325652,-0.9707336659213024
2025-07-09 21:45:31.202,-0.000769765092577,-1.7512266325394936
2025-07-09 21:45:31.210,-0.0007875240620042,-2.520614344959802
2025-07-09 21:45:31.218,-0.0008056762892443,-3.276426510210664
2025-07-09 21:45:31.225,-0.0008232106255482,-4.016487256049407
2025-07-09 21:45:31.233,-0.0008391055080163,-4.738814987439628
2025-07-09 21:45:31.241,-0.0008523566074658,-5.441508396540242
2025-07-09 21:45:31.249,-0.000862006865318,-6.122626157708324
2025-07-09 21:45:31.257,-0.0008671783654614,-6.780068294732283
2025-07-09 21:45:31.264,-0.0008671050151646,-7.411467196864833
2025-07-09 21:45:31.272,-0.0008611645705524,-8.014095781165539
2025-07-09 21:45:31.280,-0.0008489083069382,-8.584799376398749
2025-07-09 21:45:31.288,-0.0008300866907533,-9.119956592707974
2025-07-09 21:45:31.296,-0.0008046696860347,-9.615472825533503
2025-07-09 21:45:31.303,-0.0007728606701039,-10.066808230473828
2025-07-09 21:45:31.311,-0.0007351032273338,-10.469040119994768
2025-07-09 21:45:31.319,-0.0006920802963578,-10.816957894782712
2025-07-09 21:45:31.327,-0.0006447052658477,-11.105186942465464
2025-07-09 21:45:31.335,-0.0005941046840425,-11.328336504202312
2025-07-09 21:45:31.343,-0.0005415923492627,-11.481165387793064
2025-07-09 21:45:31.350,-0.0004886347681683,-11.558758628404089
2025-07-09 21:45:31.358,-0.0004368083373521,-11.556707773068911
2025-07-09 21:45:31.366,-0.0003877491147847,-11.471287378933434
2025-07-09 21:45:31.374,-0.0003430966810293,-11.299620536655326
2025-07-09 21:45:31.382,-0.0003044342554157,-11.039826719906086
2025-07-09 21:45:31.389,-0.0002732277228035,-10.69114598146504
2025-07-09 21:45:31.397,-0.0002507663344859,-10.254034433887798
2025-07-09 21:45:31.405,-0.0002381075646871,-9.73022703933174
2025-07-09 21:45:31.413,-0.0002360281570739,-9.122764957156884
2025-07-09 21:45:31.421,-0.0002449830181739,-8.435986022295738
2025-07-09 21:45:31.428,-0.0002650733428511,-7.675478311538215
2025-07-09 21:45:31.436,-0.0002960250764765,-6.847998156182992
2025-07-09 21:45:31.444,-0.0003371784295733,-5.961355332020985
2025-07-09 21:45:31.452,-0.0003874886639015,-5.024269452216725
2025-07-09 21:45:31.460,-0.0004455378703815,-4.046202756088744
2025-07-09 21:45:31.468,-0.0005095571136507,-3.0371754793575367
2025-07-09 21:45:31.475,-0.0005774581997272,-2.0075707606759767
2025-07-09 21:45:31.483,-0.0006468743485298,-0.9679365331338649
2025-07-09 21:45:31.491,-0.0007152090590739,0.0712079863301488
2025-07-09 21:45:31.499,-0.0007796923302262,1.099553811668399
2025-07-09 21:45:31.507,-0.0008374431415833,2.1071649373410084
2025-07-09 21:45:31.514,-0.0008855368147534,3.0846166035069844
2025-07-09 21:45:31.522,-0.0009210757246765,4.023104798575554
2025-07-09 21:45:31.530,-0.0009412618959102,4.914524477336222
2025-07-09 21:45:31.538,-0.0009434702268373,5.751515923595687
2025-07-09 21:45:31.546,-0.0009253212847807,6.52748067707531
2025-07-09 21:45:31.553,-0.0008847527026847,7.236570310333553
2025-07-09 21:45:31.561,-0.0008200881561562,7.873652931510622
2025-07-09 21:45:31.569,-0.0007301027215412,8.434263482421846
2025-07-09 21:45:31.577,-0.0006140831376401,8.914544615118626
2025-07-09 21:45:31.585,-0.0004718811482583,9.311185116427309
2025-07-09 21:45:31.593,-0.0003039577276266,9.621362502573426
2025-07-09 21:45:31.600,-0.0001114156319413,9.84269556529606
2025-07-09 21:45:31.608,0.0001039825479681,9.973211404327872
2025-07-09 21:45:31.616,0.0003398137205076,10.01132995100279
2025-07-09 21:45:31.624,0.0005930136451078,9.95586731237999
2025-07-09 21:45:31.632,0.0008599183103593,9.806057582718436
2025-07-09 21:45:31.639,0.0011363283885841,9.561591207078829
2025-07-09 21:45:31.647,0.001417596633187,9.22266665094094
2025-07-09 21:45:31.655,0.0016987368398698,8.790051115915817
2025-07-09 21:45:31.663,0.0019745517643343,8.265145398845418
2025-07-09 21:45:31.671,0.002239776098623,7.650047740776818
2025-07-09 21:45:31.678,0.0024892292438734,6.947611644420752
2025-07-09 21:45:31.686,0.0027179714555867,6.161493115030996
2025-07-09 21:45:31.694,0.0029214563617873,5.296183532114734
2025-07-09 21:45:31.702,0.0030956729967807,4.357025298653689
2025-07-09 21:45:31.710,0.003237271175817,3.350208444385727
2025-07-09 21:45:31.718,0.003343665003339,2.282747389798464
2025-07-09 21:45:31.725,0.0034131104075026,1.162438031271637
2025-07-09 21:45:31.733,0.0034447537773335,-0.0022038715525961
2025-07-09 21:45:31.741,0.0034386500367335,-1.2020213705475833
2025-07-09 21:45:31.749,0.0033957498130616,-2.4273099513348537
2025-07-09 21:45:31.757,0.003317856706346,-3.667923676380303
2025-07-09 21:45:31.764,0.0032075569276744,-4.913391259513133
2025-07-09 21:45:31.772,0.0030681246012245,-6.153039444445755
2025-07-09 21:45:31.780,0.0029034067454206,-7.376121115368214
2025-07-09 21:45:31.788,0.0027176924554518,-8.571945677666415
2025-07-09 21:45:31.796,0.0025155712662428,-9.73000936911962
2025-07-09 21:45:31.803,0.0023017861623649,-10.8401232591908
2025-07-09 21:45:31.811,0.0020810871206701,-11.892536742237226
2025-07-09 21:45:31.819,0.0018580911750029,-12.87805432603832
2025-07-09 21:45:31.827,0.0016371545646564,-13.78814347941607
2025-07-09 21:45:31.835,0.0014222615927566,-14.615031271592112
2025-07-09 21:45:31.843,0.0012169336338767,-15.35178756425746
2025-07-09 21:45:31.850,0.0010241605517072,-15.99239266070199
2025-07-09 21:45:31.858,0.0008463556888532,-16.531787619178758
2025-07-09 21:45:31.866,0.0006853344903808,-16.96590592149469
2025-07-09 21:45:31.874,0.0005423156730243,-17.29168584662148
2025-07-09 21:45:31.882,0.0004179427496484,-17.50706370069524
2025-07-09 21:45:31.889,0.0003123228320349,-17.610948943699583
2025-07-09 21:45:31.897,0.0002250790808769,-17.603183154131262
2025-07-09 21:45:31.905,0.0001554129842666,-17.484485598157438
2025-07-09 21:45:31.913,0.0001021728084728,-17.256388832979983
2025-07-09 21:45:31.921,6.392501143517596e-05,-16.921168207589943
2025-07-09 21:45:31.928,3.9025995463482295e-05,-16.481769288963566
2025-07-09 21:45:31.936,2.5692110388403826e-05,-15.94173712920196
2025-07-09 21:45:31.944,2.2066190734832285e-05,-15.305150916684624
2025-07-09 21:45:31.952,2.627916828033332e-05,-14.576566960207614
2025-07-09 21:45:31.960,3.6505574495018354e-05,-13.760972190768785
2025-07-09 21:45:31.968,5.101211908751426e-05,-12.863749489758796
2025-07-09 21:45:31.975,6.81989807384054e-05,-11.890655227859025
2025-07-09 21:45:31.983,8.663385589686618e-05,-10.847808489781867
2025-07-09 21:45:31.991,0.0001050790448776,-9.741690623428989
2025-07-09 21:45:31.999,0.0001225118961272,-8.579153032187973
2025-07-09 21:45:32.007,0.0001381388963083,-7.36743055556157
2025-07-09 21:45:32.014,0.0001514036637449,-6.114157374284382
2025-07-09 21:45:32.022,0.0001619890364596,-4.827382140971546
2025-07-09 21:45:32.030,0.0001698133117588,-3.5155789772233743
2025-07-09 21:45:32.038,0.0001750205493839,-2.187651085183973
2025-07-09 21:45:32.046,0.0001779647743677,-0.8529239795979199
2025-07-09 21:45:32.053,0.0001791879486437,0.4788742666215663
2025-07-09 21:45:32.061,0.0001793917309714,1.797647876542037
2025-07-09 21:45:32.069,0.0001794033116131,3.0929848530598125
2025-07-09 21:45:32.077,0.0001801359852687,4.354225964926139
2025-07-09 21:45:32.085,0.0001825455965688,5.570551397559735
2025-07-09 21:45:32.093,0.0001875845035733,6.731084501805238
2025-07-09 21:45:32.100,0.0001961551302375,7.825011363534351
2025-07-09 21:45:32.108,0.0002090653515131,8.841714261978446
2025-07-09 21:45:32.116,0.0002269877907574,9.77091651230739
2025-07-09 21:45:32.124,0.0002504246861324,10.60283571481892
2025-07-09 21:45:32.132,0.0002796794619306,11.328342064871553
2025-07-09 21:45:32.139,0.0003148356429336,11.93911811005974
2025-07-09 21:45:32.147,0.0003557433238043,12.427816162779193
2025-07-09 21:45:32.155,0.0004020130641597,12.788209474882985
2025-07-09 21:45:32.163,0.0004530168273097,13.015333250022964
2025-07-09 21:45:32.171,0.0005078954171255,13.10561161167843
2025-07-09 21:45:32.178,0.000565571790438,13.056966771961852
2025-07-09 21:45:32.186,0.0006247696263116,12.86890687174344
2025-07-09 21:45:32.194,0.0006840366054126,12.542589298166783
2025-07-09 21:45:32.202,0.0007417719509898,12.080856738824693
2025-07-09 21:45:32.210,0.0007962578289169,11.488243803399683
2025-07-09 21:45:32.218,0.0008456941492927,10.7709527230467
2025-07-09 21:45:32.225,0.000888236225927,9.936797403307072
2025-07-09 21:45:32.233,0.0009220347481113,8.995115931301664
2025-07-09 21:45:32.241,0.0009452775757844,7.956652498604749
2025-07-09 21:45:32.249,0.0009562328297353,6.8334105754851455
2025-07-09 21:45:32.257,0.0009532925763362,5.638480031632748
2025-07-09 21:45:32.264,0.0009350162705824,4.385841703813569
2025-07-09 21:45:32.272,0.0009001731485987,3.0901536164115013
2025-07-09 21:45:32.280,0.000847782842671,1.7665236217908988
2025-07-09 21:45:32.288,0.0007771534495723,0.4302736049004204
2025-07-09 21:45:32.296,0.0006879161052616,-0.9032994379927274
2025-07-09 21:45:32.303,0.0005800549356777,-2.2191601924723865
2025-07-09 21:45:32.311,0.0004539311527407,-3.5027646965190278
2025-07-09 21:45:32.319,0.000310300004391,-4.740278314065437
2025-07-09 21:45:32.327,0.0001503191762177,-5.918777963687352
2025-07-09 21:45:32.335,-2.4452901280320736e-05,-7.026435135544045
2025-07-09 21:45:32.343,-0.00021207041759,-8.052676823306317
2025-07-09 21:45:32.350,-0.0004102266203798,-8.988322073224076
2025-07-09 21:45:32.358,-0.0006162943725838,-9.82569238753079
2025-07-09 21:45:32.366,-0.0008273813713712,-10.558694697707615
2025-07-09 21:45:32.374,-0.0010403998753061,-11.182876034201549
2025-07-09 21:45:32.382,-0.0012521498414504,-11.695449361444023
2025-07-09 21:45:32.389,-0.0014594132099617,-12.095290330294915
2025-07-09 21:45:32.397,-0.001659055831879,-12.382904944958431
2025-07-09 21:45:32.405,-0.0018481324458354,-12.560368376299824
2025-07-09 21:45:32.413,-0.0020239893942422,-12.6312354095033
2025-07-09 21:45:32.421,-0.002184359540484,-12.600423320699072
2025-07-09 21:45:32.428,-0.0023274440855913,-12.474068361836403
2025-07-09 21:45:32.436,-0.0024519766150571,-12.259357522252351
2025-07-09 21:45:32.444,-0.0025572656904196,-11.96433785262343
2025-07-09 21:45:32.452,-0.002643213583035,-11.597706394152386
2025-07-09 21:45:32.460,-0.0027103101929325,-11.168584641183584
2025-07-09 21:45:32.468,-0.0027596026206693,-10.68628243540177
2025-07-09 21:45:32.475,-0.0027926421318963,-10.16005717126179
2025-07-09 21:45:32.483,-0.0028114113158014,-9.598875093717222
2025-07-09 21:45:32.491,-0.0028182350718303,-9.011182191537138
2025-07-09 21:45:32.499,-0.0028156796581929,-8.404692634333598
2025-07-09 21:45:32.507,-0.0028064444006827,-7.786202782861846
2025-07-09 21:45:32.514,-0.0027932507965389,-7.161438460079047
2025-07-09 21:45:32.522,-0.0027787336652258,-6.534942378780166
2025-07-09 21:45:32.530,-0.0027653387097059,-5.910007388172418
2025-07-09 21:45:32.538,-0.0027552303748887,-5.288659565228572
2025-07-09 21:45:32.546,-0.0027502132493783,-4.671693206040609
2025-07-09 21:45:32.553,-0.0027516695062652,-4.058757567179359
2025-07-09 21:45:32.561,-0.0027605141157006,-3.448492892352472
2025-07-09 21:45:32.569,-0.0027771688808117,-2.8387109728578106
2025-07-09 21:45:32.577,-0.0028015557626991,-2.226613365407563
2025-07-09 21:45:32.585,-0.0028331094026796,-1.6090385479349871
2025-07-09 21:45:32.593,-0.0028708081512844,-0.9827278347206798
2025-07-09 21:45:32.600,-0.00291322225413,-0.344598876571775
2025-07-09 21:45:32.608,-0.0029585771614883,0.3079849073584698
2025-07-09 21:45:32.616,-0.0030048293085692,0.976960562642002
2025-07-09 21:45:32.624,-0.0030497512440029,1.663338517983455
2025-07-09 21:45:32.632,-0.0030910226732483,2.367012165972331
2025-07-09 21:45:32.639,-0.0031263237619406,3.0866126530273443
2025-07-09 21:45:32.647,-0.0031534268473539,3.8194157056803433
2025-07-09 21:45:32.655,-0.0031702825481135,4.561305406811003
2025-07-09 21:45:32.663,-0.0031750962561894,5.306797804767922
2025-07-09 21:45:32.671,-0.0031663913006641,6.049125141231824
2025-07-09 21:45:32.678,-0.0031430557660914,6.7803793508052514
2025-07-09 21:45:32.686,-0.0031043709439074,7.491711338817196
2025-07-09 21:45:32.694,-0.0030500205238774,8.173580409792738
2025-07-09 21:45:32.702,-0.0029800807645343,8.816046139491059
2025-07-09 21:45:32.710,-0.0028949929585929,9.409093024906127
2025-07-09 21:45:32.718,-0.0027955205025446,9.942976500808744
2025-07-09 21:45:32.725,-0.002682693741517,10.4085774870176
2025-07-09 21:45:32.733,-0.0025577464044439,10.79775163983954
2025-07-09 21:45:32.741,-0.0024220477851307,11.103659024704834
2025-07-09 21:45:32.749,-0.0022770348339325,11.32106008212083
2025-07-09 21:45:32.757,-0.0021241480166367,11.446564572681703
2025-07-09 21:45:32.764,-0.0019647741950909,11.478821671180926
2025-07-09 21:45:32.772,-0.0018001989573844,11.418641505353282
2025-07-09 21:45:32.780,-0.001631569924155,11.269041124167796
2025-07-09 21:45:32.788,-0.0014598717645469,11.03521101146892
2025-07-09 21:45:32.796,-0.00128591307703,10.724401678077832
2025-07-09 21:45:32.804,-0.0011103248782739,10.34573339571307
2025-07-09 21:45:32.811,-0.0009335700609495,9.909935595922864
2025-07-09 21:45:32.819,-0.0007559627652731,9.42902566052109
2025-07-09 21:45:32.827,-0.0005776962149201,8.915939600330466
2025-07-09 21:45:32.835,-0.000398877277212,8.384129305610257
2025-07-09 21:45:32.843,-0.0002195658605169,7.847142541838865
2025-07-09 21:45:32.850,-3.9817261632917895e-05,7.318202589728743
2025-07-09 21:45:32.858,0.0001402743170215,6.809804363557976
2025-07-09 21:45:32.866,0.0003205327589933,6.333343003128439
2025-07-09 21:45:32.874,0.0005006592710715,5.8987893732826535
2025-07-09 21:45:32.882,0.0006801958935689,5.514424700552184
2025-07-09 21:45:32.889,0.0008584957397809,5.186643831970566
2025-07-09 21:45:32.897,0.0010347027860848,4.919833441979652
2025-07-09 21:45:32.905,0.0012077441352195,4.716328089716892
2025-07-09 21:45:32.913,0.0013763373905743,4.576443512562171
2025-07-09 21:45:32.921,0.0015390151088071,4.498583115835632
2025-07-09 21:45:32.929,0.0016941673315007,4.479410461915898
2025-07-09 21:45:32.936,0.0018401020083021,4.514077833549543
2025-07-09 21:45:32.944,0.0019751217120275,4.596498771472672
2025-07-09 21:45:32.952,0.0020976133973717,4.719650949923936
2025-07-09 21:45:32.960,0.0022061461749799,4.875894896007806
2025-07-09 21:45:32.968,0.0022995704532263,5.057293883457256
2025-07-09 21:45:32.975,0.0023771107432021,5.255920814896631
2025-07-09 21:45:32.983,0.0024384442433433,5.464139009588616
2025-07-09 21:45:32.991,0.0024837580793425,5.674845484540721
2025-07-09 21:45:32.999,0.0025137796080133,5.881667490869251
2025-07-09 21:45:33.007,0.0025297762510116,6.079105660293717
2025-07-09 21:45:33.014,0.0025335236334586,6.262620019977142
2025-07-09 21:45:33.022,0.0025272431099475,6.428658213203583
2025-07-09 21:45:33.030,0.0025135119200301,6.574628361040567
2025-07-09 21:45:33.038,0.0024951511763518,6.698821943165642
2025-07-09 21:45:33.046,0.0024750985566405,6.800294689469509
2025-07-09 21:45:33.054,0.0024562737453581,6.878715597517355
2025-07-09 21:45:33.061,0.0024414451436056,6.934195693803065
2025-07-09 21:45:33.069,0.0024331060512677,6.967108949880216
2025-07-09 21:45:33.077,0.0024333675119617,6.9779178085837215
2025-07-09 21:45:33.085,0.0024438735156101,6.9670150834540205
2025-07-09 21:45:33.093,0.0024657425099029,6.934592625582053
2025-07-09 21:45:33.100,0.0024995373444048,6.880545202117947
2025-07-09 21:45:33.108,0.0025452639475621,6.8044156221409136
2025-07-09 21:45:33.116,0.0026023972703485,6.7053844217123375
2025-07-09 21:45:33.124,0.0026699313703785,6.582304540320466
2025-07-09 21:45:33.132,0.0027464490349718,6.433778555888758
2025-07-09 21:45:33.139,0.0028302051984861,6.258273365540119
2025-07-09 21:45:33.147,0.0029192178054837,6.0542648589601065
2025-07-09 21:45:33.155,0.0030113598593819,5.820403254549145
2025-07-09 21:45:33.163,0.0031044471288317,5.555688443763224
2025-07-09 21:45:33.171,0.0031963171001727,5.25964397092765
2025-07-09 21:45:33.179,0.0032848959603645,4.932478188538468
2025-07-09 21:45:33.186,0.0033682515132894,4.575221664210993
2025-07-09 21:45:33.194,0.0034446309728446,4.189831035167875
2025-07-09 21:45:33.202,0.0035124835767589,3.779251141644096
2025-07-09 21:45:33.210,0.0035704689299992,3.3474293345248856
2025-07-09 21:45:33.218,0.0036174528912516,2.8992782448485563
2025-07-09 21:45:33.225,0.0036524936067096,2.4405859123043743
2025-07-09 21:45:33.233,0.0036748208805533,1.9778748740988792
2025-07-09 21:45:33.241,0.0036838123617669,1.5182144834801905
2025-07-09 21:45:33.249,0.0036789699921716,1.0689932258578898
2025-07-09 21:45:33.257,0.0036598998144989,0.637660004489905
2025-07-09 21:45:33.264,0.0036262976068501,0.2314451679246952
2025-07-09 21:45:33.272,0.0035779419581574,-0.1429266402823445
2025-07-09 21:45:33.280,0.003514695451495,-0.4795189771226892
2025-07-09 21:45:33.288,0.0034365136993439,-0.7734484525852926
2025-07-09 21:45:33.296,0.0033434611542299,-1.021119405283796
2025-07-09 21:45:33.304,0.0032357319459961,-1.2204169216887404
2025-07-09 21:45:33.311,0.0031136735092655,-1.3708483337413715
2025-07-09 21:45:33.319,0.002977810491017,-1.4736254347554496
2025-07-09 21:45:33.327,0.0028288663855943,-1.531682152525783
2025-07-09 21:45:33.335,0.002667780515106,-1.549625193560716
2025-07-09 21:45:33.343,0.0024957182890273,-1.5336180919331468
2025-07-09 21:45:33.350,0.0023140730596327,-1.491202022341711
2025-07-09 21:45:33.358,0.0021244583076201,-1.4310595303789404
2025-07-09 21:45:33.366,0.0019286893438352,-1.3627298584825462
2025-07-09 21:45:33.374,0.0017287541956751,-1.2962866783777036
2025-07-09 21:45:33.382,0.0015267738880523,-1.2419906710065067
2025-07-09 21:45:33.389,0.0013249529955662,-1.2099304370994468
2025-07-09 21:45:33.397,0.0011255221573164,-1.2096656230932294
2025-07-09 21:45:33.405,0.0009306751049241,-1.2498859011723895
2025-07-09 21:45:33.413,0.0007425034476039,-1.3380985945001094
2025-07-09 21:45:33.421,0.0005629327785166,-1.4803563805148925
2025-07-09 21:45:33.429,0.0003936635255059,-1.6810347531922174
2025-07-09 21:45:33.436,0.0002361194426782,-1.942666898226184
2025-07-09 21:45:33.444,9.140592204254228e-05,-2.265841439070251
2025-07-09 21:45:33.452,-3.972039890959429e-05,-2.649166235287995
2025-07-09 21:45:33.460,-0.0001568698211542,-3.0892991287007066
2025-07-09 21:45:33.468,-0.0002600250325915,-3.5810442892071523
2025-07-09 21:45:33.475,-0.0003495335368123,-4.11751064469444
2025-07-09 21:45:33.483,-0.0004260869951303,-4.690326813418811
2025-07-09 21:45:33.491,-0.0004906877677665,-5.289905023618528
2025-07-09 21:45:33.499,-0.0005446035098273,-5.905744750522477
2025-07-09 21:45:33.507,-0.0005893113860093,-6.52676528888451
2025-07-09 21:45:33.514,-0.0006264341548257,-7.141655286180516
2025-07-09 21:45:33.522,-0.0006576709206593,-7.73922647025107
2025-07-09 21:45:33.530,-0.0006847257151092,-8.30875849338725
2025-07-09 21:45:33.538,-0.0007092372396679,-8.840322041141325
2025-07-09 21:45:33.546,-0.0007327130813517,-9.32506814333169
2025-07-09 21:45:33.554,-0.0007564715073995,-9.755472960454512
2025-07-09 21:45:33.561,-0.0007815935644845,-10.125529145066144
2025-07-09 21:45:33.569,-0.0008088876657728,-10.43087710649474
2025-07-09 21:45:33.577,-0.0008388681629555,-10.668872027381015
2025-07-09 21:45:33.585,-0.0008717485961266,-10.838585167989564
2025-07-09 21:45:33.593,-0.0009074494479275,-10.940740721519305
2025-07-09 21:45:33.600,-0.0009456193998571,-10.977592127880577
2025-07-09 21:45:33.608,-0.0009856684017215,-10.95274420283658
2025-07-09 21:45:33.616,-0.0010268103699824,-10.870929598073351
2025-07-09 21:45:33.624,-0.0010681130385684,-10.73774989687211
2025-07-09 21:45:33.632,-0.0011085524012705,-10.559393006936755
2025-07-09 21:45:33.639,-0.00114706927432,-10.342339389045213
2025-07-09 21:45:33.647,-0.0011826256842132,-10.093070024276882
2025-07-09 21:45:33.655,-0.0012142589664583,-9.817788853284274
2025-07-09 21:45:33.663,-0.0012411316131405,-9.52217171191181
2025-07-09 21:45:33.671,-0.0012625750553458,-9.211152550802858
2025-07-09 21:45:33.679,-0.001278125779942,-8.888756000031742
2025-07-09 21:45:33.686,-0.0012875525007709,-8.557983188992104
2025-07-09 21:45:33.694,-0.0012908734583921,-8.22075524905789
2025-07-09 21:45:33.702,-0.0012883631882849,-7.877916225928697
2025-07-09 21:45:33.710,-0.0012805482754191,-7.529294338915007
2025-07-09 21:45:33.718,-0.0012681918313903,-7.173817780024965
2025-07-09 21:45:33.725,-0.0012522667941158,-6.809678675810034
2025-07-09 21:45:33.733,-0.0012339186889968,-6.434536555795188
2025-07-09 21:45:33.741,-0.0012144191943591,-6.045750784382844
2025-07-09 21:45:33.749,-0.0011951126354036,-5.640630007194335
2025-07-09 21:45:33.757,-0.0011773581849858,-5.216685814057447
2025-07-09 21:45:33.764,-0.0011624708690223,-4.771877586953924
2025-07-09 21:45:33.772,-0.0011516644449637,-4.304835913716272
2025-07-09 21:45:33.780,-0.0011459990281134,-3.8150530070001305
2025-07-09 21:45:33.788,-0.0011463361064173,-3.303030237104792
2025-07-09 21:45:33.796,-0.0011533032016863,-2.7703750906497104
2025-07-09 21:45:33.804,-0.0011672697618799,-2.219842488287
2025-07-09 21:45:33.811,-0.0011883350029597,-1.6553182821574624
2025-07-09 21:45:33.819,-0.0012163276462614,-1.081745733769997
2025-07-09 21:45:33.827,-0.0012508170141378,-0.5049986639487934
2025-07-09 21:45:33.835,-0.0012911347222113,0.0682924066822425
2025-07-09 21:45:33.843,-0.0013364060928895,0.6309526024511105
2025-07-09 21:45:33.850,-0.0013855902975021,1.175503338750281
2025-07-09 21:45:33.858,-0.0014375280698803,1.6944200487582213
2025-07-09 21:45:33.866,-0.0014909956140015,2.1803953731932317
2025-07-09 21:45:33.874,-0.0015447630530207,2.626596400591363
2025-07-09 21:45:33.882,-0.0015976554410145,3.0269052760492947
2025-07-09 21:45:33.889,-0.0016486139957851,3.376133656112255
2025-07-09 21:45:33.897,-0.0016967548606286,3.6702029730918064
2025-07-09 21:45:33.905,-0.0017414224808178,3.90628417983823
2025-07-09 21:45:33.913,-0.0017822347159047,4.082892478105529
2025-07-09 21:45:33.921,-0.001819117110633,4.199934404417758
2025-07-09 21:45:33.929,-0.0018523241924952,4.258706486522136
2025-07-09 21:45:33.936,-0.0018824461691612,4.261846436105947
2025-07-09 21:45:33.944,-0.0019103999977363,4.213239467545203
2025-07-09 21:45:33.952,-0.001937404515555,4.117883796645832
2025-07-09 21:45:33.960,-0.0019649400942876,3.9817206543378503
2025-07-09 21:45:33.968,-0.0019946940168925,3.8114352305895873
2025-07-09 21:45:33.975,-0.0020284934296614,3.61423582880233
2025-07-09 21:45:33.983,-0.0020682282670488,3.397619145736664
2025-07-09 21:45:33.991,-0.002115766970324,3.1691299803790223
2025-07-09 21:45:33.999,-0.0021728681095966,2.9361238009336885
2025-07-09 21:45:34.007,-0.0022410911619836,2.705540447929384
2025-07-09 21:45:34.014,-0.0023217096886389,2.483696812947929
2025-07-09 21:45:34.022,-0.0024156299848212,2.276105606544907
2025-07-09 21:45:34.030,-0.0025233179533765,2.0873263329011262
2025-07-09 21:45:34.038,-0.0026447365115936,1.920853358176272
2025-07-09 21:45:34.046,-0.0027792953948805,1.7790445406456428
2025-07-09 21:45:34.054,-0.0029258149197878,1.6630923332988263
2025-07-09 21:45:34.061,-0.0030825051830011,1.5730376271626028
2025-07-09 21:45:34.069,-0.0032469622119014,1.5078249372346917
2025-07-09 21:45:34.077,-0.0034161825757,1.4653959113090935
2025-07-09 21:45:34.085,-0.0035865977884735,1.4428166360256005
2025-07-09 21:45:34.093,-0.0037541294384715,1.4364328920248106
2025-07-09 21:45:34.100,-0.0039142653559532,1.4420464358507352
2025-07-09 21:45:34.108,-0.0040621563004643,1.45510462266302
2025-07-09 21:45:34.116,-0.004192731667245,1.4708952858477755
2025-07-09 21:45:34.124,-0.0043008317202385,1.4847387944650878
2025-07-09 21:45:34.132,-0.0043813530374619,1.4921696281055323
2025-07-09 21:45:34.139,-0.0044294032816108,1.4891006211574476
2025-07-09 21:45:34.147,-0.0044404609714775,1.4719641809989126
2025-07-09 21:45:34.155,-0.0044105354623755,1.4378261903906226
2025-07-09 21:45:34.163,-0.0043363218226704,1.384469851283428
2025-07-09 21:45:34.171,-0.0042153448114398,1.3104482938413091
2025-07-09 21:45:34.179,-0.0040460858011899,1.2151062492481777
2025-07-09 21:45:34.186,-0.0038280863386823,1.0985723828005194
2025-07-09 21:45:34.194,-0.0035620222316928,0.9617249534158644
2025-07-09 21:45:34.202,-0.003249742679774,0.8061342853117179
2025-07-09 21:45:34.210,-0.0028942700188494,0.6339861061995279
2025-07-09 21:45:34.218,-0.0024997570740583,0.4479901368586582
2025-07-09 21:45:34.225,-0.0020714008886266,0.2512784335526173
2025-07-09 21:45:34.233,-0.0016153137076679,0.0472979193828012
2025-07-09 21:45:34.241,-0.0011383545183074,-0.1602986728442019
2025-07-09 21:45:34.249,-0.0006479271008564,-0.3677595558387769
2025-07-09 21:45:34.257,-0.0001517532210831,-0.5713348803337837
2025-07-09 21:45:34.264,0.0003423681046337,-0.7673690187932718
2025-07-09 21:45:34.272,0.0008268029155803,-0.9523817872926624
2025-07-09 21:45:34.280,0.0012943136573372,-1.1231369145654464
2025-07-09 21:45:34.288,0.0017382681635441,-1.2766967773532565
2025-07-09 21:45:34.296,0.002152816960394,-1.4104631434953945
2025-07-09 21:45:34.304,0.00253303224795,-1.522204353141959
2025-07-09 21:45:34.311,0.002875004726248,-1.6100699799418106
2025-07-09 21:45:34.319,0.0031758970986275,-1.672594513725846
2025-07-09 21:45:34.327,0.0034339554250217,-1.708691972233135
2025-07-09 21:45:34.335,0.0036484814376542,-1.7176435719869048
2025-07-09 21:45:34.343,0.0038197704452806,-1.6990806682507165
2025-07-09 21:45:34.350,0.0039490205373793,-1.6529651193327382
2025-07-09 21:45:34.358,0.0040382194700947,-1.5795690528824553
2025-07-09 21:45:34.366,0.0040900158987209,-1.479455724030972
2025-07-09 21:45:34.374,0.0041075815560892,-1.3534627747128325
2025-07-09 21:45:34.382,0.0040944706104728,-1.2026887578109189
2025-07-09 21:45:34.389,0.0040544818251675,-1.0284833155718511
2025-07-09 21:45:34.397,0.0039915283433858,-0.832440935261578
2025-07-09 21:45:34.405,0.0039095189967361,-0.6163977721199476
2025-07-09 21:45:34.413,0.0038122540429283,-0.38243064473924
2025-07-09 21:45:34.421,0.0037033372352875,-0.1328569808582617
2025-07-09 21:45:34.429,0.0035861051655296,0.1297657664834189
2025-07-09 21:45:34.436,0.0034635739483781,0.4026428895226216
2025-07-09 21:45:34.444,0.0033384025710789,0.6827491280088027
2025-07-09 21:45:34.452,0.0032128716436747,0.9668410419479808
2025-07-09 21:45:34.460,0.0030888758792656,1.2514766868057376
2025-07-09 21:45:34.468,0.0029679284206086,1.533044004547241
2025-07-09 21:45:34.475,0.0028511751091049,1.8077990062009996
2025-07-09 21:45:34.483,0.002739416927873,2.07191436942832
2025-07-09 21:45:34.491,0.0026331390559012,2.3215385246924787
2025-07-09 21:45:34.499,0.0025325451504317,2.552864679099612
2025-07-09 21:45:34.507,0.0024375955840683,2.7622085544039323
2025-07-09 21:45:34.514,0.0023480483910202,2.946092928286877
2025-07-09 21:45:34.522,0.0022635016162475,3.101336408705805
2025-07-09 21:45:34.530,0.0021834356411084,3.2251432900601595
2025-07-09 21:45:34.538,0.0021072539598064,3.3151908880513417
2025-07-09 21:45:34.546,0.0020343208776143,3.369710472441393
2025-07-09 21:45:34.554,0.0019639947240143,3.3875578483496582
2025-07-09 21:45:34.561,0.0018956554204499,3.3682697978558203
2025-07-09 21:45:34.569,0.0018287256031564,3.312102984947161
2025-07-09 21:45:34.577,0.0017626849629158,3.220052525449923
2025-07-09 21:45:34.585,0.0016970780035389,3.0938481884100337
2025-07-09 21:45:34.593,0.0016315159827188,2.9359270777421824
2025-07-09 21:45:34.600,0.0015656742610166,2.7493825945355
2025-07-09 21:45:34.608,0.0014992865134184,2.537890454527825
2025-07-09 21:45:34.616,0.0014321372410317,2.305613486138795
2025-07-09 21:45:34.624,0.0013640538786438,2.057087819281655
2025-07-09 21:45:34.632,0.0012948996091126,1.7970938585280145
2025-07-09 21:45:34.639,0.0012245677331635,1.530516090821055
2025-07-09 21:45:34.647,0.0011529780763951,1.2621962918786571
2025-07-09 21:45:34.655,0.0010800755070698,0.9967850574602988
2025-07-09 21:45:34.663,0.0010058302744837,0.7385967912923271
2025-07-09 21:45:34.671,0.0009302396050581,0.491473329566563
2025-07-09 21:45:34.679,0.0008533298282317,0.2586612738022677
2025-07-09 21:45:34.686,0.0007751582540177,0.0427078418772798
2025-07-09 21:45:34.694,0.0006958140918429,-0.154620367492223
2025-07-09 21:45:34.702,0.0006154178849441,-0.3323918702380788
2025-07-09 21:45:34.710,0.0005341192308215,-0.4905349525505684
2025-07-09 21:45:34.718,0.0004520929511732,-0.6298302746264546
2025-07-09 21:45:34.725,0.0003695343134802,-0.7518702569980701
2025-07-09 21:45:34.733,0.0002866542683556,-0.8589852742283414
2025-07-09 21:45:34.741,0.0002036757889615,-0.9541379826599962
2025-07-09 21:45:34.749,0.0001208322022648,-1.040788472256588
2025-07-09 21:45:34.757,3.836796981171376e-05,-1.1227342947242007
2025-07-09 21:45:34.764,-4.345812496600556e-05,-1.2039307111367408
2025-07-09 21:45:34.772,-0.0001243678687941,-1.2882976471287575
2025-07-09 21:45:34.780,-0.0002040574068524,-1.3795207638881664
2025-07-09 21:45:34.788,-0.000282190945853,-1.4808546731920311
2025-07-09 21:45:34.796,-0.0003583954554707,-1.5949365846310968
2025-07-09 21:45:34.804,-0.0004322573780269,-1.723618542195625
2025-07-09 21:45:34.811,-0.000503322152408,-1.86782588965728
2025-07-09 21:45:34.819,-0.0005710970641622,-2.027448731506543
2025-07-09 21:45:34.827,-0.0006350576307115,-2.201271974291937
2025-07-09 21:45:34.835,-0.0006946574787105,-2.38694809283381
2025-07-09 21:45:34.843,-0.0007493414368932,-2.581015122879807
2025-07-09 21:45:34.850,-0.0007985612869127,-2.778960600148072
2025-07-09 21:45:34.858,-0.000841793304299,-2.9753303169358727
2025-07-09 21:45:34.866,-0.0008785564710684,-3.163878928896501
2025-07-09 21:45:34.874,-0.0009084301332687,-3.3377576977194297
2025-07-09 21:45:34.882,-0.0009310699512967,-3.489733082886873
2025-07-09 21:45:34.889,-0.0009462212234593,-3.6124285745301976
2025-07-09 21:45:34.897,-0.0009537289703937,-3.6985811537053808
2025-07-09 21:45:34.905,-0.0009535444692865,-3.7413031217014687
2025-07-09 21:45:34.913,-0.0009457281858302,-3.734339780286173
2025-07-09 21:45:34.921,-0.0009304492609076,-3.672313571307852
2025-07-09 21:45:34.929,-0.0009079818680128,-3.550945776710322
2025-07-09 21:45:34.936,-0.0008786988682246,-3.367247702159234
2025-07-09 21:45:34.944,-0.0008430632556628,-3.119674373028975
2025-07-09 21:45:34.952,-0.0008016179126337,-2.8082351104473906
2025-07-09 21:45:34.960,-0.0007549741860244,-2.4345568749506032
2025-07-09 21:45:34.968,-0.0007037997615434,-2.0018979111153983
2025-07-09 21:45:34.975,-0.0006488062571153,-1.5151109440215893
2025-07-09 21:45:34.983,-0.0005907368881329,-0.9805569178527724
2025-07-09 21:45:34.991,-0.0005303544821287,-0.4059719808904852
2025-07-09 21:45:34.999,-0.0004684300449555,0.1997079445914625
2025-07-09 21:45:35.007,-0.0004057320102219,0.8265591810410932
2025-07-09 21:45:35.014,-0.0003430162429607,1.46391180782404
2025-07-09 21:45:35.022,-0.0002810168206626,2.100612588661474
2025-07-09 21:45:35.030,-0.0002204375819636,2.725300588079297
2025-07-09 21:45:35.038,-0.000161944416243,3.326686468950516
2025-07-09 21:45:35.046,-0.0001061582656738,3.893826560887303
2025-07-09 21:45:35.054,-5.3648823129677e-05,4.41638325870156
2025-07-09 21:45:35.061,-4.928931908468707e-06,4.88486411939687
2025-07-09 21:45:35.069,3.955027742693119e-05,5.290833118279897
2025-07-09 21:45:35.077,7.940344638875318e-05,5.627088823966562
2025-07-09 21:45:35.085,0.0001143141492723,5.88780567463509
2025-07-09 21:45:35.093,0.0001440370413174,6.06863600289223
2025-07-09 21:45:35.100,0.0001683988761422,6.166771891330476
2025-07-09 21:45:35.108,0.0001872982904948,6.18096728271914
2025-07-09 21:45:35.116,0.0002007042962806,6.111521967266075
2025-07-09 21:45:35.124,0.0002086534918848,5.960230085812847
2025-07-09 21:45:35.132,0.0002112461051069,5.7302965913877575
2025-07-09 21:45:35.139,0.0002086410787821,5.4262256774682704
2025-07-09 21:45:35.147,0.0002010504401221,5.053685497489897
2025-07-09 21:45:35.155,0.0001887331181296,4.619353578762295
2025-07-09 21:45:35.163,0.0001719882743483,4.130747216694092
2025-07-09 21:45:35.171,0.0001511482453201,3.596042885325572
2025-07-09 21:45:35.179,0.0001265714022418,3.023888386985434
2025-07-09 21:45:35.186,9.863546660711084e-05,2.4232111509466363
2025-07-09 21:45:35.194,6.7731887868469e-05,1.803025830825295
2025-07-09 21:45:35.202,3.4261754312911804e-05,1.1722441811734463
2025-07-09 21:45:35.210,-1.3665070017307926e-06,0.5394901336172099
2025-07-09 21:45:35.218,-3.873759462538888e-05,-0.0870769627915094
2025-07-09 21:45:35.225,-7.742814999557165e-05,-0.6999278506892863
2025-07-09 21:45:35.233,-0.0001170044035073,-1.2923143820433045
2025-07-09 21:45:35.241,-0.0001570194031173,-1.8584026689676572
2025-07-09 21:45:35.249,-0.0001970107651003,-2.3933849314584688
2025-07-09 21:45:35.257,-0.0002364999390923,-2.8935666667812177
2025-07-09 21:45:35.264,-0.0002749938893154,-3.3564259882805203
2025-07-09 21:45:35.272,-0.0003119898623839,-3.780642393792502
2025-07-09 21:45:35.280,-0.0003469835463599,-4.166092836278926
2025-07-09 21:45:35.288,-0.00037948044357,-4.513813774948527
2025-07-09 21:45:35.296,-0.000409009736021,-4.825928859110038
2025-07-09 21:45:35.304,-0.0004351394447337,-5.105542995025915
2025-07-09 21:45:35.311,-0.0004574914417601,-5.356604707398748
2025-07-09 21:45:35.319,-0.0004757549515031,-5.583739864500148
2025-07-09 21:45:35.327,-0.0004896974999314,-5.792060926163844
2025-07-09 21:45:35.335,-0.000499172676393,-5.986956843408967
2025-07-09 21:45:35.343,-0.000504124443513,-6.173869544255622
2025-07-09 21:45:35.350,-0.000504588018441,-6.358063549335655
2025-07-09 21:45:35.358,-0.0005006875417366,-6.54439565042816
2025-07-09 21:45:35.366,-0.0004926308459674,-6.737091742234502
2025-07-09 21:45:35.374,-0.0004807016413727,-6.939537818079582
2025-07-09 21:45:35.382,-0.0004652493930599,-7.154091827161015
2025-07-09 21:45:35.389,-0.0004466771814675,-7.381922559438774
2025-07-09 21:45:35.397,-0.0004254280315489,-7.622881005433197
2025-07-09 21:45:35.405,-0.0004019705302687,-7.875408776105377
2025-07-09 21:45:35.413,-0.0003767847912025,-8.13648720713005
2025-07-09 21:45:35.421,-0.0003503497423164,-8.401629745504476
2025-07-09 21:45:35.429,-0.0003231323131739,-8.664919143849753
2025-07-09 21:45:35.436,-0.0002955785852027,-8.919089879492056
2025-07-09 21:45:35.444,-0.0002681065459954,-9.15565508038584
2025-07-09 21:45:35.452,-0.0002410998419928,-9.365076090813428
2025-07-09 21:45:35.460,-0.0002149018678058,-9.536971667045377
2025-07-09 21:45:35.468,-0.0001898096663399,-9.66036268691921
2025-07-09 21:45:35.475,-0.0001660674034506,-9.723947223294482
2025-07-09 21:45:35.483,-0.000143859531311,-9.716399901587089
2025-07-09 21:45:35.491,-0.0001233040760278,-9.626688656643717
2025-07-09 21:45:35.499,-0.0001044467310989,-9.444401332957458
2025-07-09 21:45:35.507,-8.725659221264469e-05,-9.160074039507183
2025-07-09 21:45:35.514,-7.16244223211911e-05,-8.765512786413165
2025-07-09 21:45:35.522,-5.736428393032747e-05,-8.2540997130728
2025-07-09 21:45:35.530,-4.421921685501728e-05,-7.621075187410383
2025-07-09 21:45:35.538,-3.1871376767813495e-05,-6.8637872321131645
2025-07-09 21:45:35.546,-1.9956689041778075e-05,-5.981900132141528
2025-07-09 21:45:35.554,-8.083623798303053e-06,-4.977554712155172
2025-07-09 21:45:35.561,4.144819090637232e-06,-3.8554736523416295
2025-07-09 21:45:35.569,1.7107357393547476e-05,-2.623006337643953
2025-07-09 21:45:35.577,3.114076791090081e-05,-1.2901090979371634
2025-07-09 21:45:35.585,4.6518325504100586e-05,0.1307417281250653
2025-07-09 21:45:35.593,6.343212756620926e-05,1.6247047195458597
2025-07-09 21:45:35.600,8.198060042006672e-05,3.174795213737012
2025-07-09 21:45:35.608,0.0001021618844831,4.762171003787734
2025-07-09 21:45:35.616,0.0001238732146483,6.36647680878691
2025-07-09 21:45:35.624,0.0001469159076939,7.966240422654974
2025-07-09 21:45:35.632,0.0001710051607715,9.539311527536729
2025-07-09 21:45:35.639,0.0001957835662319,11.06333242627956
2025-07-09 21:45:35.647,0.0002208370665481,12.516228508800198
2025-07-09 21:45:35.655,0.0002457120133222,13.876705212998411
2025-07-09 21:45:35.663,0.000269932056911,15.12473764128099
2025-07-09 21:45:35.671,0.0002930137748704,16.242038887811734
2025-07-09 21:45:35.679,0.0003144802413358,17.21249353055822
2025-07-09 21:45:35.686,0.0003338721299463,18.02254363056996
2025-07-09 21:45:35.694,0.0003507563844514,18.66151591417754
2025-07-09 21:45:35.702,0.0003647328938877,19.121880519988068
2025-07-09 21:45:35.710,0.0003754398798806,19.39943368319397
2025-07-09 21:45:35.718,0.0003825588025894,19.49339891421938
2025-07-09 21:45:35.725,0.0003858195184272,19.40644352282737
2025-07-09 21:45:35.733,0.0003850061830365,19.144609666874096
2025-07-09 21:45:35.741,0.0003799640318673,18.71716140282867
2025-07-09 21:45:35.749,0.0003706067859492,18.13635143510619
2025-07-09 21:45:35.757,0.0003569241156331,17.417113372406337
2025-07-09 21:45:35.765,0.0003389883983762,16.57668728130658
2025-07-09 21:45:35.772,0.0003169599450978,15.634188158603504
2025-07-09 21:45:35.780,0.000291089944677,14.610128590273897
2025-07-09 21:45:35.788,0.0002617205573985,13.525908276813343
2025-07-09 21:45:35.796,0.0002292818037788,12.40328422293247
2025-07-09 21:45:35.804,0.0001942850936931,11.263836154956724
2025-07-09 21:45:35.811,0.0001573134570209,10.128442089596112
2025-07-09 21:45:35.819,0.0001190088105385,9.01677889282959
2025-07-09 21:45:35.827,8.005684518988175e-05,7.946862114472659
2025-07-09 21:45:35.835,4.11702192691333e-05,6.934638359730612
2025-07-09 21:45:35.843,3.0707009749935286e-06,5.993641979739127
2025-07-09 21:45:35.850,-3.352916515916111e-05,5.13472596180558
2025-07-09 21:45:35.858,-6.794431552587336e-05,4.365874627581678
2025-07-09 21:45:35.866,-9.953480211861208e-05,3.692103172716711
2025-07-09 21:45:35.874,-0.0001277222918939,3.1154462883166043
2025-07-09 21:45:35.882,-0.0001520049417428,2.635035185781273
2025-07-09 21:45:35.890,-0.000171970132392,2.247259402225391
2025-07-09 21:45:35.897,-0.0001873045452427,1.9460069015678625
2025-07-09 21:45:35.905,-0.0001978012172477,1.72297332353258
2025-07-09 21:45:35.913,-0.0002033635038762,1.568028892180205
2025-07-09 21:45:35.921,-0.0002040061946414,1.469629596189914
2025-07-09 21:45:35.929,-0.0001998542507774,1.4152578963405409
2025-07-09 21:45:35.936,-0.000191139729637,1.3918774719882514
2025-07-09 21:45:35.944,-0.0001781974216276,1.386386417168814
2025-07-09 21:45:35.952,-0.0001614595597614,1.3860538229713268
2025-07-09 21:45:35.960,-0.0001414496859836,1.378925781706395
2025-07-09 21:45:35.968,-0.0001187754253509,1.3541884390978556
2025-07-09 21:45:35.975,-9.411964818471614e-05,1.3024777090063429
2025-07-09 21:45:35.983,-6.822942423532234e-05,1.2161275534103904
2025-07-09 21:45:35.991,-4.190230379859471e-05,1.0893512209163996
2025-07-09 21:45:35.999,-1.5969678966595958e-05,0.9183524307697069
2025-07-09 21:45:36.007,8.72279676597632e-06,0.7013660856719716
2025-07-09 21:45:36.015,3.133748375483577e-05,0.4386305990531552
2025-07-09 21:45:36.022,5.106913846762708e-05,0.1322962420266372
2025-07-09 21:45:36.030,6.717046190700407e-05,-0.2137240305931337
2025-07-09 21:45:36.038,7.897759198613737e-05,-0.5939531047005631
2025-07-09 21:45:36.046,8.593415233248993e-05,-1.001588109393159
2025-07-09 21:45:36.054,8.761243507748454e-05,-1.4287683774140805
2025-07-09 21:45:36.061,8.373039588419718e-05,-1.86686226687137
2025-07-09 21:45:36.069,7.416337696112433e-05,-2.306762233998613
2025-07-09 21:45:36.077,5.894983970496328e-05,-2.739178067970209
2025-07-09 21:45:36.085,3.829084354578566e-05,-3.154919108419366
2025-07-09 21:45:36.093,1.2543466356171669e-05,-3.545157496680804
2025-07-09 21:45:36.100,-1.7791266005820323e-05,-3.901665974472148
2025-07-09 21:45:36.108,-5.208512667113718e-05,-4.21702533781848
2025-07-09 21:45:36.116,-8.960317770400611e-05,-4.484798276804985
2025-07-09 21:45:36.124,-0.0001295270756707,-4.699667886651714
2025-07-09 21:45:36.132,-0.0001709803586868,-4.8575405394352025
2025-07-09 21:45:36.140,-0.0002130549719212,-4.955613997069354
2025-07-09 21:45:36.147,-0.0002548382950889,-4.992412590470363
2025-07-09 21:45:36.155,-0.0002954398277686,-4.967791977706958
2025-07-09 21:45:36.163,-0.0003340165015366,-4.882916433920692
2025-07-09 21:45:36.171,-0.0003697954365756,-4.7402118379138445
2025-07-09 21:45:36.179,-0.0004020930021203,-4.543297532533072
2025-07-09 21:45:36.186,-0.0004303293509997,-4.296900083769045
2025-07-09 21:45:36.194,-0.0004540380951994,-4.00675169014428
2025-07-09 21:45:36.202,-0.0004728713069566,-3.679475648271545
2025-07-09 21:45:36.210,-0.0004866004464352,-3.32246091109346
2025-07-09 21:45:36.218,-0.0004951140846686,-2.943727425931003
2025-07-09 21:45:36.225,-0.0004984133995653,-2.551783647128582
2025-07-09 21:45:36.233,-0.0004966063751961,-2.155477412076284
2025-07-09 21:45:36.241,-0.0004899014380654,-1.7638412685750078
2025-07-09 21:45:36.249,-0.0004786009372301,-1.385933353521802
2025-07-09 21:45:36.257,-0.0004630944735548,-1.030675047448034
2025-07-09 21:45:36.265,-0.0004438517297081,-0.7066868613281996
2025-07-09 21:45:36.272,-0.0004214142833173,-0.4221243399166551
2025-07-09 21:45:36.280,-0.0003963859175671,-0.1845161691482507
2025-07-09 21:45:36.288,-0.0003694210615613,-0.0006071232270074
2025-07-09 21:45:36.296,-0.0003412111214674,0.1237910593374213
2025-07-09 21:45:36.304,-0.0003124686446667,0.1839373673431867
2025-07-09 21:45:36.311,-0.0002839095268675,0.1762839453851688
2025-07-09 21:45:36.319,-0.0002562337706589,0.0985792335694367
2025-07-09 21:45:36.327,-0.0002301055541359,-0.0500522294127082
2025-07-09 21:45:36.335,-0.0002061335294605,-0.2690572067116641
2025-07-09 21:45:36.343,-0.0001848523322927,-0.5564318314127175
2025-07-09 21:45:36.350,-0.0001667062409468,-0.9087331763076718
2025-07-09 21:45:36.358,-0.0001520357788893,-1.3211263097544377
2025-07-09 21:45:36.366,-0.000141067808855,-1.7874677762479427
2025-07-09 21:45:36.374,-0.0001339093329374,-2.3004252354595454
2025-07-09 21:45:36.382,-0.0001305448370665,-2.851631676162888
2025-07-09 21:45:36.390,-0.0001308367178931,-3.43187124508802
2025-07-09 21:45:36.397,-0.0001345282626047,-4.03129235787723
2025-07-09 21:45:36.405,-0.0001412488853309,-4.639642465574807
2025-07-09 21:45:36.413,-0.0001505217365592,-5.246517721761509
2025-07-09 21:45:36.421,-0.0001617741538054,-5.841619917381825
2025-07-09 21:45:36.429,-0.0001743515390425,-6.415012490597568
2025-07-09 21:45:36.436,-0.0001875351277939,-6.957367219819506
2025-07-09 21:45:36.444,-0.0002005638323521,-7.460193385256893
2025-07-09 21:45:36.452,-0.0002126599370701,-7.916041731117059
2025-07-09 21:45:36.460,-0.0002230579421808,-8.318676450916263
2025-07-09 21:45:36.468,-0.0002310353966386,-8.663209608971622
2025-07-09 21:45:36.475,-0.0002359442218467,-8.946193843345723
2025-07-09 21:45:36.483,-0.0002372408415886,-9.165670797058658
2025-07-09 21:45:36.491,-0.0002345133863278,-9.321174412586714
2025-07-09 21:45:36.499,-0.0002275042673,-9.413689911990504
2025-07-09 21:45:36.507,-0.0002161264725978,-9.445570886267232
2025-07-09 21:45:36.515,-0.0002004721025166,-9.420418357343127
2025-07-09 21:45:36.522,-0.0001808120534547,-9.342926895691752
2025-07-09 21:45:36.530,-0.0001575863659807,-9.21870383695564
2025-07-09 21:45:36.538,-0.0001313854401486,-9.054068321331412
2025-07-09 21:45:36.546,-0.000102922969642,-8.855837273185331
2025-07-09 21:45:36.554,-7.300200137409297e-05,-8.63110555088918
2025-07-09 21:45:36.561,-4.2475969308477344e-05,-8.387027345402453
2025-07-09 21:45:36.569,-1.2206869636091186e-05,-8.13060551791777
2025-07-09 21:45:36.577,1.6977068565943844e-05,-7.868494975962287
2025-07-09 21:45:36.585,4.432181175990468e-05,-7.606825432234392
2025-07-09 21:45:36.593,6.918372939928934e-05,-7.351048013987055
2025-07-09 21:45:36.600,9.10594800904482e-05,-7.10580923882404
2025-07-09 21:45:36.608,0.0001096078246462,-6.874854888880845
2025-07-09 21:45:36.616,0.0001246620825941,-6.660965333716206
2025-07-09 21:45:36.624,0.0001362325248767,-6.465922895055588
2025-07-09 21:45:36.632,0.0001444986642371,-6.290510927705567
2025-07-09 21:45:36.640,0.0001497921425267,-6.1345434215758505
2025-07-09 21:45:36.647,0.000152571662532,-5.996923120426585
2025-07-09 21:45:36.655,0.0001533920419115,-5.875725413169013
2025-07-09 21:45:36.663,0.000152869810337,-5.768304590857934
2025-07-09 21:45:36.671,0.0001516477448548,-5.67141848369701
2025-07-09 21:45:36.679,0.0001503604229355,-5.581367005894139
2025-07-09 21:45:36.686,0.0001496024325906,-5.494139754402197
2025-07-09 21:45:36.694,0.0001499004395554,-5.405567547552774
2025-07-09 21:45:36.702,0.000151689926895,-5.311472672952918
2025-07-09 21:45:36.710,0.0001552971108681,-5.2078126649275305
2025-07-09 21:45:36.718,0.000160926307628,-5.090812670189936
2025-07-09 21:45:36.725,0.0001686528834662,-4.957081891048869
2025-07-09 21:45:36.733,0.0001784218625633,-4.803710201862928
2025-07-09 21:45:36.741,0.0001900522504943,-4.628341786015914
2025-07-09 21:45:36.749,0.0002032470526673,-4.429223507396424
2025-07-09 21:45:36.757,0.0002176087044399,-4.205226692579621
2025-07-09 21:45:36.765,0.0002326591892948,-3.9558420468501647
2025-07-09 21:45:36.772,0.000247863666236,-3.681148547654889
2025-07-09 21:45:36.780,0.0002626561218635,-3.381758330810342
2025-07-09 21:45:36.788,0.0002764654531708,-3.058740767080484
2025-07-09 21:45:36.796,0.0002887404659075,-2.713530057750838
2025-07-09 21:45:36.804,0.0002989725475425,-2.3478216777784437
2025-07-09 21:45:36.811,0.0003067151959288,-1.9634637751994324
2025-07-09 21:45:36.819,0.0003115999897898,-1.5623501104349418
2025-07-09 21:45:36.827,0.0003133488118878,-1.1463212190648349
2025-07-09 21:45:36.835,0.000311782175014,-0.7170801611167912
2025-07-09 21:45:36.843,0.0003068234755063,-0.2761284649875542
2025-07-09 21:45:36.850,0.000298499016528,0.1752732924527834
2025-07-09 21:45:36.858,0.0002869337457303,0.6361173443225571
2025-07-09 21:45:36.866,0.0002723428457247,1.10563187247848
2025-07-09 21:45:36.874,0.0002550195986348,1.583236157990283
2025-07-09 21:45:36.882,0.000235320306413,2.068470345431903
2025-07-09 21:45:36.890,0.0002136474395066,2.5609041362777565
2025-07-09 21:45:36.897,0.0001904324890953,3.060030161183218
2025-07-09 21:45:36.905,0.0001661200534729,3.565148842217072
2025-07-09 21:45:36.913,0.000141154421973,4.075252183597125
2025-07-09 21:45:36.921,0.0001159694167851,4.58891409879918
2025-07-09 21:45:36.929,9.098168414834892e-05,5.104194600294392
2025-07-09 21:45:36.936,6.658712070360306e-05,5.618564477278445
2025-07-09 21:45:36.944,4.315973446968524e-05,6.128856019481934
2025-07-09 21:45:36.952,2.1051992049322247e-05,6.631243985729082
2025-07-09 21:45:36.960,5.956025060192175e-07,7.121259456242008
2025-07-09 21:45:36.968,-1.7898263518413393e-05,7.593837546723259
2025-07-09 21:45:36.975,-3.41401265099546e-05,8.0433982937808
2025-07-09 21:45:36.983,-4.78651976814177e-05,8.463958426322483
2025-07-09 21:45:36.991,-5.8838250196549664e-05,8.849270282235713
2025-07-09 21:45:36.999,-6.685987427440312e-05,9.192982866224304
2025-07-09 21:45:37.007,-7.177318247638367e-05,9.488819014209673
2025-07-09 21:45:37.015,-7.346982148015376e-05,9.730761865101346
2025-07-09 21:45:37.022,-7.189425824740443e-05,9.913243367997888
2025-07-09 21:45:37.030,-6.704566513145787e-05,10.031327390195502
2025-07-09 21:45:37.038,-5.897716942551518e-05,10.080880146639949
2025-07-09 21:45:37.046,-4.77926374367768e-05,10.0587211391233
2025-07-09 21:45:37.054,-3.364148208485919e-05,9.962748552899036
2025-07-09 21:45:37.061,-1.671220248984937e-05,9.79203407471596
2025-07-09 21:45:37.069,2.774520727317344e-06,9.5468833233565
2025-07-09 21:45:37.077,2.4572340773134027e-05,9.228859465889236
2025-07-09 21:45:37.085,4.841462989524913e-05,8.840769066738444
2025-07-09 21:45:37.093,7.40181835986706e-05,8.38661071527967
2025-07-09 21:45:37.100,0.0001010849652842,7.871488434578964
2025-07-09 21:45:37.108,0.0001293019234152,7.301493225565611
2025-07-09 21:45:37.116,0.000158339179668,6.683557286646619
2025-07-09 21:45:37.124,0.000187847049305,6.025286412142025
2025-07-09 21:45:37.132,0.0002174524504138,5.334776768440444
2025-07-09 21:45:37.140,0.0002467553577824,4.6204226489603535
2025-07-09 21:45:37.147,0.00027532605583,3.890721916195728
2025-07-09 21:45:37.155,0.0003027039960302,3.1540856689618084
2025-07-09 21:45:37.163,0.0003283990651597,2.4186582562151755
2025-07-09 21:45:37.171,0.0003518960315813,1.6921531372476804
2025-07-09 21:45:37.179,0.000372662810218,0.9817093121360326
2025-07-09 21:45:37.186,0.0003901629074678,0.29377216732401
2025-07-09 21:45:37.194,0.0004038719854996,-0.3659983595469887
2025-07-09 21:45:37.202,0.00041329801263,-0.9927903675814584
2025-07-09 21:45:37.210,0.0004180040368051,-1.5826724023517809
2025-07-09 21:45:37.218,0.0004176322827288,-2.132595765346052
2025-07-09 21:45:37.225,0.0004119280504657,-2.6403678134535333
2025-07-09 21:45:37.233,0.000400761796246,-3.104598341328655
2025-07-09 21:45:37.241,0.0003841478127832,-3.5246221087810268
2025-07-09 21:45:37.249,0.0003622581006594,-3.900401475177584
2025-07-09 21:45:37.257,0.0003354303284865,-4.232413887942832
2025-07-09 21:45:37.265,0.0003041691753247,-4.521529597355681
2025-07-09 21:45:37.272,0.000269140724647,-4.768885397144408
2025-07-09 21:45:37.280,0.0002311598157358,-4.975760390426031
2025-07-09 21:45:37.288,0.0001911703815181,-5.143459729740102
2025-07-09 21:45:37.296,0.0001502190022877,-5.273211961869321
2025-07-09 21:45:37.304,0.0001094222999289,-5.366085020509163
2025-07-09 21:45:37.311,6.992925992159057e-05,-5.4229250701707326
2025-07-09 21:45:37.319,3.2879897760527887e-05,-5.444321348738751
2025-07-09 21:45:37.327,-6.381536321907811e-07,-5.430598931905257
2025-07-09 21:45:37.335,-2.9633459984150225e-05,-5.381840006452457
2025-07-09 21:45:37.343,-5.325319893359964e-05,-5.297932853297404
2025-07-09 21:45:37.350,-7.082220307518128e-05,-5.178646370225235
2025-07-09 21:45:37.358,-8.187655383733689e-05,-5.023726671509655
2025-07-09 21:45:37.366,-8.618967582104862e-05,-4.8330111455674345
2025-07-09 21:45:37.374,-8.378908861566477e-05,-4.606554384058039
2025-07-09 21:45:37.382,-7.496236040458312e-05,-4.344759659346045
2025-07-09 21:45:37.390,-6.02513702637871e-05,-4.048509155422057
2025-07-09 21:45:37.397,-4.04346811772578e-05,-3.719285975057412
2025-07-09 21:45:37.405,-1.6498557620061542e-05,-3.359281069185193
2025-07-09 21:45:37.413,1.0402161949475496e-05,-2.971478666488507
2025-07-09 21:45:37.421,3.899155386444548e-05,-2.559714506605124
2025-07-09 21:45:37.429,6.792622307323426e-05,-2.12870216324859
2025-07-09 21:45:37.436,9.585248422872372e-05,-1.6840239327964683
2025-07-09 21:45:37.444,0.0001214643683045,-1.2320841050023812
2025-07-09 21:45:37.452,0.0001435596705127,-0.7800238781167786
2025-07-09 21:45:37.460,0.0001610913552135,-0.3355986929269016
2025-07-09 21:45:37.468,0.0001732118738482,0.0929796951929637
2025-07-09 21:45:37.475,0.0001793083277591,0.4972325486095082
2025-07-09 21:45:37.483,0.0001790269111835,0.8686295419549811
2025-07-09 21:45:37.491,0.0001722856897938,1.1988235043084552
2025-07-09 21:45:37.499,0.000159275487541,1.4798965993313684
2025-07-09 21:45:37.507,0.0001404494148624,1.7046090809957053
2025-07-09 21:45:37.515,0.000116502249094,1.86664111218442
2025-07-09 21:45:37.522,8.834130788254015e-05,1.9608178365370208
2025-07-09 21:45:37.530,5.705055736639387e-05,1.983307992690444
2025-07-09 21:45:37.538,2.3849549730589143e-05,1.931786889222542
2025-07-09 21:45:37.546,-9.9514462726479e-06,1.8055555443268667
2025-07-09 21:45:37.554,-4.299895007419467e-05,1.6056092464215448
2025-07-09 21:45:37.561,-7.394534014594452e-05,1.3346506912630205
2025-07-09 21:45:37.569,-0.0001014984225921,0.9970451386934313
2025-07-09 21:45:37.577,-0.0001244703266435,0.5987176065098491
2025-07-09 21:45:37.585,-0.0001418243603219,0.1469948424479511
2025-07-09 21:45:37.593,-0.0001527182123494,-0.3496024739762982
2025-07-09 21:45:37.600,-0.0001565416768681,-0.881609322255382
2025-07-09 21:45:37.608,-0.0001529470004537,-1.4388975743997618
2025-07-09 21:45:37.616,-0.0001418700493647,-2.010977051119226
2025-07-09 21:45:37.624,-0.0001235407746445,-2.587303526317064
2025-07-09 21:45:37.632,-9.848191359935771e-05,-3.1575804350377634
2025-07-09 21:45:37.640,-6.749547005627177e-05,-3.712041373982089
2025-07-09 21:45:37.647,-3.163717109206635e-05,-4.241701498252176
2025-07-09 21:45:37.655,7.820283533054854e-06,-4.738567547282818
2025-07-09 21:45:37.663,4.943382553835798e-05,-5.195798373455757
2025-07-09 21:45:37.671,9.164468116602328e-05,-5.607810367300612
2025-07-09 21:45:37.679,0.0001328389616377,-5.970324926939258
2025-07-09 21:45:37.686,0.0001714118174444,-6.28035795427795
2025-07-09 21:45:37.694,0.0002058326372348,-6.536154123909829
2025-07-09 21:45:37.702,0.0002347086267735,-6.7370712164357895
2025-07-09 21:45:37.710,0.0002568439316752,-6.883422005787346
2025-07-09 21:45:37.718,0.0002712913545137,-6.976282937178086
2025-07-09 21:45:37.725,0.0002773938233216,-7.017280059353274
2025-07-09 21:45:37.733,0.0002748131743022,-7.008363346432393
2025-07-09 21:45:37.741,0.0002635444693478,-6.951580656071389
2025-07-09 21:45:37.749,0.0002439148965799,-6.848862145808315
2025-07-09 21:45:37.757,0.0002165672444513,-6.701825059946743
2025-07-09 21:45:37.765,0.0001824289327352,-6.511607481624591
2025-07-09 21:45:37.772,0.00014266849633,-6.278738013151383
2025-07-09 21:45:37.780,9.864207907490892e-05,-6.0030465053929705
2025-07-09 21:45:37.788,5.183281703970944e-05,-5.683619007839908
2025-07-09 21:45:37.796,3.786047850836684e-06,-5.318798153401238
2025-07-09 21:45:37.804,-4.3956768583214254e-05,-4.906228312346462
2025-07-09 21:45:37.811,-8.992258202943388e-05,-4.442943116587474
2025-07-09 21:45:37.819,-0.000132766937873,-3.925491417024306
2025-07-09 21:45:37.827,-0.000171327111444,-3.3500964244787825
2025-07-09 21:45:37.835,-0.0002046657136523,-2.712841718174884
2025-07-09 21:45:37.843,-0.0002321026835134,-2.0098769949917124
2025-07-09 21:45:37.850,-0.0002532341324721,-1.2376358811512107
2025-07-09 21:45:37.858,-0.0002679371998871,-0.393057835989819
2025-07-09 21:45:37.866,-0.0002763608708133,0.5261938542845136
2025-07-09 21:45:37.874,-0.0002789034973726,1.521525767476208
2025-07-09 21:45:37.882,-0.0002761784604722,2.5932270186041237
2025-07-09 21:45:37.890,-0.0002689699680415,3.740307509869445
2025-07-09 21:45:37.897,-0.0002581814261454,4.96036745629978
2025-07-09 21:45:37.905,-0.0002447792032607,6.24950283643308
2025-07-09 21:45:37.913,-0.0002297349721463,7.60225025413253
2025-07-09 21:45:37.921,-0.0002139700750323,9.011573465310253
2025-07-09 21:45:37.929,-0.0001983053596096,10.46889257063531
2025-07-09 21:45:37.936,-0.0001834196014814,11.96415564716354
2025-07-09 21:45:37.944,-0.0001698190178023,13.485951420085502
2025-07-09 21:45:37.952,-0.0001578195766435,15.021660476795642
2025-07-09 21:45:37.960,-0.0001475428749081,16.557641506834877
2025-07-09 21:45:37.968,-0.0001389253343594,18.0794481211734
2025-07-09 21:45:37.975,-0.0001317394200994,19.572070976283214
2025-07-09 21:45:37.983,-0.0001256246587527,21.02019922015482
2025-07-09 21:45:37.991,-0.0001201256036062,22.40849470858917
2025-07-09 21:45:37.999,-0.0001147336543674,23.721872032585942
2025-07-09 21:45:38.007,-0.0001089297194222,24.94577717353048
2025-07-09 21:45:38.015,-0.0001022249575025,26.066457577388764
2025-07-09 21:45:38.022,-9.419716763882774e-05,27.071216614078292
2025-07-09 21:45:38.030,-8.452083134933148e-05,27.948645754702905
2025-07-09 21:45:38.038,-7.298937781681657e-05,28.68882834833042
2025-07-09 21:45:38.046,-5.952888581957245e-05,29.2835096090142
2025-07-09 21:45:38.054,-4.420308727180094e-05,29.72622833342561
2025-07-09 21:45:38.061,-2.7210214431116583e-05,30.012406954735837
2025-07-09 21:45:38.069,-8.87292650561962e-06,30.139397782261284
2025-07-09 21:45:38.077,1.0376915348418002e-05,30.106484647359142
2025-07-09 21:45:38.085,3.0016691650015712e-05,29.914840628405155
2025-07-09 21:45:38.093,4.9452988151753694e-05,29.56744400432565
2025-07-09 21:45:38.100,6.804188294735098e-05,29.068956023128244
2025-07-09 21:45:38.108,8.510896992528962e-05,28.42556540291186
2025-07-09 21:45:38.116,9.99690778233948e-05,27.64480564214652
2025-07-09 21:45:38.124,0.0001119459509183,26.735352138312702
2025-07-09 21:45:38.132,0.0001203921381645,25.70680673506365
2025-07-09 21:45:38.140,0.0001247090697092,24.569477581430743
2025-07-09 21:45:38.147,0.0001243669459658,23.334162055756437
2025-07-09 21:45:38.155,0.0001189237487184,22.01193997535609
2025-07-09 21:45:38.163,0.000108042459453,20.61398340527701
2025-07-09 21:45:38.171,9.150545569000468e-05,19.151388150176327
2025-07-09 21:45:38.179,6.922506116045179e-05,17.635030545635416
2025-07-09 21:45:38.186,4.124935606318614e-05,16.07545156984452
2025-07-09 21:45:38.194,7.76261103841382e-06,14.482768699288654
2025-07-09 21:45:38.202,-3.091990976540279e-05,12.866614451707813
2025-07-09 21:45:38.210,-7.436253766720835e-05,11.236099289471158
2025-07-09 21:45:38.218,-0.0001220243855161,9.599795560027411
2025-07-09 21:45:38.225,-0.0001732778388934,7.965738467626394
2025-07-09 21:45:38.233,-0.0002274287856046,6.341439724456018
2025-07-09 21:45:38.241,-0.0002837370439563,4.733909521967807
2025-07-09 21:45:38.249,-0.0003414356991658,3.149682772825853
2025-07-09 21:45:38.257,-0.0003997483643935,1.594846154908773
2025-07-09 21:45:38.265,-0.0004579036324184,0.0750632740887356
2025-07-09 21:45:38.272,-0.00051514616549,-1.4044038311473304
2025-07-09 21:45:38.280,-0.0005707440797383,-2.8386776837321173
2025-07-09 21:45:38.288,-0.0006239926602491,-4.223252822809132
2025-07-09 21:45:38.296,-0.0006742150506099,-5.553986936761274
2025-07-09 21:45:38.304,-0.00072076126258,-6.827094337532831
2025-07-09 21:45:38.311,-0.0007630073653732,-8.039140109158684
2025-07-09 21:45:38.319,-0.0008003567703448,-9.187033170801474
2025-07-09 21:45:38.327,-0.0008322450509887,-10.268016635352437
2025-07-09 21:45:38.335,-0.000858148928232,-11.279654198993365
2025-07-09 21:45:38.343,-0.000877599241644,-12.219811830791894
2025-07-09 21:45:38.350,-0.0008901971350621,-13.086634698785538
2025-07-09 21:45:38.358,-0.0008956322988862,-13.87852001618506
2025-07-09 21:45:38.366,-0.0008937018103172,-14.59408725626122
2025-07-09 21:45:38.374,-0.000884327843867,-15.232147896598338
2025-07-09 21:45:38.382,-0.0008675723737558,-15.7916774378675
2025-07-09 21:45:38.390,-0.0008436471151902,-16.271792830388144
2025-07-09 21:45:38.397,-0.0008129174259749,-16.671738581914973
2025-07-09 21:45:38.405,-0.0007758995965982,-16.990884682086865
2025-07-09 21:45:38.413,-0.000733251652352,-17.22873905145215
2025-07-09 21:45:38.421,-0.0006857582752642,-17.384976511904295
2025-07-09 21:45:38.429,-0.0006343106849606,-17.459485308468146
2025-07-09 21:45:38.436,-0.0005798823977835,-17.4524310450195
2025-07-09 21:45:38.444,-0.0005235018622464,-17.364336610863607
2025-07-09 21:45:38.452,-0.0004662231195671,-17.196175370998116
2025-07-09 21:45:38.460,-0.000409095763463,-16.94947367584849
2025-07-09 21:45:38.468,-0.0003531353847819,-16.626417717779248
2025-07-09 21:45:38.475,-0.0002992953468104,-16.229959011253058
2025-07-09 21:45:38.483,-0.0002484403536801,-15.76391236915106
2025-07-09 21:45:38.491,-0.0002013220817747,-15.233040226452458
2025-07-09 21:45:38.499,-0.0001585571805341,-14.643117525010677
2025-07-09 21:45:38.507,-0.0001206080977028,-14.000972085545309
2025-07-09 21:45:38.515,-8.77673333279417e-05,-13.314496393180413
2025-07-09 21:45:38.522,-6.0145828580271785e-05,-12.592627931504795
2025-07-09 21:45:38.530,-3.766623486871547e-05,-11.845296532166136
2025-07-09 21:45:38.538,-2.006177791158134e-05,-11.083338580125682
2025-07-09 21:45:38.546,-6.881324726256415e-06,-10.31837925162918
2025-07-09 21:45:38.554,2.4989243049361438e-06,-9.562685190040384
2025-07-09 21:45:38.561,8.856961374918594e-06,-8.828991078252528
2025-07-09 21:45:38.569,1.3099900165315078e-05,-8.130304393260683
2025-07-09 21:45:38.577,1.6232899735186938e-05,-7.479693197925661
2025-07-09 21:45:38.585,1.9323106034567195e-05,-6.890062132757773
2025-07-09 21:45:38.593,2.3460001580360906e-05,-6.373921837574162
2025-07-09 21:45:38.601,2.971376840114869e-05,-5.943156898340944
2025-07-09 21:45:38.608,3.909329819336396e-05,-5.608797128854649
2025-07-09 21:45:38.616,5.2505364317989045e-05,-5.380796616967677
2025-07-09 21:45:38.624,7.071630883685474e-05,-5.267824548812074
2025-07-09 21:45:38.632,9.431754308519687e-05,-5.27707142384647
2025-07-09 21:45:38.640,0.000123696258679,-5.414073927289188
2025-07-09 21:45:38.647,0.00015901283763,-5.682561456136137
2025-07-09 21:45:38.655,0.0002001863315553,-6.084327104497698
2025-07-09 21:45:38.663,0.0002468890203349,-6.619125791341714
2025-07-09 21:45:38.671,0.0002985505774975,-7.284602131389882
2025-07-09 21:45:38.679,0.0003543718741249,-8.076250565364974
2025-07-09 21:45:38.686,0.0004133479920785,-8.987410126226058
2025-07-09 21:45:38.694,0.0004742996044829,-10.009295972243876
2025-07-09 21:45:38.702,0.0005359115237056,-11.131069429687768
2025-07-09 21:45:38.710,0.0005967769205551,-12.33994774252615
2025-07-09 21:45:38.718,0.0006554454882191,-13.621354026910645
2025-07-09 21:45:38.726,0.0007104736649081,-14.959107090303403
2025-07-09 21:45:38.733,0.0007604749439206,-16.33564982504169
2025-07-09 21:45:38.741,0.0008041682918667,-17.73231385704444
2025-07-09 21:45:38.749,0.0008404227673446,-19.129617056874803
2025-07-09 21:45:38.757,0.0008682965849185,-20.507589434026738
2025-07-09 21:45:38.765,0.000887069103313,-21.846121864758672
2025-07-09 21:45:38.772,0.0008962645316625,-23.125331078251907
2025-07-09 21:45:38.780,0.000895666541405,-24.32593337719592
2025-07-09 21:45:38.788,0.0008853234349074,-25.42961873102356
2025-07-09 21:45:38.796,0.0008655440175456,-26.419416188494743
2025-07-09 21:45:38.804,0.0008368847665191,-27.280041050191937
2025-07-09 21:45:38.811,0.0008001292026374,-27.998213965580348
2025-07-09 21:45:38.819,0.0007562605247413,-28.56294212474352
2025-07-09 21:45:38.827,0.0007064285989938,-28.9657530566122
2025-07-09 21:45:38.835,0.0006519123869626,-29.200872275004503
2025-07-09 21:45:38.843,0.0005940789328809,-29.26533716781009
2025-07-09 21:45:38.851,0.0005343401243983,-29.1590411120862
2025-07-09 21:45:38.858,0.0004741085208137,-28.88470379058464
2025-07-09 21:45:38.866,0.0004147535674816,-28.447766018488167
2025-07-09 21:45:38.874,0.0003575595355498,-27.8562099711633
2025-07-09 21:45:38.882,0.0003036866074481,-27.120308427283767
2025-07-09 21:45:38.890,0.0002541366615012,-26.25230938961758
2025-07-09 21:45:38.897,0.0002097253839369,-25.26606509144175
2025-07-09 21:45:38.905,0.0001710621957216,-24.176616804839487
2025-07-09 21:45:38.913,0.0001385390491661,-22.99974890069088
2025-07-09 21:45:38.921,0.000112328509359,-21.751527140316263
2025-07-09 21:45:38.929,9.239085451544644e-05,-20.447837098113236
2025-07-09 21:45:38.936,7.848933157693193e-05,-19.10393884880437
2025-07-09 21:45:38.944,7.021223991215888e-05,-17.73405356971175
2025-07-09 21:45:38.952,6.700020056744883e-05,-16.350996522312105
2025-07-09 21:45:38.960,6.81768045519361e-05,-14.96586905035889
2025-07-09 21:45:38.968,7.298081954675217e-05,-13.587819870660937
2025-07-09 21:45:38.976,8.059826405339332e-05,-12.22388317952147
2025-07-09 21:45:38.983,9.019292097588297e-05,-10.8788981155114
2025-07-09 21:45:38.991,0.0001009342448114,-9.555511071313836
2025-07-09 21:45:38.999,0.0001120220951711,-8.25425938113013
2025-07-09 21:45:39.007,0.0001227082466536,-6.973732145317026
2025-07-09 21:45:39.015,0.0001323150532626,-5.710801478535687
2025-07-09 21:45:39.022,0.0001402518234247,-4.460915339467489
2025-07-09 21:45:39.030,0.0001460293404198,-3.2184413502601807
2025-07-09 21:45:39.038,0.0001492726938467,-1.9770496496203247
2025-07-09 21:45:39.046,0.0001497323762476,-0.7301218315998564
2025-07-09 21:45:39.054,0.0001472934879803,0.528827622056061
2025-07-09 21:45:39.061,0.0001419827771892,1.8057313268744748
2025-07-09 21:45:39.069,0.0001339730581251,3.105564311984105
2025-07-09 21:45:39.077,0.0001235843536157,4.431968265514549
2025-07-09 21:45:39.085,0.0001112809774972,5.786917656720164
2025-07-09 21:45:39.093,9.76637516957436e-05,7.170439679497062
2025-07-09 21:45:39.101,8.34566509977248e-05,8.58039858904449
2025-07-09 21:45:39.108,6.948738703822686e-05,10.012353255556246
2025-07-09 21:45:39.116,5.666177760851195e-05,11.45949465224229
2025-07-09 21:45:39.124,4.593218912687534e-05,12.912667572101942
2025-07-09 21:45:39.132,3.826086999417669e-05,14.36047819643374
2025-07-09 21:45:39.140,3.457956033433747e-05,15.78948630648832
2025-07-09 21:45:39.147,3.5747273422302786e-05,17.18447804210105
2025-07-09 21:45:39.155,4.250849540845645e-05,18.52881228181012
2025-07-09 21:45:39.163,5.545419494767663e-05,19.804831063296948
2025-07-09 21:45:39.171,7.498796357183652e-05,20.994322087692016
2025-07-09 21:45:39.179,0.0001012993181692,22.079019347972224
2025-07-09 21:45:39.186,0.0001343457247714,23.041126364249607
2025-07-09 21:45:39.194,0.0001738443379124,23.86384545296893
2025-07-09 21:45:39.202,0.0002192738791343,24.53189594207729
2025-07-09 21:45:39.210,0.0002698865453556,25.032004295190628
2025-07-09 21:45:39.218,0.000324729357857,25.353349736037952
2025-07-09 21:45:39.226,0.0003826739434474,25.48795016573832
2025-07-09 21:45:39.233,0.0004424533872154,25.43097491726333
2025-07-09 21:45:39.241,0.0005027045159602,25.18097314935872
2025-07-09 21:45:39.249,0.0005620137664973,24.74000937621429
2025-07-09 21:45:39.257,0.0006189646660452,24.113700664823725
2025-07-09 21:45:39.265,0.0006721849043578,23.311153297413497
2025-07-09 21:45:39.272,0.0007203910098842,22.34480006941265
2025-07-09 21:45:39.280,0.0007624287549001,21.230142745151497
2025-07-09 21:45:39.288,0.0007973076063429,19.985407390785543
2025-07-09 21:45:39.296,0.0008242278081865,18.63112321719501
2025-07-09 21:45:39.304,0.0008425990247953,17.189638080324823
2025-07-09 21:45:39.311,0.0008520498888361,15.684585813356064
2025-07-09 21:45:39.319,0.0008524282766826,14.140322042254011
2025-07-09 21:45:39.327,0.0008437926719593,12.58134602380388
2025-07-09 21:45:39.335,0.0008263955599884,11.031726320911346
2025-07-09 21:45:39.343,0.0008006603745814,9.514547789190232
2025-07-09 21:45:39.351,0.0007671539760057,8.051396407887985
2025-07-09 21:45:39.358,0.0007265568181948,6.6618969865449005
2025-07-09 21:45:39.366,0.0006796327923575,5.363316780585177
2025-07-09 21:45:39.374,0.0006272003036751,4.170245641232055
2025-07-09 21:45:39.382,0.0005701056221768,3.094360611142914
2025-07-09 21:45:39.390,0.0005091990816248,2.144279967793496
2025-07-09 21:45:39.397,0.000445314341844,1.3255087217777848
2025-07-09 21:45:39.405,0.0003792507033504,0.6404746010259924
2025-07-09 21:45:39.413,0.0003117583798557,0.0886506931083083
2025-07-09 21:45:39.421,0.0002435266938863,-0.3332417285305835
2025-07-09 21:45:39.429,0.0001751753244603,-0.6309590129367085
2025-07-09 21:45:39.436,0.0001072488900514,-0.81240036070271
2025-07-09 21:45:39.444,4.021513822746583e-05,-0.8872247992467828
2025-07-09 21:45:39.452,-2.5533240308321684e-05,-0.866433315835407
2025-07-09 21:45:39.460,-8.967356754432639e-05,-0.7619301894963457
2025-07-09 21:45:39.468,-0.0001519457040116,-0.5860777507164614
2025-07-09 21:45:39.476,-0.000212143223472,-0.3512585702413425
2025-07-09 21:45:39.483,-0.0002701044202647,-0.0694584669797799
2025-07-09 21:45:39.491,-0.0003257042568874,0.2481172406200319
2025-07-09 21:45:39.499,-0.0003788481118085,0.5913831106084941
2025-07-09 21:45:39.507,-0.000429467811744,0.9516590517051072
2025-07-09 21:45:39.515,-0.0004775200195332,1.3218942362819852
2025-07-09 21:45:39.522,-0.0005229866958317,1.696823882817207
2025-07-09 21:45:39.530,-0.0005658771070219,2.073055581336183
2025-07-09 21:45:39.538,-0.0006062307236881,2.449084148049113
2025-07-09 21:45:39.546,-0.0006441203500106,2.8252362829225204
2025-07-09 21:45:39.554,-0.0006796549140939,3.203548468876558
2025-07-09 21:45:39.561,-0.000712981450502,3.58758350702475
2025-07-09 21:45:39.569,-0.0007442858476805,3.982192764216978
2025-07-09 21:45:39.577,-0.0007737919154325,4.393232579591558
2025-07-09 21:45:39.585,-0.0008017583189982,4.82724432415294
2025-07-09 21:45:39.593,-0.0008284729781326,5.291108340241062
2025-07-09 21:45:39.601,-0.0008542446053205,5.791682429154915
2025-07-09 21:45:39.608,-0.000879391114135,6.335435737430422
2025-07-09 21:45:39.616,-0.0009042247426901,6.928088851837303
2025-07-09 21:45:39.624,-0.0009290340246943,7.574270684401815
2025-07-09 21:45:39.632,-0.0009540631878312,8.277202338214714
2025-07-09 21:45:39.640,-0.0009794900327828,9.038417608801693
2025-07-09 21:45:39.647,-0.0010054037273011,9.857529100610316
2025-07-09 21:45:39.655,-0.00103178418668,10.732048118937849
2025-07-09 21:45:39.663,-0.0010584847900578,11.657265517247115
2025-07-09 21:45:39.671,-0.0010852200970551,12.626199511032732
2025-07-09 21:45:39.679,-0.0011115599826336,13.629615082867392
2025-07-09 21:45:39.686,-0.0011369312118997,14.65611797687236
2025-07-09 21:45:39.694,-0.0011606269751509,15.692324404650275
2025-07-09 21:45:39.702,-0.0011818243823971,16.723105463341245
2025-07-09 21:45:39.710,-0.0011996094409278,17.73190292533424
2025-07-09 21:45:39.718,-0.0012130085870868,18.701110552595537
2025-07-09 21:45:39.726,-0.0012210253867233,19.612512501946544
2025-07-09 21:45:39.733,-0.0012226806496535,20.44776783162309
2025-07-09 21:45:39.741,-0.0012170540547332,21.188927721950677
2025-07-09 21:45:39.749,-0.0012033254562785,21.818969923299747
2025-07-09 21:45:39.757,-0.0011808142224498,22.322333287970626
2025-07-09 21:45:39.765,-0.0011490151384146,22.68543416906109
2025-07-09 21:45:39.772,-0.0011076295542237,22.897146093919574
2025-07-09 21:45:39.780,-0.0010565905670788,22.949224515300507
2025-07-09 21:45:39.788,-0.0009960811113193,22.83665963312304
2025-07-09 21:45:39.796,-0.0009265439272569,22.55794224095497
2025-07-09 21:45:39.804,-0.0008486825700478,22.115230219630263
2025-07-09 21:45:39.811,-0.0007634529556886,21.514406570872254
2025-07-09 21:45:39.819,-0.0006720453798237,20.76502361385927
2025-07-09 21:45:39.827,-0.0005758574014219,19.88013198733633
2025-07-09 21:45:39.835,-0.0004764584249545,18.87599722677442
2025-07-09 21:45:39.843,-0.0003755472352315,17.7717107387888
2025-07-09 21:45:39.851,-0.0002749041208756,16.588705802469672
2025-07-09 21:45:39.858,-0.0001763395582096,15.35019263765701
2025-07-09 21:45:39.866,-8.164168244799449e-05,14.080529471199904
2025-07-09 21:45:39.874,7.475140143522952e-06,12.80454881726252
2025-07-09 21:45:39.882,8.941845327939288e-05,11.5468598128405
2025-07-09 21:45:39.890,0.000162760670833,10.331148384707094
2025-07-09 21:45:39.897,0.0002262753420898,9.179497256257646
2025-07-09 21:45:39.905,0.0002789656369406,8.111747335917453
2025-07-09 21:45:39.913,0.0003200844317128,7.144920883717245
2025-07-09 21:45:39.921,0.0003491458727073,6.29272506425476
2025-07-09 21:45:39.929,0.0003659288099158,5.565152106538009
2025-07-09 21:45:39.936,0.0003704729896052,4.968189356818566
2025-07-09 21:45:39.944,0.0003630692915165,4.503649098239343
2025-07-09 21:45:39.952,0.0003442455128234,4.169124214031163
2025-07-09 21:45:39.960,0.0003147492101267,3.958071707941013
2025-07-09 21:45:39.968,0.0002755289255658,3.8600219077672566
2025-07-09 21:45:39.976,0.000227714763164,3.860907025501588
2025-07-09 21:45:39.983,0.0001725988042739,3.943498803953884
2025-07-09 21:45:39.991,0.0001116153657047,4.087941417683454
2025-07-09 21:45:39.999,4.632071385929864e-05,4.272362768755731
2025-07-09 21:45:40.007,-2.1628391590750484e-05,4.47354494278049
2025-07-09 21:45:40.015,-9.049801864907762e-05,4.667632942639656
2025-07-09 21:45:40.022,-0.0001585028350704,4.830859929817533
2025-07-09 21:45:40.030,-0.0002238346666559,4.940267073802889
2025-07-09 21:45:40.038,-0.0002846938629193,4.974396704762127
2025-07-09 21:45:40.046,-0.0003393232052251,4.91393872301631
2025-07-09 21:45:40.054,-0.0003860438768209,4.742312060207501
2025-07-09 21:45:40.061,-0.0004232928780546,4.446165317696986
2025-07-09 21:45:40.069,-0.0004496612212279,4.015783425756255
2025-07-09 21:45:40.077,-0.0004639322519026,3.4453901666697835
2025-07-09 21:45:40.085,-0.0004651194420217,2.73333958126282
2025-07-09 21:45:40.093,-0.0004525029175008,1.882192531790409
2025-07-09 21:45:40.101,-0.0004256637992743,0.8986779310613846
2025-07-09 21:45:40.108,-0.0003845151647556,-0.2064587188133679
2025-07-09 21:45:40.116,-0.000329328099125,-1.41871388429904
2025-07-09 21:45:40.124,-0.0002607509349742,-2.7201833644390523
2025-07-09 21:45:40.132,-0.0001798194415182,-4.090007785793188
2025-07-09 21:45:40.140,-8.795555736046283e-05,-5.504893527764804
2025-07-09 21:45:40.147,1.3047562634583894e-05,-6.939694752707174
2025-07-09 21:45:40.155,0.0001210558097315,-8.36804102653918
2025-07-09 21:45:40.163,0.0002336403619833,-9.76299428645397
2025-07-09 21:45:40.171,0.000348139440022,-11.097718640744192
2025-07-09 21:45:40.179,0.000461733946118,-12.346146640942022
2025-07-09 21:45:40.186,0.0005715342511514,-13.48362619749467
2025-07-09 21:45:40.194,0.0006746744688265,-14.487533160179716
2025-07-09 21:45:40.202,0.0007684099189952,-15.337835699509718
2025-07-09 21:45:40.210,0.0008502131867594,-16.017597956596763
2025-07-09 21:45:40.218,0.0009178642446206,-16.513411932609337
2025-07-09 21:45:40.226,0.0009695305257527,-16.81574822800819
2025-07-09 21:45:40.233,0.0010038335749183,-16.91921798746864
2025-07-09 21:45:40.241,0.0010198998284646,-16.82274023861459
2025-07-09 21:45:40.249,0.0010173939870789,-16.529610719071137
2025-07-09 21:45:40.257,0.0009965341489292,-16.047470260985634
2025-07-09 21:45:40.265,0.0009580882885828,-15.388172842648988
2025-07-09 21:45:40.272,0.000903351915848,-14.567555518764896
2025-07-09 21:45:40.280,0.0008341070655868,-13.605114590267704
2025-07-09 21:45:40.288,0.0007525633191992,-12.523594540618063
2025-07-09 21:45:40.296,0.0006612823077294,-11.348498397262995
2025-07-09 21:45:40.304,0.0005630879454556,-10.107530204926348
2025-07-09 21:45:40.311,0.0004609654068919,-8.829982138793486
2025-07-09 21:45:40.319,0.0003579526156743,-7.546080352881246
2025-07-09 21:45:40.327,0.0002570287782347,-6.286304872925845
2025-07-09 21:45:40.335,0.0001610051682709,-5.080699648418124
2025-07-09 21:45:40.343,7.242374613598886e-05,-3.958189249944167
2025-07-09 21:45:40.351,-6.530917112498716e-06,-2.9459186363568897
2025-07-09 21:45:40.358,-7.410162447642679e-05,-2.068631937471568
2025-07-09 21:45:40.366,-0.0001290068211052,-1.348105326910649
2025-07-09 21:45:40.374,-0.000170464952027,-0.8026478298157851
2025-07-09 21:45:40.382,-0.0001981942260073,-0.4466823623784616
2025-07-09 21:45:40.390,-0.0002123886104565,-0.2904174778964974
2025-07-09 21:45:40.397,-0.0002136723587844,-0.3396182380553914
2025-07-09 21:45:40.405,-0.0002030367015708,-0.5954823772025172
2025-07-09 21:45:40.413,-0.0001817633368663,-1.054625522810314
2025-07-09 21:45:40.421,-0.0001513399338206,-1.7091767218457616
2025-07-09 21:45:40.429,-0.0001133730235941,-2.546982945509383
2025-07-09 21:45:40.436,-6.950340019853616e-05,-3.551918647879954
2025-07-09 21:45:40.444,-2.13285011469781e-05,-4.704293883266393
2025-07-09 21:45:40.452,2.9664703863576533e-05,-5.981351993397464
2025-07-09 21:45:40.460,8.215382864970286e-05,-7.357845514835565
2025-07-09 21:45:40.468,0.0001350207219449,-8.806676786753986
2025-07-09 21:45:40.476,0.0001873761517989,-10.299587814143026
2025-07-09 21:45:40.483,0.0002385698687206,-11.807882310814009
2025-07-09 21:45:40.491,0.0002881870121784,-13.303161555801394
2025-07-09 21:45:40.499,0.0003360321979859,-14.758054790897386
2025-07-09 21:45:40.507,0.0003821028681028,-16.14692441080249
2025-07-09 21:45:40.515,0.000426553705319,-17.44652619551428
2025-07-09 21:45:40.522,0.0004696541389411,-18.636605354906006
2025-07-09 21:45:40.530,0.0005117411972537,-19.70041024798362
2025-07-09 21:45:40.538,0.0005531701679241,-20.625107345127606
2025-07-09 21:45:40.546,0.0005942656242885,-21.40208333595741
2025-07-09 21:45:40.554,0.0006352753195546,-22.027123226145942
2025-07-09 21:45:40.561,0.0006763292884981,-22.50045675364532
2025-07-09 21:45:40.569,0.000717406265215,-22.82666939788204
2025-07-09 21:45:40.577,0.0007583091631492,-23.014478540012977
2025-07-09 21:45:40.585,0.0007986507735606,-23.076379820860232
2025-07-09 21:45:40.593,0.0008378500719378,-23.02817327434244
