Timestamp,Lead I (LA-RA),Lead II (LL-LA),Lead III (LL-RA),Vx-RL
2025-07-09 21:43:43.548,-0.0561004510055651,0.0283127637316393,-0.027787687295008,0.1232588743455879
2025-07-09 21:43:43.556,-0.0699841263400032,0.0330938739676011,-0.0368902523949629,0.2375117477484479
2025-07-09 21:43:43.560,-0.082955916112092,0.0348220936896899,-0.0481338224466191,0.2906028800449632
2025-07-09 21:43:43.564,-0.0956618094805078,0.0390079692624682,-0.0566538402439415,0.2760066498903941
2025-07-09 21:43:43.568,-0.109290821711439,0.0497648751468297,-0.0595259465920073,0.2369473640764096
2025-07-09 21:43:43.572,-0.1245442230927669,0.0620156260131012,-0.0625285971084558,0.2071326730764138
2025-07-09 21:43:43.576,-0.1410326841330002,0.071765312525496,-0.0692673716378017,0.1911973965310582
2025-07-09 21:43:43.580,-0.1573422655181737,0.083239267994129,-0.0741029975559467,0.1887400785359803
2025-07-09 21:43:43.583,-0.1722380543892836,0.0986369943150547,-0.0736010601076343,0.2003445943293907
2025-07-09 21:43:43.587,-0.1856393371996939,0.1118391848540675,-0.073800152380403,0.2093613741276917
2025-07-09 21:43:43.591,-0.1979905425939642,0.1188641557114538,-0.0791263869186984,0.1926512781559765
2025-07-09 21:43:43.595,-0.2091869688001374,0.1236870184067618,-0.0854999504310887,0.1603537499011837
2025-07-09 21:43:43.599,-0.2181157946418058,0.1283166968695576,-0.0897990978114647,0.1510892792927617
2025-07-09 21:43:43.603,-0.2232996449975396,0.1290102303291383,-0.0942894147090001,0.1687453586395419
2025-07-09 21:43:43.607,-0.2250193996913865,0.126998714034017,-0.0980206856993298,0.1635411705650887
2025-07-09 21:43:43.611,-0.2262836354312965,0.1295435130761989,-0.0967401223985195,0.1121767558941455
2025-07-09 21:43:43.615,-0.230022573440081,0.1358219719968796,-0.0942006014881269,0.074475209503365
2025-07-09 21:43:43.619,-0.2357654919142701,0.1365292967347016,-0.0992361952259142,0.1128784765293055
2025-07-09 21:43:43.623,-0.2404914481663937,0.1317499829229644,-0.1087414652911398,0.1917579764034966
2025-07-09 21:43:43.626,-0.2421936005731846,0.1329372403970418,-0.1092563602252946,0.223538110013462
2025-07-09 21:43:43.630,-0.2413034163987422,0.1428836724839839,-0.0984197439654348,0.1877449768531502
2025-07-09 21:43:43.634,-0.2388448721873233,0.1506470745648774,-0.0881977976746047,0.1400855488265772
2025-07-09 21:43:43.638,-0.2341074520075466,0.1500383839943631,-0.0840690680667531,0.1228139347816683
2025-07-09 21:43:43.642,-0.2248904395641847,0.1466800381809986,-0.0782104014382151,0.1282021836945261
2025-07-09 21:43:43.646,-0.2106939490458501,0.1442295925736437,-0.0664643565287986,0.1432787074140468
2025-07-09 21:43:43.650,-0.1943657766038505,0.1383780960814907,-0.0559876805805131,0.1687255400167496
2025-07-09 21:43:43.654,-0.1785342249830506,0.1261022224513795,-0.0524320025913074,0.1878258557784988
2025-07-09 21:43:43.658,-0.1619286899491893,0.1096984237843108,-0.0522302662260118,0.1781270865590494
2025-07-09 21:43:43.662,-0.1413445304495795,0.0911453051801515,-0.0501992253321709,0.1621557382475193
2025-07-09 21:43:43.666,-0.1156288690770608,0.0699035558160177,-0.0457253133254394,0.1756427050907751
2025-07-09 21:43:43.669,-0.087222389069823,0.046816846591264,-0.0404055425445411,0.1796420019787425
2025-07-09 21:43:43.673,-0.0614742457646569,0.0266549744960509,-0.0348192713361558,0.0949166247069575
2025-07-09 21:43:43.677,-0.0426734099152103,0.0158682091862798,-0.0268052007981565,-0.064226099284558
2025-07-09 21:43:43.681,-0.0292322069532633,0.0171754897678797,-0.0120567172563782,-0.1866596507192694
2025-07-09 21:43:43.685,-0.0160084914427695,0.02496192728555,0.0089534357700507,-0.2050453677564565
2025-07-09 21:43:43.689,-0.0018309703771172,0.0268923807176206,0.0250614102660782,-0.1503675786580762
2025-07-09 21:43:43.693,0.0098511601558908,0.0137217912715991,0.023572951351279,-0.0773390903972549
2025-07-09 21:43:43.697,0.0179619077053587,-0.0100006425574632,0.0079612650697666,-0.0274469971443357
2025-07-09 21:43:43.701,0.0257710658329992,-0.0279293065534421,-0.0021582408005092,-0.0344056957956634
2025-07-09 21:43:43.705,0.0345125088844338,-0.0291449375276993,0.0053675712747722,-0.0739338030138584
2025-07-09 21:43:43.708,0.0408285540885559,-0.0206268444632473,0.0202017095413886,-0.0633310800856779
2025-07-09 21:43:43.712,0.043032736320457,-0.0168761250272426,0.0261566112071869,0.0016594475436459
2025-07-09 21:43:43.716,0.0442780649808669,-0.0214737291633955,0.0228043357292625,0.0041545033153726
2025-07-09 21:43:43.720,0.0467071654788855,-0.0270186145315401,0.0196885508569775,-0.1013139836169211
2025-07-09 21:43:43.724,0.0480694900877814,-0.028829193109321,0.0192402968858977,-0.1866115001357131
2025-07-09 21:43:43.728,0.0469667531547181,-0.0291463892310889,0.0178203638287254,-0.1638346248449971
2025-07-09 21:43:43.732,0.0460838465301657,-0.0304976318502709,0.0155862145825322,-0.1473875139962591
2025-07-09 21:43:43.736,0.0476384595203926,-0.0329421305176551,0.0146963289029049,-0.2631293587173439
2025-07-09 21:43:43.740,0.0503097218773674,-0.0364237797841098,0.0138859419909316,-0.4473876176065803
2025-07-09 21:43:43.744,0.0520427671359681,-0.0401899977783312,0.0118527692526841,-0.5640060916086442
2025-07-09 21:43:43.748,0.0516079234508175,-0.0410802964246838,0.0105276269184082,-0.5847937040878465
2025-07-09 21:43:43.751,0.0480633986671941,-0.0371050863274863,0.0109583122291629,-0.5465279168189583
2025-07-09 21:43:43.755,0.0432424923050427,-0.0320043439946667,0.0112381481969885,-0.4418957711342745
2025-07-09 21:43:43.759,0.0419207087247519,-0.0314902091873325,0.0104304994210691,-0.2668312270891523
2025-07-09 21:43:43.763,0.0445493094420571,-0.0350552736618347,0.0094940356607489,-0.1199071949368631
2025-07-09 21:43:43.767,0.0448675642506737,-0.0368588340554285,0.0080087300725747,-0.1274371869648511
2025-07-09 21:43:43.771,0.0400727591031609,-0.0354797501358866,0.0045930088413797,-0.2553214910098809
2025-07-09 21:43:43.775,0.0365415563501139,-0.0366425831345332,-0.0001010269136499,-0.3152170636981239
2025-07-09 21:43:43.779,0.0395731640909536,-0.0438711811253326,-0.0042980171671165,-0.1982809819004785
2025-07-09 21:43:43.783,0.0445349931748411,-0.0520086675032929,-0.0074736744647869,0.0136561624202443
2025-07-09 21:43:43.787,0.0444784945348553,-0.0535526166271712,-0.0090741222322741,0.182917142269698
2025-07-09 21:43:43.791,0.041036339716383,-0.0477519309049669,-0.0067155913322748,0.2207291442380638
2025-07-09 21:43:43.794,0.0413960600675284,-0.0403435722147245,0.0010524877051885,0.0841519066338389
2025-07-09 21:43:43.798,0.0472660496630521,-0.0367686074040759,0.010497442107327,-0.1608592205892665
2025-07-09 21:43:43.802,0.0528646789481689,-0.0383969800388492,0.0144676987536256,-0.3310039112358673
2025-07-09 21:43:43.806,0.0535877676513591,-0.0431117539286484,0.0104760135628747,-0.3417184393661027
2025-07-09 21:43:43.810,0.0514506891800568,-0.0463693284721274,0.00508136054373,-0.3205993217156307
2025-07-09 21:43:43.814,0.0508072611834031,-0.044900893711401,0.0059063673032976,-0.3798293551386436
2025-07-09 21:43:43.818,0.052653275878955,-0.0432446357072057,0.0094086399985492,-0.4551693652627215
2025-07-09 21:43:43.822,0.0543149800542969,-0.0506080649817826,0.0037069148947572,-0.4697167329193961
2025-07-09 21:43:43.826,0.052553806035833,-0.0655443017700466,-0.0129904959167747,-0.4589538535762426
2025-07-09 21:43:43.830,0.0475314684843107,-0.0725561095679108,-0.0250246412711604,-0.4663805643029613
2025-07-09 21:43:43.833,0.0446105945465464,-0.0623952225482132,-0.017784628194202,-0.4825911789411717
2025-07-09 21:43:43.837,0.0491410940850788,-0.0466711600824295,0.002469933805145,-0.5170921925648557
2025-07-09 21:43:43.841,0.0588239183061389,-0.0427646200692893,0.0160592980341326,-0.5972948221093182
2025-07-09 21:43:43.845,0.0659282991998619,-0.0517213906537932,0.0142069083378692,-0.6876091942031879
2025-07-09 21:43:43.849,0.0672976112492534,-0.059799647046831,0.0074979639887494,-0.7244141010030688
2025-07-09 21:43:43.853,0.0664872981068375,-0.0570124010431522,0.0094748968446374,-0.7392632959533944
2025-07-09 21:43:43.857,0.0664591211286387,-0.0470911740612629,0.0193679468427659,-0.8454044775766218
2025-07-09 21:43:43.861,0.0667624984354966,-0.0406558922243555,0.0261066059806258,-1.0905751507534154
2025-07-09 21:43:43.865,0.067274814151772,-0.0427672939493416,0.0245075199659538,-1.4031247570418046
2025-07-09 21:43:43.869,0.0683145838735957,-0.0480084315159337,0.0203061521154075,-1.6794370474885565
2025-07-09 21:43:43.873,0.0679659465292568,-0.0475098705385411,0.0204560757426109,-1.8500139189524576
2025-07-09 21:43:43.876,0.0639204076498867,-0.0401204391566374,0.0237999682389086,-1.8687603353337563
2025-07-09 21:43:43.880,0.0565047397527639,-0.0328925596216478,0.0236121798703673,-1.7170021859808653
2025-07-09 21:43:43.884,0.0480243346732802,-0.0286845359455037,0.0193397984608406,-1.443110224455138
2025-07-09 21:43:43.888,0.041028040295846,-0.0200134462131223,0.0210145938096881,-1.1553140980457957
2025-07-09 21:43:43.892,0.036998805798321,-0.0018466218241928,0.0351521836946352,-0.9372124062306292
2025-07-09 21:43:43.896,0.0357160150363918,0.0159922952078939,0.0517083099580239,-0.7724025969554746
2025-07-09 21:43:43.900,0.0368189675584552,0.021277434305381,0.0580964015709842,-0.5832304087245141
2025-07-09 21:43:43.904,0.0403393898454244,0.0210673936559171,0.0614067832021476,-0.3556372640331771
2025-07-09 21:43:43.908,0.0441356821566578,0.0331689215420499,0.0773046033929248,-0.1753393271705479
2025-07-09 21:43:43.912,0.0443634553566048,0.0533686202527869,0.097732075296592,-0.1013314744236322
2025-07-09 21:43:43.916,0.0404317836793991,0.0542754887947312,0.0947072721543721,-0.0736705329123582
2025-07-09 21:43:43.919,0.0363761834940142,0.0266441161164656,0.0630202992841299,-0.0112200515411883
2025-07-09 21:43:43.923,0.0363071830562647,-0.0035857080855387,0.0327214746377218,0.0771688628386394
2025-07-09 21:43:43.927,0.0409357406717859,-0.0140342472601394,0.0269014930715129,0.1413515828135657
2025-07-09 21:43:43.931,0.0489133567083934,-0.0155877504907981,0.0333256058702166,0.1665658533314854
2025-07-09 21:43:43.935,0.0590764144143417,-0.0257857177957447,0.0332906962643744,0.1567669197287193
2025-07-09 21:43:43.939,0.0700706403394745,-0.0373945096297079,0.0326761303488532,0.1161219353467085
2025-07-09 21:43:43.943,0.0794269508889997,-0.0359134212833791,0.0435135292375869,0.0703605077470376
2025-07-09 21:43:43.947,0.0849622798510543,-0.0299830342154674,0.0549792452601361,0.0522770870220705
2025-07-09 21:43:43.951,0.0870204436793573,-0.0381397214290841,0.0488807218677424,0.0614788420876757
2025-07-09 21:43:43.955,0.0881497128989036,-0.0547786792749541,0.0333710332346874,0.0743508577573737
2025-07-09 21:43:43.958,0.0897901600426214,-0.0568567296589609,0.0329334299873781,0.0844688298466295
2025-07-09 21:43:43.962,0.0902614837271701,-0.0423392521872302,0.0479222311362058,0.099623935925709
2025-07-09 21:43:43.966,0.088013375384404,-0.0345723244170884,0.0534410505563228,0.1109611789503214
2025-07-09 21:43:43.970,0.0854085369280177,-0.0458355569327161,0.0395729795775295,0.1055494152130186
2025-07-09 21:43:43.974,0.0856974721803882,-0.0640292808773348,0.0216681908784184,0.1027953096737044
2025-07-09 21:43:43.978,0.0887571736257554,-0.0823250662572411,0.0064321069365329,0.1333462303264689
2025-07-09 21:43:43.982,0.0954125298807012,-0.1144586012252357,-0.0190460717838545,0.1860524448326763
2025-07-09 21:43:43.986,0.111146116112708,-0.1663624798184669,-0.055216364151895,0.2229859152159804
2025-07-09 21:43:43.990,0.1336633464911103,-0.21254543765086,-0.0788820916125569,0.2410433328974255
2025-07-09 21:43:43.994,0.1387928048076706,-0.218424893845924,-0.0796320894981753,0.2716696097875027
2025-07-09 21:43:43.998,0.0954589231497803,-0.1803654173214334,-0.0849064946388651,0.3283403204662097
2025-07-09 21:43:44.001,-0.0002699132144201,-0.1314168465599252,-0.1316867602483655,0.3948354413001265
2025-07-09 21:43:44.005,-0.1205305013223819,-0.095750611206706,-0.2162811130095628,0.4484946752088515
2025-07-09 21:43:44.009,-0.2439137128982109,-0.0267777576581759,-0.2706914710436462,0.4578285957607113
2025-07-09 21:43:44.013,-0.3858538558755396,0.1859322098221461,-0.199921646547767,0.3809427475141894
2025-07-09 21:43:44.017,-0.5706061422414686,0.5877775343867451,0.0171713916441609,0.2096100090697497
2025-07-09 21:43:44.021,-0.7685871640946635,1.0347486517323083,0.2661614871303061,-0.0002012469803404
2025-07-09 21:43:44.025,-0.8801196777219558,1.2851258237778822,0.4050061455422006,-0.1826404550474077
2025-07-09 21:43:44.029,-0.8050882695084465,1.2433100962803518,0.4382218262513506,-0.3340974463375036
2025-07-09 21:43:44.033,-0.5414727244914894,1.028846000230983,0.4873732752123222,-0.4820375954588342
2025-07-09 21:43:44.037,-0.2122943739612912,0.7936593875678429,0.5813650130733925,-0.591209836628545
2025-07-09 21:43:44.041,0.0238826088124206,0.5771352993798092,0.6010179076531204,-0.5739857160442341
2025-07-09 21:43:44.044,0.1015405225748549,0.3589741781468065,0.4605147001761031,-0.4129850697316522
2025-07-09 21:43:44.048,0.0782119856273283,0.152330780018962,0.2305427650942934,-0.2053758013883764
2025-07-09 21:43:44.052,0.0439819811085038,0.0014664213030498,0.0454484018537823,-0.0557271474713336
2025-07-09 21:43:44.056,0.0361406379113152,-0.0687035441574379,-0.0325629068093888,0.020739504835879
2025-07-09 21:43:44.060,0.0436407582167649,-0.0768812873612322,-0.0332405297136881,0.0662140873280539
2025-07-09 21:43:44.064,0.0511723929904783,-0.0681733744748789,-0.0170009820597892,0.1050327376889302
2025-07-09 21:43:44.068,0.0565251904811555,-0.0734917641313771,-0.0169665742311853,0.1309455037604671
2025-07-09 21:43:44.072,0.0625685372500508,-0.0870497260405543,-0.0244811893765327,0.1379067817973289
2025-07-09 21:43:44.076,0.0691562374120842,-0.0899375401582106,-0.0207813033375365,0.134886573944828
2025-07-09 21:43:44.080,0.0731216188580184,-0.0845098340642224,-0.0113882158033913,0.1363638474439732
2025-07-09 21:43:44.083,0.072524071885285,-0.0872084519099074,-0.0146843806271695,0.1484916131142996
2025-07-09 21:43:44.087,0.0692976285944151,-0.0971541563019747,-0.0278565283147983,0.1641164112040069
2025-07-09 21:43:44.091,0.0668537150560188,-0.0980051074338354,-0.031151392989834,0.1710969530948498
2025-07-09 21:43:44.095,0.0656039437325845,-0.0891113914293355,-0.0235074483140302,0.1652236105093617
2025-07-09 21:43:44.099,0.0636383724166251,-0.0886166502185723,-0.0249782784243034,0.152552995699568
2025-07-09 21:43:44.103,0.0618240390298611,-0.1012502690017578,-0.0394262305986196,0.1424924054430108
2025-07-09 21:43:44.107,0.0626623740477045,-0.1078413110659663,-0.0451789376491858,0.143575150746858
2025-07-09 21:43:44.111,0.0633420244029777,-0.0976623381741777,-0.0343203144067759,0.1603971463563089
2025-07-09 21:43:44.115,0.0578116645744227,-0.0883144000361125,-0.030502736101958,0.1874657967490842
2025-07-09 21:43:44.119,0.0472628393343516,-0.0958026512291516,-0.0485398125391237,0.210412197384929
2025-07-09 21:43:44.123,0.0401990317112372,-0.10510862383165,-0.0649095927684165,0.2187639224039628
2025-07-09 21:43:44.126,0.0399368406648121,-0.0941069855220104,-0.054170145509204,0.2155883585144493
2025-07-09 21:43:44.130,0.0394568882989246,-0.0703030573495379,-0.030846169706824,0.2124626041305661
2025-07-09 21:43:44.134,0.0318686785136065,-0.0570934656558379,-0.0252247878021623,0.2145757656995953
2025-07-09 21:43:44.138,0.0196581413679025,-0.0559378348960511,-0.036279694191296,0.2147363216937193
2025-07-09 21:43:44.142,0.0089801991304616,-0.0500176680236868,-0.0410374695597294,0.2094153921265601
2025-07-09 21:43:44.146,0.0009287065336625,-0.0379770798249248,-0.0370483739613952,0.2120403330375883
2025-07-09 21:43:44.150,-0.0057784467228756,-0.0365469453468155,-0.0423253927431427,0.2313775372414956
2025-07-09 21:43:44.154,-0.0102863454489082,-0.0496359005385749,-0.0599222466637147,0.2454726974888521
2025-07-09 21:43:44.158,-0.0139796197786916,-0.0577948217753295,-0.071774442232995,0.2262174084205495
2025-07-09 21:43:44.162,-0.0219444428185977,-0.0452662754271568,-0.0672107189277301,0.1873732282776388
2025-07-09 21:43:44.166,-0.0348145045585637,-0.0218701006032162,-0.0566846058465991,0.1757380694252471
2025-07-09 21:43:44.169,-0.0466522114003269,-0.0080697277948571,-0.0547219398823386,0.2098628822727844
2025-07-09 21:43:44.173,-0.0542648570429492,-0.0082203685089137,-0.0624852262411719,0.2569760212241223
2025-07-09 21:43:44.177,-0.0617745623622076,-0.009399509409611,-0.0711740724634788,0.2787376759912002
2025-07-09 21:43:44.181,-0.0742907985699043,-0.0008412217351703,-0.0751320209990389,0.2754514272469923
2025-07-09 21:43:44.185,-0.0919878768041688,0.0154211674671972,-0.0765667100327959,0.2746749124828528
2025-07-09 21:43:44.189,-0.110788565828336,0.0311729677249415,-0.0796155988007941,0.2919872870506601
2025-07-09 21:43:44.193,-0.1264297340803133,0.0424977849191922,-0.0839319498602071,0.3153087332817766
2025-07-09 21:43:44.197,-0.1384205837947302,0.0522591632797552,-0.0861614212157735,0.3259519992860336
2025-07-09 21:43:44.201,-0.1502183505894335,0.0637197091887025,-0.0864986421028746,0.3254694020335955
2025-07-09 21:43:44.205,-0.1642466645619972,0.0742619683380668,-0.0899846969270586,0.3310237971766309
2025-07-09 21:43:44.208,-0.1780167196482014,0.0783214160102573,-0.0996953043420681,0.3475439317137289
2025-07-09 21:43:44.212,-0.1871280334105611,0.0751595835404989,-0.1119684505752528,0.3601244801728009
2025-07-09 21:43:44.216,-0.1907727296751508,0.069599093240075,-0.1211736371410572,0.3554872164862094
2025-07-09 21:43:44.220,-0.1922931158300943,0.0662183165478643,-0.1260747999886003,0.3370739533725925
2025-07-09 21:43:44.224,-0.1950570641058541,0.067182323819735,-0.1278747409927825,0.3162608003677359
2025-07-09 21:43:44.228,-0.1994223787065677,0.0736932629099743,-0.1257291165036338,0.2998624754625237
2025-07-09 21:43:44.232,-0.2033368186528759,0.0836562202912221,-0.1196805990688975,0.289693208555358
2025-07-09 21:43:44.236,-0.2041119078036281,0.0890151393192666,-0.1150967691914133,0.2839815014522309
2025-07-09 21:43:44.240,-0.1996179507477171,0.0819023831523743,-0.117715568302011,0.27444071378965
2025-07-09 21:43:44.244,-0.1898321592863897,0.0648020281252647,-0.1250301318674691,0.2537993683796679
2025-07-09 21:43:44.248,-0.1776979115345691,0.0500280761853234,-0.1276698360551856,0.2303076215924115
2025-07-09 21:43:44.251,-0.1662516297707829,0.0466564215264078,-0.1195952089495699,0.2191664386316573
2025-07-09 21:43:44.255,-0.1539962122366734,0.050393135876263,-0.1036030770645975,0.2188297792167944
2025-07-09 21:43:44.259,-0.1357280289016211,0.0489733573024163,-0.0867546723023751,0.2160576385047922
2025-07-09 21:43:44.263,-0.1098440696142877,0.0369526651009707,-0.0728914052154426,0.2117031579170742
2025-07-09 21:43:44.267,-0.082077471735507,0.0219989368274644,-0.0600785356088685,0.2185760090606541
2025-07-09 21:43:44.271,-0.0588060838722429,0.0138273864935677,-0.0449786980779191,0.2367086084493062
2025-07-09 21:43:44.275,-0.039011023996671,0.0103143234951606,-0.0286967011990801,0.2506049688133784
2025-07-09 21:43:44.279,-0.0171366161429471,0.0023148077137863,-0.0148218091250245,0.2508161006536735
2025-07-09 21:43:44.283,0.0076425859320575,-0.0103571067576847,-0.0027145215196119,0.2474812518631362
2025-07-09 21:43:44.287,0.0300168951448752,-0.0198236886265424,0.010193205826471,0.2606672748133595
2025-07-09 21:43:44.291,0.046042446031394,-0.0253841221001648,0.0206583232416403,0.2976898435769057
2025-07-09 21:43:44.294,0.0569532519938719,-0.0339190787289449,0.0230341725776958,0.3408773108974776
2025-07-09 21:43:44.298,0.0647052017938671,-0.0459583600439588,0.0187468410651662,0.3637544541269026
2025-07-09 21:43:44.302,0.0691078446435458,-0.0544646522536488,0.0146431917078118,0.3602343221531048
2025-07-09 21:43:44.306,0.071605644872243,-0.0568094633215054,0.0147961808714598,0.3486791429078602
2025-07-09 21:43:44.310,0.0763215130701207,-0.0570053312348318,0.019316181158969,0.3444847406919599
2025-07-09 21:43:44.314,0.0841118542795499,-0.057493073417584,0.026618780188751,0.3408827299127118
2025-07-09 21:43:44.318,0.0907547980417763,-0.0585495816525724,0.0322052157191869,0.3252052190116748
2025-07-09 21:43:44.322,0.0931838615005927,-0.063293322984693,0.0298905378491697,0.3028569158479828
2025-07-09 21:43:44.326,0.0924719883891498,-0.0729397650967009,0.0195322226291991,0.2884639246220669
2025-07-09 21:43:44.330,0.0908076683647022,-0.080036221190141,0.01077144651501,0.2789637363024251
2025-07-09 21:43:44.333,0.0902839916848747,-0.0769905129702,0.013293478058883,0.261547051658768
2025-07-09 21:43:44.337,0.0923231626843032,-0.0678585222550182,0.0244646397772372,0.2502039988368184
2025-07-09 21:43:44.341,0.0947889416819701,-0.0613969969635467,0.0333919440702956,0.2780747872846473
2025-07-09 21:43:44.345,0.09393261466515,-0.0574189217073523,0.0365136923139053,0.3406635070193472
2025-07-09 21:43:44.349,0.0909394037414515,-0.0514439008494584,0.0394955022524367,0.3848595462467156
2025-07-09 21:43:44.353,0.090328445409406,-0.0471335973222573,0.0431948474518053,0.3731509820217631
2025-07-09 21:43:44.357,0.0914684769110824,-0.0508303686630893,0.0406381076169456,0.3270847300320706
2025-07-09 21:43:44.361,0.0896431390920483,-0.0583572619262824,0.0312858765394046,0.2923564988428446
2025-07-09 21:43:44.365,0.0852085262450034,-0.0602141973089225,0.0249943283146184,0.2856179020621112
2025-07-09 21:43:44.369,0.0831557747999367,-0.0562961501069143,0.0268596240762725,0.2846906146081693
2025-07-09 21:43:44.373,0.0843233048641721,-0.0547264046617268,0.0295968995903374,0.2574961982194971
2025-07-09 21:43:44.376,0.0844631974241,-0.0593056341899449,0.0251575626270932,0.1995197861710147
2025-07-09 21:43:44.380,0.0812839635951402,-0.0661016138491049,0.0151823491443894,0.1424100110267626
2025-07-09 21:43:44.384,0.0773385095225655,-0.0698560867166692,0.0074824222094951,0.1160930923264212
2025-07-09 21:43:44.388,0.0760219876563582,-0.0686080330527094,0.0074139540122468,0.1143596699456672
2025-07-09 21:43:44.392,0.0773397778731018,-0.0639463559966117,0.0133934212904226,0.1187516081401881
2025-07-09 21:43:44.396,0.0787949235290308,-0.059819984928044,0.0189749380207848,0.1392238428819747
2025-07-09 21:43:44.400,0.079432361278813,-0.0600231329609267,0.0194092277434809,0.1978107309164409
2025-07-09 21:43:44.404,0.0803216515250764,-0.06474896825888,0.015572682697184,0.2813491179750209
2025-07-09 21:43:44.408,0.0814815158573587,-0.0698351274320252,0.0116463878618896,0.3456482370406168
2025-07-09 21:43:44.412,0.0820193856518675,-0.0717942375765632,0.0102251475180746,0.3661584103910643
2025-07-09 21:43:44.416,0.082747935957802,-0.0737798048872887,0.0089681305196088,0.3571472257514234
2025-07-09 21:43:44.419,0.0852876869030378,-0.0818288088115259,0.0034588775464378,0.3425614171791389
2025-07-09 21:43:44.423,0.0897278766319581,-0.0936026423418672,-0.0038747662491985,0.3331691340210988
2025-07-09 21:43:44.427,0.0949789496120124,-0.0979971048387872,-0.0030181557596055,0.3322099454080946
2025-07-09 21:43:44.431,0.0992961592600991,-0.089700205975735,0.0095959527583234,0.3410010013466689
2025-07-09 21:43:44.435,0.1002619877982378,-0.0769552338838304,0.0233067533946704,0.3522725700372476
2025-07-09 21:43:44.439,0.0973914289113259,-0.0711602959723411,0.0262311324252694,0.3483347045036448
2025-07-09 21:43:44.443,0.0943129687178409,-0.07556281065401,0.0187501575567353,0.3131909108340299
2025-07-09 21:43:44.447,0.095073370710938,-0.0857578136912156,0.0093155565197899,0.2492493399083022
2025-07-09 21:43:44.451,0.0990567134545802,-0.0940977500659524,0.004958962895487,0.1809352098439031
2025-07-09 21:43:44.455,0.1024024377314833,-0.0948290555178313,0.0075733817268199,0.1354341435227473
2025-07-09 21:43:44.458,0.1029984727073757,-0.0920681396758014,0.0109303325514746,0.1182603443933965
2025-07-09 21:43:44.462,0.1016311278362392,-0.097215752329729,0.0044153750338356,0.1141844370389551
2025-07-09 21:43:44.466,0.1000504345936815,-0.1106961091182283,-0.0106456749899748,0.1150258959742882
2025-07-09 21:43:44.470,0.0996418023074921,-0.1163587858738226,-0.0167169840251185,0.1351791095934926
2025-07-09 21:43:44.474,0.1003906440051771,-0.1041984595095865,-0.0038078159563693,0.182620190632728
2025-07-09 21:43:44.478,0.1004982801330519,-0.0870040211263846,0.0134942585622882,0.2240263707958645
2025-07-09 21:43:44.482,0.0976960435859141,-0.0815865059744939,0.0161095371746784,0.2128024985609579
2025-07-09 21:43:44.486,0.0904491576922461,-0.0827539754171017,0.0076951818454104,0.1519172048237652
2025-07-09 21:43:44.490,0.0788325748909996,-0.0710757076580912,0.0077568668101184,0.0931663679717804
2025-07-09 21:43:44.494,0.0660555797310861,-0.0431077638908331,0.022947815425115,0.0734611774379835
2025-07-09 21:43:44.498,0.0570932805246328,-0.0181735168222888,0.0389197632951426,0.0821150552626756
2025-07-09 21:43:44.501,0.0537949955176244,-0.011801406130187,0.0419935889876235,0.0871471231926739
2025-07-09 21:43:44.505,0.0541264743156498,-0.0165271912476236,0.037599282675315,0.072395726574244
2025-07-09 21:43:44.509,0.0571357961547939,-0.0168415580726025,0.0402942376971521,0.0562834361323964
2025-07-09 21:43:44.513,0.064082377085207,-0.0109265335921094,0.0531558431161892,0.0778467247961579
2025-07-09 21:43:44.517,0.0729087129500233,-0.0063876686697177,0.0665210439111368,0.1438466645085073
2025-07-09 21:43:44.521,0.0767605845768269,-0.0047212848941466,0.0720392993208104,0.200979617451349
2025-07-09 21:43:44.525,0.0722365921662368,-0.0045534349651112,0.0676831568469188,0.1961936699765729
2025-07-09 21:43:44.529,0.0654917981497373,-0.012514192066345,0.0529776057374025,0.1453562740861476
2025-07-09 21:43:44.533,0.0652072858627025,-0.0335282830643277,0.0316790024604158,0.1013745978441866
2025-07-09 21:43:44.537,0.0728674073296153,-0.0557659253074671,0.017101481691712,0.0823433366741587
2025-07-09 21:43:44.541,0.0844438812239111,-0.0649466220584191,0.0194972588427119,0.07397092436778
2025-07-09 21:43:44.544,0.0967737157696816,-0.0688583106016473,0.027915404853465,0.0717560296759801
2025-07-09 21:43:44.548,0.107606572155058,-0.0841597482407081,0.0234468236080113,0.0772650933840602
2025-07-09 21:43:44.552,0.1143066254959798,-0.1043544074988681,0.009952217698516,0.0782792203840171
2025-07-09 21:43:44.556,0.1166244122007746,-0.1122399285926831,0.0043844833171541,0.0709357186651957
2025-07-09 21:43:44.586,0.118715073004803,-0.1215115330590727,-0.002796460337079,0.0807933639598594
2025-07-09 21:43:44.590,0.1286325333907093,-0.1672030882388869,-0.0385705551226678,0.1300553024104997
2025-07-09 21:43:44.593,0.1538875135647481,-0.2471168936224442,-0.0932293803242625,0.2015572044937278
2025-07-09 21:43:44.597,0.1858955933557465,-0.3066989537282136,-0.1208033606313635,0.2605514642046813
2025-07-09 21:43:44.601,0.1877382240622627,-0.2981378415802502,-0.1103996177688865,0.2988044969360108
2025-07-09 21:43:44.605,0.1208005647191828,-0.236907037186239,-0.1161064727096515,0.3384816470738914
2025-07-09 21:43:44.609,-0.0050334999302018,-0.1833694620224766,-0.1884029621872257,0.3957587207997631
2025-07-09 21:43:44.613,-0.1352517832754273,-0.1621746886611181,-0.2974264721634001,0.4475293342856369
2025-07-09 21:43:44.617,-0.2430331272089563,-0.1000873752990671,-0.3431205027270262,0.4396812750283803
2025-07-09 21:43:44.621,-0.3677918145817951,0.1290090274490375,-0.238782787343551,0.337238253106324
2025-07-09 21:43:44.625,-0.5529872281159158,0.5526014549354236,-0.0003857733831764,0.1646744046167073
2025-07-09 21:43:44.629,-0.7609051082805675,1.0013502587818903,0.2404451503063659,-0.0175163376702155
2025-07-09 21:43:44.633,-0.8732601549328626,1.2330785136219076,0.359818358501816,-0.1788548773775476
2025-07-09 21:43:44.636,-0.7843755489932591,1.1710287890633468,0.3866532398909246,-0.3399266610662213
2025-07-09 21:43:44.640,-0.5039158301706165,0.9494304424719612,0.4455146121302781,-0.5086543739174707
2025-07-09 21:43:44.644,-0.1703859759999199,0.7213165111692241,0.5509305350059891,-0.619929291300337
2025-07-09 21:43:44.648,0.0559738717167976,0.5179537265812743,0.5739275981423823,-0.588515081212831
2025-07-09 21:43:44.652,0.123072679541409,0.3110639624543621,0.4341366418479656,-0.4236795376585672
2025-07-09 21:43:44.656,0.1003290986444306,0.1136033271362687,0.2139324256408898,-0.2391160693364266
2025-07-09 21:43:44.660,0.0764079041737958,-0.025879108155638,0.050528795886069,-0.1315050342717696
2025-07-09 21:43:44.664,0.0781313621046585,-0.0837318702732743,-0.0056005082931914,-0.0948239176306149
2025-07-09 21:43:44.668,0.0861227089555983,-0.0859249315515377,0.0001977772871534,-0.0754414373570626
2025-07-09 21:43:44.672,0.0863060160358323,-0.0810512938593355,0.0052547220674055,-0.0597573996982008
2025-07-09 21:43:44.675,0.0843767845241948,-0.0959817819763725,-0.0116049975536426,-0.0679101170622498
2025-07-09 21:43:44.679,0.0878334069554517,-0.1196474141528098,-0.0318140072914376,-0.1009470463142868
2025-07-09 21:43:44.683,0.0939247129676835,-0.1300557582059627,-0.0361310453249225,-0.1413859529350378
2025-07-09 21:43:44.687,0.0957796680095453,-0.1263535467219386,-0.0305738787914564,-0.1908487132635364
2025-07-09 21:43:44.691,0.0924181872128726,-0.1241418877268178,-0.0317237005855234,-0.273939636976079
2025-07-09 21:43:44.695,0.0891677356693914,-0.1292347422765771,-0.0400670066714991,-0.3988979637846991
2025-07-09 21:43:44.699,0.0898035233266994,-0.1338342515272525,-0.0440307282576441,-0.5260920219326635
2025-07-09 21:43:44.703,0.0910473120105483,-0.1359983847724319,-0.0449510728116546,-0.5952770756261725
2025-07-09 21:43:44.707,0.0868811404682984,-0.1443462227598004,-0.0574650823339682,-0.5909743436087698
2025-07-09 21:43:44.711,0.0776753227431337,-0.1591609294271302,-0.0814856067193119,-0.5580498659364319
2025-07-09 21:43:44.715,0.0705281145892127,-0.1643897215538947,-0.0938616069929525,-0.5401363816906735
2025-07-09 21:43:44.718,0.0686048371317177,-0.1486282253937323,-0.0800233882832261,-0.5280969872303031
2025-07-09 21:43:44.722,0.0663739968305617,-0.1241228637058972,-0.0577488668894629,-0.4871576298594726
2025-07-09 21:43:44.726,0.0594914200604414,-0.1116588541428845,-0.0521674340895466,-0.4138028304927249
2025-07-09 21:43:44.730,0.0519590595042825,-0.1129596360699082,-0.0610005765658219,-0.3419475994718687
2025-07-09 21:43:44.734,0.0480002846122935,-0.1142170627191649,-0.0662167781002367,-0.2984140811004527
2025-07-09 21:43:44.738,0.0443924452427531,-0.1114573304584529,-0.0670648852022212,-0.2714959632030964
2025-07-09 21:43:44.742,0.0366439546851686,-0.1118821973921346,-0.075238242686617,-0.2322110345607996
2025-07-09 21:43:44.746,0.0265023203619728,-0.1137108639435397,-0.0872085435544275,-0.1784032949697227
2025-07-09 21:43:44.750,0.0184903011026891,-0.1076392115426436,-0.0891489104061771,-0.1394879827975442
2025-07-09 21:43:44.754,0.0134148671167373,-0.0976803660435633,-0.0842654988864545,-0.1344320629252814
2025-07-09 21:43:44.758,0.008437554771096,-0.0979685588678273,-0.0895310040496768,-0.1477140687343334
2025-07-09 21:43:44.761,0.000541338835561,-0.1063152175905694,-0.105773878701274,-0.1568526863150706
2025-07-09 21:43:44.765,-0.0113948182086894,-0.1023210613929917,-0.1137158795414616,-0.1616583540046028
2025-07-09 21:43:44.769,-0.0258103748389852,-0.0778509563812983,-0.1036613311537143,-0.1724777471424209
2025-07-09 21:43:44.773,-0.0397469296775091,-0.0502784278777395,-0.0900253574822234,-0.1865608304331159
2025-07-09 21:43:44.777,-0.0517082667342116,-0.0374438152208749,-0.0891520818755129,-0.1969674799508641
2025-07-09 21:43:44.781,-0.0622706244682851,-0.0364856447047522,-0.0987562690871075,-0.2184734963511687
2025-07-09 21:43:44.785,-0.0726428001438564,-0.0360814132496025,-0.1087242133014083,-0.2735673018466533
2025-07-09 21:43:44.789,-0.0841025773255874,-0.0338313787156147,-0.1179339559429543,-0.3439170061934692
2025-07-09 21:43:44.793,-0.0973552918560132,-0.0313368915733388,-0.128692183324721,-0.3703171449380491
2025-07-09 21:43:44.797,-0.1114846579849493,-0.0245165329469957,-0.1360011908210716,-0.319895645734353
2025-07-09 21:43:44.800,-0.1251487016682951,-0.0095167001547721,-0.1346654017062746,-0.2254335241577438
2025-07-09 21:43:44.804,-0.1384262049447037,0.0085625349832569,-0.1298636698387345,-0.1443559505298109
2025-07-09 21:43:44.808,-0.1513122928436344,0.0205031908442737,-0.1308091018704714,-0.1050988693220995
2025-07-09 21:43:44.812,-0.1617620911851439,0.023468811167458,-0.1382932798826638,-0.101902156257519
2025-07-09 21:43:44.816,-0.1680552855241904,0.0222415091941599,-0.1458137761892456,-0.1160465622007804
2025-07-09 21:43:44.820,-0.1719191996039532,0.0219460866475524,-0.1499731128099581,-0.1292178194065275
2025-07-09 21:43:44.824,-0.1770576275810908,0.0239367252889256,-0.153120902139779,-0.1273078309518854
2025-07-09 21:43:44.828,-0.1849838974726442,0.0281385496791612,-0.1568453476350711,-0.1029740426655422
2025-07-09 21:43:44.832,-0.1930019965753109,0.0341494922877487,-0.1588525041234776,-0.0610187605700623
2025-07-09 21:43:44.836,-0.1966508551708986,0.039438345026989,-0.1572125099743733,-0.0199415881349206
2025-07-09 21:43:44.840,-0.1946238308169635,0.0406654452566501,-0.1539583853850825,-0.0004909125442563
2025-07-09 21:43:44.843,-0.1902960883701925,0.0367871003382338,-0.1535089878508352,-0.0125839446864226
2025-07-09 21:43:44.847,-0.1875666674135363,0.0292908921173824,-0.1582757751094058,-0.0543612258949651
2025-07-09 21:43:44.851,-0.1861920603524106,0.0220761132763711,-0.1641159468839769,-0.1149782526668079
2025-07-09 21:43:44.855,-0.1815102378106325,0.0206886476039723,-0.1608215900091482,-0.1766644850148361
2025-07-09 21:43:44.859,-0.1685302968072723,0.026474583270698,-0.1420557133333478,-0.2213414915963476
2025-07-09 21:43:44.863,-0.1474620686769695,0.0324778195230652,-0.1149842489450932,-0.2337696116455661
2025-07-09 21:43:44.867,-0.1247862202596495,0.0303556626685644,-0.094430557377024,-0.2045187994259623
2025-07-09 21:43:44.871,-0.1062585541715451,0.0195840062395087,-0.0866745477127395,-0.14927297574128
2025-07-09 21:43:44.875,-0.0898393291348578,0.0057509060199763,-0.0840884228901026,-0.1145374113243433
2025-07-09 21:43:44.879,-0.0693796652688129,-0.0073688747061583,-0.0767485397446933,-0.1319023611012427
2025-07-09 21:43:44.883,-0.0440802570117137,-0.0200394611300488,-0.0641197179062585,-0.176061710064815
2025-07-09 21:43:44.886,-0.0196489589312432,-0.0327295625609653,-0.0523785212516262,-0.1981995480931267
2025-07-09 21:43:44.890,-0.000624200894617,-0.0438983963045603,-0.0445225969533738,-0.1858219035427232
2025-07-09 21:43:44.894,0.0144959699420113,-0.0528257502054787,-0.0383297800123212,-0.1605920468369479
2025-07-09 21:43:44.898,0.029994818020047,-0.0621389825434191,-0.0321441642670247,-0.1309198616464144
2025-07-09 21:43:44.902,0.0467767384830237,-0.0739290379036709,-0.0271522991593177,-0.078721003367213
2025-07-09 21:43:44.906,0.0608258716704507,-0.0850129944446995,-0.024187122507952,0.0016603509593085
2025-07-09 21:43:44.910,0.0682901035815127,-0.0908583941784462,-0.0225682903255217,0.0761103668295008
2025-07-09 21:43:44.914,0.0707745361323872,-0.0920980017989756,-0.021323465390034,0.1042745893680244
2025-07-09 21:43:44.918,0.0735799496110622,-0.0916990465772193,-0.0181190966846573,0.0884259966629394
2025-07-09 21:43:44.922,0.0791242458393974,-0.0897499409448188,-0.0106256948191585,0.066201912318896
2025-07-09 21:43:44.925,0.0844028471780693,-0.088133890989993,-0.0037310435208236,0.0634508685514501
2025-07-09 21:43:44.929,0.0856576539806719,-0.0940653128809459,-0.0084076586041619,0.0754722370935298
2025-07-09 21:43:44.933,0.0836321491124569,-0.108702679361057,-0.0250705299475571,0.0885953149696283
2025-07-09 21:43:44.937,0.0826200377071475,-0.1184336982384994,-0.0358136602256831,0.0996477128503485
2025-07-09 21:43:44.941,0.0850760974095869,-0.1097595968950762,-0.0246834991752827,0.112829448669754
2025-07-09 21:43:44.945,0.0883956086315311,-0.0887763693181925,-0.000380760371667,0.1300323407552146
2025-07-09 21:43:44.949,0.087939073210987,-0.0746877619695083,0.013251311561364,0.1448657980488805
2025-07-09 21:43:44.953,0.083431935752478,-0.0764759481671581,0.0069559879097598,0.141863148657628
2025-07-09 21:43:44.957,0.0796443578002946,-0.0851260579692099,-0.0054816998402169,0.1103791458795811
2025-07-09 21:43:44.961,0.0791971725836963,-0.0877827174767511,-0.0085855445598817,0.059492806855311
2025-07-09 21:43:44.965,0.0791044722003064,-0.0820040680340742,-0.0028995954958151,0.0066880529533871
2025-07-09 21:43:44.968,0.0768160418075888,-0.0746749597416497,0.0021410824084209,-0.0345302021397647
2025-07-09 21:43:44.972,0.0744558823897671,-0.0720589455237114,0.0023969372125827,-0.0419396294468862
2025-07-09 21:43:44.976,0.074334433697594,-0.0741664083905859,0.0001680256576555,0.0056959915936637
2025-07-09 21:43:44.980,0.0750486675646576,-0.0764732420126169,-0.0014245740927303,0.0869605956512214
2025-07-09 21:43:44.984,0.074671613780192,-0.0742396917105641,0.00043192242938,0.1485284852887022
2025-07-09 21:43:44.988,0.0740009335050794,-0.0663643002527503,0.0076366336160191,0.1726133554357149
2025-07-09 21:43:44.992,0.0743920913300316,-0.0568425096255742,0.0175495820719454,0.1883577628445023
2025-07-09 21:43:44.996,0.0756208463749164,-0.0514998010976269,0.0241210456490935,0.2101574343081046
2025-07-09 21:43:45.000,0.0775945962150246,-0.0523276582914567,0.025266938299875,0.2155282823961635
2025-07-09 21:43:45.004,0.0805571481451406,-0.0551672849444415,0.0253898635809428,0.1912877822869081
2025-07-09 21:43:45.008,0.0824860456999462,-0.0535449068392123,0.0289411392445435,0.158590902164145
2025-07-09 21:43:45.011,0.0810179629283231,-0.0467479550410565,0.0342700082750927,0.1442202226593684
2025-07-09 21:43:45.015,0.0785919135721151,-0.042930248662668,0.0356616653017036,0.1458744295866594
2025-07-09 21:43:45.019,0.0799013315843783,-0.0485834333345671,0.0313178986460693,0.1244495179996192
2025-07-09 21:43:45.023,0.0841826810250823,-0.057217574842143,0.0269651065826492,0.043171375682556
2025-07-09 21:43:45.027,0.0864079769731719,-0.0580078983821652,0.028400078994447,-0.0667523454520231
2025-07-09 21:43:45.031,0.0856293928011618,-0.0525716615519282,0.033057731656963,-0.117309939828981
2025-07-09 21:43:45.035,0.0859283927635937,-0.0518638145579296,0.0340645786174728,-0.0744338042649377
2025-07-09 21:43:45.039,0.0895504670526491,-0.0598560755407687,0.0296943919271447,-0.0077182759124069
2025-07-09 21:43:45.043,0.0936999459705707,-0.0700432267481628,0.0236567196411859,0.0087425016853019
2025-07-09 21:43:45.047,0.0942478903420366,-0.074628414585766,0.019619476179149,-0.0091478083512193
2025-07-09 21:43:45.050,0.0907681711428951,-0.0711185363452436,0.0196496352246521,-0.0007663137032345
2025-07-09 21:43:45.054,0.0871781008995669,-0.0628412423005956,0.0243368590295091,0.0470154365613071
2025-07-09 21:43:45.058,0.0869765700599664,-0.055699844927587,0.0312767255663066,0.0948787826666349
2025-07-09 21:43:45.062,0.0892802621398935,-0.0533480778107598,0.035932184766957,0.110432367702866
2025-07-09 21:43:45.066,0.0912336739968822,-0.0552016721122123,0.0360320023265988,0.1005828527647988
2025-07-09 21:43:45.070,0.0926095285344764,-0.0584744080465142,0.0341351209335472,0.0940822612576779
2025-07-09 21:43:45.074,0.0954841282857653,-0.0608451950555175,0.0346389336792128,0.1074493449306413
2025-07-09 21:43:45.078,0.0999683594276554,-0.0609253648987981,0.0390429949815667,0.1293831333146668
2025-07-09 21:43:45.082,0.1030437118822339,-0.0571406206506701,0.0459030916883271,0.1379342695944646
2025-07-09 21:43:45.086,0.1026855518621861,-0.0490072045184149,0.0536783478043127,0.1291356954277429
2025-07-09 21:43:45.090,0.1006155467779304,-0.0408358354642626,0.0597797117776821,0.1202025299080105
2025-07-09 21:43:45.093,0.0987705193432406,-0.0394606929900171,0.0593098268209341,0.1249096102231457
2025-07-09 21:43:45.097,0.0951303170833486,-0.0442260156350856,0.0509043019199974,0.1377882519442812
2025-07-09 21:43:45.101,0.0860587303605496,-0.0444547722613074,0.0416039585748795,0.1473909792574452
2025-07-09 21:43:45.105,0.0726246805800144,-0.0320631028536757,0.0405615782056166,0.1508421716474711
2025-07-09 21:43:45.109,0.0622619808452528,-0.01038564476037,0.0518763365679195,0.1450267634776396
2025-07-09 21:43:45.113,0.0614523996251953,0.0132121715199585,0.0746645716322363,0.1220829985528892
2025-07-09 21:43:45.117,0.0672446307486318,0.0327491541835442,0.0999937854232824,0.0898662169801521
2025-07-09 21:43:45.121,0.0708966654064875,0.0397325495694196,0.1106292154708456,0.075358324508871
2025-07-09 21:43:45.125,0.0701261138772529,0.0304435828416106,0.1005696972176962,0.0885373304826999
2025-07-09 21:43:45.129,0.0708017186761781,0.0191182867827766,0.0899200059619089,0.1030039372445983
2025-07-09 21:43:45.133,0.0754914747086178,0.0253268714292385,0.1008183466449537,0.0910204625795672
2025-07-09 21:43:45.136,0.0779433751275529,0.0469450997383389,0.1248884753770078,0.0621915249844149
2025-07-09 21:43:45.140,0.0724400121754641,0.0631043248106442,0.1355443375012995,0.048440183826941
2025-07-09 21:43:45.144,0.0638381273113167,0.0632486375545719,0.1270867653853448,0.0594691437865056
2025-07-09 21:43:45.148,0.0626873385556057,0.0553119685557698,0.1179993076351256,0.0754556237796444
2025-07-09 21:43:45.152,0.0717767117602546,0.044391936256612,0.1161686485448272,0.0816436740682451
2025-07-09 21:43:45.156,0.0845237402930302,0.0226400269644306,0.1071637677897137,0.0833376873671302
2025-07-09 21:43:45.160,0.0961684627827099,-0.011830590407366,0.084337872912084,0.0839782135018686
2025-07-09 21:43:45.164,0.1070855634017658,-0.0418157001290022,0.06526986381402,0.0765373766153734
2025-07-09 21:43:45.168,0.1154668982960066,-0.0504515589007789,0.0650153399409146,0.0616515493745681
2025-07-09 21:43:45.172,0.1181825838739436,-0.0433893218200122,0.0747932626041416,0.0507047919313787
2025-07-09 21:43:45.175,0.1187670500792917,-0.0366455932825937,0.0821214573516606,0.0471113034290537
2025-07-09 21:43:45.179,0.123501866916055,-0.0323340235490671,0.0911678439267516,0.0414672313394944
2025-07-09 21:43:45.183,0.1302140454533834,-0.0249524204314406,0.1052616255863917,0.028239208551474
2025-07-09 21:43:45.187,0.1310491660975412,-0.0215740519898802,0.1094751146768589,0.0155994571624504
2025-07-09 21:43:45.191,0.1257451841813716,-0.0315346495450663,0.0942105352105187,0.0118713307365159
2025-07-09 21:43:45.195,0.1228357076259323,-0.0432001915932531,0.0796355166120111,0.0078703610124784
2025-07-09 21:43:45.199,0.1268977705882245,-0.0398023222175222,0.0870954489550126,-0.015901825674983
2025-07-09 21:43:45.203,0.133251507563209,-0.0364647165783601,0.0967867915741281,-0.0619718004997913
2025-07-09 21:43:45.207,0.1389913836770294,-0.0693086986831129,0.0696826855884338,-0.1032770700830652
2025-07-09 21:43:45.211,0.1513731021847619,-0.1406343036383897,0.010738799146313,-0.1050361478388995
2025-07-09 21:43:45.215,0.1745944880046283,-0.2029089282909558,-0.0283144396810809,-0.0627801786137847
2025-07-09 21:43:45.218,0.1883981918005856,-0.2106853788582973,-0.0222871864472542,-0.0109519116053382
2025-07-09 21:43:45.222,0.1540651600965891,-0.1719697159558724,-0.017904555243401,0.0205472487810796
2025-07-09 21:43:45.226,0.053621450137924,-0.1333459689515065,-0.0797245181920201,0.0450752257181353
2025-07-09 21:43:45.230,-0.0864895422443065,-0.1097214900233952,-0.1962110316404985,0.0828333994000658
2025-07-09 21:43:45.234,-0.2286113855542018,-0.0311164575273205,-0.2597278424488246,0.0997087050392857
2025-07-09 21:43:45.238,-0.3730151499855775,0.2106902487092812,-0.1623249006379974,0.0323838109871605
2025-07-09 21:43:45.242,-0.5451898659624612,0.6210854719183663,0.0758956066000666,-0.1247764797954216
2025-07-09 21:43:45.246,-0.7258154152427898,1.0272839421311528,0.3014685275384517,-0.3045373164340856
2025-07-09 21:43:45.250,-0.8183471049220925,1.2141749087477525,0.3958278044815507,-0.4473095631246879
2025-07-09 21:43:45.254,-0.7181153458967997,1.1387914444772538,0.4206760992421415,-0.5576178219773995
2025-07-09 21:43:45.258,-0.4276296257126251,0.9415036903478292,0.5138740653028713,-0.6607721772978498
2025-07-09 21:43:45.261,-0.0885977511592298,0.7532020002153692,0.6646042497299232,-0.7326835659014376
2025-07-09 21:43:45.265,0.1292091622019595,0.581300256839944,0.710509419721772,-0.7113498944887202
2025-07-09 21:43:45.269,0.1742437821050158,0.3884726054585547,0.5627163882494675,-0.5768008117402046
2025-07-09 21:43:45.273,0.1297291168254579,0.1910615256432997,0.3207906431607408,-0.3878708286052066
2025-07-09 21:43:45.277,0.0968647329038334,0.0457652804680887,0.1426300140701174,-0.2306544846767885
2025-07-09 21:43:45.281,0.1013137773418311,-0.0172041112912615,0.0841096667550539,-0.1473226246067541
2025-07-09 21:43:45.285,0.1130866565638685,-0.0222305153740289,0.0908561419005956,-0.1162768488490974
2025-07-09 21:43:45.289,0.1110361480818946,-0.0196008765051882,0.0914352722936835,-0.089609895009632
2025-07-09 21:43:45.293,0.1036099208685228,-0.0368199804401732,0.0667899411515763,-0.0470775734404065
2025-07-09 21:43:45.297,0.1049715049138783,-0.060874945491363,0.0440965601521247,-0.0086130203462496
2025-07-09 21:43:45.300,0.1131093928292986,-0.0687564484712313,0.0443529450941518,0.0074276531066959
2025-07-09 21:43:45.304,0.1158489626422517,-0.063011858343762,0.0528371050409739,0.0152271078400503
2025-07-09 21:43:45.308,0.1100455589798184,-0.062860199396398,0.047185360332198,0.0352800091232138
2025-07-09 21:43:45.312,0.1048131575326389,-0.070765194530834,0.0340479637569625,0.0610811872138393
2025-07-09 21:43:45.316,0.107095113732376,-0.0727134604715146,0.0343816540225902,0.0728800144378124
2025-07-09 21:43:45.320,0.1134386743779952,-0.0687727575879691,0.0446659175583156,0.0672447581179277
2025-07-09 21:43:45.324,0.115363207150152,-0.0743027736854918,0.0410604342393044,0.0583477868065462
2025-07-09 21:43:45.328,0.1050919988104618,-0.0864454966888087,0.01864650290261,0.0628922023114971
2025-07-09 21:43:45.332,0.0798138695884188,-0.0798221235296921,-8.25315378113426e-06,0.0869530381755482
2025-07-09 21:43:45.336,0.0483407454259088,-0.0472329493843747,0.0011077968356736,0.1171145375001886
2025-07-09 21:43:45.340,0.0284119512111581,-0.0170624132262763,0.0113495387854527,0.130885339905026
2025-07-09 21:43:45.343,0.0300653867722832,-0.0142144047380425,0.0158509828410474,0.1232796009870148
2025-07-09 21:43:45.347,0.0441457073805797,-0.0264470010477031,0.0176987071460785,0.1139233032095654
2025-07-09 21:43:45.351,0.049879217272884,-0.0271477365656069,0.0227314815271075,0.124408572881589
2025-07-09 21:43:45.355,0.0345878650699296,-0.0140460550214877,0.0205418108747749,0.1528725967739576
2025-07-09 21:43:45.359,0.008175567329427,-0.0061572247331507,0.0020183434288039,0.1714091278045714
2025-07-09 21:43:45.363,-0.0056650975074708,-0.0131387869643588,-0.0188038836330971,0.1556706378922812
2025-07-09 21:43:45.367,0.0024620463199091,-0.0263558688997866,-0.0238938217346558,0.1208093801726664
2025-07-09 21:43:45.371,0.0143476416509548,-0.0343986536909847,-0.0200510111882883,0.1096471378818123
2025-07-09 21:43:45.375,0.0058637741155796,-0.031147784782602,-0.0252840098090839,0.1359024504171771
2025-07-09 21:43:45.379,-0.0232669334736958,-0.0136632706600454,-0.0369302032697749,0.1650501385057385
2025-07-09 21:43:45.383,-0.0506745775033344,0.0132253689034901,-0.0374492077296195,0.1654466611325808
2025-07-09 21:43:45.386,-0.0611794545758192,0.035094060843472,-0.0260853928556757,0.1467467414586055
2025-07-09 21:43:45.390,-0.0637824493531655,0.0420852267882661,-0.0216972216820082,0.1276312578817668
2025-07-09 21:43:45.394,-0.0738597840933486,0.0400073774336119,-0.0338524057709339,0.1009365192677045
2025-07-09 21:43:45.398,-0.0906819076068906,0.0406437351941225,-0.0500381715179715,0.0609846205889747
2025-07-09 21:43:45.402,-0.103743244775267,0.0478766877565704,-0.0558665561176292,0.0336966539418201
2025-07-09 21:43:45.406,-0.112146954899511,0.0585266809889723,-0.0536202730032574,0.0381653434947826
2025-07-09 21:43:45.410,-0.1242234932833711,0.069798554332924,-0.0544249380373051,0.03761208848816
2025-07-09 21:43:45.414,-0.1428184349308079,0.0804648059001838,-0.0623536281117292,-0.0227242497314516
2025-07-09 21:43:45.418,-0.1621036343604251,0.0890770227234685,-0.0730266107120494,-0.1361160118854243
2025-07-09 21:43:45.422,-0.1763416793700918,0.0949417534331178,-0.0813999250059346,-0.2474499461890443
2025-07-09 21:43:45.425,-0.1844291830461061,0.0986446770295583,-0.0857845050796667,-0.3387385021711563
2025-07-09 21:43:45.429,-0.1876229565444389,0.1001147921237749,-0.0875081634782141,-0.4330276089709567
2025-07-09 21:43:45.433,-0.187664807748131,0.0985997523491035,-0.0890650544508644,-0.5258369796744805
2025-07-09 21:43:45.437,-0.187407741141626,0.095429172799036,-0.0919785673884669,-0.5918818358433623
2025-07-09 21:43:45.441,-0.190359582463794,0.0934873361678056,-0.0968722453360492,-0.6369017486593556
2025-07-09 21:43:45.445,-0.1964156684124859,0.091621827176084,-0.1047938402710047,-0.6673887841290115
2025-07-09 21:43:45.449,-0.1995612692440215,0.0834734843321061,-0.1160877839410825,-0.648601798415286
2025-07-09 21:43:45.453,-0.1947551788933576,0.0672067495632282,-0.127548428353577,-0.5607247657587955
2025-07-09 21:43:45.457,-0.1850121508190487,0.0524757806942071,-0.1325363691425434,-0.4530610781823579
2025-07-09 21:43:45.461,-0.1763431166047859,0.0492209256617262,-0.1271221899553638,-0.3922342845937432
2025-07-09 21:43:45.465,-0.170082289956784,0.0536891855744094,-0.1163931033894665,-0.394201523641636
2025-07-09 21:43:45.468,-0.1648045675286995,0.055585200896566,-0.1092193656337893,-0.4208962967422325
2025-07-09 21:43:45.472,-0.1584901829200259,0.0524236866824886,-0.1060664952335997,-0.3966307314726075
2025-07-09 21:43:45.476,-0.1459674297796188,0.04581906180925,-0.1001483669611001,-0.2574465579432624
2025-07-09 21:43:45.480,-0.1251766657489079,0.0342609391762615,-0.0909157255583406,-0.06767010404405
2025-07-09 21:43:45.484,-0.1074259095109673,0.0213964974220345,-0.086029411069486,-0.0290504592228366
2025-07-09 21:43:45.488,-0.1070161977797065,0.0174698307123761,-0.0895463660425296,-0.2438896702298073
2025-07-09 21:43:45.492,-0.1193481866144064,0.0222145558346636,-0.0971336297497385,-0.5269089206248156
2025-07-09 21:43:45.496,-0.1241590945821081,0.0232476562663017,-0.1009114372809294,-0.5997355307691821
2025-07-09 21:43:45.500,-0.1098289883399677,0.0175842962601294,-0.0922446910401164,-0.4200017307879348
2025-07-09 21:43:45.504,-0.081011743755306,0.0144430280791507,-0.0665687146313998,-0.1850580395705725
2025-07-09 21:43:45.508,-0.0470902808880641,0.0142874436437828,-0.0328028361945538,-0.0661592918296236
2025-07-09 21:43:45.511,-0.0168082839915708,0.0069315170608252,-0.0098767658763523,-0.06187632557716
2025-07-09 21:43:45.515,0.0015370474021339,-0.0089347000473891,-0.0073976515863181,-0.0829763293535526
2025-07-09 21:43:45.519,0.0070928454895133,-0.0236926506462905,-0.0165998040931795,-0.0776311631660661
2025-07-09 21:43:45.523,0.0094930578193486,-0.0327094151411569,-0.0232163562535752,-0.0548165523305171
2025-07-09 21:43:45.527,0.017131885158779,-0.038969016586481,-0.0218371303550896,-0.0418157937179174
2025-07-09 21:43:45.531,0.0279648501500316,-0.0432819078783234,-0.0153170566514586,-0.0543235285190006
2025-07-09 21:43:45.535,0.0374250571068772,-0.0441910741658714,-0.0067660159779012,-0.089245192709479
2025-07-09 21:43:45.539,0.0479666329403864,-0.0455923484151046,0.002374285610588,-0.1268738889111723
2025-07-09 21:43:45.543,0.0643805281952668,-0.0558932815999742,0.0084872476845936,-0.1481174643268323
2025-07-09 21:43:45.547,0.0844700788264221,-0.0772157537910575,0.0072543261285217,-0.1506279663322379
2025-07-09 21:43:45.550,0.0980081783958541,-0.097761662728729,0.0002465167641333,-0.1419732160163153
2025-07-09 21:43:45.554,0.0936091575468624,-0.1005703852313367,-0.0069612265837294,-0.1291236437914929
2025-07-09 21:43:45.558,0.0701454783057449,-0.0838061764222859,-0.0136606970122956,-0.1180826776897252
2025-07-09 21:43:45.562,0.043434875173928,-0.0662541208230515,-0.0228192445414723,-0.1076366236798614
2025-07-09 21:43:45.566,0.0341609396944169,-0.0659935401080269,-0.031832599302537,-0.0875557453784455
2025-07-09 21:43:45.570,0.0467280647710032,-0.0801236254169189,-0.0333955595316061,-0.0587411743965177
2025-07-09 21:43:45.574,0.0668639156292941,-0.0920795732850562,-0.0252156565385394,-0.0420910069906657
2025-07-09 21:43:45.578,0.0781860714875525,-0.0908331590157992,-0.0126470864081833,-0.0500017097989631
2025-07-09 21:43:45.582,0.0742998892412223,-0.0772945040202897,-0.0029946136560585,-0.0650576916477857
2025-07-09 21:43:45.586,0.0603313310253374,-0.0607127550297522,-0.0003814228786673,-0.0673739260725157
2025-07-09 21:43:45.590,0.0487937162586328,-0.0527687619014738,-0.0039750445148169,-0.0674786138565922
2025-07-09 21:43:45.593,0.0484596297564977,-0.0578176941396729,-0.0093580632529883,-0.084796303532601
2025-07-09 21:43:45.597,0.0565442714275111,-0.0687913661010992,-0.0122470935410078,-0.1063523140374864
2025-07-09 21:43:45.601,0.0664992591948665,-0.0782462692491194,-0.011747008919423,-0.1029261156099699
2025-07-09 21:43:45.605,0.0764066375635393,-0.0874657162640285,-0.0110590775640189,-0.079486097617098
2025-07-09 21:43:45.609,0.083834960369313,-0.0980040669476596,-0.0141691054404823,-0.0667876733596413
2025-07-09 21:43:45.613,0.0839382029484167,-0.104923995893198,-0.0209857918051808,-0.0585386451413486
2025-07-09 21:43:45.617,0.079486168096464,-0.1070014473787675,-0.0275152781409504,-0.0097247217744915
2025-07-09 21:43:45.621,0.0801193345013394,-0.1097229265637254,-0.0296035909199882,0.0615660368075256
2025-07-09 21:43:45.625,0.0842578811580355,-0.1089891192401705,-0.0247312369391565,0.0130525565151039
2025-07-09 21:43:45.629,0.0757994228265286,-0.0909160099729863,-0.0151165860025171,-0.2900800904737033
2025-07-09 21:43:45.633,0.0501311628267001,-0.0597864002160483,-0.0096552362441947,-0.7639160782489938
2025-07-09 21:43:45.636,0.0290036436869499,-0.0429477731705951,-0.0139441283379829,-1.1040004660763767
2025-07-09 21:43:45.640,0.0320513296764975,-0.0520315754334732,-0.0199802446115302,-1.0585630702060405
2025-07-09 21:43:45.644,0.0462018364916139,-0.0636956063037874,-0.0174937686666402,-0.6824457412076134
2025-07-09 21:43:45.648,0.0453879659452697,-0.0566004191282525,-0.0112124520368596,-0.2654865516209168
2025-07-09 21:43:45.652,0.0308200908467335,-0.0434479155905431,-0.0126278235976676,-0.0291323618801536
2025-07-09 21:43:45.656,0.0280628331198442,-0.0485944158918315,-0.0205315816267968,0.033366260764613
2025-07-09 21:43:45.660,0.0488407861224281,-0.0747366000384853,-0.0258958127717244,0.0476158506167406
2025-07-09 21:43:45.664,0.0750420162024831,-0.1044756737640502,-0.0294336564174006,0.0962515984684679
2025-07-09 21:43:45.668,0.0807455180212601,-0.1176201629188478,-0.0368746437539177,0.1677901425155784
2025-07-09 21:43:45.672,0.0605717243540084,-0.1043493153569598,-0.0437775898609142,0.2027713172032587
2025-07-09 21:43:45.675,0.0355745515091494,-0.0775072700211666,-0.0419327173718323,0.1787178315075682
2025-07-09 21:43:45.679,0.0321823185653724,-0.0654603250663166,-0.0332780053618464,0.1446108535564083
2025-07-09 21:43:45.683,0.054091815621937,-0.0779624225260593,-0.0238706057661288,0.1551552902524698
2025-07-09 21:43:45.687,0.0778714834605493,-0.0915029450831099,-0.0136314604868367,0.2009649196126864
2025-07-09 21:43:45.691,0.0797586092196134,-0.0822530844931586,-0.0024944741406572,0.2372474235723
2025-07-09 21:43:45.695,0.062995165328604,-0.0595609666143896,0.0034341998449639,0.2507027803509562
2025-07-09 21:43:45.699,0.0515044775345331,-0.0516577746957533,-0.0001532960323108,0.2628645838520977
2025-07-09 21:43:45.703,0.0592488627107731,-0.0682069899694562,-0.0089581261326583,0.2916437841289712
2025-07-09 21:43:45.707,0.0780308271544659,-0.0934812441444015,-0.0154504158676647,0.3341588360353175
2025-07-09 21:43:45.711,0.0948916130867198,-0.1115771681045986,-0.0166855538988635,0.3693988401389523
2025-07-09 21:43:45.715,0.1054879278471295,-0.1210921313803953,-0.0156042024169604,0.3697729417030845
2025-07-09 21:43:45.718,0.1089194881010062,-0.1258158580096371,-0.0168963687958354,0.3254769217790296
2025-07-09 21:43:45.722,0.1055688627777778,-0.1269563475748826,-0.0213874836888826,0.2575213499143607
2025-07-09 21:43:45.726,0.102083707817647,-0.1261074754368632,-0.0240237665153545,0.1996439664959484
2025-07-09 21:43:45.730,0.1044761600469923,-0.1241593690514622,-0.0196832079042982,0.1702784087368251
2025-07-09 21:43:45.734,0.1044887547743408,-0.1163442947208936,-0.0118555388505713,0.1622377041751848
2025-07-09 21:43:45.738,0.0861811106757694,-0.0964426993237237,-0.01026158755729,0.1577652451484558
2025-07-09 21:43:45.742,0.0509165590575792,-0.0668269191000261,-0.0159103589571954,0.1512104735333736
2025-07-09 21:43:45.746,0.0231578318840703,-0.0399443297703942,-0.016786496805823,0.1483838106415802
2025-07-09 21:43:45.750,0.021839644923689,-0.0278321268113066,-0.0059924808120785,0.1474748813018223
2025-07-09 21:43:45.754,0.0373258180141141,-0.0309140228361608,0.0064117962474661,0.1398936878311603
2025-07-09 21:43:45.758,0.0487967855801802,-0.0389240466959665,0.0098727399473379,0.128476222022813
2025-07-09 21:43:45.761,0.0518822582935585,-0.0414386462916772,0.0104436130591653,0.1231297402131516
2025-07-09 21:43:45.765,0.0544222201619916,-0.0353309310687734,0.0190912901446832,0.1208762779836398
2025-07-09 21:43:45.769,0.0573783306063631,-0.0262920884955576,0.0310862431555444,0.1117736139147819
2025-07-09 21:43:45.773,0.0561549916418486,-0.0246727154990431,0.031482277180275,0.1009168082476172
2025-07-09 21:43:45.777,0.0527715362061946,-0.0335862423777492,0.0191852948590208,0.1040272582153937
2025-07-09 21:43:45.781,0.0546653037346458,-0.0446626684185895,0.0100026363399081,0.1213639656717667
2025-07-09 21:43:45.785,0.0655450254570409,-0.0537553711651967,0.0117896553082661,0.1315945008070519
2025-07-09 21:43:45.789,0.0809185965992446,-0.0686946994500365,0.0122238981575637,0.1197462767465066
2025-07-09 21:43:45.793,0.0881445960883537,-0.0884446485128266,-0.0003000514240003,0.1047932665357518
2025-07-09 21:43:45.797,0.0760602834156168,-0.0937833419493998,-0.0177230575409549,0.1202234096935355
2025-07-09 21:43:45.800,0.0526469026821914,-0.0792098925061556,-0.0265629888392805,0.1619152397884486
2025-07-09 21:43:45.804,0.0427636186756243,-0.0722396555041155,-0.0294760358526033,0.1835407067106393
2025-07-09 21:43:45.808,0.0580725693020549,-0.0934880223496613,-0.0354154520805063,0.1573120299874765
2025-07-09 21:43:45.812,0.081614837776314,-0.1196183350753643,-0.0380034963404852,0.1071633104769921
2025-07-09 21:43:45.816,0.0920173511974509,-0.1187717937930685,-0.0267544416458927,0.0699366861007587
2025-07-09 21:43:45.820,0.0899492678810221,-0.1020961043465922,-0.0121468355253002,0.0557689206991329
2025-07-09 21:43:45.824,0.090120540604461,-0.1032541163650174,-0.0131335748298931,0.049283890068949
2025-07-09 21:43:45.828,0.097403290149495,-0.1228388431050845,-0.0254355520343068,0.02746358195139
2025-07-09 21:43:45.832,0.103424247927582,-0.1329131807565105,-0.0294889319171459,-0.0086539433504814
2025-07-09 21:43:45.836,0.1040324575588676,-0.1315685510089373,-0.0275360925483251,-0.0138508664548266
2025-07-09 21:43:45.840,0.1089723649367003,-0.1537442695633454,-0.0447719037352451,0.0526373836948129
2025-07-09 21:43:45.843,0.1290247089725492,-0.2161422036466252,-0.0871174937928667,0.162543966311933
2025-07-09 21:43:45.847,0.1571799829975354,-0.2800678768210366,-0.1228878929524216,0.2498093028281539
2025-07-09 21:43:45.851,0.1666216244206008,-0.2918142505772563,-0.1251926252961137,0.2958239495260515
2025-07-09 21:43:45.855,0.1279980551779145,-0.247096730867224,-0.1190986748397552,0.3380178541389141
2025-07-09 21:43:45.859,0.0318435846114097,-0.190462894788997,-0.1586193093390014,0.402658304910989
2025-07-09 21:43:45.863,-0.1041016928090919,-0.1416477707724741,-0.2457494627537339,0.4628853583014253
2025-07-09 21:43:45.867,-0.2565833812839775,-0.0338961213141387,-0.290479501781249,0.4619968367633169
2025-07-09 21:43:45.871,-0.4235442502958945,0.2376376291547844,-0.1859066203357502,0.365062102166089
2025-07-09 21:43:45.875,-0.6077741005611126,0.6690788764531452,0.0613047766857122,0.1908887281652687
2025-07-09 21:43:45.879,-0.768745009957392,1.0773625807045497,0.3086175715294508,-0.0027616392060668
2025-07-09 21:43:45.883,-0.8194472578053937,1.2479616290253053,0.4285143719908412,-0.1693443631205439
2025-07-09 21:43:45.886,-0.6959953457327235,1.1505984919157544,0.4546031469420607,-0.3068846822615225
2025-07-09 21:43:45.890,-0.4290857137951284,0.94032990583428,0.5112441927859182,-0.432056241738151
2025-07-09 21:43:45.894,-0.1369039963942108,0.754718738907737,0.6178147432482939,-0.5254231486697789
2025-07-09 21:43:45.898,0.0596334775198308,0.5926691378630216,0.6523026161058421,-0.5280891394638719
2025-07-09 21:43:45.902,0.1212610484554485,0.3973341190679039,0.5185951682341521,-0.4109655543487226
2025-07-09 21:43:45.906,0.0979727297524099,0.1756274956237881,0.2736002260743317,-0.2296260758743462
2025-07-09 21:43:45.910,0.0633853265067795,-0.0023894631819682,0.0609958640104152,-0.0784387619125228
2025-07-09 21:43:45.914,0.051833041355543,-0.0865239502977013,-0.034690908268768,0.0067176833875521
2025-07-09 21:43:45.918,0.0552515759757066,-0.0962712855540483,-0.0410197089173835,0.0667630758014061
2025-07-09 21:43:45.922,0.0586034136722859,-0.0904204652345974,-0.0318170509142498,0.1388893368615766
2025-07-09 21:43:45.925,0.0606165006163791,-0.1023369320799636,-0.0417204308284205,0.1985584438144181
2025-07-09 21:43:45.929,0.0655018081571411,-0.1180005730752678,-0.0524987642955507,0.1984074940977608
2025-07-09 21:43:45.933,0.070459106718262,-0.1154314159975817,-0.0449723086693773,0.1326758535695987
2025-07-09 21:43:45.937,0.0693130335656368,-0.1036863734451634,-0.0343733392825818,0.0411285555620673
2025-07-09 21:43:45.941,0.0641049990525159,-0.107344467740866,-0.0432394681044891,-0.033027656514168
2025-07-09 21:43:45.945,0.0634919713952398,-0.1264988938883756,-0.0630069219221215,-0.0785151233573966
2025-07-09 21:43:45.949,0.06873948124195,-0.1366374793373287,-0.0678979975371608,-0.1283953002993378
2025-07-09 21:43:45.953,0.0709587472339004,-0.127776237630512,-0.056817489851425,-0.2335937077450181
2025-07-09 21:43:45.957,0.0652567184220801,-0.1191422721071999,-0.0538855531530649,-0.3913251599917313
2025-07-09 21:43:45.961,0.0583004159183406,-0.1258070434870598,-0.067506627049644,-0.5159972041630893
2025-07-09 21:43:45.965,0.0574679099530057,-0.1343528731923954,-0.0768849627332292,-0.5275115136503392
2025-07-09 21:43:45.968,0.0603477966888114,-0.1279108291185191,-0.0675630319365948,-0.4420630039545042
2025-07-09 21:43:45.972,0.0599805001850698,-0.1141633270154614,-0.0541828263503823,-0.3318461833779515
2025-07-09 21:43:45.976,0.0547710021856509,-0.1091314078660878,-0.0543604052134239,-0.2378459562211042
2025-07-09 21:43:45.980,0.0480434118560165,-0.1109676540688659,-0.062924241758796,-0.1617588494377562
2025-07-09 21:43:45.984,0.0412468354352617,-0.1090738467419768,-0.0678270108657081,-0.0978943593738648
2025-07-09 21:43:45.988,0.0330718791857979,-0.1053962220088929,-0.0723243423951301,-0.03915902503236
2025-07-09 21:43:45.992,0.0243227791035601,-0.108777803625497,-0.0844550241068978,0.020867102893133
2025-07-09 21:43:45.996,0.0182781355561548,-0.1169535281553956,-0.098675392197117,0.07769502743696
2025-07-09 21:43:46.000,0.0150157956510583,-0.1190112962292512,-0.1039955001890748,0.1233260601052225
2025-07-09 21:43:46.004,0.0097944949648592,-0.1106858452226007,-0.1008913498815839,0.160807892825381
2025-07-09 21:43:46.008,-0.0008509945238225,-0.0962125943876664,-0.0970635885481275,0.1953373476323884
2025-07-09 21:43:46.011,-0.0146908263966305,-0.0795887167768375,-0.0942795428228867,0.217244840147347
2025-07-09 21:43:46.015,-0.0272034518859909,-0.0635295347131503,-0.0907329862614624,0.2147931453316432
2025-07-09 21:43:46.019,-0.0366576578809098,-0.053459322454903,-0.0901169800109934,0.2061752961655231
2025-07-09 21:43:46.023,-0.0444737561080657,-0.0534882665962681,-0.0979620223921519,0.2353063439672292
2025-07-09 21:43:46.027,-0.0529145320465356,-0.0579699892261381,-0.1108845209730652,0.318681197822495
2025-07-09 21:43:46.031,-0.0638229058134431,-0.0530585124156935,-0.1168814179422494,0.4131191629431351
2025-07-09 21:43:46.035,-0.0779414416425053,-0.0314482215154148,-0.1093896628837539,0.4569517911480705
2025-07-09 21:43:46.039,-0.0940272681601458,-0.0039758666359258,-0.0980031345343729,0.4319334385956503
2025-07-09 21:43:46.043,-0.1095048749414496,0.0100185993279262,-0.0994862753641536,0.3713099950371275
2025-07-09 21:43:46.047,-0.1225954535460721,0.0049210934611557,-0.1176743598480147,0.3201281703587447
2025-07-09 21:43:46.050,-0.1331864162336986,-0.0043418328879703,-0.1375282488972914,0.2992057754744253
2025-07-09 21:43:46.054,-0.1424729270508293,0.0010326812493031,-0.141440245589428,0.3021256382044599
2025-07-09 21:43:46.058,-0.1526145660123195,0.0232803590665584,-0.129334206745733,0.3168186138259616
2025-07-09 21:43:46.062,-0.1648947392610725,0.0448618523728507,-0.1200328867003558,0.338338791149069
2025-07-09 21:43:46.066,-0.177747516492655,0.0478414365617718,-0.1299060797552748,0.3595201411303154
2025-07-09 21:43:46.070,-0.1885077244653382,0.0371682048373297,-0.1513395194644565,0.3656087179667053
2025-07-09 21:43:46.074,-0.1961146156985667,0.0357083226431001,-0.1604062929037256,0.3443800071951139
2025-07-09 21:43:46.078,-0.2008521365051213,0.0533971288297773,-0.1474550075354448,0.2938371883807826
2025-07-09 21:43:46.082,-0.2037407265170266,0.0755168280416589,-0.128223898347413,0.227680076326894
2025-07-09 21:43:46.086,-0.2061069543217095,0.0857484009228172,-0.1203585532827329,0.1786313511056109
2025-07-09 21:43:46.090,-0.2076007713376675,0.0843188343294076,-0.1232819369036539,0.1749214691689953
2025-07-09 21:43:46.093,-0.2065616687751169,0.0778614632893338,-0.1287002053927117,0.2073088695899655
2025-07-09 21:43:46.097,-0.2032202767179705,0.0671483097893758,-0.1360719668471341,0.2424405114497963
2025-07-09 21:43:46.101,-0.1990986910973506,0.0528063469053605,-0.1462923441220111,0.2654638190651874
2025-07-09 21:43:46.105,-0.193418866765033,0.0418237222984792,-0.1515951444078346,0.2830438388676953
2025-07-09 21:43:46.109,-0.1838260753080624,0.0394524933963225,-0.1443735818642544,0.2954470224868248
2025-07-09 21:43:46.113,-0.1701051527023114,0.0404615631039347,-0.1296435895621802,0.2954692676323043
2025-07-09 21:43:46.117,-0.1542687005721792,0.0352848305132022,-0.1189838700339161,0.2857559771968363
2025-07-09 21:43:46.121,-0.1378093097903667,0.0218382740118421,-0.1159710357643642,0.2760953057493646
2025-07-09 21:43:46.125,-0.1205828754302986,0.0061892194788475,-0.1143936559481809,0.2735651440890694
2025-07-09 21:43:46.129,-0.1008384202680399,-0.0065593621934359,-0.1073977824691658,0.282903356882987
2025-07-09 21:43:46.133,-0.0760281413550758,-0.017080762181138,-0.09310890355467,0.3001958761884798
2025-07-09 21:43:46.136,-0.0467020662384357,-0.0281747466812414,-0.0748768129485991,0.3048434803348099
2025-07-09 21:43:46.140,-0.0188852069442233,-0.0413718485508101,-0.0602570555344214,0.2757738247920612
2025-07-09 21:43:46.144,0.001779495169672,-0.0577054549945612,-0.0559259598748875,0.2153833809733877
2025-07-09 21:43:46.148,0.016962128740833,-0.0774151218705889,-0.0604529931901641,0.144722191951021
2025-07-09 21:43:46.152,0.0325026245968476,-0.0978128400289904,-0.0653102155025461,0.080044327755894
2025-07-09 21:43:46.156,0.0500830341728442,-0.1136502191038917,-0.0635671850114035,0.0241467431641074
2025-07-09 21:43:46.160,0.0656966404228383,-0.1196036708659346,-0.0539070305336638,-0.0290398844083599
2025-07-09 21:43:46.164,0.0756207622478902,-0.1136920882684192,-0.0380713261211777,-0.0926415954761521
2025-07-09 21:43:46.168,0.0812137463776163,-0.101396853849821,-0.0201831075823922,-0.1819704203616816
2025-07-09 21:43:46.172,0.0864166727761672,-0.0934681759208173,-0.0070515032642081,-0.3028660340035547
2025-07-09 21:43:46.175,0.0917205123801394,-0.0950377846221947,-0.0033172723713485,-0.4409786515274875
2025-07-09 21:43:46.179,0.0938718493644284,-0.1005201862870399,-0.0066483370616735,-0.5564988326085518
2025-07-09 21:43:46.183,0.0919390943084588,-0.1030998260949777,-0.0111607319347246,-0.6041927077801661
2025-07-09 21:43:46.187,0.0896901023333577,-0.1042856901188777,-0.0145955879424957,-0.5856272007369312
2025-07-09 21:43:46.191,0.090422367767176,-0.1096696683884477,-0.0192473007874216,-0.565882892729755
2025-07-09 21:43:46.195,0.093325000789675,-0.1191753283184557,-0.0258503277043698,-0.598410723692159
2025-07-09 21:43:46.199,0.0965014328225525,-0.1263680765090183,-0.0298666438708728,-0.650325121988969
2025-07-09 21:43:46.203,0.0988658063163296,-0.1263122150449662,-0.0274464089212276,-0.658169494717616
2025-07-09 21:43:46.207,0.0977272368261146,-0.1203308013355925,-0.0226035647105796,-0.6418120180883533
2025-07-09 21:43:46.211,0.091321468427905,-0.1121831417464644,-0.0208616735286871,-0.6771886039274936
2025-07-09 21:43:46.215,0.0861411750366892,-0.1032873964366576,-0.0171462216186331,-0.7442710458747297
2025-07-09 21:43:46.218,0.0931977851296277,-0.0952481087817081,-0.0020503238784036,-0.7020138292467819
2025-07-09 21:43:46.222,0.1117671021273594,-0.092910369764866,0.0188567321283899,-0.4683574553306447
2025-07-09 21:43:46.226,0.1247808153041788,-0.0975447266518394,0.027236088409739,-0.1471367966226651
2025-07-09 21:43:46.230,0.1181777574219562,-0.1001146126012424,0.0180631445698538,0.0899465162187879
2025-07-09 21:43:46.234,0.0988382526150974,-0.0903611572323625,0.0084770951246609,0.1832694842696518
2025-07-09 21:43:46.238,0.0843712252938356,-0.0704674496907949,0.0139037753379494,0.1829145867467185
2025-07-09 21:43:46.242,0.0803463484310448,-0.0518232156808551,0.028523132477281,0.1336873695230748
2025-07-09 21:43:46.246,0.0781457240879227,-0.0414261354502591,0.0367195883568418,0.0415202386089525
2025-07-09 21:43:46.250,0.0711462125391772,-0.0384768707816945,0.0326693414698181,-0.0791321400210596
2025-07-09 21:43:46.254,0.0622188756227625,-0.0401669806098391,0.0220518947189762,-0.1803215885207635
2025-07-09 21:43:46.258,0.0587076645221257,-0.0434411884718921,0.0152664757492755,-0.2041379817016364
2025-07-09 21:43:46.261,0.0677079620916074,-0.0438233322450365,0.0238846295381636,-0.1362623532538745
2025-07-09 21:43:46.265,0.0898685209046235,-0.0389189868030408,0.0509495337866595,-0.0450524356637296
2025-07-09 21:43:46.269,0.1127195329716329,-0.0317607840353674,0.0809587486157209,-0.0268326479794296
2025-07-09 21:43:46.273,0.1192942467960506,-0.0259749411795403,0.0933193052898461,-0.0913572517408158
2025-07-09 21:43:46.277,0.1062281033450453,-0.0195757122207869,0.0866523907907639,-0.1730998376832095
2025-07-09 21:43:46.281,0.0842269282375171,-0.0089226571651205,0.0753042707327244,-0.2869821358641282
2025-07-09 21:43:46.285,0.062121057594168,0.0028848053549475,0.0650058626043855,-0.5464731895969006
2025-07-09 21:43:46.289,0.0408715025830534,0.0084279748727398,0.0492994771058545,-0.9486847040971296
2025-07-09 21:43:46.293,0.0200621232292043,0.0070685020136968,0.0271306248869087,-1.2915804136684532
2025-07-09 21:43:46.297,0.0002632960759349,0.0061100916057096,0.0063733873198887,-1.4214415927714696
2025-07-09 21:43:46.300,-0.0169821672771781,0.0079546808511153,-0.0090274867923945,-1.4192325589287027
2025-07-09 21:43:46.304,-0.0253181257003728,0.0040823172986858,-0.0212358087723554,-1.4214404980822253
2025-07-09 21:43:46.308,-0.0179779375195826,-0.0125965170642461,-0.0305744549596475,-1.3918030731413702
2025-07-09 21:43:46.312,-0.0003188885700834,-0.0365871729171659,-0.0369060618682974,-1.1989325348295146
2025-07-09 21:43:46.316,0.0131212045360065,-0.0559573639461584,-0.0428361597953465,-0.8299586892573816
2025-07-09 21:43:46.320,0.0179482399083049,-0.0635625365837553,-0.0456142970642063,-0.414450990785877
2025-07-09 21:43:46.324,0.0247366605569272,-0.0613796522093523,-0.0366429920453672,-0.079501857021905
2025-07-09 21:43:46.328,0.0393125838494758,-0.0588315898206943,-0.0195190063687129,0.1256139237304184
2025-07-09 21:43:46.332,0.0496921303961262,-0.0636351134902906,-0.0139429834953679,0.1748384268345086
2025-07-09 21:43:46.336,0.0440881438163435,-0.0727100823490479,-0.0286219389367992,0.0469846988655554
2025-07-09 21:43:46.340,0.0336938818098525,-0.0789278105862195,-0.0452339291836879,-0.1875978856233668
2025-07-09 21:43:46.343,0.0390786347514351,-0.0834710309161878,-0.0443923965758177,-0.3572033979440453
2025-07-09 21:43:46.347,0.0570830418217604,-0.0906474220145671,-0.0335643806070784,-0.3552573008821429
2025-07-09 21:43:46.351,0.0631454438876452,-0.0947603731931532,-0.0316149297220856,-0.2629295045570007
2025-07-09 21:43:46.355,0.0457849704230053,-0.0835063028083785,-0.0377213328042741,-0.243431642305746
2025-07-09 21:43:46.359,0.0164595695686902,-0.0529142859418611,-0.0364547167949118,-0.3583732833085096
2025-07-09 21:43:46.363,-0.0152330671975849,-0.0111557743951883,-0.0263888420171118,-0.5224353599908893
2025-07-09 21:43:46.367,-0.05699664143491,0.034365651681743,-0.0226309901792694,-0.6239439982334718
2025-07-09 21:43:46.371,-0.1176711672683396,0.0859586666449339,-0.0317125010510271,-0.6896892575933851
2025-07-09 21:43:46.375,-0.179967125815846,0.1390894891018687,-0.0408776371435113,-0.8768475858895768
2025-07-09 21:43:46.379,-0.2014459914403759,0.1637263186233397,-0.0377196732484596,-1.216761497506212
2025-07-09 21:43:46.383,-0.159162173347473,0.1291357134357806,-0.0300264603443429,-1.446966856850493
2025-07-09 21:43:46.386,-0.0857089181706566,0.0482523666875367,-0.0374565519165957,-1.2738907221478453
2025-07-09 21:43:46.390,-0.0371847271772991,-0.0312648014308491,-0.0684495290426522,-0.7707690556384114
2025-07-09 21:43:46.402,-0.0301421426352805,-0.0815458731252063,-0.1116880161961006,-0.3257053744311896
2025-07-09 21:43:46.406,-0.0322367041388546,-0.1121925370464064,-0.1444292416215334,-0.197271458291053
2025-07-09 21:43:46.410,-0.0112894905175387,-0.1337405249295563,-0.145030015883588,-0.2891306633067773
2025-07-09 21:43:46.414,0.0268639801971625,-0.1334221501678489,-0.1065581704074063,-0.3659909057082976
2025-07-09 21:43:46.418,0.0531766554103434,-0.0979065656034995,-0.0447299106301767,-0.341742746300426
2025-07-09 21:43:46.422,0.0557420404168084,-0.0435626973969792,0.0121793425827724,-0.3045931264708616
2025-07-09 21:43:46.425,0.0533181092668646,-0.0084030202534972,0.0449150885766476,-0.3338086062447837
2025-07-09 21:43:46.429,0.066187775875068,-0.0117062627910491,0.0544815126477766,-0.3850826011839514
2025-07-09 21:43:46.433,0.0862084128544355,-0.0320053810541145,0.0542030313645738,-0.3922014110537206
2025-07-09 21:43:46.437,0.0900806786679817,-0.0359959792739954,0.0540846989588784,-0.3991824281125761
2025-07-09 21:43:46.441,0.0741039610232543,-0.0199282085168939,0.0541757520721415,-0.4803122346924721
2025-07-09 21:43:46.445,0.0568933590039599,-0.0046379887950667,0.0522553697757746,-0.5719564130171848
2025-07-09 21:43:46.449,0.052156858936099,0.0012982934608842,0.0534551519651075,-0.5104317954819253
2025-07-09 21:43:46.453,0.057389130454099,0.007278170853562,0.0646673008771333,-0.2292363729716876
2025-07-09 21:43:46.457,0.0680722580669039,0.0095460810956982,0.0776183387335429,0.1525295648945681
2025-07-09 21:43:46.461,0.0894048318115173,-0.0189031933425773,0.0705016380415599,0.4027368002467284
2025-07-09 21:43:46.465,0.1317838355456982,-0.0914258164890093,0.0403580186312396,0.3342474115734269
2025-07-09 21:43:46.468,0.1939448882907843,-0.1730765267987592,0.0208683610686287,0.0081395890127984
2025-07-09 21:43:46.472,0.2458048418272566,-0.206006986297032,0.0397978551088981,-0.2357405293466855
2025-07-09 21:43:46.476,0.2388400026757311,-0.174999280828751,0.0638407214278863,-0.112196006809827
2025-07-09 21:43:46.480,0.150986573905101,-0.1247216099725,0.0262649635160575,0.2689701189503429
2025-07-09 21:43:46.484,0.0131500311260858,-0.0864438874792697,-0.0732938567670181,0.542132213557792
2025-07-09 21:43:46.488,-0.128489840472991,-0.0012447437601522,-0.1297345846443162,0.5072127591091503
2025-07-09 21:43:46.492,-0.2665835411597559,0.2348019560429706,-0.031781585525192,0.2819488253786893
2025-07-09 21:43:46.496,-0.4241852476280577,0.6269125466733662,0.2027272986400078,0.0996388258361604
2025-07-09 21:43:46.500,-0.5955620643711792,1.0223923025546109,0.4268302377814251,0.0717091347616262
2025-07-09 21:43:46.504,-0.7142715592583907,1.2357759286766123,0.5215043690194389,0.1275368701296593
2025-07-09 21:43:46.508,-0.6874889037284434,1.2145529647851738,0.5270640606612423,0.1244422960435042
2025-07-09 21:43:46.511,-0.4769435082046721,1.0504265156186197,0.5734830070220815,0.0161297326825093
2025-07-09 21:43:46.515,-0.1632133525837127,0.8548046141578926,0.6915912611861172,-0.08782707897812
2025-07-09 21:43:46.519,0.0922695974742375,0.6698320103126638,0.7621016074025733,-0.054732556678496
2025-07-09 21:43:46.523,0.1830172121870455,0.4882668655222311,0.6712840773287607,0.110428749960213
2025-07-09 21:43:46.527,0.1441881369497078,0.3095785396824801,0.4537666762557865,0.2976669404396662
2025-07-09 21:43:46.531,0.0858385710755299,0.1590659225263246,0.2449044932296969,0.4490818695417375
2025-07-09 21:43:46.535,0.0698989901595052,0.065491620805338,0.1353906105968375,0.5930100789716196
2025-07-09 21:43:46.539,0.0811684935443554,0.0285969378398838,0.1097654310204816,0.7400669835377032
2025-07-09 21:43:46.543,0.0874388260256081,0.0162309128647797,0.1036697385311834,0.8462807384975091
2025-07-09 21:43:46.547,0.0833456142964773,0.0002098678234414,0.0835554817653404,0.8931999445681043
2025-07-09 21:43:46.550,0.080174922411396,-0.0166169823082252,0.0635579397530571,0.9220131821350728
2025-07-09 21:43:46.554,0.083011880492238,-0.0199652327482238,0.0630466473984622,0.9589492729447906
2025-07-09 21:43:46.558,0.0864504241711066,-0.0146140452545644,0.0718363785759121,0.9719913831108984
2025-07-09 21:43:46.562,0.0842597915487892,-0.0170365447493487,0.0672232464637969,0.9399882795011876
2025-07-09 21:43:46.566,0.078670499131816,-0.0283721032733676,0.0502983955275294,0.9109636839903684
2025-07-09 21:43:46.570,0.077983843124408,-0.0350422185446859,0.0429416242535699,0.9405122101110924
2025-07-09 21:43:46.574,0.0838738031251157,-0.0334151184610921,0.0504586843430703,1.0075686778250257
2025-07-09 21:43:46.578,0.0871287250714165,-0.0352377153129266,0.0518910094428603,1.0464178690560382
2025-07-09 21:43:46.582,0.0811853084823161,-0.0453602872715543,0.0358250209001027,1.042196162411654
2025-07-09 21:43:46.586,0.0726030128343197,-0.0517023034890696,0.0209007090394812,1.039169839951024
2025-07-09 21:43:46.590,0.0699149316704406,-0.0461071887654511,0.0238077426045862,1.0621088625830373
2025-07-09 21:43:46.593,0.0693260851357238,-0.0385624905500828,0.0307635942908554,1.0836356554258206
2025-07-09 21:43:46.597,0.0621500297220947,-0.0382459741450419,0.0239040552875005,1.0759640945781297
2025-07-09 21:43:46.601,0.0505537711537321,-0.0370834886342516,0.0134702822349192,1.0517203591962678
2025-07-09 21:43:46.605,0.0437225812777209,-0.0267202062008836,0.0170023747977217,1.0389546104912613
2025-07-09 21:43:46.609,0.0414626518122426,-0.0146048720363707,0.0268577795026125,1.0447487117306915
2025-07-09 21:43:46.613,0.0338858413618445,-0.0084716499238882,0.0254141911702218,1.0588826962918072
2025-07-09 21:43:46.617,0.0181141929072129,-0.0024637517110049,0.0156504409335928,1.0744367744394516
2025-07-09 21:43:46.621,0.0043514751127664,0.0080227862545205,0.0123742611101419,1.090225405564813
2025-07-09 21:43:46.625,0.0010549232430662,0.0145068118741593,0.0155617348660965,1.1032613476520212
2025-07-09 21:43:46.629,0.0029556978866794,0.0098858748843385,0.0128415725257026,1.1100033575171893
2025-07-09 21:43:46.633,0.0002458150421095,0.0012891062103595,0.0015349210124401,1.1127664608736547
2025-07-09 21:43:46.636,-0.0077111203853571,-0.0004222020990398,-0.0081333227189651,1.1193393528476825
2025-07-09 21:43:46.640,-0.0155880058450921,0.0053463002590007,-0.0102417058145861,1.1336419544392322
2025-07-09 21:43:46.644,-0.0229951785084587,0.0118781332845425,-0.0111170454463628,1.150097009604675
2025-07-09 21:43:46.648,-0.0336417344247929,0.0157548105347491,-0.0178869241070139,1.163069244610766
2025-07-09 21:43:46.652,-0.0473229663168226,0.0191296763857051,-0.0281932901426431,1.1766022920698325
2025-07-09 21:43:46.656,-0.0602819672487347,0.0252757843843643,-0.0350061830698589,1.195171360261294
2025-07-09 21:43:46.660,-0.0712251522816918,0.0359128515634784,-0.0353123009175071,1.2108551595438226
2025-07-09 21:43:46.664,-0.0808960980639908,0.0498742603054059,-0.0310218379522126,1.2126453759399818
2025-07-09 21:43:46.668,-0.0881810017811417,0.0621214236529278,-0.0260595783163957,1.2058601651442116
2025-07-09 21:43:46.672,-0.092732176552044,0.0684733865808489,-0.0242587901534382,1.2094614802448185
2025-07-09 21:43:46.675,-0.099010243508641,0.0728361613600873,-0.0261740823245535,1.231663264119716
2025-07-09 21:43:46.679,-0.1114576358365034,0.0834790488485484,-0.0279785871581279,1.2571564490428635
2025-07-09 21:43:46.683,-0.1280242806692504,0.0997798195115713,-0.0282444613223795,1.2651839943085674
2025-07-09 21:43:46.687,-0.1437936138082433,0.1100055174943719,-0.0337880964727603,1.2567444702310042
2025-07-09 21:43:46.691,-0.1571646588216934,0.1062811627758709,-0.0508834961985139,1.2531079485526146
2025-07-09 21:43:46.695,-0.1677951112699038,0.0938444589629499,-0.0739506524537162,1.2655531961309023
2025-07-09 21:43:46.699,-0.1740609776354158,0.0803553182583735,-0.0937056595182955,1.2817850270973945
2025-07-09 21:43:46.703,-0.1772004049518512,0.0667031837439184,-0.110497221343511,1.2897555806495042
2025-07-09 21:43:46.707,-0.1819824889679991,0.0568859245419974,-0.125096564555509,1.2966786914897088
2025-07-09 21:43:46.711,-0.1890082645424547,0.0640113493758321,-0.1249969152901771,1.3095419850298855
2025-07-09 21:43:46.715,-0.192034456755823,0.0920690081805617,-0.099965448693279,1.3125665240529891
2025-07-09 21:43:46.718,-0.1866267293866847,0.1216345263953186,-0.0649922031038386,1.2866843307441078
2025-07-09 21:43:46.722,-0.1761594792596509,0.1293627827183262,-0.0467966966479068,1.2458645357314224
2025-07-09 21:43:46.726,-0.1661596461753696,0.1148577322337768,-0.0513019140422809,1.2287414473022693
2025-07-09 21:43:46.730,-0.1574169335848434,0.0947821680518801,-0.0626347656281208,1.2471058097008092
2025-07-09 21:43:46.734,-0.146768049374325,0.0781117369664562,-0.0686563124976148,1.2663545168332222
2025-07-09 21:43:46.738,-0.1307992990626713,0.062098493221263,-0.0687008059254986,1.2549958064849736
2025-07-09 21:43:46.742,-0.108102028763202,0.0464136427677416,-0.0616883860738146,1.231455708251228
2025-07-09 21:43:46.746,-0.0811427623185107,0.0350351090321559,-0.0461076533592454,1.231456983233301
2025-07-09 21:43:46.750,-0.0553571719395904,0.0265363219433452,-0.0288208500638663,1.2477744013666
2025-07-09 21:43:46.754,-0.03368001879712,0.0148954802054629,-0.0187845386538859,1.246321133815123
2025-07-09 21:43:46.758,-0.0135838406258534,-0.0033759771874383,-0.0169598178700178,1.2310120267049365
2025-07-09 21:43:46.761,0.0082549163865492,-0.0301152518053597,-0.0218603354701976,1.2392271240765758
2025-07-09 21:43:46.765,0.0309117765557034,-0.0628636778759565,-0.0319519013665153,1.2736163969581953
2025-07-09 21:43:46.769,0.050808516831889,-0.0851723571462278,-0.0343638403554816,1.2935697536090405
2025-07-09 21:43:46.773,0.066050920061301,-0.0783401432687226,-0.0122892232433654,1.2820639459711365
2025-07-09 21:43:46.777,0.078178773765843,-0.0516117643475274,0.0265670093875067,1.2696768948731965
2025-07-09 21:43:46.781,0.0904369943760782,-0.0382616395042122,0.052175354846018,1.2786613913439249
2025-07-09 21:43:46.785,0.1033885394710439,-0.0525538876516634,0.0508346517983823,1.287902358607472
2025-07-09 21:43:46.789,0.1133523076935392,-0.0745675534026884,0.0387847542746949,1.2747869616433296
2025-07-09 21:43:46.793,0.1177497637360641,-0.0844813624093841,0.0332684013153627,1.2596199765279563
2025-07-09 21:43:46.797,0.1188678919907986,-0.0862620318935479,0.032605860090681,1.2766208849519471
2025-07-09 21:43:46.800,0.1193011983988144,-0.0909156968179207,0.028385501578905,1.3118429499424789
2025-07-09 21:43:46.804,0.1182656075501954,-0.0984452273421239,0.0198203802105369,1.3082239257956156
2025-07-09 21:43:46.808,0.1149452196125684,-0.101853913451968,0.0130913061675211,1.2425799384301035
2025-07-09 21:43:46.812,0.1109336522775399,-0.0958121681197796,0.0151214841691573,1.1554673021277635
2025-07-09 21:43:46.816,0.1080447025168709,-0.0816638506014418,0.0263808519311546,1.0767448326148354
2025-07-09 21:43:46.820,0.1068750149820789,-0.069823427248366,0.0370515877535208,0.9683214086710468
2025-07-09 21:43:46.824,0.107484149600036,-0.0711793910778893,0.0363047585459712,0.79071913342495
2025-07-09 21:43:46.828,0.1095348824778585,-0.083635722748166,0.0258991597576473,0.586150267670948
2025-07-09 21:43:46.832,0.1115438631811164,-0.0940482749877494,0.0174955882253935,0.4296951455670533
2025-07-09 21:43:46.836,0.1111328340803617,-0.0930541334967773,0.0180787006193583,0.3280580517885693
2025-07-09 21:43:46.840,0.1080323825698576,-0.0828703522902775,0.0251620303189131,0.2399742339520856
2025-07-09 21:43:46.843,0.1058862187484269,-0.0730816292610208,0.0328045895304514,0.1661598051613777
2025-07-09 21:43:46.847,0.1074444534289801,-0.0726619143350296,0.0347825391407811,0.1290029730453357
2025-07-09 21:43:46.851,0.1100261004947556,-0.0841736925864222,0.0258524079586121,0.0893830400365374
2025-07-09 21:43:46.855,0.1102797037523449,-0.1027254822520411,0.0075542215536952,-0.0122541342126386
2025-07-09 21:43:46.859,0.1098771044764658,-0.1193745136214611,-0.0094974090883699,-0.1445454272095695
2025-07-09 21:43:46.863,0.1116533371529766,-0.1263758270395408,-0.0147224898264939,-0.2138437227859466
2025-07-09 21:43:46.867,0.1143559990340825,-0.1226233771351993,-0.0082673780378745,-0.2061005493753203
2025-07-09 21:43:46.871,0.1157295755783663,-0.1152996343017189,0.0004299413425918,-0.2246599087909224
2025-07-09 21:43:46.875,0.1161562814810293,-0.112272296845987,0.0038839847037027,-0.3653897765339907
2025-07-09 21:43:46.879,0.1151289749699181,-0.1120860631106551,0.0030429119309612,-0.5799438945237998
2025-07-09 21:43:46.883,0.1097973940352866,-0.1076678805985022,0.0021295135113883,-0.693470655957743
2025-07-09 21:43:46.886,0.1016284156342098,-0.1005663922945582,0.001062023416612,-0.5979248373781927
2025-07-09 21:43:46.890,0.0982028366556223,-0.1016165920070617,-0.0034137552722726,-0.4130558920725956
2025-07-09 21:43:46.894,0.1034771513240252,-0.113557907513949,-0.0100807561081809,-0.3604212926482225
2025-07-09 21:43:46.898,0.1123509162587338,-0.1233721031697256,-0.0110211868266146,-0.4665713531997346
2025-07-09 21:43:46.902,0.1183825147290072,-0.1190585531556363,-0.0006760383401645,-0.5513135007280228
2025-07-09 21:43:46.906,0.1203113851053762,-0.1055856675706004,0.0147257176229869,-0.6085698179282593
2025-07-09 21:43:46.910,0.1192929354637193,-0.0964003450153103,0.0228925905387004,-1.0177538559190578
2025-07-09 21:43:46.914,0.1169224236563591,-0.0969804424787282,0.0199419812702661,-2.112047515179333
2025-07-09 21:43:46.918,0.1163463287378462,-0.1046274872295796,0.0117188416028035,-3.570339730527153
2025-07-09 21:43:46.922,0.118627367903039,-0.1161660285620767,0.002461339436892,-4.548760342317443
2025-07-09 21:43:46.925,0.1192894905149776,-0.1272291912438058,-0.0079397006312981,-4.520317949593379
2025-07-09 21:43:46.929,0.1145603243452712,-0.1316430224266399,-0.0170826979818075,-3.737517558921395
2025-07-09 21:43:46.933,0.1085110445075439,-0.1299337469634054,-0.0214227023545176,-2.7888457156001043
2025-07-09 21:43:46.937,0.1079316748456769,-0.1311247034078499,-0.02319302845966,-1.9901045479931527
2025-07-09 21:43:46.941,0.1126504270537357,-0.1386872646939165,-0.0260368375364959,-1.3284807822133178
2025-07-09 21:43:46.945,0.1169831657325015,-0.1436193767075955,-0.0266362108697287,-0.7309875323583633
2025-07-09 21:43:46.949,0.1188702844679866,-0.1393895025470708,-0.0205192179720349,-0.1853378331979023
2025-07-09 21:43:46.953,0.121343732356676,-0.1338560624171593,-0.0125123299523621,0.2964502118958852
2025-07-09 21:43:46.957,0.1255559630317018,-0.1373142017070748,-0.0117582385664201,0.6870040460000646
2025-07-09 21:43:46.961,0.1282775212008921,-0.1466543652999568,-0.0183768439888181,0.9435750816710192
2025-07-09 21:43:46.965,0.1269529098698777,-0.1495746887298735,-0.0226217787481951,1.075929240213922
2025-07-09 21:43:46.968,0.1224201042366748,-0.1402167681725322,-0.0177966638229788,1.1717376083124795
2025-07-09 21:43:46.972,0.1161018021159704,-0.1256221582436481,-0.0095203560141682,1.290894638216222
2025-07-09 21:43:46.976,0.1088792888690253,-0.1179309509027911,-0.0090516619193354,1.3947640007051207
2025-07-09 21:43:46.980,0.1026411492473132,-0.1207687347411981,-0.0181275853780872,1.4309682196735505
2025-07-09 21:43:46.984,0.0987243128243545,-0.1234837762808766,-0.0247594633395895,1.4082058045625638
2025-07-09 21:43:46.988,0.0953207518155309,-0.1130822011074441,-0.0177614491743982,1.3607165273907014
2025-07-09 21:43:46.992,0.0900080485979893,-0.0926370074377677,-0.0026289587216511,1.3292940880482464
2025-07-09 21:43:46.996,0.0839796861491786,-0.079511495538425,0.0044681907299842,1.306755467281294
2025-07-09 21:43:47.000,0.0804435767822761,-0.0807335404567243,-0.0002899635540635,1.041813281364425
2025-07-09 21:43:47.004,0.0798986597964961,-0.0803771816572293,-0.0004785217396988,0.1411647215177767
2025-07-09 21:43:47.008,0.0806695606955178,-0.0628610124789564,0.0178085483380176,-1.27455685981777
2025-07-09 21:43:47.011,0.08207486637451,-0.0406672057148977,0.0414076607818661,-2.357232112809275
2025-07-09 21:43:47.015,0.0825395856047935,-0.040417245985552,0.0421223397425741,-2.463376367175828
2025-07-09 21:43:47.019,0.078838114221121,-0.0643684864077819,0.014469627937442,-1.929108282991586
2025-07-09 21:43:47.023,0.0731964391262228,-0.087789375038275,-0.0145929357875628,-1.502129788052091
2025-07-09 21:43:47.027,0.0752129129150014,-0.095892369167069,-0.0206794561270477,-1.4615321759465958
2025-07-09 21:43:47.031,0.0895876973464047,-0.1002666503228803,-0.010678952850552,-1.6221534355649465
2025-07-09 21:43:47.035,0.1077298148450439,-0.1137982995227227,-0.0060684845508888,-1.7523833507212716
2025-07-09 21:43:47.039,0.1186829159776702,-0.131564842075911,-0.0128819259709561,-1.7298687740537302
2025-07-09 21:43:47.043,0.1229109748200778,-0.1453560471884016,-0.0224450722406492,-1.581978628538232
2025-07-09 21:43:47.047,0.1272398466556658,-0.1577625102188529,-0.0305226634348284,-1.4709295544154593
2025-07-09 21:43:47.050,0.1311751026876526,-0.1698348875717528,-0.0386597847548569,-1.449681777129387
2025-07-09 21:43:47.054,0.1289807604832669,-0.1715652422008554,-0.0425844815876529,-1.3131518077563973
2025-07-09 21:43:47.058,0.1225610331343157,-0.1603533724627548,-0.0377923391980743,-0.8939843144299251
2025-07-09 21:43:47.062,0.1199788764460572,-0.1538545250376065,-0.0338756484606799,-0.346784308410242
2025-07-09 21:43:47.066,0.1220173498949622,-0.1643866235177455,-0.0423692734911132,0.0572831111707027
2025-07-09 21:43:47.070,0.1225267534260663,-0.1747823118543974,-0.0522555582957889,0.2168288403935078
2025-07-09 21:43:47.074,0.1212705981808557,-0.1661110789683772,-0.0448404806543602,0.1377109052931258
2025-07-09 21:43:47.078,0.1253186616208048,-0.1590807300122905,-0.0337620682578745,-0.1447125509098377
2025-07-09 21:43:47.082,0.1405160281279347,-0.1947991222265053,-0.0542830939642905,-0.425871375879935
2025-07-09 21:43:47.086,0.1677615034654717,-0.2719467218856863,-0.1041852182849635,-0.3851515484750891
2025-07-09 21:43:47.090,0.1955785851517985,-0.3320386007941305,-0.1364600155061946,0.0374548275813788
2025-07-09 21:43:47.093,0.1924469982301406,-0.3220181862799894,-0.1295711879131535,0.5317398493943282
2025-07-09 21:43:47.097,0.1326279566420099,-0.25622489556298,-0.1235969387837078,0.8377149607764964
2025-07-09 21:43:47.101,0.0372160363768636,-0.1947373710073451,-0.1575213344922534,1.0409394637598797
2025-07-09 21:43:47.105,-0.0486322544161882,-0.1539616097911681,-0.2025938640679995,1.2813364093824011
2025-07-09 21:43:47.109,-0.1318507631808963,-0.0529753525518779,-0.1848261155926202,1.4289819704142683
2025-07-09 21:43:47.113,-0.275679363952039,0.2176427305776968,-0.0580366332336162,1.2816827944927796
2025-07-09 21:43:47.117,-0.5020529190015574,0.6453846096963127,0.1433316908363852,0.89325718812775
2025-07-09 21:43:47.121,-0.7273467921682062,1.0415285701072108,0.314181778081912,0.4694879301425577
2025-07-09 21:43:47.125,-0.8176121027256705,1.2000399329288574,0.382427830347178,0.0341291724207152
2025-07-09 21:43:47.129,-0.693191000002231,1.101943162834363,0.4087521629768285,-0.6420520049046274
2025-07-09 21:43:47.133,-0.3936053775547011,0.8953850451976415,0.5017796677885005,-1.811758687176216
2025-07-09 21:43:47.136,-0.0669490903103454,0.6981192442882338,0.6311701541247766,-3.403671787512753
2025-07-09 21:43:47.140,0.1310434021222536,0.5087760768653641,0.6398194791358291,-4.758777953120896
2025-07-09 21:43:47.144,0.1627207158232116,0.2955739433879411,0.4582946593602893,-4.937982524513407
2025-07-09 21:43:47.148,0.1166504046292205,0.0817342731880053,0.1983846779672738,-3.656707968157291
2025-07-09 21:43:47.152,0.0857459476081606,-0.0726244250023434,0.0131215227572117,-1.7231190917900177
2025-07-09 21:43:47.156,0.0828000398158181,-0.1347240258559002,-0.0519239858871973,-0.2253608403611557
2025-07-09 21:43:47.160,0.0804295833571127,-0.1325478770886101,-0.0521182935774466,0.4614877857641384
2025-07-09 21:43:47.164,0.071594608873113,-0.1246860082832569,-0.0530913992550451,0.6474128340111
2025-07-09 21:43:47.168,0.0655214960262918,-0.1388382858673667,-0.0733167896845862,0.7198621137918624
2025-07-09 21:43:47.172,0.0642106340035621,-0.1555812405725636,-0.0913706064109122,0.8653123585613177
2025-07-09 21:43:47.175,0.065749151563998,-0.1535100275133264,-0.087760875789855,1.1189436974369684
2025-07-09 21:43:47.179,0.0714471669898432,-0.1431994356925213,-0.0717522685419558,1.4230718203705874
2025-07-09 21:43:47.183,0.0798240779111554,-0.1448266344936866,-0.0650025564203069,1.6934846207418808
2025-07-09 21:43:47.187,0.0858691168096701,-0.1549489741285117,-0.0690798571549108,1.874915572394306
2025-07-09 21:43:47.191,0.0889441359820314,-0.1554886406509258,-0.0665445045033956,1.901169514815387
2025-07-09 21:43:47.195,0.0919544339133473,-0.1458939797907553,-0.0539395457104395,1.7128871836371435
2025-07-09 21:43:47.199,0.0937307475283437,-0.1454102333154806,-0.0516794856184898,1.4131713490989877
2025-07-09 21:43:47.203,0.0909709246548094,-0.1625969652669637,-0.0716260404416613,1.2596208263762865
2025-07-09 21:43:47.207,0.0855164142838594,-0.1810174697301781,-0.0955010552740835,1.3746415296614414
2025-07-09 21:43:47.211,0.0817312029623725,-0.1827653109596329,-0.1010341078233208,1.5927241742472156
2025-07-09 21:43:47.215,0.080110376907196,-0.1731384899670053,-0.0930281128839418,1.695969365350566
2025-07-09 21:43:47.218,0.0799360520242394,-0.1711196277222036,-0.0911835755200231,1.6536175968994065
2025-07-09 21:43:47.222,0.0806144040551937,-0.1813807140004722,-0.1007663097653643,1.496544600743832
2025-07-09 21:43:47.226,0.074109435804558,-0.1870341471459053,-0.1129247111594497,1.0912104543506949
2025-07-09 21:43:47.230,0.0484855449740034,-0.1699704783364027,-0.121484933178247,0.2611145364352245
2025-07-09 21:43:47.234,0.0064341211886001,-0.129003701991855,-0.1225695806166996,-0.8975470447696968
2025-07-09 21:43:47.238,-0.0325267519048374,-0.0778788979048228,-0.1104056496208189,-2.042269412498742
2025-07-09 21:43:47.242,-0.0549288535031281,-0.0347221517514784,-0.0896510050634434,-2.9387021158739315
2025-07-09 21:43:47.246,-0.0685062253168883,-0.0117657557477294,-0.0802719808707976,-3.6119653763272286
2025-07-09 21:43:47.250,-0.0896030780196465,-0.0057255450426081,-0.0953286228655997,-4.158837130647944
2025-07-09 21:43:47.254,-0.1217532466818037,0.0002060977474808,-0.1215471487349806,-4.541175820508048
2025-07-09 21:43:47.258,-0.1523550097664537,0.0194163119547658,-0.132938697609635,-4.557878824134429
2025-07-09 21:43:47.261,-0.1698628726516453,0.0504031384242759,-0.1194597340222101,-4.033808357012056
2025-07-09 21:43:47.265,-0.1782531543658545,0.0829102510417263,-0.0953429031156284,-3.118393116004519
2025-07-09 21:43:47.269,-0.1894506315168411,0.108065743454983,-0.0813848878501989,-2.3123491414614348
2025-07-09 21:43:47.273,-0.2064280866568209,0.1209885679829816,-0.0854395184590497,-2.045099980203088
2025-07-09 21:43:47.277,-0.2227332324345471,0.1199097143740649,-0.1028235178421187,-2.261341672448061
2025-07-09 21:43:47.281,-0.234550573637792,0.107234895473588,-0.1273156779419428,-2.529247845238604
2025-07-09 21:43:47.285,-0.2420841489535401,0.0921980947933012,-0.1498860539342779,-2.5058532973881213
2025-07-09 21:43:47.289,-0.2430785189007726,0.088097217423282,-0.1549813012479483,-2.198814893973648
2025-07-09 21:43:47.293,-0.2366816586282183,0.0990796221217028,-0.1376020362729332,-1.8254510312454304
2025-07-09 21:43:47.297,-0.2297754764932831,0.1122206161186154,-0.1175548601365985,-1.5355108325340343
2025-07-09 21:43:47.300,-0.2296960753360062,0.1128473944496788,-0.1168486806439395,-1.3079985986459004
2025-07-09 21:43:47.304,-0.2351782803404143,0.1039900818417432,-0.1311881982521954,-1.0912649446776277
2025-07-09 21:43:47.308,-0.2406229711714722,0.0989549591558301,-0.1416680117646609,-0.961187613819808
2025-07-09 21:43:47.312,-0.2430689084270093,0.0987922854650797,-0.1442766227058609,-1.055381411013349
2025-07-09 21:43:47.316,-0.2416734903045259,0.0908034478873423,-0.1508700421560955,-1.396605496475726
2025-07-09 21:43:47.320,-0.2373465245010472,0.0697291899561864,-0.1676173342790856,-1.8704538782431392
2025-07-09 21:43:47.324,-0.2346275555845481,0.0485832364076628,-0.1860443189061159,-2.354067080759749
2025-07-09 21:43:47.328,-0.2379939484196487,0.043738632434936,-0.1942553157082643,-2.805654125228931
2025-07-09 21:43:47.332,-0.2454723663828028,0.056362832124964,-0.1891095339756146,-3.2183670014659094
2025-07-09 21:43:47.336,-0.2503333238352938,0.0727162715621281,-0.177617051985543,-3.5226666253278145
2025-07-09 21:43:47.340,-0.2490715113871441,0.0779592125661778,-0.1711122985278045,-3.598339761212837
2025-07-09 21:43:47.343,-0.2427330007286813,0.0674704647886383,-0.1752625356406373,-3.407231795446953
2025-07-09 21:43:47.347,-0.2301703383145648,0.048641671056972,-0.1815286669516528,-3.0587874904654493
2025-07-09 21:43:47.351,-0.2066514213398925,0.03292427211919,-0.1737271489085618,-2.686704813797824
2025-07-09 21:43:47.355,-0.1715454020869876,0.0248225714237886,-0.1467228303448942,-2.295607105564308
2025-07-09 21:43:47.359,-0.1327367687505806,0.0203339030705245,-0.1124028653549645,-1.819128208111352
2025-07-09 21:43:47.363,-0.1014289151519136,0.0157233425547481,-0.0857055722648258,-1.3176965981227675
2025-07-09 21:43:47.367,-0.0836159015525518,0.0116864333464671,-0.0719294678666912,-0.9978416878401078
2025-07-09 21:43:47.371,-0.0751745855540628,0.0069337103679348,-0.0682408748398478,-0.9872720114531748
2025-07-09 21:43:47.375,-0.0650488205923902,-0.0044464048724966,-0.0694952251112694,-1.152619543793976
2025-07-09 21:43:47.379,-0.0456270369910899,-0.0234993903771754,-0.0691264270067571,-1.190653623642333
2025-07-09 21:43:47.383,-0.0195140402571521,-0.0416155554979076,-0.0611295953856508,-0.9038093511242627
2025-07-09 21:43:47.386,0.0049749801298629,-0.0530281012705112,-0.0480531207635425,-0.3657973173539224
2025-07-09 21:43:47.390,0.0223819110533529,-0.063911022910121,-0.0415291114717326,0.1862429422105021
2025-07-09 21:43:47.394,0.0328954910675715,-0.0795584898149299,-0.0466629983538649,0.5634978901534653
2025-07-09 21:43:47.398,0.0390387871873189,-0.0923053078433839,-0.0532665202538927,0.7107474242484547
2025-07-09 21:43:47.402,0.0417222910732558,-0.0935728904944822,-0.0518505990104963,0.6796017419861928
2025-07-09 21:43:47.406,0.0406705453235767,-0.0879923046832547,-0.0473217589403493,0.5792433345884129
2025-07-09 21:43:47.410,0.0377760988323444,-0.0835091697434263,-0.0457330704827703,0.5033337929187307
2025-07-09 21:43:47.414,0.0358918990841692,-0.07694637471089,-0.0410544751890578,0.4778704399121851
2025-07-09 21:43:47.418,0.0335169896301776,-0.0612000746638474,-0.0276830845865906,0.4867239485014543
2025-07-09 21:43:47.422,0.0260766960915767,-0.0386568504787178,-0.0125801539307068,0.5031472847463594
2025-07-09 21:43:47.425,0.0142789488598689,-0.0185166286387468,-0.0042376793129346,0.483716264019334
2025-07-09 21:43:47.429,0.0051295626642563,-0.0077649534272388,-0.0026353902871395,0.3993922200460221
2025-07-09 21:43:47.433,0.0016697323780636,-0.0081243951308254,-0.0064546622667237,0.2840078566974053
2025-07-09 21:43:47.437,-0.0020349320352263,-0.0143118134533947,-0.0163467449924146,0.1987504374731668
2025-07-09 21:43:47.441,-0.0113147684085734,-0.0162364068557565,-0.0275511747580445,0.1696960485792086
2025-07-09 21:43:47.445,-0.0217768427719581,-0.0100857837900294,-0.0318626260453571,0.20641428087823
2025-07-09 21:43:47.449,-0.0246898582865711,-0.0035877158433676,-0.0282775736024675,0.3284848026607011
2025-07-09 21:43:47.453,-0.0178990960311207,-0.004570745446152,-0.0224698409388128,0.5181059406346598
2025-07-09 21:43:47.457,-0.0071666497248803,-0.0102842210515069,-0.0174508702272026,0.6990074054872146
2025-07-09 21:43:47.461,0.0018981201549293,-0.0148323663684635,-0.0129342456536132,0.8111838735461262
2025-07-09 21:43:47.465,0.0096322585710049,-0.0209709022054919,-0.0113386430632455,0.868805446120965
2025-07-09 21:43:47.468,0.0190627153129632,-0.034823033544407,-0.015760317648459,0.918094830522648
2025-07-09 21:43:47.472,0.0300351769055852,-0.0527977956353464,-0.0227626181353291,0.9743291566679207
2025-07-09 21:43:47.476,0.0398219133289223,-0.0645840556742105,-0.0247621417397152,1.022202666819997
2025-07-09 21:43:47.480,0.0477653305055064,-0.0679328664060149,-0.0201675352832885,1.0519895254856917
2025-07-09 21:43:47.484,0.0559096529847532,-0.0716351403047438,-0.0157254866904089,1.072839537497738
2025-07-09 21:43:47.488,0.0652986244972563,-0.0833286931950971,-0.018030068056051,1.0998128998940475
2025-07-09 21:43:47.492,0.073332011535854,-0.0993212071455822,-0.0259891949563268,1.1406272862960751
2025-07-09 21:43:47.496,0.0757506936331805,-0.1082204141949052,-0.0324697198964585,1.1898015957083397
2025-07-09 21:43:47.500,0.0724373039651765,-0.1044037462414637,-0.0319664415982319,1.2282869483725702
2025-07-09 21:43:47.504,0.0700384212073065,-0.0956432351680664,-0.0256048132697723,1.2341833976433545
2025-07-09 21:43:47.508,0.075037542650372,-0.0933559887777232,-0.0183184454241901,1.2005323451407286
2025-07-09 21:43:47.511,0.0845789028392222,-0.0974032471715712,-0.0128243436171364,1.1412648154401333
2025-07-09 21:43:47.515,0.0889054696657768,-0.0981591379141273,-0.0092536675201169,1.081479524213535
2025-07-09 21:43:47.519,0.083503555884273,-0.0925713311295731,-0.0090677745035233,1.0477023073836942
2025-07-09 21:43:47.523,0.0745513056858554,-0.0876698509292557,-0.0131185444888062,1.0579509908219715
2025-07-09 21:43:47.527,0.0711120129366816,-0.0869599462917661,-0.0158479325881968,1.104058537648554
2025-07-09 21:43:47.531,0.0750950729830246,-0.0849456762031686,-0.0098506024401519,1.152010256136796
2025-07-09 21:43:47.535,0.0809749694629491,-0.0790031702042348,0.0019718000526808,1.1779641364145212
2025-07-09 21:43:47.539,0.0840200488324652,-0.0763178333424766,0.0077022162974334,1.192097921829641
2025-07-09 21:43:47.543,0.085610390522977,-0.0830853095388372,0.0025250818042194,1.21127904181255
2025-07-09 21:43:47.547,0.0893305301185261,-0.0939209532674995,-0.0045904223157894,1.2290712255222194
2025-07-09 21:43:47.550,0.0952027637647028,-0.0984943716454316,-0.0032916070333638,1.232584234072388
2025-07-09 21:43:47.554,0.1005860393636852,-0.0949878570913693,0.005598183133728,1.2288316385664393
2025-07-09 21:43:47.558,0.1043439137677417,-0.0912129022774042,0.013131012364804,1.2347556261368804
2025-07-09 21:43:47.562,0.1076433560265974,-0.0942560492192316,0.0133873076949225,1.2550740309962285
2025-07-09 21:43:47.566,0.1118476779324119,-0.1037049548239401,0.0081427240101988,1.2810404846239982
2025-07-09 21:43:47.570,0.1161808202321296,-0.1135206157353339,0.0026602054129512,1.2993190150450489
2025-07-09 21:43:47.574,0.1171719870858208,-0.117304009087058,-0.0001320210715902,1.3001164973361452
2025-07-09 21:43:47.578,0.1123160553033858,-0.1136458818080852,-0.0013298255619384,1.2875461449555985
2025-07-09 21:43:47.582,0.1042508649958235,-0.1070945423094452,-0.002843676356868,1.2759691277373642
2025-07-09 21:43:47.586,0.0975164171119268,-0.101000626320208,-0.0034842082369695,1.2683122479321036
2025-07-09 21:43:47.590,0.0913249259781784,-0.0920262250164458,-0.000701298053108,1.2545132928643836
2025-07-09 21:43:47.593,0.081238158741885,-0.0769515816928864,0.0042865780473426,1.2377279004597028
2025-07-09 21:43:47.597,0.0691183051621017,-0.059959591620292,0.0091587145538801,1.2355888890287865
2025-07-09 21:43:47.601,0.0641693396564352,-0.0456940507888755,0.0184752898940626,1.2463163859936988
2025-07-09 21:43:47.605,0.0701782216500961,-0.0318877139702192,0.0382905087204109,1.2427663827441031
2025-07-09 21:43:47.609,0.0786824543914312,-0.0172803250031358,0.0614021304420954,1.210757083829978
2025-07-09 21:43:47.613,0.079842026732384,-0.0066075365215653,0.0732344912780612,1.1667699880044915
2025-07-09 21:43:47.617,0.0732551006073325,0.001521624746929,0.0747767264356046,1.130365668881879
2025-07-09 21:43:47.621,0.063713105386296,0.0170781113834545,0.0807912178650716,1.1037993603156124
2025-07-09 21:43:47.625,0.0540575505327595,0.0381594380760602,0.0922169897174268,1.083391329480487
2025-07-09 21:43:47.629,0.0466160161703021,0.0452942682818112,0.0919102855739046,1.070015514781932
2025-07-09 21:43:47.633,0.0447751692770848,0.0282913202863398,0.0730664906988756,1.06474065828136
2025-07-09 21:43:47.636,0.0487133285852706,0.0026623768946071,0.0513757066290271,1.065911283917912
2025-07-09 21:43:47.640,0.0541800970136773,-0.0119410920219823,0.0422390061540191,1.0704104572616149
2025-07-09 21:43:47.644,0.0587200858613366,-0.01604838758752,0.0426716994490822,1.074145565647655
2025-07-09 21:43:47.648,0.0648097079651826,-0.0226113446486191,0.0421983645050301,1.0746104996495758
2025-07-09 21:43:47.652,0.0737947788815486,-0.0349821286803302,0.0388126514029465,1.0716620953153764
2025-07-09 21:43:47.656,0.0817421760961102,-0.0448605889714907,0.036881588339246,1.063730976705885
2025-07-09 21:43:47.660,0.0850705386162007,-0.0483483004745778,0.0367222393689174,1.05069380812304
2025-07-09 21:43:47.664,0.0851245795699263,-0.0502988879944055,0.0348256928155864,1.0400112773156356
2025-07-09 21:43:47.668,0.083229246651975,-0.051058832511625,0.0321704153931685,1.034948075132988
2025-07-09 21:43:47.672,0.0769698091641654,-0.0448805276449401,0.032089282784505,1.0188894171812244
2025-07-09 21:43:47.675,0.0662062530963434,-0.036567581055848,0.0296386733180676,0.974646233540927
2025-07-09 21:43:47.679,0.0571808886448908,-0.0389835787632371,0.0181973111715678,0.9158718352999086
2025-07-09 21:43:47.683,0.0550242205070639,-0.0459315028351603,0.0090927189740472,0.8686642130603159
2025-07-09 21:43:47.687,0.05617349324363,-0.0348885624964511,0.0212849320612278,0.8285473352173439
2025-07-09 21:43:47.691,0.0530466709470783,-0.0102695804968924,0.0427770917760059,0.7727670920531289
2025-07-09 21:43:47.695,0.045240851711131,-0.0127848802421362,0.0324559728066732,0.7084852927197598
2025-07-09 21:43:47.699,0.0444966747647112,-0.0654947364933166,-0.0209980603792036,0.6759762956638198
2025-07-09 21:43:47.703,0.0641331259250653,-0.136475000641386,-0.0723418733556046,0.707949752173017
2025-07-09 21:43:47.707,0.0949229649833291,-0.173945837175986,-0.0790228708208161,0.7916681641340781
2025-07-09 21:43:47.711,0.0962322400042975,-0.1612697566013429,-0.0650375152139376,0.8548777407090914
2025-07-09 21:43:47.715,0.0310300153165797,-0.1252731108693603,-0.0942430941584591,0.8082703036845098
2025-07-09 21:43:47.718,-0.0900775064478221,-0.0916590687496405,-0.181736573792383,0.6327747506316743
2025-07-09 21:43:47.722,-0.2256554102133829,-0.0246054707240794,-0.2502608795219494,0.389709128581158
2025-07-09 21:43:47.726,-0.3664851422735846,0.1748597794573411,-0.1916253613901676,0.1066274478407098
2025-07-09 21:43:47.730,-0.5446894374074721,0.5592333835684321,0.0145439475976834,-0.2920499307238332
2025-07-09 21:43:47.734,-0.7593251687939376,1.014038826269031,0.2547136589220587,-0.8703943502514119
2025-07-09 21:43:47.738,-0.9192491872409468,1.313550538233155,0.3943013524489422,-1.5323340752053611
2025-07-09 21:43:47.742,-0.8964146876734942,1.3327474969435773,0.4363328107365973,-2.0736937512589924
2025-07-09 21:43:47.746,-0.6500400903386199,1.1507259612763732,0.5006858724142325,-2.3758237566109024
2025-07-09 21:43:47.750,-0.2904868737315573,0.9213109259904204,0.6308240537450396,-2.4725182130787786
2025-07-09 21:43:47.754,-0.0008352838508985,0.7136572322878101,0.7128219499322462,-2.4359286341950344
2025-07-09 21:43:47.758,0.1149902198081558,0.5143052368319511,0.6292954581444449,-2.2818622352391893
2025-07-09 21:43:47.761,0.0979111055260903,0.3158879838841334,0.413799090923749,-1.9996158383989184
2025-07-09 21:43:47.765,0.0539138398539896,0.1495346916335688,0.2034485330101533,-1.616870832901272
2025-07-09 21:43:47.769,0.0419521894956571,0.0505087571957906,0.0924609482226108,-1.2168594724821409
2025-07-09 21:43:47.773,0.0521916811620253,0.0177974893021543,0.0699891720036163,-0.9033533920118014
2025-07-09 21:43:47.777,0.0585833362056439,0.0111015928411177,0.0696849305945709,-0.7287677377678414
2025-07-09 21:43:47.781,0.0576461528841562,-0.0088452663588246,0.0488008880814899,-0.6453006362309808
2025-07-09 21:43:47.785,0.0605017870391896,-0.0411218799126583,0.0193799086906339,-0.561253253517783
2025-07-09 21:43:47.789,0.0700015893047653,-0.0581967190218265,0.0118048718546226,-0.4517631846958917
2025-07-09 21:43:47.793,0.0770611412588239,-0.0521630783883921,0.0248980644496734,-0.3650634724529417
2025-07-09 21:43:47.797,0.0755526838842199,-0.0454509977361923,0.0301016877348133,-0.3196040442128558
2025-07-09 21:43:47.800,0.071311576711888,-0.0553371496990582,0.0159744286068488,-0.2676407501299506
2025-07-09 21:43:47.804,0.0728453515109008,-0.07169645985588,0.0011488932559113,-0.1791620394234427
2025-07-09 21:43:47.808,0.0789065226978484,-0.07758938881495,0.0013171354905373,-0.0935336458522352
2025-07-09 21:43:47.812,0.0811617327183117,-0.0728632891305508,0.0082984452020853,-0.0556692923270666
2025-07-09 21:43:47.816,0.0764092501221825,-0.0671459176115174,0.0092633341314186,-0.0482557012133094
2025-07-09 21:43:47.820,0.0690775321853646,-0.0622977101370821,0.0067798236751474,-0.0171883314320333
2025-07-09 21:43:47.824,0.0619411161631443,-0.0528484390104232,0.0090926787855238,0.0654739698371706
2025-07-09 21:43:47.828,0.0525838378589394,-0.0390871756451248,0.0134966638524166,0.1836839804136744
2025-07-09 21:43:47.832,0.040781505531446,-0.0297187815680668,0.0110627256075201,0.2997053248306194
2025-07-09 21:43:47.836,0.0308886692247967,-0.0291557957237628,0.0017328751504449,0.3797441021554413
2025-07-09 21:43:47.840,0.0245172834993754,-0.0307700763879083,-0.0062527912340145,0.4134096962650553
2025-07-09 21:43:47.843,0.0184418449303886,-0.0282497413178677,-0.0098078947280469,0.4180100779153326
2025-07-09 21:43:47.847,0.0106461846181486,-0.0241060534084627,-0.0134598671262782,0.4135934531225179
2025-07-09 21:43:47.851,0.0018457053710243,-0.0207964691785314,-0.0189507621391151,0.3913833392432342
2025-07-09 21:43:47.855,-0.0078630744923374,-0.0147876403259443,-0.0226507131456381,0.3246718379578248
2025-07-09 21:43:47.859,-0.0184194685403377,-0.005802057440916,-0.0242215243045517,0.2170236611758325
2025-07-09 21:43:47.863,-0.0276135213647157,-0.001324457265338,-0.0289379769496743,0.1103476884665377
2025-07-09 21:43:47.867,-0.0328796220991202,-0.0058397716293912,-0.0387193920447348,0.0248118560750197
2025-07-09 21:43:47.871,-0.0347555746501092,-0.012661542552797,-0.0474171155157675,-0.0738450700002081
2025-07-09 21:43:47.875,-0.037979823583035,-0.0112871542393185,-0.0492669761319821,-0.2115387855899403
2025-07-09 21:43:47.879,-0.047764864632956,0.0006987705103959,-0.0470660924293999,-0.3451133162447009
2025-07-09 21:43:47.883,-0.063389421636523,0.0169003503122471,-0.0464890696287106,-0.4110021099512613
2025-07-09 21:43:47.886,-0.0783089048859901,0.0309846765822268,-0.0473242266057939,-0.4101012049648007
2025-07-09 21:43:47.890,-0.0884349085274052,0.0412944679007163,-0.0471404389263165,-0.402212279387543
2025-07-09 21:43:47.894,-0.0962923425997351,0.0480492473134839,-0.0482430935839221,-0.4370342232895003
2025-07-09 21:43:47.898,-0.1059859943287545,0.0524359244632091,-0.0535500681617933,-0.5235496892174589
2025-07-09 21:43:47.902,-0.1191077758653642,0.0581477682096889,-0.060960005950544,-0.6392337053812958
2025-07-09 21:43:47.906,-0.1360343633706547,0.0675816915115262,-0.0684526701524645,-0.7353945419543181
2025-07-09 21:43:47.910,-0.1553881279109719,0.0773270774343283,-0.0780610487688066,-0.7668997828007359
2025-07-09 21:43:47.914,-0.1718031946465739,0.0834952058565286,-0.0883079870817235,-0.7495347876260661
2025-07-09 21:43:47.918,-0.1806304796399727,0.0891413782398965,-0.0914890996914566,-0.749415390890307
2025-07-09 21:43:47.922,-0.1853783468292302,0.0993429080635412,-0.0860354370564907,-0.7971067701040685
2025-07-09 21:43:47.925,-0.1939876142204503,0.1116796184888426,-0.0823079940220016,-0.8620474588499595
2025-07-09 21:43:47.929,-0.2074624439509238,0.118507773275049,-0.0889546689666387,-0.9084843689898492
2025-07-09 21:43:47.933,-0.21861395606083,0.1166567510066673,-0.101957203345711,-0.9149210567917077
2025-07-09 21:43:47.937,-0.222313544202563,0.1107983115888283,-0.1115152309057481,-0.8591999912441706
2025-07-09 21:43:47.941,-0.2212144888454695,0.1090231588237811,-0.1121913283140824,-0.7480893712821597
2025-07-09 21:43:47.945,-0.2206187466353535,0.1152670554453782,-0.1053516894834996,-0.6361361518453139
2025-07-09 21:43:47.949,-0.221921398975589,0.1242438113424615,-0.0976775859284584,-0.56857835061255
2025-07-09 21:43:47.953,-0.2224169520114479,0.1274238489889128,-0.09499310131945,-0.5319642589523523
2025-07-09 21:43:47.957,-0.2197015318681789,0.1253142741875133,-0.0943872559788347,-0.4835721200128404
2025-07-09 21:43:47.961,-0.2148627468133704,0.126431618307019,-0.0884311268063676,-0.3981981102037331
2025-07-09 21:43:47.965,-0.2102177786029994,0.1327745015677535,-0.0774432753380023,-0.2724821864179541
2025-07-09 21:43:47.968,-0.2035744091241987,0.135119759412316,-0.0684546480173738,-0.1121731945950438
2025-07-09 21:43:47.972,-0.1876720086759413,0.123922075483937,-0.0637499314997337,0.0647905470620064
2025-07-09 21:43:47.976,-0.1588359495852037,0.0989526780692373,-0.0598832698262636,0.2212641378063808
2025-07-09 21:43:47.980,-0.1240144981105757,0.0701726271191585,-0.0538418693052776,0.3140067871556083
2025-07-09 21:43:47.984,-0.094183124599872,0.0515839206231305,-0.0425992022944512,0.3229284044431083
2025-07-09 21:43:47.988,-0.0721619944381615,0.0486090665968303,-0.0235529261623629,0.2661531786249094
2025-07-09 21:43:47.992,-0.0521055977211349,0.0517203989735937,-0.0003851970719248,0.1847330328506516
2025-07-09 21:43:47.996,-0.0299796581111727,0.049014826981973,0.0190351705421106,0.1161524808956567
2025-07-09 21:43:48.000,-0.0093272237202019,0.0407063768231574,0.0313791547693817,0.0789076801538691
2025-07-09 21:43:48.004,0.0047999620104253,0.033590658250736,0.0383906219231167,0.0703475648562575
2025-07-09 21:43:48.008,0.0140967162913742,0.0286556856945715,0.0427524036436631,0.0772246945106527
2025-07-09 21:43:48.011,0.024826385242872,0.0233670445080404,0.0481934314036165,0.0930682965789423
2025-07-09 21:43:48.015,0.0390345959168517,0.018320979965099,0.0573555775288495,0.1182873423480638
2025-07-09 21:43:48.019,0.0536859810322625,0.0128404254632626,0.0665264081368049,0.1407367609415234
2025-07-09 21:43:48.023,0.0667037512606504,0.0024897826158328,0.0691935355125341,0.1364736718833527
2025-07-09 21:43:48.027,0.0777951028798992,-0.0116322592178848,0.0661628452923287,0.101529376760258
2025-07-09 21:43:48.031,0.0859595404336315,-0.0206399654878544,0.0653195765694877,0.0651201017648767
2025-07-09 21:43:48.035,0.0913242660760984,-0.0210299540105592,0.0702943136825678,0.0584800302008214
2025-07-09 21:43:48.039,0.0967791195717753,-0.0210347287491944,0.0757443924333394,0.0809421133902464
2025-07-09 21:43:48.043,0.104239390817456,-0.0290628412767304,0.0751765511449821,0.1035311460857192
2025-07-09 21:43:48.047,0.1112705567282142,-0.0427535539455977,0.0685170043795696,0.1006545818263522
2025-07-09 21:43:48.050,0.1142036476006716,-0.0526602946590558,0.0615433545309607,0.076610387828423
2025-07-09 21:43:48.054,0.1134915152725386,-0.0525120015100686,0.0609795153445196,0.0617928175002087
2025-07-09 21:43:48.058,0.1129651271570096,-0.044345007487165,0.0686201212445769,0.0816693132660728
2025-07-09 21:43:48.062,0.1145697344915272,-0.0359743002893307,0.0785954357689811,0.1319523924546129
2025-07-09 21:43:48.066,0.1173442073376729,-0.0345704057111622,0.0827738031849145,0.1856996670212683
2025-07-09 21:43:48.070,0.1204007254932988,-0.0420946355680531,0.0783060914754062,0.2198943368675661
2025-07-09 21:43:48.074,0.1233233108221679,-0.0552540011172677,0.0680693112468812,0.2309430521028175
2025-07-09 21:43:48.078,0.1251052619416328,-0.0675365935650632,0.0575686699099435,0.2257815228107448
2025-07-09 21:43:48.082,0.1252243978703487,-0.0719115608374918,0.0533128385571884,0.2073281937867282
2025-07-09 21:43:48.086,0.1242584645238526,-0.0653098597165585,0.0589486063225506,0.1789013751550682
2025-07-09 21:43:48.090,0.1223488214313039,-0.0519843975851976,0.0703644253523136,0.154459686437948
2025-07-09 21:43:48.093,0.1187687907899489,-0.0409159130322694,0.0778528792545657,0.1465643995537405
2025-07-09 21:43:48.097,0.1141574144247565,-0.0385625176705932,0.0755948982413967,0.1487958919139565
2025-07-09 21:43:48.101,0.1116583981626552,-0.0433037748041563,0.0683546248359557,0.1471218378874129
2025-07-09 21:43:48.105,0.1132905932226218,-0.0478004700384704,0.0654901246517433,0.1448523912431324
2025-07-09 21:43:48.109,0.1162073052648801,-0.0491230635754725,0.0670842431469188,0.1593640105044187
2025-07-09 21:43:48.113,0.116433196082891,-0.0538022453079587,0.0626309522221769,0.1924042847236842
2025-07-09 21:43:48.117,0.1149501690438074,-0.0666153058552768,0.0483348646254078,0.2186300068566969
2025-07-09 21:43:48.121,0.1150054063396785,-0.0780405793175949,0.03696482844839,0.21378860998786
2025-07-09 21:43:48.125,0.1155872606093912,-0.0741597758466926,0.0414274861781658,0.1855333133714347
2025-07-09 21:43:48.129,0.1137499004296393,-0.0576092344524765,0.0561406673817176,0.1633729393359073
2025-07-09 21:43:48.133,0.1111486269665321,-0.0454522907782939,0.0656963375819016,0.1632136844522937
2025-07-09 21:43:48.136,0.1120164690176162,-0.0458325167875984,0.0661839536125377,0.1749068678486431
2025-07-09 21:43:48.140,0.1164264460188778,-0.049900254992293,0.0665261923975591,0.1838958896856627
2025-07-09 21:43:48.144,0.1208528994424866,-0.048250978378605,0.0726019224232493,0.195010010942327
2025-07-09 21:43:48.148,0.1236287648225279,-0.0430905632276234,0.0805382029428486,0.2270132571483811
2025-07-09 21:43:48.152,0.1252546997389542,-0.0410446875948384,0.0842100134804476,0.2799630883352554
2025-07-09 21:43:48.156,0.1256275197660858,-0.0433069319566542,0.0823205891336115,0.3181766829784607
2025-07-09 21:43:48.160,0.1255604159189638,-0.0472292300760157,0.0783311871548102,0.3058104792653172
2025-07-09 21:43:48.164,0.1280601103011421,-0.0519155959981321,0.0761445156028639,0.2564979020303695
2025-07-09 21:43:48.168,0.1331732548530795,-0.0573564070594194,0.0758168490814934,0.221930679171002
2025-07-09 21:43:48.172,0.1353218606905078,-0.0608036813858843,0.0745181805798389,0.2291036253713018
2025-07-09 21:43:48.175,0.1316498799373845,-0.0597165820053002,0.0719332991943219,0.2528362044363465
2025-07-09 21:43:48.179,0.1288417868884866,-0.0582385839088157,0.0706032042292541,0.2548247272132525
2025-07-09 21:43:48.183,0.1342269580440001,-0.06474316068012,0.0694837986010291,0.2308666861348591
2025-07-09 21:43:48.187,0.1440117285313714,-0.0806338911446112,0.0633778386109586,0.2101552383063869
2025-07-09 21:43:48.191,0.1484200796864315,-0.0959749249263519,0.0524451559707611,0.2158686963054019
2025-07-09 21:43:48.195,0.1445699317168894,-0.0993650785281615,0.0452048543860832,0.236921157081927
2025-07-09 21:43:48.199,0.1369250085320296,-0.0905762395341219,0.0463487701823581,0.2423613701458087
