Timestamp,GSR_Filtered,PPG_Filtered,FMS,Condition
2025-07-09 21:54:12.260,-0.0001504662080302,3.694921083955724,2,DB
2025-07-09 21:54:12.268,-0.0001842277446471,3.6082081375214488,2,DB
2025-07-09 21:54:12.276,-0.000213697932778,3.395723704822745,2,DB
2025-07-09 21:54:12.284,-0.0002382945061501,3.064865802838605,2,DB
2025-07-09 21:54:12.291,-0.0002575397312315,2.626030269589469,2,DB
2025-07-09 21:54:12.299,-0.0002710772661,2.0922933002640725,2,DB
2025-07-09 21:54:12.307,-0.0002786862352568,1.4790106456981034,2,DB
2025-07-09 21:54:12.315,-0.0002802918666625,0.8033475652052011,2,DB
2025-07-09 21:54:12.323,-0.000275972172368,0.0837560190313033,2,DB
2025-07-09 21:54:12.330,-0.0002659602896802,-0.6605826620389256,2,DB
2025-07-09 21:54:12.338,-0.000250642226427,-1.4103303403394094,2,DB
2025-07-09 21:54:12.346,-0.0002305498725569,-2.1465602598679148,2,DB
2025-07-09 21:54:12.354,-0.0002063492556614,-2.8513016669957945,2,DB
2025-07-09 21:54:12.362,-0.0001788241428701,-3.5080427889825665,2,DB
2025-07-09 21:54:12.370,-0.0001488552494056,-4.102175858846549,2,DB
2025-07-09 21:54:12.377,-0.0001173955184543,-4.621370207441657,2,DB
2025-07-09 21:54:12.385,-8.544216310382529e-05,-5.055862259132158,2,DB
2025-07-09 21:54:12.393,-5.400635957132439e-05,-5.398654469112828,2,DB
2025-07-09 21:54:12.401,-2.408162355094093e-05,-5.645618715812036,2,DB
2025-07-09 21:54:12.409,3.388011483055194e-06,-5.795503279377285,2,DB
2025-07-09 21:54:12.416,2.7538865913917172e-05,-5.849846147328371,2,DB
2025-07-09 21:54:12.424,4.761642055778029e-05,-5.812800831020148,2,DB
2025-07-09 21:54:12.432,6.30010146199736e-05,-5.690883993944405,2,DB
2025-07-09 21:54:12.440,7.322945604998254e-05,-5.49265684460238,2,DB
2025-07-09 21:54:12.448,7.80116037984285e-05,-5.228354321338923,2,DB
2025-07-09 21:54:12.455,7.724102244044913e-05,-4.90947751845947,2,DB
2025-07-09 21:54:12.463,7.099891187832886e-05,-4.548365534117418,2,DB
2025-07-09 21:54:12.471,5.955073728536813e-05,-4.15776295927132,2,DB
2025-07-09 21:54:12.479,4.333535103858056e-05,-3.750398603981328,2,DB
2025-07-09 21:54:12.487,2.294687894049598e-05,-3.338589829646,2,DB
2025-07-09 21:54:12.495,-8.898312650034825e-07,-2.933885103779716,2,DB
2025-07-09 21:54:12.502,-2.734891748418384e-05,-2.5467552183097912,2,DB
2025-07-09 21:54:12.510,-5.553673517981019e-05,-2.186341129279876,2,DB
2025-07-09 21:54:12.518,-8.45268213210838e-05,-1.860263709071576,2,DB
2025-07-09 21:54:12.526,-0.0001133948158663,-1.5744979744282168,2,DB
2025-07-09 21:54:12.534,-0.000141251712898,-1.333311677846149,2,DB
2025-07-09 21:54:12.541,-0.000167274049305,-1.139265624268784,2,DB
2025-07-09 21:54:12.549,-0.0001907299336538,-0.9932707825772188,2,DB
2025-07-09 21:54:12.557,-0.00021100013581,-0.8946952763322743,2,DB
2025-07-09 21:54:12.565,-0.0002275937668852,-0.8415127311047225,2,DB
2025-07-09 21:54:12.573,-0.0002401583616258,-0.8304822925390839,2,DB
2025-07-09 21:54:12.581,-0.0002484844239526,-0.8573499655240292,2,DB
2025-07-09 21:54:12.588,-0.0002525047071224,-0.91706079683122,2,DB
2025-07-09 21:54:12.596,-0.0002522886709485,-1.0039718388197434,2,DB
2025-07-09 21:54:12.604,-0.0002480326894167,-1.1120567607306435,2,DB
2025-07-09 21:54:12.612,-0.0002400466741396,-1.2350943473342284,2,DB
2025-07-09 21:54:12.620,-0.0002287378349397,-1.3668348386320437,2,DB
2025-07-09 21:54:12.627,-0.0002145923219786,-1.5011399951027504,2,DB
2025-07-09 21:54:12.635,-0.0001981554885273,-1.6320947939749475,2,DB
2025-07-09 21:54:12.643,-0.0001800114844193,-1.7540906563912797,2,DB
2025-07-09 21:54:12.651,-0.000160762842347,-1.861881969729685,2,DB
2025-07-09 21:54:12.659,-0.0001410106572953,-1.9506193124934812,2,DB
2025-07-09 21:54:12.666,-0.0001213358881341,-2.0158641306404657,2,DB
2025-07-09 21:54:12.674,-0.0001022822338221,-2.053590583719497,2,DB
2025-07-09 21:54:12.682,-8.434095835661204e-05,-2.060180816744679,2,DB
2025-07-09 21:54:12.690,-6.793796136166334e-05,-2.032419974075458,2,DB
2025-07-09 21:54:12.698,-5.342331717446532e-05,-1.9674968345183084,2,DB
2025-07-09 21:54:12.706,-4.106343580173987e-05,-1.8630150295159436,2,DB
2025-07-09 21:54:12.713,-3.1035934841947306e-05,-1.7170184689009926,2,DB
2025-07-09 21:54:12.721,-2.3427252387330688e-05,-1.528032939355157,2,DB
2025-07-09 21:54:12.729,-1.8232976486512697e-05,-1.2951239820551472,2,DB
2025-07-09 21:54:12.737,-1.536081598313426e-05,-1.0179692329001118,2,DB
2025-07-09 21:54:12.745,-1.4636089189266936e-05,-0.6969415611906384,2,DB
2025-07-09 21:54:12.752,-1.580955951614542e-05,-0.3331977087393198,2,DB
2025-07-09 21:54:12.760,-1.856739951164832e-05,0.0712341636470627,2,DB
2025-07-09 21:54:12.768,-2.2543015570966453e-05,0.5133754714811235,2,DB
2025-07-09 21:54:12.776,-2.7330414048681552e-05,0.9892345443850574,2,DB
2025-07-09 21:54:12.784,-3.2498735214206674e-05,1.4937679270439,2,DB
2025-07-09 21:54:12.791,-3.760752461867565e-05,2.020872564240636,2,DB
2025-07-09 21:54:12.799,-4.222225438992243e-05,2.5634146183995488,2,DB
2025-07-09 21:54:12.807,-4.592956087437359e-05,3.113299097868944,2,DB
2025-07-09 21:54:12.815,-4.835165261088633e-05,3.661582598061852,2,DB
2025-07-09 21:54:12.823,-4.915937776299537e-05,4.198629374354662,2,DB
2025-07-09 21:54:12.831,-4.808349978333313e-05,4.714308777859896,2,DB
2025-07-09 21:54:12.838,-4.492376970668553e-05,5.198229898970388,2,DB
2025-07-09 21:54:12.846,-3.95553924334097e-05,5.640007184803108,2,DB
2025-07-09 21:54:12.854,-3.193250905541796e-05,6.029548923625004,2,DB
2025-07-09 21:54:12.862,-2.2088416917467203e-05,6.357358908525884,2,DB
2025-07-09 21:54:12.870,-1.0132434804773087e-05,6.6148403808589125,2,DB
2025-07-09 21:54:12.877,3.7564468013088735e-06,6.794590581113271,2,DB
2025-07-09 21:54:12.885,1.933875042175292e-05,6.890673959315418,2,DB
2025-07-09 21:54:12.893,3.632592888525418e-05,6.898862355414942,2,DB
2025-07-09 21:54:12.901,5.439324757663833e-05,6.81683126039346,2,DB
2025-07-09 21:54:12.909,7.319329655567157e-05,6.644302593237732,2,DB
2025-07-09 21:54:12.916,9.23693265543564e-05,6.383126241136776,2,DB
2025-07-09 21:54:12.924,0.0001115676897551,6.037294856073802,2,DB
2025-07-09 21:54:12.932,0.0001304487772262,5.6128889995957545,2,DB
2025-07-09 21:54:12.940,0.0001486959736006,5.117952564173668,2,DB
2025-07-09 21:54:12.948,0.0001660223107793,4.562301329510836,2,DB
2025-07-09 21:54:12.956,0.0001821747036425,3.95727037515276,2,DB
2025-07-09 21:54:12.963,0.0001969358626115,3.315408707287048,2,DB
2025-07-09 21:54:12.971,0.0002101241482191,2.650131721448008,2,DB
2025-07-09 21:54:12.979,0.0002215917340279,1.9753438905163727,2,DB
2025-07-09 21:54:12.987,0.0002312214872811,1.3050452477695882,2,DB
2025-07-09 21:54:12.995,0.0002389229829997,0.6529357768523775,2,DB
2025-07-09 21:54:13.002,0.0002446280482965,0.032031715339528,2,DB
2025-07-09 21:54:13.010,0.0002482861936601,-0.5456929457070216,2,DB
2025-07-09 21:54:13.018,0.0002498602317864,-1.0696277666721252,2,DB
2025-07-09 21:54:13.026,0.0002493223257788,-1.5307997209135535,2,DB
2025-07-09 21:54:13.034,0.0002466506721172,-1.922091470326052,2,DB
2025-07-09 21:54:13.041,0.0002418270255322,-2.238398241494417,2,DB
2025-07-09 21:54:13.049,0.0002348352912532,-2.476719911738762,2,DB
2025-07-09 21:54:13.057,0.0002256613999475,-2.6361873146926915,2,DB
2025-07-09 21:54:13.065,0.0002142946207409,-2.7180240599968606,2,DB
2025-07-09 21:54:13.073,0.0002007303743568,-2.7254472636867515,2,DB
2025-07-09 21:54:13.081,0.0001849745057281,-2.6635124588025123,2,DB
2025-07-09 21:54:13.088,0.0001670488683771,-2.53890956693851,2,DB
2025-07-09 21:54:13.096,0.0001469979470587,-2.3597181336988045,2,DB
2025-07-09 21:54:13.104,0.0001248960935961,-2.1351310382137,2,DB
2025-07-09 21:54:13.112,0.0001008548034289,-1.8751565536834012,2,DB
2025-07-09 21:54:13.120,7.502936986099603e-05,-1.590308941537133,2,DB
2025-07-09 21:54:13.127,4.762424732870316e-05,-1.2912976964887988,2,DB
2025-07-09 21:54:13.135,1.889652335800094e-05,-0.9887251318789306,2,DB
2025-07-09 21:54:13.143,-1.0842980420103452e-05,-0.6928012344052954,2,DB
2025-07-09 21:54:13.151,-4.123129692945712e-05,-0.4130836739831257,2,DB
2025-07-09 21:54:13.159,-7.185771680489303e-05,-0.1582495883280477,2,DB
2025-07-09 21:54:13.166,-0.000102270920596,0.0640956650594148,2,DB
2025-07-09 21:54:13.174,-0.0001319885665938,0.2475691271119157,2,DB
2025-07-09 21:54:13.182,-0.0001605089446644,0.3871181449637491,2,DB
2025-07-09 21:54:13.190,-0.0001873242783256,0.4790850716368334,2,DB
2025-07-09 21:54:13.198,-0.0002119352720102,0.5212297929683806,2,DB
2025-07-09 21:54:13.206,-0.0002338664890543,0.5127125491058475,2,DB
2025-07-09 21:54:13.213,-0.0002526820785292,0.4540408017225509,2,DB
2025-07-09 21:54:13.221,-0.000268001270658,0.3469849909423066,2,DB
2025-07-09 21:54:13.229,-0.0002795129809861,0.1944688874196608,2,DB
2025-07-09 21:54:13.237,-0.0002869888410689,0.0004408358329006,2,DB
2025-07-09 21:54:13.245,-0.0002902940141649,-0.2302675290071278,2,DB
2025-07-09 21:54:13.252,-0.0002893952380419,-0.4920885573371746,2,DB
2025-07-09 21:54:13.260,-0.0002843656421872,-0.7788656971654216,2,DB
2025-07-09 21:54:13.268,-0.0002753860048172,-1.0839949986541342,2,DB
2025-07-09 21:54:13.276,-0.0002627422454271,-1.4005565653280545,2,DB
2025-07-09 21:54:13.284,-0.0002468190918991,-1.7214327444482975,2,DB
2025-07-09 21:54:13.291,-0.0002280900176341,-2.0394112389311165,2,DB
2025-07-09 21:54:13.299,-0.0002071037133666,-2.347272763227924,2,DB
2025-07-09 21:54:13.307,-0.0001844675390295,-2.6378642452447205,2,DB
2025-07-09 21:54:13.315,-0.0001608285894587,-2.904159790659447,2,DB
2025-07-09 21:54:13.323,-0.0001368531893092,-3.139312587156388,2,DB
2025-07-09 21:54:13.331,-0.0001132057710617,-3.3367015725084763,2,DB
2025-07-09 21:54:13.338,-9.052813688896074e-05,-3.489976988854288,2,DB
2025-07-09 21:54:13.346,-6.942003722548704e-05,-3.5931088865987038,2,DB
2025-07-09 21:54:13.354,-5.042184185369918e-05,-3.6404422325898658,2,DB
2025-07-09 21:54:13.362,-3.3999884139592835e-05,-3.626761538523094,2,DB
2025-07-09 21:54:13.370,-2.053486417187962e-05,-3.5473668914370444,2,DB
2025-07-09 21:54:13.377,-1.031351844107208e-05,-3.3981619951464093,2,DB
2025-07-09 21:54:13.385,-3.5236076849641555e-06,-3.175753403511336,2,DB
2025-07-09 21:54:13.393,-2.5214293545923944e-07,-2.877558652417397,2,DB
2025-07-09 21:54:13.401,-4.866636092050573e-07,-2.501919598235075,2,DB
2025-07-09 21:54:13.409,-4.1193004584350245e-06,-2.0482160620450736,2,DB
2025-07-09 21:54:13.416,-1.0953299049386405e-05,-1.5169739572862158,2,DB
2025-07-09 21:54:13.424,-2.071164400116304e-05,-0.9099615131251948,2,DB
2025-07-09 21:54:13.432,-3.304740766524648e-05,-0.2302670361060171,2,DB
2025-07-09 21:54:13.440,-4.7555445965302354e-05,0.5176481129468022,2,DB
2025-07-09 21:54:13.448,-6.378507521635972e-05,1.3279270288518763,2,DB
2025-07-09 21:54:13.456,-8.125338333527348e-05,2.193329987842453,2,DB
2025-07-09 21:54:13.463,-9.945885353319168e-05,3.1052858373423287,2,DB
2025-07-09 21:54:13.471,-0.0001178950052699,4.05398396361408,2,DB
2025-07-09 21:54:13.479,-0.0001360637833519,5.028507031802895,2,DB
2025-07-09 21:54:13.487,-0.0001534884495648,6.017002872977908,2,DB
2025-07-09 21:54:13.495,-0.0001697257508158,7.006892070006784,2,DB
2025-07-09 21:54:13.502,-0.0001843771528071,7.985106071126695,2,DB
2025-07-09 21:54:13.510,-0.0001970989388732,8.93834913379723,2,DB
2025-07-09 21:54:13.518,-0.0002076109806007,9.8533761553576,2,DB
2025-07-09 21:54:13.526,-0.0002157039916302,10.71727754866745,2,DB
2025-07-09 21:54:13.534,-0.0002212450805854,11.517761822420566,2,DB
2025-07-09 21:54:13.541,-0.0002241814257399,12.243426466163028,2,DB
2025-07-09 21:54:13.549,-0.000224541905451,12.884008145327972,2,DB
2025-07-09 21:54:13.557,-0.0002224365372581,13.430604087805282,2,DB
2025-07-09 21:54:13.565,-0.0002180536075004,13.87585786302959,2,DB
2025-07-09 21:54:13.573,-0.0002116544146983,14.2141044460386,2,DB
2025-07-09 21:54:13.581,-0.0002035656056759,14.44147140939524,2,DB
2025-07-09 21:54:13.588,-0.0001941691547783,14.555935153855092,2,DB
2025-07-09 21:54:13.596,-0.0001838901240711,14.55733312216334,2,DB
2025-07-09 21:54:13.604,-0.000173182445764,14.447334791314882,2,DB
2025-07-09 21:54:13.612,-0.0001625130842888,14.229375773835454,2,DB
2025-07-09 21:54:13.620,-0.0001523450524401,13.908560472115514,2,DB
2025-07-09 21:54:13.627,-0.0001431198497189,13.49153935597429,2,DB
2025-07-09 21:54:13.635,-0.0001352399458925,12.9863670541003,2,DB
2025-07-09 21:54:13.643,-0.0001290519681371,12.402347090024836,2,DB
2025-07-09 21:54:13.651,-0.0001248312983465,11.74986831317208,2,DB
2025-07-09 21:54:13.659,-0.0001227688354857,11.040236963807438,2,DB
2025-07-09 21:54:13.666,-0.0001229606639406,10.28550697806707,2,DB
2025-07-09 21:54:13.674,-0.0001254012467473,9.498309710894484,2,DB
2025-07-09 21:54:13.682,-0.0001299805470277,8.691682862116398,2,DB
2025-07-09 21:54:13.690,-0.0001364852222647,7.878897166087373,2,DB
2025-07-09 21:54:13.698,-0.0001446037827825,7.0732784772922495,2,DB
2025-07-09 21:54:13.706,-0.0001539353980531,6.288022372266644,2,DB
2025-07-09 21:54:13.713,-0.0001640019009283,5.535998387319751,2,DB
2025-07-09 21:54:13.721,-0.0001742624806774,4.8295415740313805,2,DB
2025-07-09 21:54:13.729,-0.0001841305375285,4.180230176497449,2,DB
2025-07-09 21:54:13.737,-0.0001929921486398,3.598649854528364,2,DB
2025-07-09 21:54:13.745,-0.0002002255460766,3.0941468824263376,2,DB
2025-07-09 21:54:13.752,-0.0002052209616919,2.6745749851478053,2,DB
2025-07-09 21:54:13.760,-0.0002074002103746,2.3460427382618567,2,DB
2025-07-09 21:54:13.768,-0.0002062354750161,2.112670543254195,2,DB
2025-07-09 21:54:13.776,-0.0002012668631794,1.9763678903048107,2,DB
2025-07-09 21:54:13.784,-0.0001921183583525,1.93664275951858,2,DB
2025-07-09 21:54:13.791,-0.0001785117791156,1.990455453882392,2,DB
2025-07-09 21:54:13.799,-0.0001602783258763,2.1321288218186707,2,DB
2025-07-09 21:54:13.807,-0.0001373672736758,2.353325695183413,2,DB
2025-07-09 21:54:13.815,-0.000109851378137,2.6431024835501065,2,DB
2025-07-09 21:54:13.823,-7.792860664222813e-05,2.988045323516449,2,DB
2025-07-09 21:54:13.831,-4.1919892331135296e-05,3.37249211390222,2,DB
2025-07-09 21:54:13.838,-2.2627371724091183e-06,3.7788403246136353,2,DB
2025-07-09 21:54:13.846,4.049933676439135e-05,4.187936808630925,2,DB
2025-07-09 21:54:13.854,8.573127402787154e-05,4.579542139494441,2,DB
2025-07-09 21:54:13.862,0.0001327244543231,4.932858411099477,2,DB
2025-07-09 21:54:13.870,0.0001807174535068,5.227106139063444,2,DB
2025-07-09 21:54:13.877,0.000228918733888,5.442133046295267,2,DB
2025-07-09 21:54:13.885,0.0002765303123432,5.5590352327068,2,DB
2025-07-09 21:54:13.893,0.0003227714317098,5.560769631605121,2,DB
2025-07-09 21:54:13.901,0.0003669012686349,5.432735832656585,2,DB
2025-07-09 21:54:13.909,0.0004082397491267,5.163305371542569,2,DB
2025-07-09 21:54:13.916,0.0004461856452776,4.74427749756269,2,DB
2025-07-09 21:54:13.924,0.0004802313124226,4.171242258239278,2,DB
2025-07-09 21:54:13.932,0.0005099736687027,3.443834477110826,2,DB
2025-07-09 21:54:13.940,0.0005351212678422,2.565865790756242,2,DB
2025-07-09 21:54:13.948,0.0005554975337018,1.5453262366842515,2,DB
2025-07-09 21:54:13.956,0.0005710403974576,0.3942517678103571,2,DB
2025-07-09 21:54:13.963,0.0005817987026224,-0.8715407163186755,2,DB
2025-07-09 21:54:13.971,0.0005879258207505,-2.2328439508650804,2,DB
2025-07-09 21:54:13.979,0.0005896709561533,-3.667564564025594,2,DB
2025-07-09 21:54:13.987,0.0005873686255331,-5.151324503846749,2,DB
2025-07-09 21:54:13.995,0.0005814268044925,-6.658139289616013,2,DB
2025-07-09 21:54:14.002,0.0005723142552995,-8.1611498385575,2,DB
2025-07-09 21:54:14.010,0.0005605475700627,-9.633382768720049,2,DB
2025-07-09 21:54:14.018,0.0005466784383296,-11.048513335888174,2,DB
2025-07-09 21:54:14.026,0.0005312815597086,-12.3816055019256,2,DB
2025-07-09 21:54:14.034,0.0005149434896419,-13.609804962643723,2,DB
2025-07-09 21:54:14.041,0.0004982525583781,-14.71296314542126,2,DB
2025-07-09 21:54:14.049,0.0004817898565387,-15.674173056868304,2,DB
2025-07-09 21:54:14.057,0.0004661211437643,-16.48020125134958,2,DB
2025-07-09 21:54:14.065,0.0004517894155398,-17.121803942445226,2,DB
2025-07-09 21:54:14.073,0.0004393077622205,-17.593919245138594,2,DB
2025-07-09 21:54:14.081,0.0004291520771479,-17.89573158665199,2,DB
2025-07-09 21:54:14.088,0.0004217531216253,-18.030608345278303,2,DB
2025-07-09 21:54:14.096,0.0004174874459494,-18.00591266957257,2,DB
2025-07-09 21:54:14.104,0.0004166667295989,-17.83270010141438,2,DB
2025-07-09 21:54:14.112,0.0004195252820046,-17.525309984024258,2,DB
2025-07-09 21:54:14.120,0.0004262057526165,-17.100865595336387,2,DB
2025-07-09 21:54:14.127,0.0004367434989532,-16.578699443304995,2,DB
2025-07-09 21:54:14.135,0.0004510504893276,-15.979722155920902,2,DB
2025-07-09 21:54:14.143,0.0004689000100257,-15.32575488128708,2,DB
2025-07-09 21:54:14.151,0.0004899137410619,-14.63884607733433,2,DB
2025-07-09 21:54:14.159,0.0005135528866038,-13.94059400734115,2,DB
2025-07-09 21:54:14.166,0.0005391149330884,-13.251496145023372,2,DB
2025-07-09 21:54:14.174,0.000565737248121,-12.590345996596191,2,DB
2025-07-09 21:54:14.182,0.0005924081906132,-11.97369652315527,2,DB
2025-07-09 21:54:14.190,0.0006179857956023,-11.41540735555716,2,DB
2025-07-09 21:54:14.198,0.0006412235355622,-10.92629031850166,2,DB
2025-07-09 21:54:14.206,0.0006608022052572,-10.513864442236518,2,DB
2025-07-09 21:54:14.213,0.0006753666551671,-10.18222771107981,2,DB
2025-07-09 21:54:14.221,0.0006835659118008,-9.93204840552454,2,DB
2025-07-09 21:54:14.229,0.00068409514479,-9.760674220925686,2,DB
2025-07-09 21:54:14.237,0.0006757379281346,-9.662352617886992,2,DB
2025-07-09 21:54:14.245,0.0006574072680358,-9.628551335092464,2,DB
2025-07-09 21:54:14.252,0.000628183924169,-9.648363941443405,2,DB
2025-07-09 21:54:14.260,0.0005873506292124,-9.708981972755842,2,DB
2025-07-09 21:54:14.268,0.0005344209000341,-9.796212803978136,2,DB
2025-07-09 21:54:14.276,0.0004691612393907,-9.895021113161992,2,DB
2025-07-09 21:54:14.284,0.0003916057116865,-9.990071693269106,2,DB
2025-07-09 21:54:14.291,0.0003020622251595,-10.06625247517954,2,DB
2025-07-09 21:54:14.299,0.0002011103686816,-10.109158860493269,2,DB
2025-07-09 21:54:14.307,8.959121391390564e-05,-10.105523655206792,2,DB
2025-07-09 21:54:14.315,-3.141005017482263e-05,-10.043580797556231,2,DB
2025-07-09 21:54:14.323,-0.0001605875112059,-9.913355384774889,2,DB
2025-07-09 21:54:14.331,-0.0002964427152663,-9.706876899244024,2,DB
2025-07-09 21:54:14.338,-0.0004373164037,-9.418316694195196,2,DB
2025-07-09 21:54:14.346,-0.0005814226113251,-9.044054435142783,2,DB
2025-07-09 21:54:14.354,-0.0007268839464352,-8.58268107636085,2,DB
2025-07-09 21:54:14.362,-0.000871766853353,-8.034947932278447,2,DB
2025-07-09 21:54:14.370,-0.0010141156482455,-7.403672424944463,2,DB
2025-07-09 21:54:14.377,-0.0011519841811107,-6.693611188040806,2,DB
2025-07-09 21:54:14.385,-0.0012834641637877,-5.91131050214926,2,DB
2025-07-09 21:54:14.393,-0.0014067095328669,-5.06494269530458,2,DB
2025-07-09 21:54:14.401,-0.0015199566461549,-4.164135362684814,2,DB
2025-07-09 21:54:14.409,-0.001621540553085,-3.2197982370930998,2,DB
2025-07-09 21:54:14.416,-0.0017099079554285,-2.243950461033231,2,DB
2025-07-09 21:54:14.424,-0.0017836277664899,-1.2495490314929822,2,DB
2025-07-09 21:54:14.432,-0.0018414004049615,-0.2503174427073357,2,DB
2025-07-09 21:54:14.440,-0.0018820671150296,0.7394278557283126,2,DB
2025-07-09 21:54:14.448,-0.0019046206250907,1.704956564772902,2,DB
2025-07-09 21:54:14.456,-0.0019082182873234,2.631313128978387,2,DB
2025-07-09 21:54:14.463,-0.0018921984896261,3.5035188140800813,2,DB
2025-07-09 21:54:14.471,-0.0018561006617238,4.306790870464584,2,DB
2025-07-09 21:54:14.479,-0.0017996886721088,5.026781524917413,2,DB
2025-07-09 21:54:14.487,-0.0017229768786528,5.64983824000136,2,DB
2025-07-09 21:54:14.495,-0.0016262575895569,6.163284972148956,2,DB
2025-07-09 21:54:14.502,-0.0015101282374412,6.555722114772915,2,DB
2025-07-09 21:54:14.510,-0.0013755161717619,6.817340535319414,2,DB
2025-07-09 21:54:14.518,-0.0012236986327815,6.940242742652784,2,DB
2025-07-09 21:54:14.526,-0.0010563152260375,6.91876191522719,2,DB
2025-07-09 21:54:14.534,-0.0008753701671917,6.749767454105855,2,DB
2025-07-09 21:54:14.541,-0.000683221803798,6.432944068567784,2,DB
2025-07-09 21:54:14.549,-0.0004825574623205,5.97103031082504,2,DB
2025-07-09 21:54:14.557,-0.0002763524709208,5.370002078613579,2,DB
2025-07-09 21:54:14.565,-6.781320560884089e-05,4.639186993651702,2,DB
2025-07-09 21:54:14.573,0.0001396948591021,3.791296791002672,2,DB
2025-07-09 21:54:14.581,0.0003427318985991,2.842366917676318,2,DB
2025-07-09 21:54:14.588,0.0005378778858291,1.8115953778284364,2,DB
2025-07-09 21:54:14.596,0.0007218317190143,0.7210763600404573,2,DB
2025-07-09 21:54:14.604,0.0008915102817736,-0.4045718219602517,2,DB
2025-07-09 21:54:14.612,0.0010441422775343,-1.538680642246163,2,DB
2025-07-09 21:54:14.620,0.0011773520633164,-2.6530988976447905,2,DB
2025-07-09 21:54:14.627,0.0012892294475223,-3.718841345838464,2,DB
2025-07-09 21:54:14.635,0.0013783823450498,-4.70680194668643,2,DB
2025-07-09 21:54:14.643,0.0014439701568902,-5.5885117050816975,2,DB
2025-07-09 21:54:14.651,0.0014857166867979,-6.336918243201706,2,DB
2025-07-09 21:54:14.659,0.0015039023656249,-6.9271621231627885,2,DB
2025-07-09 21:54:14.666,0.0014993366189566,-7.337323707619574,2,DB
2025-07-09 21:54:14.674,0.0014733123645957,-7.54911406795445,2,DB
2025-07-09 21:54:14.682,0.001427545657966,-7.548484180017215,2,DB
2025-07-09 21:54:14.690,0.0013641041796143,-7.326128410387124,2,DB
2025-07-09 21:54:14.698,0.0012853285049368,-6.877861086904908,2,DB
2025-07-09 21:54:14.706,0.0011937500073043,-6.204848724200149,2,DB
2025-07-09 21:54:14.713,0.0010920089544297,-5.313685151034218,2,DB
2025-07-09 21:54:14.721,0.0009827759470591,-4.216302223455111,2,DB
2025-07-09 21:54:14.729,0.0008686793618773,-2.9297148153191137,2,DB
2025-07-09 21:54:14.737,0.0007522409194214,-1.4756051128419525,2,DB
2025-07-09 21:54:14.745,0.0006358209057926,0.1202423871144467,2,DB
2025-07-09 21:54:14.752,0.0005215739371761,1.828637685251228,2,DB
2025-07-09 21:54:14.760,0.0004114154965757,3.61779092392234,2,DB
2025-07-09 21:54:14.768,0.0003069988480721,5.454199327169,2,DB
2025-07-09 21:54:14.776,0.0002097014198789,7.3035844929375004,2,DB
2025-07-09 21:54:14.784,0.0001206194136617,9.1318470429488,2,DB
2025-07-09 21:54:14.791,4.056927335901863e-05,10.90600504453051,2,DB
2025-07-09 21:54:14.799,-2.990528665643183e-05,12.595083502294337,2,DB
2025-07-09 21:54:14.807,-9.052178146083836e-05,14.170924498849638,2,DB
2025-07-09 21:54:14.815,-0.0001412437740534,15.608891086170678,2,DB
2025-07-09 21:54:14.823,-0.0001822625022571,16.888442578441996,2,DB
2025-07-09 21:54:14.831,-0.0002139755764598,17.993564223798213,2,DB
2025-07-09 21:54:14.838,-0.0002369628998364,18.91304006918744,2,DB
2025-07-09 21:54:14.846,-0.0002519599714363,19.64056390777099,2,DB
2025-07-09 21:54:14.854,-0.0002598288456996,20.17468924817397,2,DB
2025-07-09 21:54:14.862,-0.000261527221565,20.518625026044507,2,DB
2025-07-09 21:54:14.870,-0.0002580763771722,20.679889074604745,2,DB
2025-07-09 21:54:14.877,-0.0002505288707358,20.669835996779437,2,DB
2025-07-09 21:54:14.885,-0.0002399370231721,20.50307988816612,2,DB
2025-07-09 21:54:14.893,-0.0002273231753947,20.196835244497787,2,DB
2025-07-09 21:54:14.901,-0.0002136526119588,19.770201299493586,2,DB
2025-07-09 21:54:14.909,-0.0001998099004595,19.24341598320208,2,DB
2025-07-09 21:54:14.916,-0.000186579231053,18.63710571842345,2,DB
2025-07-09 21:54:14.924,-0.0001746291608035,17.971556468737028,2,DB
2025-07-09 21:54:14.932,-0.0001645019792026,17.266029917869893,2,DB
2025-07-09 21:54:14.940,-0.0001566077194477,16.53814649821368,2,DB
2025-07-09 21:54:14.948,-0.0001512226511727,15.803354285361806,2,DB
2025-07-09 21:54:14.956,-0.0001484919179797,15.074499607422794,2,DB
2025-07-09 21:54:14.963,-0.000148435852987,14.36151164086672,2,DB
2025-07-09 21:54:14.971,-0.0001509594414938,13.671209334195249,2,DB
2025-07-09 21:54:14.979,-0.0001558643985636,13.007234781344003,2,DB
2025-07-09 21:54:14.987,-0.0001628633560573,12.370112741108072,2,DB
2025-07-09 21:54:14.995,-0.0001715956678803,11.757431474435643,2,DB
2025-07-09 21:54:15.002,-0.0001816443286693,11.164135586102011,2,DB
2025-07-09 21:54:15.010,-0.0001925534704941,10.582917281921118,2,DB
2025-07-09 21:54:15.018,-0.0002038458646216,10.004688585564248,2,DB
2025-07-09 21:54:15.026,-0.0002150398204872,9.419113811792188,2,DB
2025-07-09 21:54:15.034,-0.0002256648745657,8.815179171481423,2,DB
2025-07-09 21:54:15.041,-0.0002352757348224,8.181774969437468,2,DB
2025-07-09 21:54:15.049,-0.0002434640876981,7.508265586651605,2,DB
2025-07-09 21:54:15.057,-0.0002498680438224,6.7850233920539145,2,DB
2025-07-09 21:54:15.065,-0.0002541791598907,6.003904907544645,2,DB
2025-07-09 21:54:15.073,-0.0002561471117852,5.158650871096415,2,DB
2025-07-09 21:54:15.081,-0.0002555822034907,4.245196133202825,2,DB
2025-07-09 21:54:15.088,-0.0002523559761446,3.261880324220643,2,DB
2025-07-09 21:54:15.096,-0.0002464002314428,2.209555616896358,2,DB
2025-07-09 21:54:15.104,-0.0002377048046689,1.0915933076863622,2,DB
2025-07-09 21:54:15.112,-0.0002263144169859,-0.0862040309402795,2,DB
2025-07-09 21:54:15.120,-0.000212324907485,-1.3157737737050157,2,DB
2025-07-09 21:54:15.127,-0.0001958790967864,-2.587033505456458,2,DB
2025-07-09 21:54:15.135,-0.000177162470297,-3.8881739201707024,2,DB
2025-07-09 21:54:15.143,-0.0001563987955517,-5.2059871757884,2,DB
2025-07-09 21:54:15.151,-0.0001338457095889,-6.52621398917888,2,DB
2025-07-09 21:54:15.159,-0.0001097902358933,-7.833894292113375,2,DB
2025-07-09 21:54:15.166,-8.454413078698405e-05,-9.11370861899299,2,DB
2025-07-09 21:54:15.174,-5.843894152370262e-05,-10.350300254697338,2,DB
2025-07-09 21:54:15.182,-3.182069804656099e-05,-11.52857122680545,2,DB
2025-07-09 21:54:15.190,-5.044234467239303e-06,-12.633948198829128,2,DB
2025-07-09 21:54:15.198,2.1532802447064458e-05,-13.652616976386462,2,DB
2025-07-09 21:54:15.206,4.755617641673223e-05,-14.571726504571348,2,DB
2025-07-09 21:54:15.213,7.268143548329135e-05,-15.379564809606157,2,DB
2025-07-09 21:54:15.221,9.658035910148146e-05,-16.065710286574433,2,DB
2025-07-09 21:54:15.229,0.0001189473978357,-16.62116208096229,2,DB
2025-07-09 21:54:15.237,0.0001395060139825,-17.038453122876994,2,DB
2025-07-09 21:54:15.245,0.0001580148138195,-17.311748748500253,2,DB
2025-07-09 21:54:15.252,0.000174273339764,-17.436932901199114,2,DB
2025-07-09 21:54:15.260,0.0001881273658319,-17.411682768500476,2,DB
2025-07-09 21:54:15.268,0.0001994735151356,-17.235531500932467,2,DB
2025-07-09 21:54:15.276,0.0002082629967795,-16.909917484533864,2,DB
2025-07-09 21:54:15.284,0.0002145042445405,-16.438217597516115,2,DB
2025-07-09 21:54:15.291,0.000218264234334,-15.825761056241983,2,DB
2025-07-09 21:54:15.299,0.0002196682646343,-15.079819914145626,2,DB
2025-07-09 21:54:15.307,0.0002188980064124,-14.209572067916657,2,DB
2025-07-09 21:54:15.315,0.0002161876689529,-13.22603277368534,2,DB
2025-07-09 21:54:15.323,0.0002118181866434,-12.141951183842837,2,DB
2025-07-09 21:54:15.331,0.0002061094102949,-10.971669261725047,2,DB
2025-07-09 21:54:15.338,0.0001994103846199,-9.730941575659225,2,DB
2025-07-09 21:54:15.346,0.0001920879101119,-8.436715858752281,2,DB
2025-07-09 21:54:15.354,0.0001845137190079,-7.1068757785184005,2,DB
2025-07-09 21:54:15.362,0.0001770507284476,-5.759949016692072,2,DB
2025-07-09 21:54:15.370,0.0001700389446087,-4.414785434961779,2,DB
2025-07-09 21:54:15.377,0.0001637816615492,-3.090211712464678,2,DB
2025-07-09 21:54:15.385,0.0001585326367905,-1.8046702982117608,2,DB
2025-07-09 21:54:15.393,0.0001544849435567,-0.5758517410154573,2,DB
2025-07-09 21:54:15.401,0.0001517621726769,0.5796696345188758,2,DB
2025-07-09 21:54:15.409,0.0001504125491869,1.6467862032484828,2,DB
2025-07-09 21:54:15.417,0.0001504063433835,2.6121830359898808,2,DB
2025-07-09 21:54:15.424,0.0001516367339615,3.4646290748214272,2,DB
2025-07-09 21:54:15.432,0.0001539240586555,4.195223831337293,2,DB
2025-07-09 21:54:15.440,0.0001570231842392,4.797591006510575,2,DB
2025-07-09 21:54:15.448,0.0001606335592363,5.268011815593908,2,DB
2025-07-09 21:54:15.456,0.0001644114042631,5.605492474915008,2,DB
2025-07-09 21:54:15.463,0.0001679834614463,5.811762221176526,2,DB
2025-07-09 21:54:15.471,0.0001709617424656,5.891200329543798,2,DB
2025-07-09 21:54:15.479,0.0001729587368744,5.85069280610864,2,DB
2025-07-09 21:54:15.487,0.0001736025440719,5.699421680005933,2,DB
2025-07-09 21:54:15.495,0.0001725513864512,5.448592039548825,2,DB
2025-07-09 21:54:15.502,0.0001695069697293,5.11110407960301,2,DB
2025-07-09 21:54:15.510,0.0001642261898409,4.701179389120884,2,DB
2025-07-09 21:54:15.518,0.0001565307461353,4.233952436960028,2,DB
2025-07-09 21:54:15.526,0.000146314307874,3.725039631806486,2,DB
2025-07-09 21:54:15.534,0.0001335469929289,3.1900993582736548,2,DB
2025-07-09 21:54:15.542,0.0001182770431403,2.6443969548251665,2,DB
2025-07-09 21:54:15.549,0.0001006296973902,2.1023886452503384,2,DB
2025-07-09 21:54:15.557,8.080335546645371e-05,1.577337931696921,2,DB
2025-07-09 21:54:15.565,5.906320627146235e-05,1.0809769002688543,2,DB
2025-07-09 21:54:15.573,3.573258597776395e-05,0.6232233105603759,2,DB
2025-07-09 21:54:15.581,1.1182433447793356e-05,0.2119623043191294,2,DB
2025-07-09 21:54:15.588,-1.4180702173352343e-05,-0.1471008270650151,2,DB
2025-07-09 21:54:15.596,-3.992759534001966e-05,-0.4505130128886929,2,DB
2025-07-09 21:54:15.604,-6.561970756691002e-05,-0.6970698581858151,2,DB
2025-07-09 21:54:15.612,-9.082249957396978e-05,-0.8877378706023556,2,DB
2025-07-09 21:54:15.620,-0.0001151182523428,-1.0255067624968652,2,DB
2025-07-09 21:54:15.627,-0.0001381179840038,-1.115178523971356,2,DB
2025-07-09 21:54:15.635,-0.0001594720530231,-1.1631020455482468,2,DB
2025-07-09 21:54:15.643,-0.0001788790292969,-1.1768637714730703,2,DB
2025-07-09 21:54:15.651,-0.0001960924280468,-1.1649461281963531,2,DB
2025-07-09 21:54:15.659,-0.0002109249825197,-1.1363662569968185,2,DB
2025-07-09 21:54:15.667,-0.000223250292988,-1.1003078687934575,2,DB
2025-07-09 21:54:15.674,-0.0002330018843818,-1.0657588442029984,2,DB
2025-07-09 21:54:15.682,-0.0002401698703296,-1.0411665572935416,2,DB
2025-07-09 21:54:15.690,-0.0002447955448086,-1.0341218578056028,2,DB
2025-07-09 21:54:15.698,-0.0002469643353226,-1.0510812656037587,2,DB
2025-07-09 21:54:15.706,-0.0002467976640063,-1.0971352823701823,2,DB
2025-07-09 21:54:15.713,-0.0002444443384079,-1.1758288820265197,2,DB
2025-07-09 21:54:15.721,-0.0002400720880499,-1.2890382753700882,2,DB
2025-07-09 21:54:15.729,-0.0002338597708869,-1.4369060271695608,2,DB
2025-07-09 21:54:15.737,-0.000225990632154,-1.6178346079629926,2,DB
2025-07-09 21:54:15.745,-0.0002166468580807,-1.8285365619147296,2,DB
2025-07-09 21:54:15.752,-0.0002060055582148,-2.0641377377045003,2,DB
2025-07-09 21:54:15.760,-0.0001942362185355,-2.3183285250097465,2,DB
2025-07-09 21:54:15.768,-0.0001814995618332,-2.5835568150160246,2,DB
2025-07-09 21:54:15.776,-0.0001679476368581,-2.851255491504996,2,DB
2025-07-09 21:54:15.784,-0.000153724874344,-3.112096668268431,2,DB
2025-07-09 21:54:15.792,-0.0001389698211489,-3.3562646020311355,2,DB
2025-07-09 21:54:15.799,-0.0001238172803492,-3.5737391878797395,2,DB
2025-07-09 21:54:15.807,-0.000108400614159,-3.754582133708433,2,DB
2025-07-09 21:54:15.815,-9.28539765336896e-05,-3.8892182599885703,2,DB
2025-07-09 21:54:15.823,-7.731421882014255e-05,-3.968704841044149,2,DB
2025-07-09 21:54:15.831,-6.192217914585281e-05,-3.984982467372456,2,DB
2025-07-09 21:54:15.838,-4.682307185683418e-05,-3.931101550875793,2,DB
2025-07-09 21:54:15.846,-3.216576045992062e-05,-3.801419311308116,2,DB
2025-07-09 21:54:15.854,-1.810081124410241e-05,-3.591762873320809,2,DB
2025-07-09 21:54:15.862,-4.777360111738775e-06,-3.2995549689789048,2,DB
2025-07-09 21:54:15.870,7.661032361565889e-06,-2.923899674655597,2,DB
2025-07-09 21:54:15.877,1.9081221442917503e-05,-2.465626602468633,2,DB
2025-07-09 21:54:15.885,2.936557503305522e-05,-1.9272930026555035,2,DB
2025-07-09 21:54:15.893,3.841681826110806e-05,-1.3131443035188102,2,DB
2025-07-09 21:54:15.901,4.61621411447249e-05,-0.6290347042908517,2,DB
2025-07-09 21:54:15.909,5.255620112127476e-05,0.1176894854682532,2,DB
2025-07-09 21:54:15.917,5.758281268504679e-05,0.918340042031724,2,DB
2025-07-09 21:54:15.924,6.125527029999206e-05,1.763065920370739,2,DB
2025-07-09 21:54:15.932,6.36153823983454e-05,2.6410558324560736,2,DB
2025-07-09 21:54:15.940,6.473140179370527e-05,3.540758312620327,2,DB
2025-07-09 21:54:15.948,6.469510408886215e-05,4.4501128985303815,2,DB
2025-07-09 21:54:15.956,6.361827015809014e-05,5.356785918241599,2,DB
2025-07-09 21:54:15.963,6.16287825895437e-05,6.248404481114545,2,DB
2025-07-09 21:54:15.971,5.886649609385872e-05,7.112782618538485,2,DB
2025-07-09 21:54:15.979,5.547902714089015e-05,7.938134088088813,2,DB
2025-07-09 21:54:15.987,5.161761693594597e-05,8.713267106235667,2,DB
2025-07-09 21:54:15.995,4.7433210723703465e-05,9.427757164526144,2,DB
2025-07-09 21:54:16.002,4.307284509074803e-05,10.072095061352805,2,DB
2025-07-09 21:54:16.010,3.86763684923464e-05,10.637808294240225,2,DB
2025-07-09 21:54:16.018,3.437348365190819e-05,11.117554958975113,2,DB
2025-07-09 21:54:16.026,3.028111792439817e-05,11.505190252781604,2,DB
2025-07-09 21:54:16.034,2.650117716071215e-05,11.79580654591241,2,DB
2025-07-09 21:54:16.042,2.31187722555022e-05,11.985748738243824,2,DB
2025-07-09 21:54:16.049,2.020100084700632e-05,12.072607226564957,2,DB
2025-07-09 21:54:16.057,1.779633222842187e-05,12.0551912558592,2,DB
2025-07-09 21:54:16.065,1.5934603193509793e-05,11.933485709473118,2,DB
2025-07-09 21:54:16.073,1.4627596800700953e-05,11.708594514416824,2,DB
2025-07-09 21:54:16.081,1.3870147050312867e-05,11.382673810130516,2,DB
2025-07-09 21:54:16.088,1.364169045430218e-05,10.958857869041488,2,DB
2025-07-09 21:54:16.096,1.390817038845593e-05,10.441180492267886,2,DB
2025-07-09 21:54:16.104,1.4624191660859292e-05,9.834494269014064,2,DB
2025-07-09 21:54:16.112,1.5735320407885263e-05,9.144389717766645,2,DB
2025-07-09 21:54:16.120,1.7180427570578323e-05,8.377115947004093,2,DB
2025-07-09 21:54:16.127,1.889398201155528e-05,7.539504098632626,2,DB
2025-07-09 21:54:16.135,2.0808210917486355e-05,6.638894476491246,2,DB
2025-07-09 21:54:16.143,2.2855059556416135e-05,5.683067915127665,2,DB
2025-07-09 21:54:16.151,2.4967898770365678e-05,4.680181603931394,2,DB
2025-07-09 21:54:16.159,2.7082945849320825e-05,3.638709239358549,2,DB
2025-07-09 21:54:16.167,2.914038177002352e-05,2.567385028507059,2,DB
2025-07-09 21:54:16.174,3.108516438448125e-05,1.4751507160139916,2,DB
2025-07-09 21:54:16.182,3.286755229793145e-05,0.3711044705266831,2,DB
2025-07-09 21:54:16.190,3.4443367286457394e-05,-0.7355498250622717,2,DB
2025-07-09 21:54:16.198,3.5774033698005615e-05,-1.8355545467591297,2,DB
2025-07-09 21:54:16.206,3.68264410172413e-05,-2.91965332094093,2,DB
2025-07-09 21:54:16.213,3.757268045026773e-05,-3.978650714849118,2,DB
2025-07-09 21:54:16.221,3.798970793036343e-05,-5.0034780512104255,2,DB
2025-07-09 21:54:16.229,3.8058984421516445e-05,-5.985266343552293,2,DB
2025-07-09 21:54:16.237,3.7766139986091645e-05,-6.915426778176499,2,DB
2025-07-09 21:54:16.245,3.71007010815922e-05,-7.785738497615689,2,DB
2025-07-09 21:54:16.252,3.605591135269813e-05,-8.5884427136015,2,DB
2025-07-09 21:54:16.260,3.462866526505222e-05,-9.316341443312226,2,DB
2025-07-09 21:54:16.268,3.281956182879052e-05,-9.962898473772066,2,DB
2025-07-09 21:54:16.276,3.0633072971829496e-05,-10.52233957108406,2,DB
2025-07-09 21:54:16.284,2.807780846206554e-05,-10.989748516393188,2,DB
2025-07-09 21:54:16.292,2.5166847267595915e-05,-11.361155313179417,2,DB
2025-07-09 21:54:16.299,2.191809449488156e-05,-11.633612901031851,2,DB
2025-07-09 21:54:16.307,1.8354614132252933e-05,-11.805258942557671,2,DB
2025-07-09 21:54:16.315,1.4504881271751207e-05,-11.875359716417393,2,DB
2025-07-09 21:54:16.323,1.0402893733819565e-05,-11.844333825649503,2,DB
2025-07-09 21:54:16.331,6.088082433116547e-06,-11.713754275964096,2,DB
2025-07-09 21:54:16.338,1.6049626484171198e-06,-11.486328441603192,2,DB
2025-07-09 21:54:16.346,-2.9975252774488955e-06,-11.165856453154698,2,DB
2025-07-09 21:54:16.354,-7.667027385293982e-06,-10.757169534251798,2,DB
2025-07-09 21:54:16.362,-1.2349167987485818e-05,-10.266050694160263,2,DB
2025-07-09 21:54:16.370,-1.698933390295102e-05,-9.699140869593316,2,DB
2025-07-09 21:54:16.377,-2.1534843890646745e-05,-9.06383404579631,2,DB
2025-07-09 21:54:16.385,-2.59374749756373e-05,-8.36816504942357,2,DB
2025-07-09 21:54:16.393,-3.015629479763409e-05,-7.620693596114666,2,DB
2025-07-09 21:54:16.401,-3.4160725946006194e-05,-6.830387818406232,2,DB
2025-07-09 21:54:16.409,-3.7933745372823424e-05,-6.006509939803417,2,DB
2025-07-09 21:54:16.417,-4.1475100354435806e-05,-5.158506060157043,2,DB
2025-07-09 21:54:16.424,-4.480440309197932e-05,-4.295901245815627,2,DB
2025-07-09 21:54:16.432,-4.796394988733008e-05,-3.4282003445819487,2,DB
2025-07-09 21:54:16.440,-5.102109884503791e-05,-2.5647942334680147,2,DB
2025-07-09 21:54:16.448,-5.407003308860904e-05,-1.7148706118319088,2,DB
2025-07-09 21:54:16.456,-5.723273526815692e-05,-0.8873280194728415,2,DB
2025-07-09 21:54:16.463,-6.0659004230812406e-05,-0.0906915222252808,2,DB
2025-07-09 21:54:16.471,-6.452535646704564e-05,0.666971513380218,2,DB
2025-07-09 21:54:16.479,-6.903267342623467e-05,1.3781369308859577,2,DB
2025-07-09 21:54:16.487,-7.440248082223356e-05,2.0359115257091007,2,DB
2025-07-09 21:54:16.495,-8.087177712718418e-05,2.6341233202248087,2,DB
2025-07-09 21:54:16.502,-8.868636476239233e-05,3.167413843060624,2,DB
2025-07-09 21:54:16.510,-9.809267789989463e-05,3.631330911684501,2,DB
2025-07-09 21:54:16.518,-0.0001093281438381,4.022419374672121,2,DB
2025-07-09 21:54:16.526,-0.0001226101605025,4.338306246438531,2,DB
2025-07-09 21:54:16.534,-0.0001381238284539,4.577775769585022,2,DB
2025-07-09 21:54:16.542,-0.0001560086619382,4.740829286073574,2,DB
2025-07-09 21:54:16.549,-0.0001763446385667,4.828724502462711,2,DB
2025-07-09 21:54:16.557,-0.0001991381231417,4.843988884128788,2,DB
2025-07-09 21:54:16.565,-0.0002243083770398,4.790402548032853,2,DB
2025-07-09 21:54:16.573,-0.000251675486109,4.672947124095963,2,DB
2025-07-09 21:54:16.581,-0.0002809505692741,4.497718547588431,2,DB
2025-07-09 21:54:16.588,-0.0003117290728613,4.271803511932882,2,DB
2025-07-09 21:54:16.596,-0.0003434878648788,4.003121209241735,2,DB
2025-07-09 21:54:16.604,-0.0003755867762272,3.700233864956756,2,DB
2025-07-09 21:54:16.612,-0.000407275191156,3.372131298468433,2,DB
2025-07-09 21:54:16.620,-0.000437704198757,3.0279962086464387,2,DB
2025-07-09 21:54:16.627,-0.0004659446126845,2.6769580186337283,2,DB
2025-07-09 21:54:16.635,-0.0004910108427488,2.3278438697481127,2,DB
2025-07-09 21:54:16.643,-0.0005118902053916,1.988935701408733,2,DB
2025-07-09 21:54:16.651,-0.0005275768446875,1.667742284689999,2,DB
2025-07-09 21:54:16.659,-0.0005371090510764,1.3707946048774633,2,DB
2025-07-09 21:54:16.667,-0.0005396084530802,1.103472145679662,2,DB
2025-07-09 21:54:16.674,-0.0005343193417755,0.869866462338714,2,DB
2025-07-09 21:54:16.682,-0.000520646279244,0.6726870032672844,2,DB
2025-07-09 21:54:16.690,-0.0004981881404594,0.5132125210230568,2,DB
2025-07-09 21:54:16.698,-0.0004667668194049,0.3912896827499411,2,DB
2025-07-09 21:54:16.706,-0.0004264489627965,0.3053787314379195,2,DB
2025-07-09 21:54:16.713,-0.000377559283689,0.2526443441773268,2,DB
2025-07-09 21:54:16.721,-0.0003206842922904,0.2290882557182755,2,DB
2025-07-09 21:54:16.729,-0.0002566656848852,0.2297188273068807,2,DB
2025-07-09 21:54:16.737,-0.0001865831363332,0.2487515882805997,2,DB
2025-07-09 21:54:16.745,-0.0001117268095072,0.2798338863539477,2,DB
2025-07-09 21:54:16.752,-3.3560484071799854e-05,0.3162861556347248,2,DB
2025-07-09 21:54:16.760,4.632322190066775e-05,0.3513519391225042,2,DB
2025-07-09 21:54:16.768,0.0001262535457793,0.3784486704515533,2,DB
2025-07-09 21:54:16.776,0.0002045357886363,0.3914113139093313,2,DB
2025-07-09 21:54:16.784,0.0002795064245155,0.3847212673596611,2,DB
2025-07-09 21:54:16.792,0.0003495865455,0.3537134321081562,2,DB
2025-07-09 21:54:16.799,0.0004133313592916,0.2947550284979831,2,DB
2025-07-09 21:54:16.807,0.0004694738718092,0.2053905696956887,2,DB
2025-07-09 21:54:16.815,0.0005169613377688,0.0844483843688543,2,DB
2025-07-09 21:54:16.823,0.0005549834914373,-0.0678948137318099,2,DB
2025-07-09 21:54:16.831,0.0005829919589323,-0.2500935948995575,2,DB
2025-07-09 21:54:16.838,0.0006007106065,-0.4592587081027249,2,DB
2025-07-09 21:54:16.846,0.0006081369157802,-0.6912268401316947,2,DB
2025-07-09 21:54:16.854,0.0006055348101359,-0.940673518675572,2,DB
2025-07-09 21:54:16.862,0.0005934196634496,-1.201266103350095,2,DB
2025-07-09 21:54:16.870,0.0005725364603816,-1.4658525312314854,2,DB
2025-07-09 21:54:16.877,0.000543832224434,-1.7266802990318504,2,DB
2025-07-09 21:54:16.885,0.0005084238972252,-1.9756391133138,2,DB
2025-07-09 21:54:16.893,0.0004675628479618,-2.2045197693957137,2,DB
2025-07-09 21:54:16.901,0.000422597123322,-2.405281175948632,2,DB
2025-07-09 21:54:16.909,0.0003749324506807,-2.57031706440128,2,DB
2025-07-09 21:54:16.917,0.0003259929383168,-2.692713830010496,2,DB
2025-07-09 21:54:16.924,0.0002771824043503,-2.76649114107666,2,DB
2025-07-09 21:54:16.932,0.0002298472915108,-2.786817402468053,2,DB
2025-07-09 21:54:16.940,0.0001852421348736,-2.7501928417157133,2,DB
2025-07-09 21:54:16.948,0.0001444984906602,-2.6545938769688657,2,DB
2025-07-09 21:54:16.956,0.0001085980924016,-2.499573508966644,2,DB
2025-07-09 21:54:16.963,7.835082267295987e-05,-2.2863137394808417,2,DB
2025-07-09 21:54:16.971,5.437793526962828e-05,-2.017627439342609,2,DB
2025-07-09 21:54:16.979,3.710084410885241e-05,-1.6979086448003926,2,DB
2025-07-09 21:54:16.987,2.673567491798419e-05,-1.3330319126345231,2,DB
2025-07-09 21:54:16.995,2.3293629739389764e-05,-0.930203058171413,2,DB
2025-07-09 21:54:17.002,2.658705275724778e-05,-0.497765272483089,2,DB
2025-07-09 21:54:17.010,3.62409276216402e-05,-0.0449662027143419,2,DB
2025-07-09 21:54:17.018,5.170938835346314e-05,0.4183069718048207,2,DB
2025-07-09 21:54:17.026,7.229668670362658e-05,0.8818161713130356,2,DB
2025-07-09 21:54:17.034,9.718192556233484e-05,1.335275423611188,2,DB
2025-07-09 21:54:17.042,0.0001254467381132,1.768658155281515,2,DB
2025-07-09 21:54:17.049,0.0001561049656954,2.172498232950217,2,DB
2025-07-09 21:54:17.057,0.000188133274255,2.538174147443625,2,DB
2025-07-09 21:54:17.065,0.0002205015821477,2.858166063168747,2,DB
2025-07-09 21:54:17.073,0.0002522021957601,3.126276211308372,2,DB
2025-07-09 21:54:17.081,0.000282276683906,3.337804291399708,2,DB
2025-07-09 21:54:17.088,0.0003098397387498,3.489671140652248,2,DB
2025-07-09 21:54:17.096,0.0003340995170118,3.5804858905038195,2,DB
2025-07-09 21:54:17.104,0.0003543741904364,3.61055409233078,2,DB
2025-07-09 21:54:17.112,0.0003701046400255,3.5818267760211246,2,DB
2025-07-09 21:54:17.120,0.0003808633891376,3.497792999468101,2,DB
2025-07-09 21:54:17.127,0.0003863599637585,3.3633210193585303,2,DB
2025-07-09 21:54:17.135,0.000386442882971,3.184455604295639,2,DB
2025-07-09 21:54:17.143,0.000381098447023,2.9681810491914704,2,DB
2025-07-09 21:54:17.151,0.0003704464575953,2.722160974226216,2,DB
2025-07-09 21:54:17.159,0.0003547330053608,2.454466874764559,2,DB
2025-07-09 21:54:17.167,0.0003343204871131,2.173307554254463,2,DB
2025-07-09 21:54:17.174,0.0003096750528017,1.886771008365242,2,DB
2025-07-09 21:54:17.182,0.00028135172666,1.6025890911591167,2,DB
2025-07-09 21:54:17.190,0.0002499774987682,1.3279334971280503,2,DB
2025-07-09 21:54:17.198,0.0002162327472266,1.069249389971409,2,DB
2025-07-09 21:54:17.206,0.0001808314289835,0.8321305712405848,2,DB
2025-07-09 21:54:17.213,0.0001445005687704,0.6212375805764431,2,DB
2025-07-09 21:54:17.221,0.0001079596705878,0.4402577130910902,2,DB
2025-07-09 21:54:17.229,7.190075080210659e-05,0.2919037670330187,2,DB
2025-07-09 21:54:17.237,3.696972039146274e-05,0.177946508898903,2,DB
2025-07-09 21:54:17.245,3.749815934003924e-06,0.0992744475122751,2,DB
2025-07-09 21:54:17.252,-2.7252304768729628e-05,0.0559735983375833,2,DB
2025-07-09 21:54:17.260,-5.56173240783603e-05,0.0474195211254895,2,DB
2025-07-09 21:54:17.268,-8.102058303495295e-05,0.0723740248687801,2,DB
2025-07-09 21:54:17.276,-0.000103235848136,0.129079521019478,2,DB
2025-07-09 21:54:17.284,-0.0001221355944205,0.2153450120221826,2,DB
2025-07-09 21:54:17.292,-0.0001376880230388,0.3286190564820186,2,DB
2025-07-09 21:54:17.299,-0.0001499511516479,0.4660466737429873,2,DB
2025-07-09 21:54:17.307,-0.0001590644058418,0.6245089420063666,2,DB
2025-07-09 21:54:17.315,-0.0001652382002167,0.8006458846673397,2,DB
2025-07-09 21:54:17.323,-0.000168742030376,0.990864990046926,2,DB
2025-07-09 21:54:17.331,-0.0001698916047538,1.191339229312287,2,DB
2025-07-09 21:54:17.338,-0.0001690355307393,1.3979996020422356,2,DB
2025-07-09 21:54:17.346,-0.0001665420367686,1.6065279535227883,2,DB
2025-07-09 21:54:17.354,-0.0001627861645976,1.812356013566645,2,DB
2025-07-09 21:54:17.362,-0.0001581378076864,2.010676285905265,2,DB
2025-07-09 21:54:17.370,-0.0001529509062385,2.196469596568845,2,DB
2025-07-09 21:54:17.377,-0.0001475540404184,2.3645528577675923,2,DB
2025-07-09 21:54:17.385,-0.0001422425937466,2.509649023001085,2,DB
2025-07-09 21:54:17.393,-0.000137272591357,2.6264794235743976,2,DB
2025-07-09 21:54:17.401,-0.0001328562549126,2.709876821217476,2,DB
2025-07-09 21:54:17.409,-0.0001291592592283,2.75491572296968,2,DB
2025-07-09 21:54:17.417,-0.0001262996262433,2.7570549130617814,2,DB
2025-07-09 21:54:17.424,-0.0001243481506092,2.712285875288933,2,DB
2025-07-09 21:54:17.432,-0.0001233302180535,2.617279895555687,2,DB
2025-07-09 21:54:17.440,-0.0001232288526627,2.469526205977672,2,DB
2025-07-09 21:54:17.448,-0.0001239888117759,2.2674535882279456,2,DB
2025-07-09 21:54:17.456,-0.0001255215365009,2.0105283934478733,2,DB
2025-07-09 21:54:17.463,-0.0001277107609693,1.699322925190411,2,DB
2025-07-09 21:54:17.471,-0.0001304185832278,1.3355495051674802,2,DB
2025-07-09 21:54:17.479,-0.000133491804003,0.922057206664042,2,DB
2025-07-09 21:54:17.487,-0.0001367683453615,0.4627900843406417,2,DB
2025-07-09 21:54:17.495,-0.0001400835685463,-0.0372923733040019,2,DB
2025-07-09 21:54:17.502,-0.0001432763181583,-0.572330016354955,2,DB
2025-07-09 21:54:17.510,-0.0001461945277565,-1.1357078341107156,2,DB
2025-07-09 21:54:17.518,-0.000148700229462,-1.7202272086295474,2,DB
2025-07-09 21:54:17.526,-0.0001506738171336,-2.318295984355257,2,DB
2025-07-09 21:54:17.534,-0.0001520174192281,-2.922129995387864,2,DB
2025-07-09 21:54:17.542,-0.0001526572455212,-3.523958312728805,2,DB
2025-07-09 21:54:17.549,-0.0001525447916856,-4.116224425874889,2,DB
2025-07-09 21:54:17.557,-0.0001516568385922,-4.69177583592563,2,DB
2025-07-09 21:54:17.565,-0.0001499942811438,-5.244035083333075,2,DB
2025-07-09 21:54:17.573,-0.000147579939005,-5.767146029892403,2,DB
2025-07-09 21:54:17.581,-0.0001444555897792,-6.256090225076772,2,DB
2025-07-09 21:54:17.588,-0.0001406784988981,-6.7067693711114895,2,DB
2025-07-09 21:54:17.596,-0.0001363177124057,-7.116051214809914,2,DB
2025-07-09 21:54:17.604,-0.0001314503512612,-7.481777590443011,2,DB
2025-07-09 21:54:17.612,-0.0001261581102598,-7.8027347721309726,2,DB
2025-07-09 21:54:17.620,-0.0001205241247202,-8.078587724952477,2,DB
2025-07-09 21:54:17.627,-0.0001146303255895,-8.309781228350678,2,DB
2025-07-09 21:54:17.635,-0.0001085553604288,-8.49741213692372,2,DB
2025-07-09 21:54:17.643,-0.0001023731155737,-8.64307819811406,2,DB
2025-07-09 21:54:17.651,-9.615183520067088e-05,-8.748709829311307,2,DB
2025-07-09 21:54:17.659,-8.995379743466779e-05,-8.816392042672739,2,DB
2025-07-09 21:54:17.667,-8.383547718095346e-05,-8.848184269522223,2,DB
2025-07-09 21:54:17.674,-7.784810095317928e-05,-8.84594614933219,2,DB
2025-07-09 21:54:17.682,-7.203848126868016e-05,-8.811177382677561,2,DB
2025-07-09 21:54:17.690,-6.645000757871884e-05,-8.744879479234775,2,DB
2025-07-09 21:54:17.698,-6.112366732619906e-05,-8.647446644983924,2,DB
2025-07-09 21:54:17.706,-5.609897444422937e-05,-8.518592143939538,2,DB
2025-07-09 21:54:17.713,-5.141469304559815e-05,-8.357315252202612,2,DB
2025-07-09 21:54:17.721,-4.710926059224249e-05,-8.161912424619853,2,DB
2025-07-09 21:54:17.729,-4.322083664903517e-05,-7.930034555618216,2,DB
2025-07-09 21:54:17.737,-3.978692940356707e-05,-7.658790280983534,2,DB
2025-07-09 21:54:17.745,-3.684358129954837e-05,-7.344893191056568,2,DB
2025-07-09 21:54:17.752,-3.44241260852071e-05,-6.984848680625564,2,DB
2025-07-09 21:54:17.760,-3.2557560927013605e-05,-6.575174044513635,2,DB
2025-07-09 21:54:17.768,-3.1266607537125576e-05,-6.112643461248337,2,DB
2025-07-09 21:54:17.776,-3.056556405155114e-05,-5.594547819663318,2,DB
2025-07-09 21:54:17.784,-3.0458073247148583e-05,-5.018958053212864,2,DB
2025-07-09 21:54:17.792,-3.093495124638896e-05,-4.384979846537853,2,DB
2025-07-09 21:54:17.799,-3.1972232897126285e-05,-3.6929873285438672,2,DB
2025-07-09 21:54:17.807,-3.352959446438731e-05,-2.944823693422724,2,DB
2025-07-09 21:54:17.815,-3.554931027688216e-05,-2.1439575920409384,2,DB
2025-07-09 21:54:17.823,-3.79558869297526e-05,-1.295585579749317,2,DB
2025-07-09 21:54:17.831,-4.0656496245572885e-05,-0.4066728394244457,2,DB
2025-07-09 21:54:17.838,-4.354229645129829e-05,0.5140732522902188,2,DB
2025-07-09 21:54:17.846,-4.649069030516119e-05,1.4562994750993068,2,DB
2025-07-09 21:54:17.854,-4.936851994065244e-05,2.4081729105015484,2,DB
2025-07-09 21:54:17.862,-5.203614210079035e-05,3.3566138061181943,2,DB
2025-07-09 21:54:17.870,-5.43522657087972e-05,4.2875891913491815,2,DB
2025-07-09 21:54:17.877,-5.617936821841516e-05,5.186458580988979,2,DB
2025-07-09 21:54:17.885,-5.7389441726273895e-05,6.03836071761048,2,DB
2025-07-09 21:54:17.893,-5.786976658045794e-05,6.828628325358343,2,DB
2025-07-09 21:54:17.901,-5.752839250744923e-05,7.543216360554168,2,DB
2025-07-09 21:54:17.909,-5.629903916921608e-05,8.169128318768513,2,DB
2025-07-09 21:54:17.917,-5.4145186170452864e-05,8.694824849063878,2,DB
2025-07-09 21:54:17.924,-5.106315994272283e-05,9.110599267040127,2,DB
2025-07-09 21:54:17.932,-4.708402014565528e-05,9.40890555290949,2,DB
2025-07-09 21:54:17.940,-4.2274027130758654e-05,9.584626040012578,2,DB
2025-07-09 21:54:17.948,-3.6733488933492647e-05,9.635268180084337,2,DB
2025-07-09 21:54:17.956,-3.059388599844249e-05,9.5610824189804,2,DB
2025-07-09 21:54:17.963,-2.401334396527097e-05,9.365096208629842,2,DB
2025-07-09 21:54:17.971,-1.7170695879694352e-05,9.053062377549091,2,DB
2025-07-09 21:54:17.979,-1.0258471594354656e-05,8.633323332417877,2,DB
2025-07-09 21:54:17.987,-3.475163220542672e-06,8.116595713120692,2,DB
2025-07-09 21:54:17.995,2.982914280258217e-06,7.515683028145315,2,DB
2025-07-09 21:54:18.002,8.929865066296117e-06,6.845126333141365,2,DB
2025-07-09 21:54:18.010,1.419823310898754e-05,6.120805088963076,2,DB
2025-07-09 21:54:18.018,1.864643994859377e-05,5.359501880478831,2,DB
2025-07-09 21:54:18.026,2.216527117791311e-05,4.578445650775675,2,DB
2025-07-09 21:54:18.034,2.4683091595895576e-05,3.794848487585587,2,DB
2025-07-09 21:54:18.042,2.616955676464886e-05,3.0254507987738184,2,DB
2025-07-09 21:54:18.049,2.663768304095498e-05,2.286088971508992,2,DB
2025-07-09 21:54:18.057,2.6144206032432396e-05,1.5912983916014236,2,DB
2025-07-09 21:54:18.065,2.4788183302597893e-05,0.9539630884308938,2,DB
2025-07-09 21:54:18.073,2.2707804608229213e-05,0.385021356114364,2,DB
2025-07-09 21:54:18.081,2.0075409096016215e-05,-0.1067654289065513,2,DB
2025-07-09 21:54:18.088,1.709079525870535e-05,-0.514975835491289,2,DB
2025-07-09 21:54:18.096,1.3973021620525037e-05,-0.8356206042697087,2,DB
2025-07-09 21:54:18.104,1.0950988953511371e-05,-1.0671637119499546,2,DB
2025-07-09 21:54:18.112,8.253143211372493e-06,-1.2104741014378957,2,DB
2025-07-09 21:54:18.120,6.096662531159647e-06,-1.2687119364124673,2,DB
2025-07-09 21:54:18.127,4.676536793452023e-06,-1.2471550560459976,2,DB
2025-07-09 21:54:18.135,4.155033922351613e-06,-1.1529728598586018,2,DB
2025-07-09 21:54:18.143,4.65214535148861e-06,-0.9949561021116538,2,DB
2025-07-09 21:54:18.151,6.237655649904254e-06,-0.7832119862845153,2,DB
2025-07-09 21:54:18.159,8.925431279993259e-06,-0.5288345029261979,2,DB
2025-07-09 21:54:18.167,1.267035817018284e-05,-0.2435601478765955,2,DB
2025-07-09 21:54:18.174,1.7368136983669695e-05,0.060580986030643,2,DB
2025-07-09 21:54:18.182,2.285796444782263e-05,0.3716091922921044,2,DB
2025-07-09 21:54:18.190,2.892803740478131e-05,0.6779253461353324,2,DB
2025-07-09 21:54:18.198,3.532377218754878e-05,0.9686193295263352,2,DB
2025-07-09 21:54:18.206,4.175855517453714e-05,1.2337497219136655,2,DB
2025-07-09 21:54:18.213,4.792669922110695e-05,1.4645889021561078,2,DB
2025-07-09 21:54:18.221,5.351811290227357e-05,1.6538288699918755,2,DB
2025-07-09 21:54:18.229,5.823404414095768e-05,1.7957442849840966,2,DB
2025-07-09 21:54:18.237,6.180315135290154e-05,1.8863104169493468,2,DB
2025-07-09 21:54:18.245,6.399707624238521e-05,1.9232748867206717,2,DB
2025-07-09 21:54:18.253,6.464463975401391e-05,1.9061832313568328,2,DB
2025-07-09 21:54:18.260,6.364376765617372e-05,1.836359433764238,2,DB
2025-07-09 21:54:18.268,6.097029990165363e-05,1.7168435922129015,2,DB
2025-07-09 21:54:18.276,5.668297158926518e-05,1.5522898476457494,2,DB
2025-07-09 21:54:18.284,5.092407079003671e-05,1.348828508789933,2,DB
2025-07-09 21:54:18.292,4.391555185276399e-05,1.1138969829929029,2,DB
2025-07-09 21:54:18.299,3.5950680664286375e-05,0.856044596912868,2,DB
2025-07-09 21:54:18.307,2.7381583285333947e-05,0.5847166449027505,2,DB
2025-07-09 21:54:18.315,1.8603330694351065e-05,0.3100230229794587,2,DB
2025-07-09 21:54:18.323,1.0035398401737417e-05,0.0424966097012392,2,DB
2025-07-09 21:54:18.331,2.1014963959094803e-06,-0.2071538116257633,2,DB
2025-07-09 21:54:18.338,-4.791118992698172e-06,-0.4282917629188242,2,DB
2025-07-09 21:54:18.346,-1.027169047025975e-05,-0.6105985759134641,2,DB
2025-07-09 21:54:18.354,-1.4024256810739408e-05,-0.7443127884439497,2,DB
2025-07-09 21:54:18.362,-1.5803252806090865e-05,-0.8204603521707202,2,DB
2025-07-09 21:54:18.370,-1.5445680135110245e-05,-0.8310727486234712,2,DB
2025-07-09 21:54:18.378,-1.2879347249187551e-05,-0.7693901321546541,2,DB
2025-07-09 21:54:18.385,-8.126881616783444e-06,-0.6300464973537465,2,DB
2025-07-09 21:54:18.393,-1.3053792189862073e-06,-0.409233639414835,2,DB
2025-07-09 21:54:18.401,7.378305343726025e-06,-0.1048403947844516,2,DB
2025-07-09 21:54:18.409,1.7636464959027282e-05,0.2834366107634574,2,DB
2025-07-09 21:54:18.417,2.911327719413588e-05,0.7540146356597,2,DB
2025-07-09 21:54:18.424,4.140078019550237e-05,1.303382816968386,2,DB
2025-07-09 21:54:18.432,5.40572704044439e-05,1.9261001020172452,2,DB
2025-07-09 21:54:18.440,6.66271102919546e-05,2.614836155883464,2,DB
2025-07-09 21:54:18.448,7.86608085108167e-05,3.360457400931156,2,DB
2025-07-09 21:54:18.456,8.973422556881943e-05,4.152159179335925,2,DB
2025-07-09 21:54:18.463,9.946587824813331e-05,4.977643633829087,2,DB
2025-07-09 21:54:18.471,0.0001075315174277,5.823341353000186,2,DB
2025-07-09 21:54:18.479,0.0001136753717049,6.674673218147359,2,DB
2025-07-09 21:54:18.487,0.0001177176655799,7.516347316230818,2,DB
2025-07-09 21:54:18.495,0.0001195582547835,8.332684338975799,2,DB
2025-07-09 21:54:18.503,0.0001191764668281,9.10796364580158,2,DB
2025-07-09 21:54:18.510,0.0001166274584973,9.826781179746428,2,DB
2025-07-09 21:54:18.518,0.0001120355890448,10.474409723056542,2,DB
2025-07-09 21:54:18.526,0.0001055854579927,11.037151583208058,2,DB
2025-07-09 21:54:18.534,9.7511342813446e-05,11.50267372468018,2,DB
2025-07-09 21:54:18.542,8.808575839472931e-05,11.860315611890202,2,DB
2025-07-09 21:54:18.549,7.760775344256526e-05,12.101360597525426,2,DB
2025-07-09 21:54:18.557,6.639141069449292e-05,12.219262561904,2,DB
2025-07-09 21:54:18.565,5.475488743919335e-05,12.20982066341455,2,DB
2025-07-09 21:54:18.573,4.301025094147474e-05,12.071296475449984,2,DB
2025-07-09 21:54:18.581,3.1454314263302624e-05,11.804469431380705,2,DB
2025-07-09 21:54:18.588,2.036062797752804e-05,11.412628332903534,2,DB
2025-07-09 21:54:18.596,9.972732502840756e-06,10.901498642517796,2,DB
2025-07-09 21:54:18.604,4.987516704876539e-07,10.279107310631778,2,DB
2025-07-09 21:54:18.612,-7.892590912363872e-06,9.555588904403422,2,DB
2025-07-09 21:54:18.620,-1.5074462096819171e-05,8.742938723699835,2,DB
2025-07-09 21:54:18.628,-2.096289042152596e-05,7.854720322524897,2,DB
2025-07-09 21:54:18.635,-2.5516258631806277e-05,6.905736320066766,2,DB
2025-07-09 21:54:18.643,-2.8733422615618056e-05,5.911672512338221,2,DB
2025-07-09 21:54:18.651,-3.065061519508376e-05,4.888726024234112,2,DB
2025-07-09 21:54:18.659,-3.133733314949206e-05,3.853228530017264,2,DB
2025-07-09 21:54:18.667,-3.0891432662300064e-05,2.821275397779916,2,DB
2025-07-09 21:54:18.674,-2.943367274957094e-05,1.8083709907615968,2,DB
2025-07-09 21:54:18.682,-2.7101949149546692e-05,0.8290993293950146,2,DB
2025-07-09 21:54:18.690,-2.4045453904791264e-05,-0.1031720453667513,2,DB
2025-07-09 21:54:18.698,-2.0418979907913005e-05,-0.9765487732471057,2,DB
2025-07-09 21:54:18.706,-1.637756658023716e-05,-1.7808224518927422,2,DB
2025-07-09 21:54:18.713,-1.207165422521644e-05,-2.5076367760036247,2,DB
2025-07-09 21:54:18.721,-7.642882043419793e-06,-3.150606016851368,2,DB
2025-07-09 21:54:18.729,-3.220629843110643e-06,-3.705386332294,2,DB
2025-07-09 21:54:18.737,1.0806324528117736e-06,-4.169701649517508,2,DB
2025-07-09 21:54:18.745,5.163159043957409e-06,-4.543326806624455,2,DB
2025-07-09 21:54:18.753,8.946912019127027e-06,-4.828031261325243,2,DB
2025-07-09 21:54:18.760,1.236975236448338e-05,-5.027486997523818,2,DB
2025-07-09 21:54:18.768,1.5386904797822004e-05,-5.147144336016513,2,DB
2025-07-09 21:54:18.776,1.7969788281223364e-05,-5.194079256595237,2,DB
2025-07-09 21:54:18.784,2.0104325350870227e-05,-5.176815646129187,2,DB
2025-07-09 21:54:18.792,2.1788860492448243e-05,-5.105125677177531,2,DB
2025-07-09 21:54:18.799,2.303183060976819e-05,-4.989811356913467,2,DB
2025-07-09 21:54:18.807,2.384933923081597e-05,-4.84247020751111,2,DB
2025-07-09 21:54:18.815,2.426279061631954e-05,-4.675248062022936,2,DB
2025-07-09 21:54:18.823,2.4296740605084467e-05,-4.500582076943457,2,DB
2025-07-09 21:54:18.831,2.3977118127393868e-05,-4.330937253379107,2,DB
2025-07-09 21:54:18.838,2.332996353329657e-05,-4.178539998531794,2,DB
2025-07-09 21:54:18.846,2.238080786689157e-05,-4.055112525190597,2,DB
2025-07-09 21:54:18.854,2.115476070923925e-05,-3.971612157704137,2,DB
2025-07-09 21:54:18.862,1.9677272367835644e-05,-3.937979865789433,2,DB
2025-07-09 21:54:18.870,1.797541568202358e-05,-3.962902558301684,2,DB
2025-07-09 21:54:18.878,1.607944371763874e-05,-4.053593815571841,2,DB
2025-07-09 21:54:18.885,1.4024348372726605e-05,-4.21559780361434,2,DB
2025-07-09 21:54:18.893,1.1851159694730273e-05,-4.452621080911601,2,DB
2025-07-09 21:54:18.901,9.607764973216577e-06,-4.766396860277566,2,DB
2025-07-09 21:54:18.909,7.34907940356526e-06,-5.156586004030412,2,DB
2025-07-09 21:54:18.917,5.136462992063497e-06,-5.620718595646895,2,DB
2025-07-09 21:54:18.924,3.036349356144666e-06,-6.154179343805526,2,DB
2025-07-09 21:54:18.932,1.1181288293636946e-06,-6.750239347135396,2,DB
2025-07-09 21:54:18.940,-5.485917840223767e-07,-7.400135898978788,2,DB
2025-07-09 21:54:18.948,-1.897150145786748e-06,-8.093201060573579,2,DB
2025-07-09 21:54:18.956,-2.867131235113188e-06,-8.817038696239852,2,DB
2025-07-09 21:54:18.963,-3.4074757622367427e-06,-9.55774856338174,2,DB
2025-07-09 21:54:18.971,-3.4790520926270345e-06,-10.300194902253835,2,DB
2025-07-09 21:54:18.979,-3.056430568833159e-06,-11.02831579336335,2,DB
2025-07-09 21:54:18.987,-2.128754352585408e-06,-11.72546835998071,2,DB
2025-07-09 21:54:18.995,-6.997568101400225e-07,-12.374803706991422,2,DB
2025-07-09 21:54:19.003,1.2129399053675254e-06,-12.959664330042363,2,DB
2025-07-09 21:54:19.010,3.579099504992555e-06,-13.463995636069514,2,DB
2025-07-09 21:54:19.018,6.357580977481494e-06,-13.8727622332644,2,DB
2025-07-09 21:54:19.026,9.498324453930712e-06,-14.172358826833891,2,DB
2025-07-09 21:54:19.034,1.2944419924347792e-05,-14.351004948871523,2,DB
2025-07-09 21:54:19.042,1.663405921568178e-05,-14.399112405150056,2,DB
2025-07-09 21:54:19.049,2.0502215919080448e-05,-14.309614281426652,2,DB
2025-07-09 21:54:19.057,2.4481967741370985e-05,-14.078244652476103,2,DB
2025-07-09 21:54:19.065,2.8505425911136e-05,-13.70375880600217,2,DB
2025-07-09 21:54:19.073,3.250424205480968e-05,-13.188084846789774,2,DB
2025-07-09 21:54:19.081,3.6409645382553616e-05,-12.536398982230352,2,DB
2025-07-09 21:54:19.088,4.015196849598927e-05,-11.757118584839896,2,DB
2025-07-09 21:54:19.096,4.365967147297466e-05,-10.861809236233125,2,DB
2025-07-09 21:54:19.104,4.685795641203368e-05,-9.865004321442678,2,DB
2025-07-09 21:54:19.112,4.966715432085779e-05,-8.783938293827251,2,DB
2025-07-09 21:54:19.120,5.2001150193265626e-05,-7.638197390987539,2,DB
2025-07-09 21:54:19.128,5.376618410394693e-05,-6.44929426433519,2,DB
2025-07-09 21:54:19.135,5.486041218339983e-05,-5.240175598798756,2,DB
2025-07-09 21:54:19.143,5.517459884100763e-05,-4.0346742572666665,2,DB
2025-07-09 21:54:19.151,5.459420532164477e-05,-2.8569197071259027,2,DB
2025-07-09 21:54:19.159,5.300294372624109e-05,-1.7307224026520232,2,DB
2025-07-09 21:54:19.167,5.028763477387282e-05,-0.6789493417564008,2,DB
2025-07-09 21:54:19.174,4.6344006185705216e-05,0.277090876506632,2,DB
2025-07-09 21:54:19.182,4.108293724105104e-05,1.1182345668189024,2,DB
2025-07-09 21:54:19.190,3.443661077795422e-05,1.8280021029086928,2,DB
2025-07-09 21:54:19.198,2.636407106402964e-05,2.3930714014413343,2,DB
2025-07-09 21:54:19.206,1.6855779817778633e-05,2.8036688342810474,2,DB
2025-07-09 21:54:19.213,5.936886587430423e-06,3.0538628029147104,2,DB
2025-07-09 21:54:19.221,-6.330938963896034e-06,3.141748092688192,2,DB
2025-07-09 21:54:19.229,-1.984915418569166e-05,3.0695126671272988,2,DB
2025-07-09 21:54:19.237,-3.4483445463673945e-05,2.8433826295776146,2,DB
2025-07-09 21:54:19.245,-5.006623897112826e-05,2.4734454913714647,2,DB
2025-07-09 21:54:19.253,-6.640056443943658e-05,1.9733564282752485,2,DB
2025-07-09 21:54:19.260,-8.326518149222312e-05,1.3599366465701772,2,DB
2025-07-09 21:54:19.268,-0.0001004208079834,0.6526770876519871,2,DB
2025-07-09 21:54:19.276,-0.0001176172066694,-0.1268357255933248,2,DB
2025-07-09 21:54:19.284,-0.0001346008151938,-0.955552014865804,2,DB
2025-07-09 21:54:19.292,-0.0001511225482791,-1.809627483298195,2,DB
2025-07-09 21:54:19.299,-0.0001669453586101,-2.6651055096213385,2,DB
2025-07-09 21:54:19.307,-0.0001818511303408,-3.4985895854261524,2,DB
2025-07-09 21:54:19.315,-0.0001956465184079,-4.287883467127228,2,DB
2025-07-09 21:54:19.323,-0.0002081674370983,-5.012578122070259,2,DB
2025-07-09 21:54:19.331,-0.0002192820174475,-5.654567003075934,2,DB
2025-07-09 21:54:19.338,-0.0002288919692112,-6.198474360979844,2,DB
2025-07-09 21:54:19.346,-0.0002369323868104,-6.631985032830084,2,DB
2025-07-09 21:54:19.354,-0.0002433701260693,-6.946068231535769,2,DB
2025-07-09 21:54:19.362,-0.0002482009483737,-7.135092107423586,2,DB
2025-07-09 21:54:19.370,-0.0002514456804402,-7.19683005170178,2,DB
2025-07-09 21:54:19.378,-0.0002531456712212,-7.132363677053469,2,DB
2025-07-09 21:54:19.385,-0.0002533578432264,-6.945890972732976,2,DB
2025-07-09 21:54:19.393,-0.0002521496349021,-6.644451149931313,2,DB
2025-07-09 21:54:19.401,-0.0002495941153283,-6.237580064398594,2,DB
2025-07-09 21:54:19.409,-0.0002457655244041,-5.736911767793864,2,DB
2025-07-09 21:54:19.417,-0.0002407354532314,-5.15574267890615,2,DB
2025-07-09 21:54:19.424,-0.0002345698331173,-4.508575093310827,2,DB
2025-07-09 21:54:19.432,-0.0002273268501688,-3.810656296619493,2,DB
2025-07-09 21:54:19.440,-0.0002190558485734,-3.077528457575359,2,DB
2025-07-09 21:54:19.448,-0.0002097972320219,-2.3246028157534857,2,DB
2025-07-09 21:54:19.456,-0.0001995833219367,-1.5667695335663274,2,DB
2025-07-09 21:54:19.463,-0.0001884400856162,-0.8180520754189954,2,DB
2025-07-09 21:54:19.471,-0.0001763896092954,-0.0913122614772669,2,DB
2025-07-09 21:54:19.479,-0.0001634531623411,0.6019906068648698,2,DB
2025-07-09 21:54:19.487,-0.000149654680927,1.2519857629438391,2,DB
2025-07-09 21:54:19.495,-0.0001350244937427,1.8505236584318252,2,DB
2025-07-09 21:54:19.503,-0.0001196031193798,2.391258732415794,2,DB
2025-07-09 21:54:19.510,-0.0001034449836994,2.869687068555345,2,DB
2025-07-09 21:54:19.518,-8.662192592052184e-05,3.28314457643217,2,DB
2025-07-09 21:54:19.526,-6.922636315624412e-05,3.630771613786739,2,DB
2025-07-09 21:54:19.534,-5.1373952405563056e-05,3.9134497365830367,2,DB
2025-07-09 21:54:19.542,-3.320554971626732e-05,4.13371560698748,2,DB
2025-07-09 21:54:19.549,-1.4888256525502534e-05,4.2956561195395775,2,DB
2025-07-09 21:54:19.557,3.3846357255031635e-06,4.404787656633132,2,DB
2025-07-09 21:54:19.565,2.1394975454318684e-05,4.467921199560178,2,DB
2025-07-09 21:54:19.573,3.890253612319681e-05,4.49301394555459,2,DB
2025-07-09 21:54:19.581,5.564944604409144e-05,4.48900724690967,2,DB
2025-07-09 21:54:19.588,7.13664159279567e-05,4.465650195431735,2,DB
2025-07-09 21:54:19.596,8.57808047671905e-05,4.433308073312566,2,DB
2025-07-09 21:54:19.604,9.862637804900168e-05,4.402755173506905,2,DB
2025-07-09 21:54:19.612,0.0001096543831314,4.384952109800066,2,DB
2025-07-09 21:54:19.620,0.0001186453381284,4.390808615983621,2,DB
2025-07-09 21:54:19.628,0.000125420754651,4.430933891225333,2,DB
2025-07-09 21:54:19.635,0.000129853944778,4.515377697940153,2,DB
2025-07-09 21:54:19.643,0.0001318791161153,4.653366574737879,2,DB
2025-07-09 21:54:19.651,0.000131498092068,4.853040611122758,2,DB
2025-07-09 21:54:19.659,0.0001287841465774,5.121197168684193,2,DB
2025-07-09 21:54:19.667,0.0001238825995682,5.463048657600703,2,DB
2025-07-09 21:54:19.674,0.000117008003113,5.882001928822506,2,DB
2025-07-09 21:54:19.682,0.0001084379555294,6.379466977340185,2,DB
2025-07-09 21:54:19.690,9.850377942908504e-05,6.954702446239723,2,DB
2025-07-09 21:54:19.698,8.757847798044771e-05,7.604704874595951,2,DB
2025-07-09 21:54:19.706,7.606255079047098e-05,8.324147770448457,2,DB
2025-07-09 21:54:19.713,6.43684000420412e-05,9.1053754614332,2,DB
2025-07-09 21:54:19.721,5.2904162597659655e-05,9.938455341377532,2,DB
2025-07-09 21:54:19.729,4.205784110073162e-05,10.8112906531525,2,DB
2025-07-09 21:54:19.737,3.2182566330289486e-05,11.70979437890134,2,DB
2025-07-09 21:54:19.745,2.358371398937458e-05,12.618123188541585,2,DB
2025-07-09 21:54:19.753,1.6508449677387068e-05,13.51896875664966,2,DB
2025-07-09 21:54:19.760,1.113811318989744e-05,14.393902121334552,2,DB
2025-07-09 21:54:19.768,7.58369156591547e-06,15.22376514680818,2,DB
2025-07-09 21:54:19.776,5.884474854085274e-06,15.989101580290718,2,DB
2025-07-09 21:54:19.784,6.009842549761516e-06,16.670618681522097,2,DB
2025-07-09 21:54:19.792,7.863994628676012e-06,17.24966897950525,2,DB
2025-07-09 21:54:19.799,1.1293321088090756e-05,17.708740424723448,2,DB
2025-07-09 21:54:19.807,1.609599943396931e-05,18.03194211903423,2,DB
2025-07-09 21:54:19.815,2.2033321735025663e-05,18.20547198796483,2,DB
2025-07-09 21:54:19.823,2.88421824670416e-05,18.218052279027223,2,DB
2025-07-09 21:54:19.831,3.624810588263824e-05,18.06131869162989,2,DB
2025-07-09 21:54:19.838,4.39781573389905e-05,17.73014933245741,2,DB
2025-07-09 21:54:19.846,5.1773068640082144e-05,17.22292059756887,2,DB
2025-07-09 21:54:19.854,5.939792430523612e-05,16.541678542031732,2,DB
2025-07-09 21:54:19.862,6.665083394261488e-05,15.692216315364483,2,DB
2025-07-09 21:54:19.870,7.336918716359663e-05,14.68405078921231,2,DB
2025-07-09 21:54:19.878,7.94333362383521e-05,13.530294518668828,2,DB
2025-07-09 21:54:19.885,8.476780129283525e-05,12.247422558523551,2,DB
2025-07-09 21:54:19.893,8.934026683329237e-05,10.854937263425636,2,DB
2025-07-09 21:54:19.901,9.315872192561104e-05,9.374937874289078,2,DB
2025-07-09 21:54:19.909,9.62671220714984e-05,7.831605260496556,2,DB
2025-07-09 21:54:19.917,9.873995025000252e-05,6.250615482173874,2,DB
2025-07-09 21:54:19.924,0.0001006760406177,4.658498707230256,2,DB
2025-07-09 21:54:19.932,0.0001021920044195,3.081962334424239,2,DB
2025-07-09 21:54:19.940,0.0001034155657044,1.5471988388727496,2,DB
2025-07-09 21:54:19.948,0.000104479076481,0.0791998117061373,2,DB
2025-07-09 21:54:19.956,0.0001055134389659,-1.2989021121900777,2,DB
2025-07-09 21:54:19.963,0.0001066426184747,-2.566442256516006,2,DB
2025-07-09 21:54:19.971,0.0001079788860175,-3.705763891165695,2,DB
2025-07-09 21:54:19.979,0.0001096188863444,-4.702671201095734,2,DB
2025-07-09 21:54:19.987,0.0001116405863357,-5.546779834855137,2,DB
2025-07-09 21:54:19.995,0.0001141011213294,-6.231752825669101,2,DB
2025-07-09 21:54:20.003,0.0001170355240024,-6.75541336889401,2,DB
2025-07-09 21:54:20.010,0.0001204562923203,-7.119730007762046,2,DB
2025-07-09 21:54:20.018,0.000124353730133,-7.330674082675747,2,DB
2025-07-09 21:54:20.026,0.0001286969762786,-7.397953678209265,2,DB
2025-07-09 21:54:20.034,0.0001334356254457,-7.334632590369159,2,DB
2025-07-09 21:54:20.042,0.0001385018362255,-7.156646873421247,2,DB
2025-07-09 21:54:20.049,0.0001438128183552,-6.8822351600393326,2,DB
2025-07-09 21:54:20.057,0.0001492735915859,-6.531302043221432,2,DB
2025-07-09 21:54:20.065,0.0001547799123649,-6.124736243780024,2,DB
2025-07-09 21:54:20.073,0.0001602212710108,-5.683706967023138,2,DB
2025-07-09 21:54:20.081,0.0001654838707496,-5.228962705957677,2,DB
2025-07-09 21:54:20.088,0.000170453510346,-4.780156730211952,2,DB
2025-07-09 21:54:20.096,0.0001750183036948,-4.355222588749016,2,DB
2025-07-09 21:54:20.104,0.0001790711822658,-3.969821158319683,2,DB
2025-07-09 21:54:20.112,0.0001825121394854,-3.6368781343733847,2,DB
2025-07-09 21:54:20.120,0.0001852501898309,-3.366227477178519,2,DB
2025-07-09 21:54:20.128,0.0001872050295585,-3.164372325565672,2,DB
2025-07-09 21:54:20.135,0.0001883084006055,-3.0343704372559763,2,DB
2025-07-09 21:54:20.143,0.0001885051744101,-2.975846490450184,2,DB
2025-07-09 21:54:20.151,0.0001877541883162,-2.9851287802052284,2,DB
2025-07-09 21:54:20.159,0.000186028882429,-3.055503165046799,2,DB
2025-07-09 21:54:20.167,0.000183317789737,-3.177572761692345,2,DB
2025-07-09 21:54:20.174,0.0001796249065582,-3.3397080330678808,2,DB
2025-07-09 21:54:20.182,0.0001749699027934,-3.528568728172909,2,DB
2025-07-09 21:54:20.190,0.0001693880484251,-3.7296767413515055,2,DB
2025-07-09 21:54:20.198,0.0001629296839286,-3.928017455143576,2,DB
2025-07-09 21:54:20.206,0.0001556590734628,-4.108646566251509,2,DB
2025-07-09 21:54:20.213,0.0001476525385014,-4.257279777930046,2,DB
2025-07-09 21:54:20.221,0.0001389958535954,-4.360844043652224,2,DB
2025-07-09 21:54:20.229,0.0001297809832673,-4.407971195731501,2,DB
2025-07-09 21:54:20.237,0.0001201023435838,-4.38941767610426,2,DB
2025-07-09 21:54:20.245,0.0001100528707855,-4.298397548254552,2,DB
2025-07-09 21:54:20.253,9.97202465768267e-05,-4.130819815094424,2,DB
2025-07-09 21:54:20.260,8.918364040015739e-05,-3.885425082730867,2,DB
2025-07-09 21:54:20.268,7.851128308014065e-05,-3.5638205820829514,2,DB
2025-07-09 21:54:20.276,6.775910655634109e-05,-3.170416299847649,2,DB
2025-07-09 21:54:20.284,5.69705869248772e-05,-2.7122683249801334,2,DB
2025-07-09 21:54:20.292,4.617780468784816e-05,-2.1988383790980883,2,DB
2025-07-09 21:54:20.299,3.5403579871499863e-05,-1.6416808078085037,2,DB
2025-07-09 21:54:20.307,2.4664378813203143e-05,-1.054070043682999,2,DB
2025-07-09 21:54:20.315,1.3973576839063096e-05,-0.4505827159489018,2,DB
2025-07-09 21:54:20.323,3.3446332509339235e-06,0.153350804417816,2,DB
2025-07-09 21:54:20.331,-7.206199050284346e-06,0.7419105451186997,2,DB
2025-07-09 21:54:20.338,-1.7657859818878613e-05,1.2993522700009443,2,DB
2025-07-09 21:54:20.346,-2.7983213718003516e-05,1.810460333055466,2,DB
2025-07-09 21:54:20.354,-3.814844192949678e-05,2.260975509748816,2,DB
2025-07-09 21:54:20.362,-4.811296242921189e-05,2.6379866461011976,2,DB
2025-07-09 21:54:20.370,-5.782977571690802e-05,2.9302764930589085,2,DB
2025-07-09 21:54:20.378,-6.724616558723826e-05,3.1286136989171616,2,DB
2025-07-09 21:54:20.385,-7.630467582714324e-05,3.225984577930105,2,DB
2025-07-09 21:54:20.393,-8.494424534973276e-05,3.217759949541965,2,DB
2025-07-09 21:54:20.401,-9.310136184882108e-05,3.1017940555621,2,DB
2025-07-09 21:54:20.409,-0.0001007111115647,2.8784543163853846,2,DB
2025-07-09 21:54:20.417,-0.0001077080469573,2.55058247370696,2,DB
2025-07-09 21:54:20.424,-0.0001140268426871,2.1233894632958297,2,DB
2025-07-09 21:54:20.432,-0.0001196027523172,1.6042881355260863,2,DB
2025-07-09 21:54:20.440,-0.0001243719110448,1.0026696569855926,2,DB
2025-07-09 21:54:20.448,-0.000128271553081,0.3296310388407463,2,DB
2025-07-09 21:54:20.456,-0.0001312402259528,-0.4023373123353206,2,DB
2025-07-09 21:54:20.463,-0.0001332180883627,-1.1796939104419863,2,DB
2025-07-09 21:54:20.471,-0.0001341473740208,-1.9882073582092172,2,DB
2025-07-09 21:54:20.479,-0.0001339730921479,-2.8133248326532496,2,DB
2025-07-09 21:54:20.487,-0.000132644017507,-3.640536270717269,2,DB
2025-07-09 21:54:20.495,-0.0001301140004888,-4.4557230340821965,2,DB
2025-07-09 21:54:20.503,-0.0001263436027832,-5.245480713749516,2,DB
2025-07-09 21:54:20.510,-0.0001213020384815,-5.997407070992844,2,DB
2025-07-09 21:54:20.518,-0.0001149693760937,-6.700347828123706,2,DB
2025-07-09 21:54:20.526,-0.0001073389359644,-7.344595012873704,2,DB
2025-07-09 21:54:20.534,-9.841980187411588e-05,-7.922034698249423,2,DB
2025-07-09 21:54:20.542,-8.823935700665347e-05,-8.426243136797844,2,DB
2025-07-09 21:54:20.549,-7.684575452797676e-05,-8.852532343797074,2,DB
2025-07-09 21:54:20.557,-6.4310243009887e-05,-9.197948031224836,2,DB
2025-07-09 21:54:20.565,-5.072928776602931e-05,-9.461224343974564,2,DB
2025-07-09 21:54:20.573,-3.622645968883074e-05,-9.642701033818817,2,DB
2025-07-09 21:54:20.581,-2.0954092084730784e-05,-9.744209483699512,2,DB
2025-07-09 21:54:20.588,-5.094702494216711e-06,-9.76893435298143,2,DB
2025-07-09 21:54:20.596,1.1137893918446417e-05,-9.721257569739498,2,DB
2025-07-09 21:54:20.604,2.7497986256491028e-05,-9.606590989992805,2,DB
2025-07-09 21:54:20.612,4.370823495511293e-05,-9.43120333612172,2,DB
2025-07-09 21:54:20.620,5.946124465252974e-05,-9.202046091268016,2,DB
2025-07-09 21:54:20.628,7.442288486236297e-05,-8.926581947565706,2,DB
2025-07-09 21:54:20.635,8.823770000678092e-05,-8.612618275552048,2,DB
2025-07-09 21:54:20.643,0.0001005365609064,-8.268146993572795,2,DB
2025-07-09 21:54:20.651,0.000110946472106,-7.9011912550196,2,DB
2025-07-09 21:54:20.659,0.0001191022177142,-7.5196586074288385,2,DB
2025-07-09 21:54:20.667,0.000124659345758,-7.131199761078775,2,DB
2025-07-09 21:54:20.674,0.0001273078761578,-6.743071866628768,2,DB
2025-07-09 21:54:20.682,0.0001267860739773,-6.3620052535026606,2,DB
2025-07-09 21:54:20.690,0.0001228936492911,-5.994072916306941,2,DB
2025-07-09 21:54:20.698,0.0001155037884261,-5.644562630399472,2,DB
2025-07-09 21:54:20.706,0.0001045734308786,-5.31785238711659,2,DB
2025-07-09 21:54:20.713,9.015117172249596e-05,-5.017290805854118,2,DB
2025-07-09 21:54:20.721,7.23821544609158e-05,-4.7450852330050335,2,DB
2025-07-09 21:54:20.729,5.150939547269284e-05,-4.502201294752686,2,DB
2025-07-09 21:54:20.737,2.7871159806214707e-05,-4.288278640834306,2,DB
2025-07-09 21:54:20.745,1.894251069631469e-06,-4.101568403745168,2,DB
2025-07-09 21:54:20.753,-2.5916659810826395e-05,-3.938898411034702,2,DB
2025-07-09 21:54:20.760,-5.499329927072098e-05,-3.795672350118084,2,DB
2025-07-09 21:54:20.768,-8.472107918475563e-05,-3.665908835544336,2,DB
2025-07-09 21:54:20.776,-0.0001144586693274,-3.5423256230877747,2,DB
2025-07-09 21:54:20.784,-0.0001435589702108,-3.4164730242320207,2,DB
2025-07-09 21:54:20.792,-0.0001713905076099,-3.278918894034456,2,DB
2025-07-09 21:54:20.799,-0.0001973582640761,-3.119485427058415,2,DB
2025-07-09 21:54:20.807,-0.0002209230439587,-2.927535476345435,2,DB
2025-07-09 21:54:20.815,-0.0002416185989659,-2.6923033321993626,2,DB
2025-07-09 21:54:20.823,-0.0002590658871386,-2.4032620293450964,2,DB
2025-07-09 21:54:20.831,-0.0002729839851727,-2.0505164979596726,2,DB
2025-07-09 21:54:20.838,-0.000283197318737,-1.6252094561607446,2,DB
2025-07-09 21:54:20.846,-0.0002896390166277,-1.1199250639895462,2,DB
2025-07-09 21:54:20.854,-0.0002923503317651,-0.529074186883037,2,DB
2025-07-09 21:54:20.862,-0.0002914762051986,0.1507552397170965,2,DB
2025-07-09 21:54:20.870,-0.000287257178787,0.9204987454637245,2,DB
2025-07-09 21:54:20.878,-0.0002800179885988,1.778381404500884,2,DB
2025-07-09 21:54:20.885,-0.0002701532948144,2.719761971656508,2,DB
2025-07-09 21:54:20.893,-0.0002581111236902,3.737064800564445,2,DB
2025-07-09 21:54:20.901,-0.0002443747031716,4.8198059830993625,2,DB
2025-07-09 21:54:20.909,-0.0002294434448442,5.95471654611785,2,DB
2025-07-09 21:54:20.917,-0.0002138138470339,7.12596180974213,2,DB
2025-07-09 21:54:20.924,-0.0001979610817872,8.315452332553708,2,DB
2025-07-09 21:54:20.932,-0.0001823220071716,9.503238403005986,2,DB
2025-07-09 21:54:20.940,-0.0001672803159783,10.667976915357784,2,DB
2025-07-09 21:54:20.948,-0.0001531544709949,11.78745679838949,2,DB
2025-07-09 21:54:20.956,-0.0001401889660724,12.839167030920503,2,DB
2025-07-09 21:54:20.963,-0.0001285492844145,13.800889745513553,2,DB
2025-07-09 21:54:20.971,-0.0001183207135394,14.651300033660156,2,DB
2025-07-09 21:54:20.979,-0.0001095109504213,15.370553837684795,2,DB
2025-07-09 21:54:20.987,-0.000102056219251,15.940845735036405,2,DB
2025-07-09 21:54:20.995,-9.583044319895846e-05,16.346919455181425,2,DB
2025-07-09 21:54:21.003,-9.065686641016992e-05,16.57651556385584,2,DB
2025-07-09 21:54:21.010,-8.632141629484505e-05,16.620742830399823,2,DB
2025-07-09 21:54:21.018,-8.258703092579003e-05,16.47436226892261,2,DB
2025-07-09 21:54:21.026,-7.920815282424883e-05,16.13597560600437,2,DB
2025-07-09 21:54:21.034,-7.594460834631117e-05,15.608112861091666,2,DB
2025-07-09 21:54:21.042,-7.257414999899544e-05,14.89721671350356,2,DB
2025-07-09 21:54:21.049,-6.890303508979451e-05,14.013524260734576,2,DB
2025-07-09 21:54:21.057,-6.477414502590756e-05,12.970849552523296,2,DB
2025-07-09 21:54:21.065,-6.007231138059228e-05,11.786272850138898,2,DB
2025-07-09 21:54:21.073,-5.472670282058776e-05,10.479744881960364,2,DB
2025-07-09 21:54:21.081,-4.871033410435971e-05,9.07361644259962,2,DB
2025-07-09 21:54:21.089,-4.203696889482723e-05,7.592105520232203,2,DB
2025-07-09 21:54:21.096,-3.475587327228e-05,6.060715734177046,2,DB
2025-07-09 21:54:21.104,-2.694500705492538e-05,4.505621203859914,2,DB
2025-07-09 21:54:21.112,-1.8703302379515555e-05,2.953034016313949,2,DB
2025-07-09 21:54:21.120,-1.0142672612815615e-05,1.4285711677408273,2,DB
2025-07-09 21:54:21.128,-1.3803210310348112e-06,-0.0433618216965003,2,DB
2025-07-09 21:54:21.135,7.468208708219702e-06,-1.440153525716214,2,DB
2025-07-09 21:54:21.143,1.629494963369784e-05,-2.741518937806315,2,DB
2025-07-09 21:54:21.151,2.50042518861032e-05,-3.929966038933995,2,DB
2025-07-09 21:54:21.159,3.351632858329174e-05,-4.991182700248721,2,DB
2025-07-09 21:54:21.167,4.176968900939559e-05,-5.914332072848383,2,DB
2025-07-09 21:54:21.174,4.972261089219577e-05,-6.692247152564424,2,DB
2025-07-09 21:54:21.182,5.735384124767556e-05,-7.321518167025122,2,DB
2025-07-09 21:54:21.190,6.466271982997449e-05,-7.802469726292681,2,DB
2025-07-09 21:54:21.198,7.166889089487929e-05,-8.139028190475694,2,DB
2025-07-09 21:54:21.206,7.841170926025703e-05,-8.33848330617695,2,DB
2025-07-09 21:54:21.214,8.494935819544657e-05,-8.4111517110026,2,DB
2025-07-09 21:54:21.221,9.135758487773538e-05,-8.369953261725975,2,DB
2025-07-09 21:54:21.229,9.772784007046864e-05,-8.229914167531764,2,DB
2025-07-09 21:54:21.237,0.0001041645198127,-8.007613473336557,2,DB
2025-07-09 21:54:21.245,0.0001107809976559,-7.720591425881028,2,DB
2025-07-09 21:54:21.253,0.0001176942299129,-7.386739579741284,2,DB
2025-07-09 21:54:21.260,0.000125017887557,-7.02369310415595,2,DB
2025-07-09 21:54:21.268,0.0001328541650883,-6.648245607547641,2,DB
2025-07-09 21:54:21.276,0.0001412845990621,-6.275805907423055,2,DB
2025-07-09 21:54:21.284,0.0001503603787989,-5.919914571067718,2,DB
2025-07-09 21:54:21.292,0.0001600927415716,-5.59183580025249,2,DB
2025-07-09 21:54:21.299,0.000170444109697,-5.300237426418921,2,DB
2025-07-09 21:54:21.307,0.0001813206442279,-5.050968545281175,2,DB
2025-07-09 21:54:21.315,0.0001925668576129,-4.846940792792668,2,DB
2025-07-09 21:54:21.323,0.0002039628456364,-4.688115592563261,2,DB
2025-07-09 21:54:21.331,0.0002152245702985,-4.571596024432715,2,DB
2025-07-09 21:54:21.339,0.0002260074629317,-4.491818399285789,2,DB
2025-07-09 21:54:21.346,0.0002359134462654,-4.440835291367011,2,DB
2025-07-09 21:54:21.354,0.0002445013130536,-4.408678784075967,2,DB
2025-07-09 21:54:21.362,0.0002513002306665,-4.383790124939461,2,DB
2025-07-09 21:54:21.370,0.0002558259367116,-4.353499939418575,2,DB
2025-07-09 21:54:21.378,0.0002575989671025,-4.304541681989034,2,DB
2025-07-09 21:54:21.385,0.0002561640820068,-4.223580150079132,2,DB
2025-07-09 21:54:21.393,0.0002511099779961,-4.097736677791709,2,DB
2025-07-09 21:54:21.401,0.0002420883877545,-3.915093065920637,2,DB
2025-07-09 21:54:21.409,0.0002288317295975,-3.6651573716333856,2,DB
2025-07-09 21:54:21.417,0.0002111685458737,-3.3392763310297373,2,DB
2025-07-09 21:54:21.424,0.0001890360514776,-2.930981359167873,2,DB
2025-07-09 21:54:21.432,0.0001624892008842,-2.4362576914723606,2,DB
2025-07-09 21:54:21.440,0.0001317057760347,-1.8537292096150804,2,DB
2025-07-09 21:54:21.448,9.6987101661865e-05,-1.184754723966031,2,DB
2025-07-09 21:54:21.456,5.875412084064506e-05,-0.4334348288612978,2,DB
2025-07-09 21:54:21.464,1.7538734022912334e-05,0.39346824535834,2,DB
2025-07-09 21:54:21.471,-2.602946806250035e-05,1.2866922436407586,2,DB
2025-07-09 21:54:21.479,-7.124068929427148e-05,2.234709644992214,2,DB
2025-07-09 21:54:21.487,-0.0001173260039354,3.224024949816087,2,DB
2025-07-09 21:54:21.495,-0.0001634812046936,4.239522154214481,2,DB
2025-07-09 21:54:21.503,-0.0002088924502484,5.264848996782595,2,DB
2025-07-09 21:54:21.510,-0.0002527626064964,6.282824162305778,2,DB
2025-07-09 21:54:21.518,-0.0002943370693886,7.2758538699608355,2,DB
2025-07-09 21:54:21.526,-0.0003329278122306,8.226345091084008,2,DB
2025-07-09 21:54:21.534,-0.0003679344650849,9.117103932506792,2,DB
2025-07-09 21:54:21.542,-0.0003988614311395,9.931709366289436,2,DB
2025-07-09 21:54:21.549,-0.0004253303461473,10.654854355951532,2,DB
2025-07-09 21:54:21.557,-0.0004470875300241,11.272648390512565,2,DB
2025-07-09 21:54:21.565,-0.0004640064013467,11.77287736219243,2,DB
2025-07-09 21:54:21.573,-0.0004760850854075,12.145218494533983,2,DB
2025-07-09 21:54:21.581,-0.0004834396395431,12.381409548474618,2,DB
2025-07-09 21:54:21.589,-0.0004862934660807,12.475372737934803,2,DB
2025-07-09 21:54:21.596,-0.0004849635974377,12.423294645963836,2,DB
2025-07-09 21:54:21.604,-0.0004798446086345,12.223663963264835,2,DB
2025-07-09 21:54:21.612,-0.0004713909218226,11.877269130040045,2,DB
2025-07-09 21:54:21.620,-0.0004600982204176,11.387158035927849,2,DB
2025-07-09 21:54:21.628,-0.0004464846164181,10.758561918868368,2,DB
2025-07-09 21:54:21.635,-0.0004310721431453,9.998785591707836,2,DB
2025-07-09 21:54:21.643,-0.0004143690927825,9.11706618266053,2,DB
2025-07-09 21:54:21.651,-0.0003968536882944,8.124402741870824,2,DB
2025-07-09 21:54:21.659,-0.0003789595657197,7.033359355979004,2,DB
2025-07-09 21:54:21.667,-0.0003610635242508,5.857844821057121,2,DB
2025-07-09 21:54:21.674,-0.0003434759545912,4.612872426527066,2,DB
2025-07-09 21:54:21.682,-0.0003264342725651,3.3143039486852297,2,DB
2025-07-09 21:54:21.690,-0.0003100995672206,1.9785824703184025,2,DB
2025-07-09 21:54:21.698,-0.0002945565239256,0.6224590546951839,2,DB
2025-07-09 21:54:21.706,-0.0002798165170584,-0.7372814555770562,2,DB
2025-07-09 21:54:21.714,-0.0002658236110982,-2.0840902073530203,2,DB
2025-07-09 21:54:21.721,-0.0002524630802885,-3.4019145396783075,2,DB
2025-07-09 21:54:21.729,-0.0002395719472021,-4.675443852617286,2,DB
2025-07-09 21:54:21.737,-0.0002269509406069,-5.890336897479125,2,DB
2025-07-09 21:54:21.745,-0.0002143772081707,-7.033426878592106,2,DB
2025-07-09 21:54:21.753,-0.0002016171350992,-8.092901452658532,2,DB
2025-07-09 21:54:21.760,-0.0001884387258802,-9.058455419090306,2,DB
2025-07-09 21:54:21.768,-0.0001746231530517,-9.921414569595449,2,DB
2025-07-09 21:54:21.776,-0.0001599751921909,-10.674829770404084,2,DB
2025-07-09 21:54:21.784,-0.0001443323098124,-11.313540856818848,2,DB
2025-07-09 21:54:21.792,-0.0001275721709561,-11.834210310540955,2,DB
2025-07-09 21:54:21.799,-0.0001096183329109,-12.235326965361946,2,DB
2025-07-09 21:54:21.807,-9.04439250331714e-05,-12.517180163005408,2,DB
2025-07-09 21:54:21.815,-7.007319241485773e-05,-12.681804887047797,2,DB
2025-07-09 21:54:21.823,-4.858089257645021e-05,-12.73289847433166,2,DB
2025-07-09 21:54:21.831,-2.6089646406403875e-05,-12.67570957902393,2,DB
2025-07-09 21:54:21.839,-2.7654193680496367e-06,-12.5169001872007,2,DB
2025-07-09 21:54:21.846,2.118865579718892e-05,-12.26438169618358,2,DB
2025-07-09 21:54:21.854,4.553987155519848e-05,-11.927126428836551,2,DB
2025-07-09 21:54:21.862,7.003465761830508e-05,-11.514956484794682,2,DB
2025-07-09 21:54:21.870,9.440805784339551e-05,-11.038312554295448,2,DB
2025-07-09 21:54:21.878,0.0001183935656091,-10.508006224366572,2,DB
2025-07-09 21:54:21.885,0.0001417328649581,-9.934960348130817,2,DB
2025-07-09 21:54:21.893,0.0001641849966513,-9.329943152130651,2,DB
2025-07-09 21:54:21.901,0.00018553449532,-8.703302828942004,2,DB
2025-07-09 21:54:21.909,0.0002055981467669,-8.064710299829791,2,DB
2025-07-09 21:54:21.917,0.0002242301673606,-7.42291853277553,2,DB
2025-07-09 21:54:21.924,0.0002413257602483,-6.785547168275924,2,DB
2025-07-09 21:54:21.932,0.0002568231189134,-6.158901152626717,2,DB
2025-07-09 21:54:21.940,0.0002707040133852,-5.547831539445627,2,DB
2025-07-09 21:54:21.948,0.0002829931075886,-4.955645560668021,2,DB
2025-07-09 21:54:21.956,0.0002937561291878,-4.384071497739432,2,DB
2025-07-09 21:54:21.964,0.0003030969716658,-3.833281861154519,2,DB
2025-07-09 21:54:21.971,0.0003111537802876,-3.301976016164831,2,DB
2025-07-09 21:54:21.979,0.0003180940717767,-2.787520812253518,2,DB
2025-07-09 21:54:21.987,0.000324108963848,-2.286145139998396,2,DB
2025-07-09 21:54:21.995,0.0003294066458015,-1.793181810818128,2,DB
2025-07-09 21:54:22.003,0.0003342052947387,-1.303347883666309,2,DB
2025-07-09 21:54:22.010,0.000338725707589,-0.8110526807112812,2,DB
2025-07-09 21:54:22.018,0.0003431839526518,-0.3107213481634699,2,DB
2025-07-09 21:54:22.026,0.000347784335359,0.2028789976263091,2,DB
2025-07-09 21:54:22.034,0.0003527129221254,0.7343237099380844,2,DB
2025-07-09 21:54:22.042,0.0003581317852432,1.2872384207097418,2,DB
2025-07-09 21:54:22.049,0.0003641740464367,1.8640420575927588,2,DB
2025-07-09 21:54:22.057,0.0003709397341096,2.465735475272884,2,DB
2025-07-09 21:54:22.065,0.0003784924409405,3.091744272624014,2,DB
2025-07-09 21:54:22.073,0.0003868567744941,3.739822227124949,2,DB
2025-07-09 21:54:22.081,0.0003960166326093,4.406019436194573,2,DB
2025-07-09 21:54:22.089,0.0004059143950606,5.084716816310558,2,DB
2025-07-09 21:54:22.096,0.000416451175362,5.76872617157018,2,DB
2025-07-09 21:54:22.104,0.0004274882954795,6.449452687475346,2,DB
2025-07-09 21:54:22.112,0.0004388501197535,7.117114505376722,2,DB
2025-07-09 21:54:22.120,0.0004503283121802,7.761012051365657,2,DB
2025-07-09 21:54:22.128,0.0004616874745943,8.369838085024439,2,DB
2025-07-09 21:54:22.135,0.0004726720079439,8.932018043912429,2,DB
2025-07-09 21:54:22.143,0.0004830139425892,9.436069225407584,2,DB
2025-07-09 21:54:22.151,0.0004924414191212,9.87096669524246,2,DB
2025-07-09 21:54:22.159,0.0005006874706072,10.226503557390508,2,DB
2025-07-09 21:54:22.167,0.0005074987615063,10.493633365828394,2,DB
2025-07-09 21:54:22.174,0.0005126439681175,10.664782995097578,2,DB
2025-07-09 21:54:22.182,0.0005159215170831,10.734125192958508,2,DB
2025-07-09 21:54:22.190,0.000517166419034,10.697801287456434,2,DB
2025-07-09 21:54:22.198,0.0005162559575976,10.55408607979227,2,DB
2025-07-09 21:54:22.206,0.0005131140417474,10.303488784722486,2,DB
2025-07-09 21:54:22.214,0.0005077141020953,9.948785936864956,2,DB
2025-07-09 21:54:22.221,0.0005000804859467,9.49498441439157,2,DB
2025-07-09 21:54:22.229,0.0004902883585892,8.949215084893062,2,DB
2025-07-09 21:54:22.237,0.0004784621417931,8.320559983277114,2,DB
2025-07-09 21:54:22.245,0.0004647725247172,7.619818302254572,2,DB
2025-07-09 21:54:22.253,0.0004494320925466,6.859218709739029,2,DB
2025-07-09 21:54:22.260,0.0004326896591416,6.052087494503951,2,DB
2025-07-09 21:54:22.268,0.0004148234624919,5.212483676626234,2,DB
2025-07-09 21:54:22.276,0.0003961334623989,4.354813413183474,2,DB
2025-07-09 21:54:22.284,0.0003769330444811,3.493436718242984,2,DB
2025-07-09 21:54:22.292,0.0003575404725291,2.6422796688656507,2,DB
2025-07-09 21:54:22.299,0.0003382704404355,1.8144648921752744,2,DB
2025-07-09 21:54:22.307,0.0003194260556935,1.021972261632255,2,DB
2025-07-09 21:54:22.315,0.0003012915397907,0.2753404359326152,2,DB
2025-07-09 21:54:22.323,0.0002841258583184,-0.4165817715042297,2,DB
2025-07-09 21:54:22.331,0.0002681573991116,-1.04682711544618,2,DB
2025-07-09 21:54:22.339,0.0002535797126881,-1.610439745537515,2,DB
2025-07-09 21:54:22.346,0.0002405482412023,-2.1045403279658994,2,DB
2025-07-09 21:54:22.354,0.000229177914733,-2.5283258440282843,2,DB
2025-07-09 21:54:22.362,0.0002195414871231,-2.883005574844259,2,DB
2025-07-09 21:54:22.370,0.000211668495061,-3.171676775619438,2,DB
2025-07-09 21:54:22.378,0.0002055447382736,-3.3991453381152907,2,DB
2025-07-09 21:54:22.385,0.0002011122060961,-3.5716982800442465,2,DB
2025-07-09 21:54:22.393,0.0001982694343956,-3.696836147940093,2,DB
2025-07-09 21:54:22.401,0.0001968723626014,-3.782974363300751,2,DB
2025-07-09 21:54:22.409,0.0001967358453485,-3.839123187081228,2,DB
2025-07-09 21:54:22.417,0.0001976360289458,-3.8745563376493646,2,DB
2025-07-09 21:54:22.424,0.0001993138156517,-3.898478381675436,2,DB
2025-07-09 21:54:22.432,0.0002014796045472,-3.9197008328808103,2,DB
2025-07-09 21:54:22.440,0.0002038194161236,-3.946336450191156,2,DB
2025-07-09 21:54:22.448,0.0002060023816439,-3.985520541631442,2,DB
2025-07-09 21:54:22.456,0.0002076894226786,-4.0431671749811855,2,DB
2025-07-09 21:54:22.464,0.0002085427982872,-4.123767094137934,2,DB
2025-07-09 21:54:22.471,0.0002082361075357,-4.230232868252431,2,DB
2025-07-09 21:54:22.479,0.0002064643291793,-4.363795393829718,2,DB
2025-07-09 21:54:22.487,0.0002029535358333,-4.523954370732825,2,DB
2025-07-09 21:54:22.495,0.0001974699895515,-4.708483826430392,2,DB
2025-07-09 21:54:22.503,0.0001898283751073,-4.913492210504314,2,DB
2025-07-09 21:54:22.510,0.0001798989460889,-5.1335350585528206,2,DB
2025-07-09 21:54:22.518,0.0001676133563347,-5.361776760675192,2,DB
2025-07-09 21:54:22.526,0.0001529689485804,-5.590196591738951,2,DB
2025-07-09 21:54:22.534,0.0001360312905183,-5.809832896513727,2,DB
2025-07-09 21:54:22.542,0.0001169347763004,-6.011058203926168,2,DB
2025-07-09 21:54:22.549,9.588113754992204e-05,-6.183877108267422,2,DB
2025-07-09 21:54:22.557,7.313575518888927e-05,-6.318238043497193,2,DB
2025-07-09 21:54:22.565,4.902175890173535e-05,-6.404349632360163,2,DB
2025-07-09 21:54:22.573,2.39120211657455e-05,-6.432992151101258,2,DB
2025-07-09 21:54:22.581,-1.780753340422388e-06,-6.395814838248121,2,DB
2025-07-09 21:54:22.589,-2.761558392017329e-05,-6.285610301211795,2,DB
2025-07-09 21:54:22.596,-5.313610017437481e-05,-6.096558123168474,2,DB
2025-07-09 21:54:22.604,-7.788436787319205e-05,-5.82443090215825,2,DB
2025-07-09 21:54:22.612,-0.0001014151849448,-5.46675729636084,2,DB
2025-07-09 21:54:22.620,-0.0001233103193473,-5.022938122575388,2,DB
2025-07-09 21:54:22.628,-0.0001431921341636,-4.494313078613808,2,DB
2025-07-09 21:54:22.635,-0.000160736054773,-3.88417716460498,2,DB
2025-07-09 21:54:22.643,-0.0001756813796117,-3.197747306979615,2,DB
2025-07-09 21:54:22.651,-0.000187840020222,-2.44208099994381,2,DB
2025-07-09 21:54:22.659,-0.0001971028758771,-1.6259499423959425,2,DB
2025-07-09 21:54:22.667,-0.0002034436902534,-0.7596726425731686,2,DB
2025-07-09 21:54:22.674,-0.000206920369595,0.1450892263230886,2,DB
2025-07-09 21:54:22.682,-0.0002076738265313,1.0755653184135356,2,DB
2025-07-09 21:54:22.690,-0.000205924450262,2.0181361327778897,2,DB
2025-07-09 21:54:22.698,-0.0002019663305858,2.95861150077024,2,DB
2025-07-09 21:54:22.706,-0.0001961594058726,3.8825219189523614,2,DB
2025-07-09 21:54:22.714,-0.0001889197526283,4.7754166618080935,2,DB
2025-07-09 21:54:22.721,-0.0001807082769642,5.623162746282141,2,DB
2025-07-09 21:54:22.729,-0.0001720181204409,6.412238989598421,2,DB
2025-07-09 21:54:22.737,-0.0001633611647002,7.130019563223971,2,DB
2025-07-09 21:54:22.745,-0.0001552540874673,7.765041578915214,2,DB
2025-07-09 21:54:22.753,-0.0001482044417469,8.307251352543595,2,DB
2025-07-09 21:54:22.760,-0.0001426971776156,8.748224105615835,2,DB
2025-07-09 21:54:22.768,-0.0001391819268369,9.081352023518969,2,DB
2025-07-09 21:54:22.776,-0.0001380612734913,9.301995836080842,2,DB
2025-07-09 21:54:22.784,-0.0001396801740688,9.407595460583424,2,DB
2025-07-09 21:54:22.792,-0.0001443166800337,9.397735789867948,2,DB
2025-07-09 21:54:22.799,-0.0001521741528972,9.274164456275791,2,DB
2025-07-09 21:54:22.807,-0.0001633752307698,9.040759381243497,2,DB
2025-07-09 21:54:22.815,-0.0001779578678455,8.703445131376602,2,DB
2025-07-09 21:54:22.823,-0.000195873772784,8.270058515396782,2,DB
2025-07-09 21:54:22.831,-0.0002169894917091,7.750165414339465,2,DB
2025-07-09 21:54:22.839,-0.000241090238343,7.154832459118836,2,DB
2025-07-09 21:54:22.846,-0.0002678864145513,6.496358761547046,2,DB
2025-07-09 21:54:22.854,-0.0002970226237865,5.787974373062192,2,DB
2025-07-09 21:54:22.862,-0.0003280888703764,5.043513408235283,2,DB
2025-07-09 21:54:22.870,-0.0003606335613512,4.277070767706987,2,DB
2025-07-09 21:54:22.878,-0.0003941778824167,3.5026520903277105,2,DB
2025-07-09 21:54:22.885,-0.0004282310947885,2.733826936679124,2,DB
2025-07-09 21:54:22.893,-0.0004623062706794,1.983395247881463,2,DB
2025-07-09 21:54:22.901,-0.0004959359288911,1.263076839078727,2,DB
2025-07-09 21:54:22.909,-0.0005286869509641,0.5832330924537628,2,DB
2025-07-09 21:54:22.917,-0.0005601740880501,-0.0473708677244896,2,DB
2025-07-09 21:54:22.924,-0.0005900713578098,-0.621756383393707,2,DB
2025-07-09 21:54:22.932,-0.0006181207133445,-1.134868109957931,2,DB
2025-07-09 21:54:22.940,-0.0006441375427041,-1.5836533602068832,2,DB
2025-07-09 21:54:22.948,-0.0006680127991002,-1.9670815730861468,2,DB
2025-07-09 21:54:22.956,-0.0006897118279304,-2.2861034180648128,2,DB
2025-07-09 21:54:22.964,-0.0007092701977118,-2.5435509736359703,2,DB
2025-07-09 21:54:22.971,-0.0007267870048565,-2.7439823160310395,2,DB
2025-07-09 21:54:22.979,-0.0007424161811693,-2.893475639470344,2,DB
2025-07-09 21:54:22.987,-0.0007563563117142,-2.9993796199984946,2,DB
2025-07-09 21:54:22.995,-0.0007688394185877,-3.0700280604353742,2,DB
2025-07-09 21:54:23.003,-0.0007801191203497,-3.114427866489045,2,DB
2025-07-09 21:54:23.010,-0.0007904585527692,-3.1419300835107924,2,DB
2025-07-09 21:54:23.018,-0.0008001184385149,-3.161894072899271,2,DB
2025-07-09 21:54:23.026,-0.0008093457210897,-3.1833549440567825,2,DB
2025-07-09 21:54:23.034,-0.000818363220077,-3.2147041051934866,2,DB
2025-07-09 21:54:23.042,-0.0008273607868938,-3.263392278335507,2,DB
2025-07-09 21:54:23.049,-0.0008364883962582,-3.33566356387842,2,DB
2025-07-09 21:54:23.057,-0.0008458514769499,-3.4363281613722205,2,DB
2025-07-09 21:54:23.065,-0.0008555085932014,-3.5685801840854854,2,DB
2025-07-09 21:54:23.073,-0.0008654713870955,-3.7338656821932408,2,DB
2025-07-09 21:54:23.081,-0.0008757065217041,-3.931804556397948,2,DB
2025-07-09 21:54:23.089,-0.0008861392410422,-4.160168542646034,2,DB
2025-07-09 21:54:23.096,-0.0008966580913616,-4.414915916990766,2,DB
2025-07-09 21:54:23.104,-0.000907120330499,-4.690282043779092,2,DB
2025-07-09 21:54:23.112,-0.0009173575860784,-4.978923408444701,2,DB
2025-07-09 21:54:23.120,-0.0009271813976288,-5.2721113768119,2,DB
2025-07-09 21:54:23.128,-0.0009363883677761,-5.559970639368191,2,DB
2025-07-09 21:54:23.135,-0.0009447647354617,-5.831756156130366,2,DB
2025-07-09 21:54:23.143,-0.0009520902778833,-6.076161432495137,2,DB
2025-07-09 21:54:23.151,-0.00095814155746,-6.281650141039659,2,DB
2025-07-09 21:54:23.159,-0.0009626946293195,-6.436802467153069,2,DB
2025-07-09 21:54:23.167,-0.0009655273749162,-6.530667101671221,2,DB
2025-07-09 21:54:23.174,-0.0009664216291714,-6.553109530630244,2,DB
2025-07-09 21:54:23.182,-0.000965165257283,-6.495147178275304,2,DB
2025-07-09 21:54:23.190,-0.000961554335967,-6.349262046174658,2,DB
2025-07-09 21:54:23.198,-0.0009553955924403,-6.109681769925985,2,DB
2025-07-09 21:54:23.206,-0.0009465092317037,-5.772620507288152,2,DB
2025-07-09 21:54:23.214,-0.0009347322313445,-5.336471805751967,2,DB
2025-07-09 21:54:23.221,-0.0009199221068364,-4.801946600286005,2,DB
2025-07-09 21:54:23.229,-0.0009019610539661,-4.172150779803809,2,DB
2025-07-09 21:54:23.237,-0.0008807602740573,-3.4525983322857496,2,DB
2025-07-09 21:54:23.245,-0.0008562642109686,-2.6511579066533693,2,DB
2025-07-09 21:54:23.253,-0.0008284543947731,-1.7779326566254836,2,DB
2025-07-09 21:54:23.260,-0.0007973525865114,-0.8450753691398907,2,DB
2025-07-09 21:54:23.268,-0.000763022931499,0.1334569831812093,2,DB
2025-07-09 21:54:23.276,-0.0007255728481199,1.14220310612847,2,DB
2025-07-09 21:54:23.284,-0.0006851524072832,2.164543705842393,2,DB
2025-07-09 21:54:23.292,-0.0006419519969797,3.1830848067175266,2,DB
2025-07-09 21:54:23.299,-0.0005961981282858,4.180067439830919,2,DB
2025-07-09 21:54:23.307,-0.0005481473474627,5.137792271664195,2,DB
2025-07-09 21:54:23.315,-0.0004980783839614,6.0390473034484025,2,DB
2025-07-09 21:54:23.323,-0.0004462828600622,6.8675266962505335,2,DB
2025-07-09 21:54:23.331,-0.0003930550641951,7.608229054814922,2,DB
2025-07-09 21:54:23.339,-0.000338681408075,8.247824111343611,2,DB
2025-07-09 21:54:23.346,-0.0002834302351955,8.77497765842246,2,DB
2025-07-09 21:54:23.354,-0.0002275426244509,9.180625757016598,2,DB
2025-07-09 21:54:23.362,-0.0001712247475399,9.458190663056364,2,DB
2025-07-09 21:54:23.370,-0.0001146422202207,9.60373254870866,2,DB
2025-07-09 21:54:23.378,-5.791676411209407e-05,9.61603291152587,2,DB
2025-07-09 21:54:23.385,-1.125379657161448e-06,9.49660752352211,2,DB
2025-07-09 21:54:23.393,5.569787460275975e-05,9.249648814210424,2,DB
2025-07-09 21:54:23.401,0.000112557503332,8.881899635458248,2,DB
2025-07-09 21:54:23.409,0.0001694897303799,8.402462345694758,2,DB
2025-07-09 21:54:23.417,0.0002265534987276,7.822549005307541,2,DB
2025-07-09 21:54:23.424,0.0002838198189715,7.155180135281097,2,DB
2025-07-09 21:54:23.432,0.0003413601216372,6.414840913276601,2,DB
2025-07-09 21:54:23.440,0.0003992343376396,5.617104832520733,2,DB
2025-07-09 21:54:23.448,0.0004574794297569,4.778235702090055,2,DB
2025-07-09 21:54:23.456,0.0005160990477574,3.9147793982833146,2,DB
2025-07-09 21:54:23.464,0.0005750548910347,3.0431569633514703,2,DB
2025-07-09 21:54:23.471,0.0006342602416842,2.17927047011309,2,DB
2025-07-09 21:54:23.479,0.0006935759836669,1.33813251572551,2,DB
2025-07-09 21:54:23.487,0.0007528092630978,0.5335292766093228,2,DB
2025-07-09 21:54:23.495,0.0008117147988634,-0.222274223968701,2,DB
2025-07-09 21:54:23.503,0.0008699987410851,-0.9187795548450386,2,DB
2025-07-09 21:54:23.510,0.0009273248862924,-1.5474457155477697,2,DB
2025-07-09 21:54:23.518,0.0009833229726361,-2.101821945673745,2,DB
2025-07-09 21:54:23.526,0.0010375986909842,-2.577620964970819,2,DB
2025-07-09 21:54:23.534,0.0010897449618776,-2.9727329251742507,2,DB
2025-07-09 21:54:23.542,0.0011393539562317,-3.2871820446816047,2,DB
2025-07-09 21:54:23.549,0.001186029306187,-3.523029404222762,2,DB
2025-07-09 21:54:23.557,0.001229397977737,-3.684226665133685,2,DB
2025-07-09 21:54:23.565,0.0012691213358346,-3.776426506012448,2,DB
2025-07-09 21:54:23.573,0.0013049049825464,-3.806756351783461,2,DB
2025-07-09 21:54:23.581,0.001336506970187,-3.7835625028339006,2,DB
2025-07-09 21:54:23.589,0.0013637440089001,-3.716132083573198,2,DB
2025-07-09 21:54:23.596,0.0013864953499906,-3.6144003457237055,2,DB
2025-07-09 21:54:23.604,0.0014047041581476,-3.4886508057243875,2,DB
2025-07-09 21:54:23.612,0.0014183763653226,-3.3492154860273047,2,DB
2025-07-09 21:54:23.620,0.001427577179833,-3.2061821805996726,2,DB
2025-07-09 21:54:23.628,0.0014324255726939,-3.0691151907751952,2,DB
2025-07-09 21:54:23.635,0.0014330871680869,-2.9467954007875345,2,DB
2025-07-09 21:54:23.643,0.0014297660263858,-2.846984912374596,2,DB
2025-07-09 21:54:23.651,0.0014226958294865,-2.7762207668890397,2,DB
2025-07-09 21:54:23.659,0.0014121309637523,-2.7396415793743705,2,DB
2025-07-09 21:54:23.667,0.0013983379511107,-2.7408502119302223,2,DB
2025-07-09 21:54:23.674,0.0013815876098892,-2.7818149357552824,2,DB
2025-07-09 21:54:23.682,0.0013621482405271,-2.862810879755664,2,DB
2025-07-09 21:54:23.690,0.0013402800342866,-2.982402941136689,2,DB
2025-07-09 21:54:23.698,0.001316230802461,-3.1374707359525797,2,DB
2025-07-09 21:54:23.706,0.0012902330261031,-3.3232755815370383,2,DB
2025-07-09 21:54:23.714,0.0012625021383168,-3.533568902419298,2,DB
2025-07-09 21:54:23.721,0.0012332358784169,-3.760740800696183,2,DB
2025-07-09 21:54:23.729,0.0012026145047517,-3.9960067937241983,2,DB
2025-07-09 21:54:23.737,0.001170801624756,-4.229629872841377,2,DB
2025-07-09 21:54:23.745,0.0011379453999086,-4.451174078435868,2,DB
2025-07-09 21:54:23.753,0.001104179909982,-4.649784749029218,2,DB
2025-07-09 21:54:23.760,0.001069626506341,-4.81448953796937,2,DB
2025-07-09 21:54:23.768,0.0010343950269603,-4.934513267508764,2,DB
2025-07-09 21:54:23.776,0.0009985847733948,-4.9995987779148505,2,DB
2025-07-09 21:54:23.784,0.0009622851839261,-5.0003251979577525,2,DB
2025-07-09 21:54:23.792,0.0009255762120116,-4.92841457489207,2,DB
2025-07-09 21:54:23.799,0.0008885285238596,-4.777017608927114,2,DB
2025-07-09 21:54:23.807,0.0008512037022631,-4.540969378010235,2,DB
2025-07-09 21:54:23.815,0.0008136546403036,-4.217006436803001,2,DB
2025-07-09 21:54:23.823,0.0007759262425011,-3.803937534370061,2,DB
2025-07-09 21:54:23.831,0.0007380564699735,-3.3027614027932675,2,DB
2025-07-09 21:54:23.839,0.0007000777067837,-2.7167265848564472,2,DB
2025-07-09 21:54:23.846,0.0006620183998169,-2.0513300317045107,2,DB
2025-07-09 21:54:23.854,0.0006239049262176,-1.3142531314506525,2,DB
2025-07-09 21:54:23.862,0.0005857636403905,-0.5152358361481744,2,DB
2025-07-09 21:54:23.870,0.0005476230118715,0.3341084578332335,2,DB
2025-07-09 21:54:23.878,0.0005095156883439,1.2205327441390443,2,DB
2025-07-09 21:54:23.885,0.0004714802540383,2.129444738264527,2,DB
2025-07-09 21:54:23.893,0.0004335624499802,3.04523605816734,2,DB
2025-07-09 21:54:23.901,0.0003958156800909,3.951643466417011,2,DB
2025-07-09 21:54:23.909,0.0003583007105987,4.832132556174388,2,DB
2025-07-09 21:54:23.917,0.0003210845464291,5.670293733513522,2,DB
2025-07-09 21:54:23.925,0.0002842385336386,6.450240094651543,2,DB
2025-07-09 21:54:23.932,0.000247835811105,7.156996785418601,2,DB
2025-07-09 21:54:23.940,0.0002119483269645,7.776871632537684,2,DB
2025-07-09 21:54:23.948,0.0001766437200749,8.297797235998036,2,DB
2025-07-09 21:54:23.956,0.0001419823974417,8.709635307252157,2,DB
2025-07-09 21:54:23.964,0.0001080150914837,9.004434835714152,2,DB
2025-07-09 21:54:23.971,7.478108099637745e-05,9.176636674649329,2,DB
2025-07-09 21:54:23.979,4.230715613429684e-05,9.22321836414958,2,DB
2025-07-09 21:54:23.987,1.0607335415819368e-05,9.143774456317782,2,DB
2025-07-09 21:54:23.995,-2.0316694168151305e-05,8.940529268905706,2,DB
2025-07-09 21:54:24.003,-5.047446446056692e-05,8.618280843978651,2,DB
2025-07-09 21:54:24.010,-7.988501997177315e-05,8.184276882765454,2,DB
2025-07-09 21:54:24.018,-0.0001085747322033,7.648025505322826,2,DB
2025-07-09 21:54:24.026,-0.0001365747673831,7.021045771397487,2,DB
2025-07-09 21:54:24.034,-0.0001639183301353,6.316564912818094,2,DB
2025-07-09 21:54:24.042,-0.0001906377794982,5.549171070299018,2,DB
2025-07-09 21:54:24.050,-0.0002167616957996,4.734431893138663,2,DB
2025-07-09 21:54:24.057,-0.0002423119777427,3.888490550002576,2,DB
2025-07-09 21:54:24.065,-0.0002673010669642,3.027651436709597,2,DB
2025-07-09 21:54:24.073,-0.000291729423392,2.167968110667816,2,DB
2025-07-09 21:54:24.081,-0.0003155833866183,1.3248457269238896,2,DB
2025-07-09 21:54:24.089,-0.0003388335408989,0.5126695269874783,2,DB
2025-07-09 21:54:24.096,-0.0003614336774386,-0.2555302065034189,2,DB
2025-07-09 21:54:24.104,-0.0003833204536698,-0.968367796814628,2,DB
2025-07-09 21:54:24.112,-0.0004044138830101,-1.616339231020703,2,DB
2025-07-09 21:54:24.120,-0.0004246188125303,-2.1920013544584256,2,DB
2025-07-09 21:54:24.128,-0.0004438275277708,-2.6900899295422804,2,DB
2025-07-09 21:54:24.135,-0.0004619235524276,-3.1075752833062484,2,DB
2025-07-09 21:54:24.143,-0.0004787865881486,-3.443656172545045,2,DB
2025-07-09 21:54:24.151,-0.0004942983820307,-3.699694238747241,2,DB
2025-07-09 21:54:24.159,-0.0005083491550742,-3.879092963940416,2,DB
2025-07-09 21:54:24.167,-0.0005208441253982,-3.987126352847196,2,DB
2025-07-09 21:54:24.175,-0.0005317096424015,-4.030723648487155,2,DB
2025-07-09 21:54:24.182,-0.0005408984907865,-4.018217234086294,2,DB
2025-07-09 21:54:24.190,-0.0005483939818346,-3.959061484089534,2,DB
2025-07-09 21:54:24.198,-0.0005542125013727,-3.8635307069989,2,DB
2025-07-09 21:54:24.206,-0.0005584042501702,-3.742404482588179,2,DB
2025-07-09 21:54:24.214,-0.0005610520361516,-3.606648646281102,2,DB
2025-07-09 21:54:24.221,-0.0005622681770172,-3.46709992596795,2,DB
2025-07-09 21:54:24.229,-0.0005621898066303,-3.334161810124335,2,DB
2025-07-09 21:54:24.237,-0.0005609730650832,-3.217518649541667,2,DB
2025-07-09 21:54:24.245,-0.0005587867183801,-3.125874301772662,2,DB
2025-07-09 21:54:24.253,-0.0005558056963192,-3.066720846626903,2,DB
2025-07-09 21:54:24.260,-0.0005522049263315,-3.046142051856107,2,DB
2025-07-09 21:54:24.268,-0.0005481537500259,-3.068655361651534,2,DB
2025-07-09 21:54:24.276,-0.0005438111515753,-3.1370952277626625,2,DB
2025-07-09 21:54:24.284,-0.0005393219709212,-3.252539623039354,2,DB
2025-07-09 21:54:24.292,-0.0005348141926502,-3.414280599222479,2,DB
2025-07-09 21:54:24.300,-0.0005303972943306,-3.619838808803634,2,DB
2025-07-09 21:54:24.307,-0.0005261615306786,-3.865021035096946,2,DB
2025-07-09 21:54:24.315,-0.0005221779499173,-4.144018985723044,2,DB
2025-07-09 21:54:24.323,-0.0005184988981027,-4.449546909884157,2,DB
2025-07-09 21:54:24.331,-0.0005151587667442,-4.773014994022116,2,DB
2025-07-09 21:54:24.339,-0.0005121747779213,-5.104734960242305,2,DB
2025-07-09 21:54:24.346,-0.0005095476672604,-5.434153819576621,2,DB
2025-07-09 21:54:24.354,-0.00050726219252,-5.750111296644279,2,DB
2025-07-09 21:54:24.362,-0.0005052874478749,-6.041116019701716,2,DB
2025-07-09 21:54:24.370,-0.0005035770116405,-6.295635140000915,2,DB
2025-07-09 21:54:24.378,-0.0005020690168375,-6.502391599869383,2,DB
2025-07-09 21:54:24.385,-0.0005006863066763,-6.650662823398358,2,DB
2025-07-09 21:54:24.393,-0.0004993368945117,-6.730574190317948,2,DB
2025-07-09 21:54:24.401,-0.0004979149644316,-6.733380319420374,2,DB
2025-07-09 21:54:24.409,-0.0004963026149102,-6.651726985134786,2,DB
2025-07-09 21:54:24.417,-0.0004943724726158,-6.479886470599004,2,DB
2025-07-09 21:54:24.425,-0.0004919912114804,-6.213959367760112,2,DB
2025-07-09 21:54:24.432,-0.000489023929179,-5.852036303866494,2,DB
2025-07-09 21:54:24.440,-0.0004853392618548,-5.394313822021977,2,DB
2025-07-09 21:54:24.448,-0.0004808150394159,-4.8431596681301095,2,DB
2025-07-09 21:54:24.456,-0.0004753441894247,-4.203124012333131,2,DB
2025-07-09 21:54:24.464,-0.0004688405138935,-3.4808946144723154,2,DB
2025-07-09 21:54:24.471,-0.0004612439375761,-2.6851955675934445,2,DB
2025-07-09 21:54:24.479,-0.0004525248828801,-1.8266309467189183,2,DB
2025-07-09 21:54:24.487,-0.0004426875411023,-0.91747637490487,2,DB
2025-07-09 21:54:24.495,-0.0004317719333019,0.0285768743049263,2,DB
2025-07-09 21:54:24.503,-0.000419854750589,0.9967191447215078,2,DB
2025-07-09 21:54:24.510,-0.000407049019049,1.971353643077,2,DB
2025-07-09 21:54:24.518,-0.0003935026464803,2.93645317878551,2,DB
2025-07-09 21:54:24.526,-0.0003793958790663,3.875933058603207,2,DB
2025-07-09 21:54:24.534,-0.0003649376398156,4.774030196242651,2,DB
2025-07-09 21:54:24.542,-0.0003503606729813,5.615678165526499,2,DB
2025-07-09 21:54:24.550,-0.0003359154281606,6.386867874379695,2,DB
2025-07-09 21:54:24.557,-0.0003218627076831,7.074983773896881,2,DB
2025-07-09 21:54:24.565,-0.0003084652456523,7.669106044271574,2,DB
2025-07-09 21:54:24.573,-0.0002959785358994,8.160270014223874,2,DB
2025-07-09 21:54:24.581,-0.0002846413409494,8.541675166218715,2,DB
2025-07-09 21:54:24.589,-0.0002746663787929,8.808837444718666,2,DB
2025-07-09 21:54:24.596,-0.0002662316940235,8.959680194999978,2,DB
2025-07-09 21:54:24.604,-0.000259473173255,8.9945608736541,2,DB
2025-07-09 21:54:24.612,-0.0002544785636224,8.916232630618051,2,DB
2025-07-09 21:54:24.620,-0.0002512832110098,8.729741899187324,2,DB
2025-07-09 21:54:24.628,-0.0002498675872891,8.442265174224362,2,DB
2025-07-09 21:54:24.635,-0.0002501565721214,8.062890135379893,2,DB
2025-07-09 21:54:24.643,-0.0002520204189757,7.602348101365378,2,DB
2025-07-09 21:54:24.651,-0.0002552773429513,7.072706399131059,2,DB
2025-07-09 21:54:24.659,-0.0002596976712866,6.487030517840363,2,DB
2025-07-09 21:54:24.667,-0.0002650094625673,5.859026822327143,2,DB
2025-07-09 21:54:24.675,-0.0002709054266645,5.202677070959401,2,DB
2025-07-09 21:54:24.682,-0.0002770508960414,4.53187598865697,2,DB
2025-07-09 21:54:24.690,-0.0002830925572248,3.8600826911858177,2,DB
2025-07-09 21:54:24.698,-0.0002886676719238,3.1999958861874496,2,DB
2025-07-09 21:54:24.706,-0.0002934135759121,2.5632615696270857,2,DB
2025-07-09 21:54:24.714,-0.000296977291938,1.96022049195132,2,DB
2025-07-09 21:54:24.721,-0.0002990250976516,1.399701082465939,2,DB
2025-07-09 21:54:24.729,-0.0002992518509208,0.888861872773428,2,DB
2025-07-09 21:54:24.737,-0.0002973898260622,0.4330858095457073,2,DB
2025-07-09 21:54:24.745,-0.0002932168023673,0.0359272357779464,2,DB
2025-07-09 21:54:24.753,-0.0002865631858804,-0.3008892201419844,2,DB
2025-07-09 21:54:24.760,-0.0002773179931254,-0.5774200494476042,2,DB
2025-07-09 21:54:24.768,-0.0002654335248908,-0.7954080799191283,2,DB
2025-07-09 21:54:24.776,-0.000250928511849,-0.9581461853930164,2,DB
2025-07-09 21:54:24.784,-0.000233889483296,-1.070305150327842,2,DB
2025-07-09 21:54:24.792,-0.000214470143808,-1.1377321275418506,2,DB
2025-07-09 21:54:24.800,-0.0001928886290305,-1.1672266783549257,2,DB
2025-07-09 21:54:24.807,-0.0001694226087826,-1.1663017010309908,2,DB
2025-07-09 21:54:24.815,-0.0001444022899178,-1.1429366324803518,2,DB
2025-07-09 21:54:24.823,-0.0001182014541906,-1.1053301514136626,2,DB
2025-07-09 21:54:24.831,-9.122676862701417e-05,-1.061659226381654,2,DB
2025-07-09 21:54:24.839,-6.390572622622043e-05,-1.0198507557901215,2,DB
2025-07-09 21:54:24.846,-3.66736880066579e-05,-0.9873712644611796,2,DB
2025-07-09 21:54:24.854,-9.960577965861993e-06,-0.9710391863926164,2,DB
2025-07-09 21:54:24.862,1.5822181336598256e-05,-0.9768632186618754,2,DB
2025-07-09 21:54:24.870,4.0293915708619664e-05,-1.0099091279383725,2,DB
2025-07-09 21:54:24.878,6.311560950533242e-05,-1.0741962835949712,2,DB
2025-07-09 21:54:24.885,8.39990611335629e-05,-1.1726241311523142,2,DB
2025-07-09 21:54:24.893,0.0001027139987761,-1.3069278498458698,2,DB
2025-07-09 21:54:24.901,0.0001190930095889,-1.4776615950346967,2,DB
2025-07-09 21:54:24.909,0.0001330342521806,-1.68420704403663,2,DB
2025-07-09 21:54:24.917,0.0001445020054272,-1.9248044747465527,2,DB
2025-07-09 21:54:24.925,0.0001535251564042,-2.1966033349339957,2,DB
2025-07-09 21:54:24.932,0.000160193747672,-2.495729216557471,2,DB
2025-07-09 21:54:24.940,0.0001646537016631,-2.817364323385491,2,DB
2025-07-09 21:54:24.948,0.0001670998451886,-3.155838880240192,2,DB
2025-07-09 21:54:24.956,0.0001677673958048,-3.504731430607476,2,DB
2025-07-09 21:54:24.964,0.000166922153508,-3.856976549160878,2,DB
2025-07-09 21:54:24.971,0.0001648497557173,-4.204979095847186,2,DB
2025-07-09 21:54:24.979,0.0001618444661189,-4.5407346964028585,2,DB
2025-07-09 21:54:24.987,0.0001581980307225,-4.855956590532152,2,DB
2025-07-09 21:54:24.995,0.0001541891237098,-5.142209291656367,2,DB
2025-07-09 21:54:25.003,0.0001500738439089,-5.391049613837125,2,DB
2025-07-09 21:54:25.010,0.0001460776486763,-5.594175521666464,2,DB
2025-07-09 21:54:25.018,0.0001423890382789,-5.743582941059702,2,DB
2025-07-09 21:54:25.026,0.0001391552199378,-5.831730136497572,2,DB
2025-07-09 21:54:25.034,0.0001364798808185,-5.851708527240672,2,DB
2025-07-09 21:54:25.042,0.000134423086157,-5.79741791206895,2,DB
2025-07-09 21:54:25.050,0.0001330031954053,-5.66374305400979,2,DB
2025-07-09 21:54:25.057,0.0001322005688065,-5.446727521870465,2,DB
2025-07-09 21:54:25.065,0.0001319627450729,-5.143739685572898,2,DB
2025-07-09 21:54:25.073,0.0001322107212705,-4.7536249078585,2,DB
2025-07-09 21:54:25.081,0.000132845938048,-4.276837348780711,2,DB
2025-07-09 21:54:25.089,0.0001337575343864,-3.715544476250991,2,DB
2025-07-09 21:54:25.096,0.0001348293948499,-3.073697420257636,2,DB
2025-07-09 21:54:25.104,0.0001359465268199,-2.357060768305973,2,DB
2025-07-09 21:54:25.112,0.000137000410322,-1.5731962994758908,2,DB
2025-07-09 21:54:25.120,0.0001378931173193,-0.7313964879311138,2,DB
2025-07-09 21:54:25.128,0.0001385401283473,0.15743466864218,2,DB
2025-07-09 21:54:25.135,0.0001388718482248,1.0809539029093755,2,DB
2025-07-09 21:54:25.143,0.0001388338582157,2.025602179914806,2,DB
2025-07-09 21:54:25.151,0.000138385990875,2.976875296354529,2,DB
2025-07-09 21:54:25.159,0.0001375004203002,3.919635171536543,2,DB
2025-07-09 21:54:25.167,0.0001361591114849,4.8384533650124,2,DB
2025-07-09 21:54:25.175,0.0001343510944109,5.717976609512476,2,DB
2025-07-09 21:54:25.182,0.0001320700504769,6.543302812214442,2,DB
2025-07-09 21:54:25.190,0.0001293126105855,7.300355128271431,2,DB
2025-07-09 21:54:25.198,0.0001260776131582,7.976241399589242,2,DB
2025-07-09 21:54:25.206,0.0001223664160555,8.55958650410174,2,DB
2025-07-09 21:54:25.214,0.0001181842290851,9.040825973325706,2,DB
2025-07-09 21:54:25.221,0.0001135423268357,9.41245057696748,2,DB
2025-07-09 21:54:25.229,0.0001084608977519,9.66919338101684,2,DB
2025-07-09 21:54:25.237,0.0001029721885636,9.808152969387804,2,DB
2025-07-09 21:54:25.245,9.712353986697788e-05,9.828848964848277,2,DB
2025-07-09 21:54:25.253,9.097990418430218e-05,9.733208565692273,2,DB
2025-07-09 21:54:25.260,8.462550076752902e-05,9.525485401010402,2,DB
2025-07-09 21:54:25.268,7.816437997172221e-05,9.212114475175634,2,DB
2025-07-09 21:54:25.276,7.171980759304266e-05,8.801509205621148,2,DB
2025-07-09 21:54:25.284,6.54324858387915e-05,8.303808454547065,2,DB
2025-07-09 21:54:25.292,5.945767627068854e-05,7.730582933229078,2,DB
2025-07-09 21:54:25.300,5.396130254784389e-05,7.094511366329857,2,DB
2025-07-09 21:54:25.307,4.9115132566069016e-05,6.409037331386148,2,DB
2025-07-09 21:54:25.315,4.509120094606424e-05,5.688017764486906,2,DB
2025-07-09 21:54:25.323,4.2055731395474665e-05,4.945373806615791,2,DB
2025-07-09 21:54:25.331,4.01629192686215e-05,4.194754026957242,2,DB
2025-07-09 21:54:25.339,3.954898765768681e-05,3.449219163853901,2,DB
2025-07-09 21:54:25.346,4.032690986014249e-05,2.720956420447142,2,DB
2025-07-09 21:54:25.354,4.2582117808055886e-05,2.021030075441437,2,DB
2025-07-09 21:54:25.362,4.636942711956558e-05,1.3591737475712606,2,DB
2025-07-09 21:54:25.370,5.1711316259642816e-05,0.7436281171474076,2,DB
2025-07-09 21:54:25.378,5.85975900994264e-05,0.1810263057352971,2,DB
2025-07-09 21:54:25.385,6.698634057154555e-05,-0.3236724937502808,2,DB
2025-07-09 21:54:25.393,7.680601424403607e-05,-0.7672020929571416,2,DB
2025-07-09 21:54:25.401,8.795833303304004e-05,-1.1479634719119205,2,DB
2025-07-09 21:54:25.409,0.0001003217984202,-1.4659576604029192,2,DB
2025-07-09 21:54:25.417,0.0001137555319306,-1.722681994879157,2,DB
2025-07-09 21:54:25.425,0.0001281032398173,-1.920995192606158,2,DB
2025-07-09 21:54:25.432,0.0001431971121759,-2.06495721619839,2,DB
2025-07-09 21:54:25.440,0.0001588614738566,-2.159650184252233,2,DB
2025-07-09 21:54:25.448,0.0001749160179512,-2.210986626019447,2,DB
2025-07-09 21:54:25.456,0.00019117849368,-2.225511191633024,2,DB
2025-07-09 21:54:25.464,0.0002074667967125,-2.2102015342044457,2,DB
2025-07-09 21:54:25.471,0.0002236005178953,-2.1722735093079684,2,DB
2025-07-09 21:54:25.479,0.0002394021301332,-2.118995137500256,2,DB
2025-07-09 21:54:25.487,0.0002546980952315,-2.057513001766851,2,DB
2025-07-09 21:54:25.495,0.0002693202032218,-1.994693961224316,2,DB
2025-07-09 21:54:25.503,0.0002831073920234,-1.936984306825765,2,DB
2025-07-09 21:54:25.510,0.0002959081605037,-1.8902878035592892,2,DB
2025-07-09 21:54:25.518,0.0003075835339102,-1.8598634784852377,2,DB
2025-07-09 21:54:25.526,0.0003180104059424,-1.8502435282404428,2,DB
2025-07-09 21:54:25.534,0.000327084983319,-1.8651713207842944,2,DB
2025-07-09 21:54:25.542,0.0003347260025466,-1.9075591300237056,2,DB
2025-07-09 21:54:25.550,0.0003408773776154,-1.979464938787936,2,DB
2025-07-09 21:54:25.557,0.0003455099729443,-2.082087348358068,2,DB
2025-07-09 21:54:25.565,0.0003486222779224,-2.2157773255088093,2,DB
2025-07-09 21:54:25.573,0.0003502398844415,-2.380065200965929,2,DB
2025-07-09 21:54:25.581,0.0003504138222009,-2.5737010215719978,2,DB
2025-07-09 21:54:25.589,0.0003492179514214,-2.794706077026534,2,DB
2025-07-09 21:54:25.596,0.0003467456993651,-3.040433198676928,2,DB
2025-07-09 21:54:25.604,0.0003431064310986,-3.307633290505524,2,DB
2025-07-09 21:54:25.612,0.0003384216902592,-3.592525529634496,2,DB
2025-07-09 21:54:25.620,0.0003328214794064,-3.8908687923386394,2,DB
2025-07-09 21:54:25.628,0.0003264406982222,-4.198032141158574,2,DB
2025-07-09 21:54:25.635,0.0003194158143875,-4.509062655274861,2,DB
2025-07-09 21:54:25.643,0.0003118817973389,-4.81874948946558,2,DB
2025-07-09 21:54:25.651,0.0003039693225993,-5.121683777450082,2,DB
2025-07-09 21:54:25.659,0.0002958022892669,-5.412314802198989,2,DB
2025-07-09 21:54:25.667,0.0002874957728717,-5.685003666431703,2,DB
2025-07-09 21:54:25.675,0.0002791545886932,-5.934076423629541,2,DB
2025-07-09 21:54:25.682,0.000270872599413,-6.1538791833198285,2,DB
2025-07-09 21:54:25.690,0.0002627327668835,-6.338838006409086,2,DB
2025-07-09 21:54:25.698,0.0002548077922317,-6.483526403990635,2,DB
2025-07-09 21:54:25.706,0.0002471610934045,-6.582742922469294,2,DB
2025-07-09 21:54:25.714,0.0002398478621006,-6.63160064279368,2,DB
2025-07-09 21:54:25.721,0.000232915988341,-6.625629472235783,2,DB
2025-07-09 21:54:25.729,0.0002264066944241,-6.560890920213369,2,DB
2025-07-09 21:54:25.737,0.0002203547683091,-6.434103705325091,2,DB
2025-07-09 21:54:25.745,0.0002147883467016,-6.24277713437154,2,DB
2025-07-09 21:54:25.753,0.0002097282804456,-5.985347826563572,2,DB
2025-07-09 21:54:25.760,0.0002051872025202,-5.661314128295793,2,DB
2025-07-09 21:54:25.768,0.0002011684852348,-5.271361573254444,2,DB
2025-07-09 21:54:25.776,0.0001976653050994,-4.817472076352621,2,DB
2025-07-09 21:54:25.784,0.0001946600293057,-4.30300927558755,2,DB
2025-07-09 21:54:25.792,0.0001921240960766,-3.732772596783184,2,DB
2025-07-09 21:54:25.800,0.0001900184927217,-3.113013232986936,2,DB
2025-07-09 21:54:25.807,0.0001882948644333,-2.4514063022331727,2,DB
2025-07-09 21:54:25.815,0.0001868972283163,-1.7569749498413243,2,DB
2025-07-09 21:54:25.823,0.0001857642090095,-1.0399640428144954,2,DB
2025-07-09 21:54:25.831,0.0001848316345727,-0.3116632853652527,2,DB
2025-07-09 21:54:25.839,0.0001840352377612,0.4158180361421019,2,DB
2025-07-09 21:54:25.846,0.0001833131337262,1.1298200118997108,2,DB
2025-07-09 21:54:25.854,0.0001826077367002,1.8174376942531825,2,DB
2025-07-09 21:54:25.862,0.0001818668579952,2.4658540077176263,2,DB
2025-07-09 21:54:25.870,0.0001810438694866,3.0626887801247973,2,DB
2025-07-09 21:54:25.878,0.0001800969597327,3.596351256313824,2,DB
2025-07-09 21:54:25.885,0.0001789876044989,4.056382614957982,2,DB
2025-07-09 21:54:25.893,0.000177678416068,4.433774863385823,2,DB
2025-07-09 21:54:25.901,0.0001761305670076,4.721253087008941,2,DB
2025-07-09 21:54:25.909,0.0001743010467163,4.9135093660657,2,DB
2025-07-09 21:54:25.917,0.0001721400924147,5.007378658128783,2,DB
2025-07-09 21:54:25.925,0.0001695891782688,5.001949434473364,2,DB
2025-07-09 21:54:25.932,0.000166579901134,4.898604669002918,2,DB
2025-07-09 21:54:25.940,0.0001630339832673,4.700991717434444,2,DB
2025-07-09 21:54:25.948,0.0001588644691975,4.414922512660007,2,DB
2025-07-09 21:54:25.956,0.000153978063247,4.048208189343714,2,DB
2025-07-09 21:54:25.964,0.0001482784518023,3.6104346243301855,2,DB
2025-07-09 21:54:25.971,0.0001416703853956,3.112687365689096,2,DB
