Timestamp,GSR_Filtered,PPG_Filtered
2025-05-26 15:26:46.718,-0.0003021508573334,-90.84049892904288
2025-05-26 15:26:46.726,-0.0002972725450881,-91.91508856353543
2025-05-26 15:26:46.734,-0.0002922001510073,-92.97607565117534
2025-05-26 15:26:46.741,-0.0002866951145495,-93.99481474334158
2025-05-26 15:26:46.749,-0.0002805338486525,-94.93997410638514
2025-05-26 15:26:46.757,-0.0002735165650337,-95.7781581009571
2025-05-26 15:26:46.765,-0.0002654756313431,-96.47463769486416
2025-05-26 15:26:46.773,-0.0002562830748861,-96.99417248614286
2025-05-26 15:26:46.781,-0.0002458568542859,-97.30190300786668
2025-05-26 15:26:46.788,-0.0002341655907686,-97.36428803481128
2025-05-26 15:26:46.796,-0.0002212315460557,-97.15005833139618
2025-05-26 15:26:46.804,-0.0002071317407441,-96.63115596425662
2025-05-26 15:26:46.812,-0.000191997226494,-95.78362712005055
2025-05-26 15:26:46.820,-0.0001760106302213,-94.58843645472696
2025-05-26 15:26:46.827,-0.0001594021408697,-93.03217243967298
2025-05-26 15:26:46.835,-0.0001424441106299,-91.10761598269998
2025-05-26 15:26:46.843,-0.0001254444284029,-88.81414873477922
2025-05-26 15:26:46.851,-0.0001087388169765,-86.15798281917333
2025-05-26 15:26:46.859,-9.268219838039754e-05,-83.15220003274571
2025-05-26 15:26:46.866,-7.763925389856396e-05,-79.81659558622337
2025-05-26 15:26:46.874,-6.397430013823125e-05,-76.17732882367032
2025-05-26 15:26:46.882,-5.204065452859898e-05,-72.26639071189443
2025-05-26 15:26:46.890,-4.2169781629348704e-05,-68.12090484253463
2025-05-26 15:26:46.898,-3.466064468742952e-05,-63.782284899025086
2025-05-26 15:26:46.906,-2.976976180284113e-05,-59.29527671236472
2025-05-26 15:26:46.913,-2.7702445567568827e-05,-54.70691693224977
2025-05-26 15:26:46.921,-2.860560873236725e-05,-50.065442819433855
2025-05-26 15:26:46.929,-3.2562392823699124e-05,-45.41918865042501
2025-05-26 15:26:46.937,-3.958875589732104e-05,-40.815503725685794
2025-05-26 15:26:46.945,-4.96320523413857e-05,-36.29972506833888
2025-05-26 15:26:46.952,-6.257155373619203e-05,-31.91423474087636
2025-05-26 15:26:46.960,-7.82207946532873e-05,-27.697627504177916
2025-05-26 15:26:46.968,-9.63315796128894e-05,-23.684009555413496
2025-05-26 15:26:46.976,-0.0001165994553122,-19.902443590475173
2025-05-26 15:26:46.984,-0.0001386704333657,-16.376549720818783
2025-05-26 15:26:46.991,-0.0001621487405846,-13.124266093001651
2025-05-26 15:26:46.999,-0.0001866053736106,-10.157767642704204
2025-05-26 15:26:47.007,-0.0002115872399137,-7.483536459177938
2025-05-26 15:26:47.015,-0.0002366266754015,-5.102572893248695
2025-05-26 15:26:47.023,-0.0002612511381364,-3.010732917482261
2025-05-26 15:26:47.031,-0.0002849928863439,-1.199174402263242
2025-05-26 15:26:47.038,-0.0003073984559645,0.3451070695493545
2025-05-26 15:26:47.046,-0.000328037757978,1.6386734734434438
2025-05-26 15:26:47.054,-0.0003465126187292,2.7009918178887427
2025-05-26 15:26:47.062,-0.0003624645882126,3.553754753410523
2025-05-26 15:26:47.070,-0.000375581842968,4.220194465472875
2025-05-26 15:26:47.077,-0.0003856050136186,4.724408719019067
2025-05-26 15:26:47.085,-0.0003923317742423,5.090716229464268
2025-05-26 15:26:47.093,-0.0003956200440504,5.343056511380185
2025-05-26 15:26:47.101,-0.0003953896737337,5.504447075848678
2025-05-26 15:26:47.109,-0.0003916225217657,5.59650837840605
2025-05-26 15:26:47.116,-0.000384360872181,5.926001838808536
2025-05-26 15:26:47.124,-0.0003737042067825,6.2910092621485925
2025-05-26 15:26:47.132,-0.0003598044227763,6.706088705520499
2025-05-26 15:26:47.140,-0.0003428596806029,7.18311696124405
2025-05-26 15:26:47.148,-0.0003231071665177,7.731119586740887
2025-05-26 15:26:47.156,-0.0003008151371035,8.356190937689842
2025-05-26 15:26:47.163,-0.000276274653992,9.061500615000991
2025-05-26 15:26:47.171,-0.0002497914081429,9.847380155388068
2025-05-26 15:26:47.179,-0.0002216779769129,10.711481598530677
2025-05-26 15:26:47.187,-0.0001922467581063,11.648997842288791
2025-05-26 15:26:47.195,-0.0001618036985237,12.652933508186283
2025-05-26 15:26:47.202,-0.0001306428108377,13.714414400364188
2025-05-26 15:26:47.210,-9.904138046913556e-05,14.823023535322372
2025-05-26 15:26:47.218,-6.7255717537481e-05,15.967152100810306
2025-05-26 15:26:47.226,-3.5517310164461164e-05,17.134354500648676
2025-05-26 15:26:47.234,-4.0292748254693945e-06,18.311697772748165
2025-05-26 15:26:47.241,2.70369455464284e-05,19.4860970380112
2025-05-26 15:26:47.249,5.7544631318023497e-05,20.644630156642187
2025-05-26 15:26:47.257,8.739451804080045e-05,21.774826349219296
2025-05-26 15:26:47.265,0.0001165270655867,22.86492510370191
2025-05-26 15:26:47.273,0.0001449240492459,23.90410316614108
2025-05-26 15:26:47.281,0.0001726092351939,24.882668741640074
2025-05-26 15:26:47.288,0.0001996479288293,25.792223162439107
2025-05-26 15:26:47.296,0.0002261452233887,26.625791169829075
2025-05-26 15:26:47.304,0.0002522427985127,27.37792157053793
2025-05-26 15:26:47.312,0.0002781141246492,28.044760340911655
2025-05-26 15:26:47.320,0.0003039579514763,28.62409825935135
2025-05-26 15:26:47.327,0.0003299900414404,29.11539487465301
2025-05-26 15:26:47.335,0.0003564332641923,29.519780115991853
2025-05-26 15:26:47.343,0.0003835063454774,29.840034182148752
2025-05-26 15:26:47.351,0.000411411700409,30.08054558078676
2025-05-26 15:26:47.359,0.0004403228616246,30.247246398779637
2025-05-26 15:26:47.366,0.0004703720688882,30.347523158928308
2025-05-26 15:26:47.374,0.000501638637043,30.390101049793103
2025-05-26 15:26:47.382,0.0005341387482336,30.38489899018005
2025-05-26 15:26:47.390,0.0005678172986224,30.342852977261224
2025-05-26 15:26:47.398,0.0006025423586971,30.275705513689164
2025-05-26 15:26:47.406,0.0006381026805564,30.19575963463618
2025-05-26 15:26:47.413,0.0006742085176791,30.11559715283124
2025-05-26 15:26:47.421,0.0007104958395587,30.0477621732216
2025-05-26 15:26:47.429,0.0007465338543245,30.004412638914392
2025-05-26 15:26:47.437,0.0007818356111248,29.9969445766031
2025-05-26 15:26:47.445,0.0008158713440933,30.03559571863567
2025-05-26 15:26:47.452,0.0008480841438066,30.1290371877223
2025-05-26 15:26:47.460,0.0008779074923618,30.28396383317827
2025-05-26 15:26:47.468,0.000904784151614,30.504695499685248
2025-05-26 15:26:47.476,0.0009281858299896,30.792802890805824
2025-05-26 15:26:47.484,0.0009476329653661,31.14677266846162
2025-05-26 15:26:47.491,0.0009627138550362,31.56172692657112
2025-05-26 15:26:47.499,0.0009731022569779,32.029212126621275
2025-05-26 15:26:47.507,0.0009785725197985,32.53707193752935
2025-05-26 15:26:47.515,0.0009790113243771,33.06941715554596
2025-05-26 15:26:47.523,0.0009744252654045,33.60670398594354
2025-05-26 15:26:47.531,0.0009649437432109,34.12592945408532
2025-05-26 15:26:47.538,0.0009508169269865,34.60094959864906
2025-05-26 15:26:47.546,0.0009324088526804,35.00292242677922
2025-05-26 15:26:47.554,0.0009101860162521,35.300873458815325
2025-05-26 15:26:47.562,0.0008847021074389,35.462377177735306
2025-05-26 15:26:47.570,0.0008565797846276,35.454342976966814
2025-05-26 15:26:47.577,0.0008264905809359,35.24388944610768
2025-05-26 15:26:47.585,0.0007951341070404,34.799286244614535
2025-05-26 15:26:47.593,0.0007632176556726,34.090938602979804
2025-05-26 15:26:47.601,0.0007314371437678,33.09238588306373
2025-05-26 15:26:47.609,0.0007004601045786,31.781282845073857
2025-05-26 15:26:47.616,0.000670911205268,30.14033051144392
2025-05-26 15:26:47.624,0.0006433605355222,28.158122957168917
2025-05-26 15:26:47.632,0.0006183146986096,25.829877111640645
2025-05-26 15:26:47.640,0.0005962105441089,23.158014782630445
2025-05-26 15:26:47.648,0.0005774112174715,20.152569586873955
2025-05-26 15:26:47.656,0.0005622040801364,16.831396197416588
2025-05-26 15:26:47.663,0.0005508000070995,13.220165137045887
2025-05-26 15:26:47.671,0.0005433336288107,9.352133053459273
2025-05-26 15:26:47.679,0.0005398642349927,5.267685760499123
2025-05-26 15:26:47.687,0.0005403772212682,1.0136590452278127
2025-05-26 15:26:47.695,0.0005447860566236,-3.357549971143029
2025-05-26 15:26:47.702,0.0005529347647694,-7.789060565345876
2025-05-26 15:26:47.710,0.0005646008862597,-12.220747827819418
2025-05-26 15:26:47.718,0.0005794988796483,-16.590610076990245
2025-05-26 15:26:47.726,0.0005972839708834,-20.836225346162635
2025-05-26 15:26:47.734,0.0006175565566334,-24.89625403985708
2025-05-26 15:26:47.741,0.0006398673351497,-28.71194233191734
2025-05-26 15:26:47.749,0.0006637233145257,-32.22857994462453
2025-05-26 15:26:47.757,0.000688594753244,-35.39686668565896
2025-05-26 15:26:47.765,0.0007139230020978,-38.1741445392349
2025-05-26 15:26:47.773,0.0007391291943112,-40.52545614636148
2025-05-26 15:26:47.781,0.0007636237591824,-42.42439603138708
2025-05-26 15:26:47.788,0.0007868167669973,-43.85372773657351
2025-05-26 15:26:47.796,0.0008081291141333,-44.80574785427332
2025-05-26 15:26:47.804,0.0008270045149064,-45.282386486476426
2025-05-26 15:26:47.812,0.0008429221804814,-45.29504256139246
2025-05-26 15:26:47.820,0.0008554099402593,-44.864161321146014
2025-05-26 15:26:47.827,0.0008640574146423,-44.01856979366229
2025-05-26 15:26:47.835,0.0008685287195919,-42.79459383928048
2025-05-26 15:26:47.843,0.0008685741239159,-41.234987135777565
2025-05-26 15:26:47.851,0.0008640401077358,-39.38770801159895
2025-05-26 15:26:47.859,0.0008548773434124,-37.30458419196307
2025-05-26 15:26:47.867,0.0008411461808053,-35.03990817773454
2025-05-26 15:26:47.874,0.0008230192592962,-32.64900707902718
2025-05-26 15:26:47.882,0.0008007809267747,-30.186830276394584
2025-05-26 15:26:47.890,0.0007748232445741,-27.7065963414812
2025-05-26 15:26:47.898,0.0007456384853133,-25.258537334438167
2025-05-26 15:26:47.906,0.0007138081665974,-22.888774082578312
2025-05-26 15:26:47.913,0.0006799887972292,-20.638350556631124
2025-05-26 15:26:47.921,0.0006448946415487,-18.542449252338148
2025-05-26 15:26:47.929,0.000609277930566,-16.629802826363633
2025-05-26 15:26:47.937,0.0005739070640761,-14.922310399942768
2025-05-26 15:26:47.945,0.0005395434538049,-13.434860196555382
2025-05-26 15:26:47.952,0.0005069177511637,-12.175353764986124
2025-05-26 15:26:47.960,0.0004767062795288,-11.144921163957228
2025-05-26 15:26:47.968,0.0004495085367513,-10.338311309545466
2025-05-26 15:26:47.976,0.0004258266241605,-9.744437323906569
2025-05-26 15:26:47.984,0.0004060473782014,-9.347053243998506
2025-05-26 15:26:47.992,0.0003904278520869,-9.125535888400462
2025-05-26 15:26:47.999,0.000379084663226,-9.055744044754626
2025-05-26 15:26:48.007,0.0003719876100372,-9.11092640830742
2025-05-26 15:26:48.015,0.0003689578542172,-9.26264983144499
2025-05-26 15:26:48.023,0.0003696708379706,-9.48172037982827
2025-05-26 15:26:48.031,0.0003736639499807,-9.739071367212349
2025-05-26 15:26:48.038,0.0003803487761927,-10.006594880602435
2025-05-26 15:26:48.046,0.0003890275930108,-10.257896218805438
2025-05-26 15:26:48.054,0.0003989135963739,-10.468954047302768
2025-05-26 15:26:48.062,0.0004091541994917,-10.618672806776749
2025-05-26 15:26:48.070,0.0004188565629145,-10.6893178767568
2025-05-26 15:26:48.077,0.0004271143683046,-10.666828054126029
2025-05-26 15:26:48.085,0.0004330347520856,-10.541003916969178
2025-05-26 15:26:48.093,0.0004357642887747,-10.305574469372864
2025-05-26 15:26:48.101,0.0004345129536065,-9.958147977476605
2025-05-26 15:26:48.109,0.0004285751140067,-9.500056004105929
2025-05-26 15:26:48.117,0.0004173468084959,-8.93610223939643
2025-05-26 15:26:48.124,0.0004003388405463,-8.274229738515412
2025-05-26 15:26:48.132,0.0003771854922304,-7.525121570816099
2025-05-26 15:26:48.140,0.0003476489101548,-6.701750643805104
2025-05-26 15:26:48.148,0.0003116194190829,-5.8188946087307984
2025-05-26 15:26:48.156,0.0002691121736633,-4.8926313332895255
2025-05-26 15:26:48.163,0.0002202606663231,-3.9398295226254234
2025-05-26 15:26:48.171,0.0001653076720453,-2.9776477888759256
2025-05-26 15:26:48.179,0.0001045942323889,-2.0230539297198638
2025-05-26 15:26:48.187,3.854726696877722e-05,-1.0923744907029054
2025-05-26 15:26:48.195,-3.233364311610458e-05,-0.2008829537019599
2025-05-26 15:26:48.202,-0.000107489821906,0.6375667999604129
2025-05-26 15:26:48.210,-0.0001863170193963,1.4108566879460636
2025-05-26 15:26:48.218,-0.0002681785813723,2.1088666511136247
2025-05-26 15:26:48.226,-0.0003524180555504,2.7236805226886425
2025-05-26 15:26:48.234,-0.0004383711093452,3.2497342539311904
2025-05-26 15:26:48.242,-0.0005253767128126,3.683906160250244
2025-05-26 15:26:48.249,-0.0006127876043631,4.025549686458231
2025-05-26 15:26:48.257,-0.0006999801034801,4.2764699269965165
2025-05-26 15:26:48.265,-0.000786363361935,4.440845797197979
2025-05-26 15:26:48.273,-0.0008713881521839,4.525100354474883
2025-05-26 15:26:48.281,-0.0009545552793775,4.537722324838925
2025-05-26 15:26:48.288,-0.0010354236735844,4.4890423989334565
2025-05-26 15:26:48.296,-0.0011136181744224,4.390968314277433
2025-05-26 15:26:48.304,-0.0011888369653562,4.25668313313309
2025-05-26 15:26:48.312,-0.0012608585543033,4.100311467968375
2025-05-26 15:26:48.320,-0.0013295481363889,3.936558720607573
2025-05-26 15:26:48.327,-0.0013948631195629,3.780328715207285
2025-05-26 15:26:48.335,-0.0014568575503351,3.6463254501641713
2025-05-26 15:26:48.343,-0.0015156851493001,3.5486450987166607
2025-05-26 15:26:48.351,-0.0015716006501114,3.5003648707557704
2025-05-26 15:26:48.359,-0.0016249591135817,3.513135910940885
2025-05-26 15:26:48.367,-0.0016762128434449,3.5967880360117217
2025-05-26 15:26:48.374,-0.0017259054702196,3.758954779593078
2025-05-26 15:26:48.382,-0.0017746627326335,4.004727874447438
2025-05-26 15:26:48.390,-0.0018231795141899,4.336350901149533
2025-05-26 15:26:48.398,-0.001872202800597,4.752962294207487
2025-05-26 15:26:48.406,-0.0019225103990856,5.250398142968229
2025-05-26 15:26:48.413,-0.0019748854888839,5.821065182929438
2025-05-26 15:26:48.421,-0.0020300873381299,6.453893979030536
2025-05-26 15:26:48.429,-0.0020888187861874,7.134381494781147
2025-05-26 15:26:48.437,-0.0021516913060464,7.844730960469204
2025-05-26 15:26:48.445,-0.0022191886251483,8.564095151035458
2025-05-26 15:26:48.452,-0.0022916300338011,9.268926832184892
2025-05-26 15:26:48.460,-0.0023691346934476,9.933437234013317
2025-05-26 15:26:48.468,-0.0024515884858506,10.530159997917728
2025-05-26 15:26:48.476,-0.0025386151739552,11.03061417930395
2025-05-26 15:26:48.484,-0.0026295537843076,11.406055674671451
2025-05-26 15:26:48.492,-0.0027234440902459,11.628302014771704
2025-05-26 15:26:48.499,-0.0028190218597666,11.67061100367352
2025-05-26 15:26:48.507,-0.0029147251774338,11.508589403415083
2025-05-26 15:26:48.515,-0.0030087127179103,11.121104016800343
2025-05-26 15:26:48.523,-0.0030988943836621,10.491164383929272
2025-05-26 15:26:48.531,-0.0031829742426306,9.606744165798222
2025-05-26 15:26:48.538,-0.0032585052167261,8.461507404190913
2025-05-26 15:26:48.546,-0.0033229544615843,7.055406432978556
2025-05-26 15:26:48.554,-0.0033737778149449,5.395120410942906
2025-05-26 15:26:48.562,-0.0034085010754923,3.494307305435927
2025-05-26 15:26:48.570,-0.0034248052585113,1.373647639785353
2025-05-26 15:26:48.577,-0.0034206124460777,-0.9393347239982764
2025-05-26 15:26:48.585,-0.0033941684932211,-3.410681328007056
2025-05-26 15:26:48.593,-0.003344118721009,-6.000634941319686
2025-05-26 15:26:48.601,-0.0032695728257988,-8.664490618629198
2025-05-26 15:26:48.609,-0.0031701555344963,-11.353640845135253
2025-05-26 15:26:48.617,-0.0030460400303597,-14.016784901054782
2025-05-26 15:26:48.624,-0.0028979618840806,-16.601264919229767
2025-05-26 15:26:48.632,-0.0027272121641374,-19.054484920808093
2025-05-26 15:26:48.640,-0.0025356095390346,-21.32536473094441
2025-05-26 15:26:48.648,-0.0023254524409976,-23.36577833726271
2025-05-26 15:26:48.656,-0.0020994536057729,-25.131926092534016
2025-05-26 15:26:48.663,-0.0018606603625948,-26.58559220226264
2025-05-26 15:26:48.671,-0.0016123647511744,-27.695243080731355
2025-05-26 15:26:48.679,-0.0013580078142194,-28.436928188073715
2025-05-26 15:26:48.687,-0.0011010823208811,-28.794952553412458
2025-05-26 15:26:48.695,-0.0008450378513049,-28.76229894582977
2025-05-26 15:26:48.702,-0.0005931917126886,-28.3407871304229
2025-05-26 15:26:48.710,-0.0003486486085612,-27.540967376357333
2025-05-26 15:26:48.718,-0.0001142313715985,-26.38175491416834
2025-05-26 15:26:48.726,0.0001075755830506,-24.889820962141663
2025-05-26 15:26:48.734,0.0003146690958925,-23.098763920370285
2025-05-26 15:26:48.742,0.0005053560415046,-21.048091113986157
2025-05-26 15:26:48.749,0.000678368246106,-18.78204688319109
2025-05-26 15:26:48.757,0.0008328641818477,-16.34832676770921
2025-05-26 15:26:48.765,0.0009684184266513,-13.79671997946702
2025-05-26 15:26:48.773,0.0010850001935585,-11.177723314819724
2025-05-26 15:26:48.781,0.0011829425430849,-8.541169185746924
2025-05-26 15:26:48.788,0.0012629041731045,-5.934908643761453
2025-05-26 15:26:48.796,0.0013258258753044,-3.403587257435854
2025-05-26 15:26:48.804,0.0013728838110046,-0.987547638119034
2025-05-26 15:26:48.812,0.0014054416858293,1.2781125354872809
2025-05-26 15:26:48.820,0.0014250037011521,3.36430377294557
2025-05-26 15:26:48.827,0.0014331698326266,5.248512202625432
2025-05-26 15:26:48.835,0.0014315945555963,6.915160473085887
2025-05-26 15:26:48.843,0.0014219496793497,8.35575791221785
2025-05-26 15:26:48.851,0.0014058915630085,9.568842124780405
2025-05-26 15:26:48.859,0.0013850327194306,10.559720330521634
2025-05-26 15:26:48.867,0.0013609176639053,11.340024433843269
2025-05-26 15:26:48.874,0.0013350027886983,11.927098923751227
2025-05-26 15:26:48.882,0.001308639993881,12.343245091231672
2025-05-26 15:26:48.890,0.0012830637575781,12.614848593895388
2025-05-26 15:26:48.898,0.0012593812991528,12.7714199896927
2025-05-26 15:26:48.906,0.0012385654895056,12.84457943055248
2025-05-26 15:26:48.913,0.001221450169909,12.867017221566751
2025-05-26 15:26:48.921,0.0012087275200659,12.87146142406226
2025-05-26 15:26:48.929,0.0012009470754386,12.88968216782249
2025-05-26 15:26:48.937,0.0011985159887074,12.951559936722628
2025-05-26 15:26:48.945,0.0012017002025643,13.084241934480374
2025-05-26 15:26:48.952,0.0012106263310058,13.311406875937209
2025-05-26 15:26:48.960,0.0012252841804779,13.65265434869729
2025-05-26 15:26:48.968,0.0012455299495738,14.123030421362868
2025-05-26 15:26:48.976,0.0012710902288361,14.732696613585556
2025-05-26 15:26:48.984,0.0013015669934792,15.486744863697169
2025-05-26 15:26:48.992,0.0013364438450954,16.3851568934942
2025-05-26 15:26:48.999,0.0013750938061376,17.42290251441
2025-05-26 15:26:49.007,0.0014167889963863,18.59016804927103
2025-05-26 15:26:49.015,0.0014607125195694,19.872703225195018
2025-05-26 15:26:49.023,0.0015059728547291,21.25227265173365
2025-05-26 15:26:49.031,0.0015516209763732,22.707196320833017
2025-05-26 15:26:49.038,0.0015966703108712,24.21296240550289
2025-05-26 15:26:49.046,0.0016401194527214,25.742894926333477
2025-05-26 15:26:49.054,0.001680977305111,27.268858530510236
2025-05-26 15:26:49.062,0.0017182900077822,28.761982629044454
2025-05-26 15:26:49.070,0.0017511687286379,30.1933874223932
2025-05-26 15:26:49.077,0.0017788171684422,31.534894883883887
2025-05-26 15:26:49.085,0.0018005574829798,32.759708547865536
2025-05-26 15:26:49.093,0.0018158532751719,33.84304696032341
2025-05-26 15:26:49.101,0.0018243283581578,34.76271689421773
2025-05-26 15:26:49.109,0.0018257801439546,35.49961390422582
2025-05-26 15:26:49.117,0.001820186771286,36.03813947806434
2025-05-26 15:26:49.124,0.0018077074379702,36.36652591010884
2025-05-26 15:26:49.132,0.0017886758097493,36.4770620563921
2025-05-26 15:26:49.140,0.0017635867776867,36.36621531253803
2025-05-26 15:26:49.148,0.0017330771778214,36.034647474124064
2025-05-26 15:26:49.156,0.0016979013550647,35.48712457654719
2025-05-26 15:26:49.163,0.001658902660459,34.73232334714547
2025-05-26 15:26:49.171,0.0016169821256689,33.782539502821145
2025-05-26 15:26:49.179,0.0015730656625078,32.65330573785446
2025-05-26 15:26:49.187,0.0015280711906901,31.36292978940609
2025-05-26 15:26:49.195,0.0014828770967735,29.93196534287606
2025-05-26 15:26:49.202,0.0014382933504103,28.38263064063904
2025-05-26 15:26:49.210,0.00139503643425,26.738191386917286
2025-05-26 15:26:49.218,0.0013537089897739,25.02232581067229
2025-05-26 15:26:49.226,0.0013147847828529,23.25849048257533
2025-05-26 15:26:49.234,0.0012785993049723,21.469305627148707
2025-05-26 15:26:49.242,0.0012453460797945,19.675978203423952
2025-05-26 15:26:49.249,0.00121507852473,17.89777995691798
2025-05-26 15:26:49.257,0.001187716993675,16.151596008129744
2025-05-26 15:26:49.265,0.001163060404345,14.4515573898124
2025-05-26 15:26:49.273,0.0011408016717931,12.808768343665292
2025-05-26 15:26:49.281,0.0011205460626365,11.231136223741544
2025-05-26 15:26:49.288,0.0011018315527725,9.723308635032888
2025-05-26 15:26:49.296,0.0010841502920453,8.286719075568303
2025-05-26 15:26:49.304,0.0010669703265796,6.919738958210348
2025-05-26 15:26:49.312,0.0010497567886649,5.617930562769877
2025-05-26 15:26:49.320,0.0010319918322834,4.374392298501389
2025-05-26 15:26:49.327,0.0010131926688914,3.180184721076561
2025-05-26 15:26:49.335,0.0009929271492164,2.02482311732305
2025-05-26 15:26:49.343,0.0009708264637939,0.8968202070341826
2025-05-26 15:26:49.351,0.0009465947084793,-0.2157393293097647
2025-05-26 15:26:49.359,0.0009200152533887,-1.32461214685519
2025-05-26 15:26:49.367,0.0008909540154088,-2.440817820729114
2025-05-26 15:26:49.374,0.0008593598325485,-3.574089385574224
2025-05-26 15:26:49.382,0.000825262173559,-4.732373024121707
2025-05-26 15:26:49.390,0.0007887664225016,-5.921395889275467
2025-05-26 15:26:49.398,0.0007500470050976,-7.144319055371458
2025-05-26 15:26:49.406,0.000709338697897,-8.401489816620524
2025-05-26 15:26:49.413,0.0006669265610919,-9.690304026855324
2025-05-26 15:26:49.421,0.0006231350156586,-11.005185008771898
2025-05-26 15:26:49.429,0.0005783166133106,-12.337680916756348
2025-05-26 15:26:49.437,0.0005328410157002,-13.676677530362172
2025-05-26 15:26:49.445,0.000487084619346,-15.00871854215312
2025-05-26 15:26:49.452,0.0004414211627998,-16.318420767078987
2025-05-26 15:26:49.460,0.0003962135607452,-17.588967624956048
2025-05-26 15:26:49.468,0.0003518071306042,-18.802660984721797
2025-05-26 15:26:49.476,0.0003085242932716,-19.94150919966276
2025-05-26 15:26:49.484,0.0002666607311596,-20.98782802229037
2025-05-26 15:26:49.492,0.0002264828904138,-21.92483110270531
2025-05-26 15:26:49.499,0.0001882266442985,-22.73718790288489
2025-05-26 15:26:49.507,0.0001520968933044,-23.41152898507757
2025-05-26 15:26:49.515,0.0001182678440413,-23.936881580547706
2025-05-26 15:26:49.523,8.688367233018453e-05,-24.30502190485242
2025-05-26 15:26:49.531,5.805925756114158e-05,-24.51073463394968
2025-05-26 15:26:49.538,3.188070907746046e-05,-24.5519740715602
2025-05-26 15:26:49.546,8.405490245608281e-06,-24.429925617012454
2025-05-26 15:26:49.554,-1.2337958233938038e-05,-24.14897000044084
2025-05-26 15:26:49.562,-3.035111498353133e-05,-23.71655622899626
2025-05-26 15:26:49.570,-4.566674243778629e-05,-23.142992150205146
2025-05-26 15:26:49.577,-5.83505961695238e-05,-22.44116388526685
2025-05-26 15:26:49.585,-6.850330430449632e-05,-21.62619705516673
2025-05-26 15:26:49.593,-7.626223244259059e-05,-20.71507370136295
2025-05-26 15:26:49.601,-8.180318165571463e-05,-19.72621911868326
2025-05-26 15:26:49.609,-8.534181045117954e-05,-18.67907253292335
2025-05-26 15:26:49.617,-8.713468017822591e-05,-17.593654756838674
2025-05-26 15:26:49.624,-8.747977541039104e-05,-16.490144752977688
2025-05-26 15:26:49.632,-8.671627223625764e-05,-15.388475541665452
2025-05-26 15:26:49.640,-8.522326789906618e-05,-14.307958243082942
2025-05-26 15:26:49.648,-8.341718074719147e-05,-13.266941346373084
2025-05-26 15:26:49.656,-8.174759084498211e-05,-12.282510637652212
2025-05-26 15:26:49.663,-8.06914074281118e-05,-11.37023363677742
2025-05-26 15:26:49.671,-8.074538312017088e-05,-10.543950904481292
2025-05-26 15:26:49.679,-8.24170959014468e-05,-9.815615186030586
2025-05-26 15:26:49.687,-8.621456135449724e-05,-9.1951780475738
2025-05-26 15:26:49.695,-9.263464024794092e-05,-8.690522430261517
2025-05-26 15:26:49.702,-0.0001021504144121,-8.307438399618437
2025-05-26 15:26:49.710,-0.000115197747723,-8.049638329228808
2025-05-26 15:26:49.718,-0.0001321613363615,-7.918806874257016
2025-05-26 15:26:49.726,-0.0001533606772026,-7.91468041284057
2025-05-26 15:26:49.734,-0.0001790365256214,-8.035150202760043
2025-05-26 15:26:49.742,-0.0002093385321193,-8.27638334155745
2025-05-26 15:26:49.749,-0.0002443147862499,-8.63295574111978
2025-05-26 15:26:49.757,-0.0002839039268964,-9.097991731096998
2025-05-26 15:26:49.765,-0.0003279303214069,-9.663305573238894
2025-05-26 15:26:49.773,-0.000376102627726,-10.319541068409784
2025-05-26 15:26:49.781,-0.0004280158880594,-11.056306522286969
2025-05-26 15:26:49.788,-0.0004831571840945,-11.862303542175368
2025-05-26 15:26:49.796,-0.0005409147909971,-12.725449385550869
2025-05-26 15:26:49.804,-0.0006005906618872,-13.63299377286724
2025-05-26 15:26:49.812,-0.0006614159528936,-14.571632107332578
2025-05-26 15:26:49.820,-0.0007225691866409,-15.52761781674893
2025-05-26 15:26:49.827,-0.0007831965489301,-16.486876976050695
2025-05-26 15:26:49.835,-0.0008424336936846,-17.435128446109257
2025-05-26 15:26:49.843,-0.0008994282984977,-18.358012471230666
2025-05-26 15:26:49.851,-0.0009533625082283,-19.241230042910743
2025-05-26 15:26:49.859,-0.0010034743615356,-20.070694418100267
2025-05-26 15:26:49.867,-0.0010490773271401,-20.832695057817546
2025-05-26 15:26:49.874,-0.0010895771852398,-21.51407302187937
2025-05-26 15:26:49.882,-0.0011244856639491,-22.102405613790424
2025-05-26 15:26:49.890,-0.0011534304537903,-22.586196902083312
2025-05-26 15:26:49.898,-0.0011761614474537,-22.955069721055125
2025-05-26 15:26:49.906,-0.0011925532631232,-23.19995392859218
2025-05-26 15:26:49.913,-0.0012026042731617,-23.313265109692708
2025-05-26 15:26:49.921,-0.0012064324419882,-23.28906759009513
2025-05-26 15:26:49.929,-0.001204268289285,-23.123215592468632
2025-05-26 15:26:49.937,-0.0011964453004828,-22.813466654709565
2025-05-26 15:26:49.945,-0.0011833881479587,-22.359562051733302
2025-05-26 15:26:49.952,-0.0011655991325352,-21.763269908546587
2025-05-26 15:26:49.960,-0.0011436432529133,-21.02838791973893
2025-05-26 15:26:49.968,-0.0011181322580818,-20.160704027198037
2025-05-26 15:26:49.976,-0.0010897079756383,-19.167914965862096
2025-05-26 15:26:49.984,-0.001059025175037,-18.059504170619256
2025-05-26 15:26:49.992,-0.001026734235433,-16.846582044925682
2025-05-26 15:26:49.999,-0.000993463945643,-15.54169292250942
2025-05-26 15:26:50.007,-0.000959804857411,-14.158594120497284
2025-05-26 15:26:50.015,-0.0009262937080122,-12.71201322793042
2025-05-26 15:26:50.023,-0.0008933994757657,-11.21739017758997
2025-05-26 15:26:50.031,-0.0008615116075863,-9.690610723318583
2025-05-26 15:26:50.038,-0.0008309308825959,-8.14773772315541
2025-05-26 15:26:50.046,-0.0008018632872036,-6.604746157741223
2025-05-26 15:26:50.054,-0.0007744171859991,-5.077267150682548
2025-05-26 15:26:50.062,-0.0007486039671366,-3.5803454664849137
2025-05-26 15:26:50.070,-0.0007243422134585,-2.128214107209464
2025-05-26 15:26:50.077,-0.000701465303026,-0.7340887735712246
2025-05-26 15:26:50.085,-0.0006797321772293,0.590015841860233
2025-05-26 15:26:50.093,-0.0006588408440228,1.833446651547722
2025-05-26 15:26:50.101,-0.0006384440358986,2.987048926905406
2025-05-26 15:26:50.109,-0.000618166342643,4.043278855985403
2025-05-26 15:26:50.117,-0.0005976220989952,4.996291761262927
2025-05-26 15:26:50.124,-0.000576433328444,5.842005881408504
2025-05-26 15:26:50.132,-0.0005542471229657,6.578141531519865
2025-05-26 15:26:50.140,-0.0005307519595823,7.204235273712479
2025-05-26 15:26:50.148,-0.0005056925811245,7.721628510129319
2025-05-26 15:26:50.156,-0.0004788831507879,8.13342970944679
2025-05-26 15:26:50.163,-0.0004502184033097,8.444449344540834
2025-05-26 15:26:50.171,-0.0004196824838671,8.661106594572498
2025-05-26 15:26:50.179,-0.0003873551380582,8.791306986158784
2025-05-26 15:26:50.187,-0.0003534149286598,8.844290446963177
2025-05-26 15:26:50.195,-0.0003181392209095,8.830449743401335
2025-05-26 15:26:50.202,-0.0002819007981242,8.761119982767667
2025-05-26 15:26:50.210,-0.0002451611303664,8.648340776689576
2025-05-26 15:26:50.218,-0.0002084604845902,8.504593771396618
2025-05-26 15:26:50.226,-0.000172405185777,8.342519517675496
2025-05-26 15:26:50.234,-0.0001376523896651,8.174619022995925
2025-05-26 15:26:50.242,-0.0001048927312056,8.012946715759131
2025-05-26 15:26:50.249,-7.48312152435329e-05,7.868802848541523
2025-05-26 15:26:50.257,-4.816674824658243e-05,7.752434453590501
2025-05-26 15:26:50.265,-2.5570772088073872e-05,7.672754722798704
2025-05-26 15:26:50.273,-7.665529689611934e-06,7.63709101385831
2025-05-26 15:26:50.281,4.99745008562569e-06,7.650971506782482
2025-05-26 15:26:50.288,1.195799706535382e-05,7.717959807563902
2025-05-26 15:26:50.296,1.2866315163259192e-05,7.839545517425245
2025-05-26 15:26:50.304,7.499456240721506e-06,8.015096998895661
2025-05-26 15:26:50.312,-4.225802033076443e-06,8.241880355577493
2025-05-26 15:26:50.320,-2.2244775765727985e-05,8.515146118951638
2025-05-26 15:26:50.327,-4.6342372275842095e-05,8.82828245127655
2025-05-26 15:26:50.335,-7.615690119683589e-05,9.173030992161964
2025-05-26 15:26:50.343,-0.0001111902587431,9.539758952512056
2025-05-26 15:26:50.351,-0.0001508238495037,9.917778818503368
2025-05-26 15:26:50.359,-0.0001943390180861,10.295705160071911
2025-05-26 15:26:50.367,-0.0002409404501691,10.66183660420992
2025-05-26 15:26:50.374,-0.0002897809807868,11.004550072404184
2025-05-26 15:26:50.382,-0.0003399864128569,11.312693912198672
2025-05-26 15:26:50.390,-0.0003906791942687,11.575966573271126
2025-05-26 15:26:50.398,-0.0004410000675594,11.785267971885414
2025-05-26 15:26:50.406,-0.0004901270673474,11.933011630884875
2025-05-26 15:26:50.413,-0.0005372914851428,12.01338704988268
2025-05-26 15:26:50.421,-0.0005817906402464,12.02256351974138
2025-05-26 15:26:50.429,-0.000622997482459,11.958828698249086
2025-05-26 15:26:50.437,-0.0006603672026556,11.822657637702436
2025-05-26 15:26:50.445,-0.0006934411384261,11.616710504061407
2025-05-26 15:26:50.452,-0.0007218483335112,11.345759838063302
2025-05-26 15:26:50.460,-0.0007453051431986,11.01655075630099
2025-05-26 15:26:50.468,-0.0007636132764925,10.63759984611117
2025-05-26 15:26:50.476,-0.0007766566346043,10.21894055397257
2025-05-26 15:26:50.484,-0.0007843972502927,9.77182451268857
2025-05-26 15:26:50.492,-0.0007868705609752,9.308389445528915
2025-05-26 15:26:50.499,-0.0007841801681704,8.841305009060637
2025-05-26 15:26:50.507,-0.000776492154876,8.38340820127636
2025-05-26 15:26:50.515,-0.0007640289591029,7.947339798390539
2025-05-26 15:26:50.523,-0.0007470627437697,7.5451927371717025
2025-05-26 15:26:50.531,-0.0007259081676506,7.188182483942188
2025-05-26 15:26:50.538,-0.0007009144552075,6.886348286489574
2025-05-26 15:26:50.546,-0.0006724566898205,6.648292857665276
2025-05-26 15:26:50.554,-0.0006409263185601,6.480966562802353
2025-05-26 15:26:50.562,-0.0006067209589409,6.3895006511200325
2025-05-26 15:26:50.570,-0.0005702337373231,6.377092545023382
2025-05-26 15:26:50.577,-0.0005318425514549,6.444944718943884
2025-05-26 15:26:50.585,-0.0004918998002063,6.592257279929174
2025-05-26 15:26:50.593,-0.0004507232112446,6.816273017852581
2025-05-26 15:26:50.601,-0.0004085883881556,7.112372439311656
2025-05-26 15:26:50.609,-0.0003657235939144,7.474215155175285
2025-05-26 15:26:50.617,-0.0003223071151499,7.893922976693045
2025-05-26 15:26:50.624,-0.0002784673506983,8.362299206950313
2025-05-26 15:26:50.632,-0.0002342855785705,8.86907790969627
2025-05-26 15:26:50.640,-0.000189801199064,9.403196409835928
2025-05-26 15:26:50.648,-0.0001450191206634,9.953083935761407
2025-05-26 15:26:50.656,-9.991883275297683e-05,10.50695914993542
2025-05-26 15:26:50.663,-5.446459907558202e-05,11.053129320006551
2025-05-26 15:26:50.671,-8.616134869125198e-06,11.58028404370704
2025-05-26 15:26:50.679,3.766087603194715e-05,12.077776736992618
2025-05-26 15:26:50.687,8.438500165643004e-05,12.535887496874812
2025-05-26 15:26:50.695,0.0001315504703895,12.946061422285313
2025-05-26 15:26:50.702,0.0001791200668412,13.30111698868572
2025-05-26 15:26:50.710,0.0002270196897157,13.595419613555103
2025-05-26 15:26:50.718,0.000275134674508,13.825016127054829
2025-05-26 15:26:50.726,0.0003233079437708,13.987726491478757
2025-05-26 15:26:50.734,0.0003713399957135,14.083189812383626
2025-05-26 15:26:50.742,0.0004189906577003,14.112862469259822
2025-05-26 15:26:50.749,0.0004659824381367,14.079967076854771
2025-05-26 15:26:50.757,0.0005120052549454,13.989391977118704
2025-05-26 15:26:50.765,0.0005567223256074,13.847542054576934
2025-05-26 15:26:50.773,0.000599777049254,13.662142851825738
2025-05-26 15:26:50.781,0.0006408007482347,13.442001212830316
2025-05-26 15:26:50.788,0.000679421133029,13.196726966240885
2025-05-26 15:26:50.796,0.0007152713096158,12.936421437659083
2025-05-26 15:26:50.804,0.0007479990865865,12.67133980241156
2025-05-26 15:26:50.812,0.0007772762888462,12.411535413149393
2025-05-26 15:26:50.820,0.0008028077595431,12.166495220362458
2025-05-26 15:26:50.827,0.0008243397354658,11.94477621884445
2025-05-26 15:26:50.835,0.000841667316446,11.753653475876003
2025-05-26 15:26:50.843,0.0008546408086244,11.598790704628303
2025-05-26 15:26:50.851,0.0008631707819476,11.48394451221401
2025-05-26 15:26:50.859,0.0008672317230195,11.410713344327815
2025-05-26 15:26:50.867,0.0008668641802128,11.378341733366264
2025-05-26 15:26:50.874,0.0008621753009417,11.383589699610887
2025-05-26 15:26:50.882,0.0008533376770867,11.42067602228175
2025-05-26 15:26:50.890,0.0008405864626353,11.481302562527905
2025-05-26 15:26:50.898,0.0008242147976753,11.554764872216124
2025-05-26 15:26:50.906,0.0008045676442371,11.628151970808169
2025-05-26 15:26:50.913,0.0007820342139495,11.68663545165112
2025-05-26 15:26:50.921,0.0007570392578609,11.713845046762655
2025-05-26 15:26:50.929,0.0007300335841091,11.692324518540907
2025-05-26 15:26:50.937,0.0007014842334227,11.60405836394662
2025-05-26 15:26:50.945,0.000671864745245,11.431056435226331
2025-05-26 15:26:50.952,0.000641645889259,11.15598033605317
2025-05-26 15:26:50.960,0.0006112871450751,10.76279248859909
2025-05-26 15:26:50.968,0.0005812291143746,10.237406244827229
2025-05-26 15:26:50.976,0.0005518869591205,9.568313504872926
2025-05-26 15:26:50.984,0.0005236448818063,8.747165176812564
2025-05-26 15:26:50.992,0.000496851601785,7.769279620609596
2025-05-26 15:26:50.999,0.000471816737132,6.634055095794705
2025-05-26 15:26:51.007,0.0004488079748616,5.345264276491845
2025-05-26 15:26:51.015,0.0004280489032374,3.911212159267562
2025-05-26 15:26:51.023,0.0004097173870604,2.344743146964339
2025-05-26 15:26:51.031,0.0003939443880191,0.663088630353006
2025-05-26 15:26:51.038,0.000380813164519,-1.1124472046029863
2025-05-26 15:26:51.046,0.000370358825401,-2.9569586467556546
2025-05-26 15:26:51.054,0.000362568255681,-4.842554952720551
2025-05-26 15:26:51.062,0.0003573804757193,-6.739103283400674
2025-05-26 15:26:51.070,0.0003546875338208,-8.615073041479654
2025-05-26 15:26:51.077,0.0003543360620195,-10.438451365366966
2025-05-26 15:26:51.085,0.0003561296418902,-12.177695726910793
2025-05-26 15:26:51.093,0.0003598321282594,-13.802687404348369
2025-05-26 15:26:51.101,0.0003651720609378,-15.2856491903125
2025-05-26 15:26:51.109,0.0003718482560949,-16.60199206876441
2025-05-26 15:26:51.117,0.0003795366086038,-17.731058665979045
2025-05-26 15:26:51.124,0.0003878980545549,-18.656735856674924
2025-05-26 15:26:51.132,0.0003965875402113,-19.367914704780983
2025-05-26 15:26:51.140,0.0004052637237331,-19.858782588144877
2025-05-26 15:26:51.148,0.0004135990135978,-20.12893950451014
2025-05-26 15:26:51.156,0.0004212894590454,-20.183337778575385
2025-05-26 15:26:51.163,0.0004280639998612,-20.032051306159524
2025-05-26 15:26:51.171,0.0004336926669911,-19.68988675338296
2025-05-26 15:26:51.179,0.0004379934453584,-19.17585452132687
2025-05-26 15:26:51.187,0.0004408375823349,-18.51252161717572
2025-05-26 15:26:51.195,0.0004421531253856,-17.725271751793336
2025-05-26 15:26:51.203,0.0004419264590449,-16.841499999520792
2025-05-26 15:26:51.210,0.0004402016537788,-15.889770263225468
2025-05-26 15:26:51.218,0.0004370775477592,-14.898963685968404
2025-05-26 15:26:51.226,0.0004327026210548,-13.897445160046468
2025-05-26 15:26:51.234,0.0004272678562899,-12.912273325146494
2025-05-26 15:26:51.242,0.0004209978960714,-11.968477032131004
2025-05-26 15:26:51.249,0.0004141409013641,-11.088418281521928
2025-05-26 15:26:51.257,0.0004069575846535,-10.2912582249959
2025-05-26 15:26:51.265,0.0003997099358865,-9.592539040707283
2025-05-26 15:26:51.273,0.0003926501770846,-9.003890456629138
2025-05-26 15:26:51.281,0.0003860104729901,-8.532865505343167
2025-05-26 15:26:51.288,0.0003799938904287,-8.182905866869598
2025-05-26 15:26:51.296,0.0003747670390924,-7.953433023214069
2025-05-26 15:26:51.304,0.0003704547424771,-7.840057543799203
2025-05-26 15:26:51.312,0.0003671369815733,-7.83489527648946
2025-05-26 15:26:51.320,0.0003648482279464,-7.92697615806789
2025-05-26 15:26:51.328,0.0003635791414947,-8.102728888229294
2025-05-26 15:26:51.335,0.0003632804644661,-8.346522912483154
2025-05-26 15:26:51.343,0.0003638688216685,-8.641248077211529
2025-05-26 15:26:51.351,0.0003652340526905,-8.968911965548186
2025-05-26 15:26:51.359,0.0003672476353798,-9.3112352756851
2025-05-26 15:26:51.367,0.0003697716773497,-9.650226615100726
2025-05-26 15:26:51.374,0.0003726678653207,-9.968719681471615
2025-05-26 15:26:51.382,0.0003758057313904,-10.250857891100557
2025-05-26 15:26:51.390,0.0003790696651897,-10.48251399475737
2025-05-26 15:26:51.398,0.0003823642552108,-10.651634980846463
2025-05-26 15:26:51.406,0.0003856177314666,-10.748505497575074
2025-05-26 15:26:51.413,0.0003887834654454,-10.765926018400698
2025-05-26 15:26:51.421,0.0003918396440385,-10.699304916081052
2025-05-26 15:26:51.429,0.0003947873644643,-10.546666390109875
2025-05-26 15:26:51.437,0.0003976474927392,-10.308578709657034
2025-05-26 15:26:51.445,0.0004004566858022,-9.988009405824885
2025-05-26 15:26:51.453,0.0004032629951053,-9.590115812307165
2025-05-26 15:26:51.460,0.0004061214468581,-9.121980678608969
2025-05-26 15:26:51.468,0.0004090899319717,-8.592303460972563
2025-05-26 15:26:51.476,0.0004122256392304,-8.011058357450587
2025-05-26 15:26:51.484,0.0004155821333558,-7.38913023907443
2025-05-26 15:26:51.492,0.000419207031287,-6.737939390538607
2025-05-26 15:26:51.499,0.0004231401027639,-6.069065465053424
2025-05-26 15:26:51.507,0.0004274115648575,-5.39388033734144
2025-05-26 15:26:51.515,0.0004320403786226,-4.723198673111261
2025-05-26 15:26:51.523,0.0004370324644977,-4.0669540960091215
2025-05-26 15:26:51.531,0.0004423788809269,-3.433907892985388
2025-05-26 15:26:51.538,0.0004480541196435,-2.831396306635487
2025-05-26 15:26:51.546,0.0004540147447139,-2.265121640938438
2025-05-26 15:26:51.554,0.0004601986354243,-1.7389916503695242
2025-05-26 15:26:51.562,0.0004665250831665,-1.2550109674519718
2025-05-26 15:26:51.570,0.000472895938991,-0.8132276143033041
2025-05-26 15:26:51.578,0.0004791979124008,-0.4117368973220096
2025-05-26 15:26:51.585,0.000485305987503,-0.0467441578587208
2025-05-26 15:26:51.593,0.0004910877653278,0.2873130929925513
2025-05-26 15:26:51.601,0.0004964083986375,0.5975842204507441
2025-05-26 15:26:51.609,0.0005011357081552,0.8925675168039846
2025-05-26 15:26:51.617,0.0005051450820549,1.1818185040751166
2025-05-26 15:26:51.624,0.0005083238402035,1.4756092975628314
2025-05-26 15:26:51.632,0.0005105748423701,1.7845454894779167
2025-05-26 15:26:51.640,0.0005118191993576,2.119148687652997
2025-05-26 15:26:51.648,0.0005119979937605,2.489414482314714
2025-05-26 15:26:51.656,0.0005110729316908,2.904357155865928
2025-05-26 15:26:51.663,0.000509025838402,3.3715538409932773
2025-05-26 15:26:51.671,0.0005058569034274,3.896702016088352
2025-05-26 15:26:51.679,0.0005015816004331,4.483205148533804
2025-05-26 15:26:51.687,0.0004962262636834,5.131801896162849
2025-05-26 15:26:51.695,0.000489822395857,5.84025448470775
2025-05-26 15:26:51.703,0.0004823999085299,6.603111613206229
2025-05-26 15:26:51.710,0.0004739796434101,7.4115604195067215
2025-05-26 15:26:51.718,0.0004645656602318,8.253380598585986
2025-05-26 15:26:51.726,0.0004541378787289,9.113011664853085
2025-05-26 15:26:51.734,0.0004426457140859,9.971741568402528
2025-05-26 15:26:51.742,0.0004300033442248,10.808021424514129
2025-05-26 15:26:51.749,0.0004160871931306,11.597907040705271
2025-05-26 15:26:51.757,0.0004007361087801,12.315623314570146
2025-05-26 15:26:51.765,0.0003837545605309,12.934242563465029
2025-05-26 15:26:51.773,0.000364918984145,13.426462610982888
2025-05-26 15:26:51.781,0.000343987169697,13.765465205066974
2025-05-26 15:26:51.788,0.000320710328303,13.925830315044188
2025-05-26 15:26:51.796,0.0002948472087951,13.884477311524371
2025-05-26 15:26:51.804,0.000266179407791,13.621600256047548
2025-05-26 15:26:51.812,0.0002345268807853,13.121561802881356
2025-05-26 15:26:51.820,0.0001997626469127,12.373708810955671
2025-05-26 15:26:51.828,0.0001618257653183,11.373072907623223
2025-05-26 15:26:51.835,0.0001207318000434,10.120921109056496
2025-05-26 15:26:51.843,7.658014795285495e-05,8.625125277997677
2025-05-26 15:26:51.851,2.955776640497108e-05,6.900324679058426
2025-05-26 15:26:51.859,-2.0060999998456543e-05,4.967863045535997
2025-05-26 15:26:51.867,-7.191863338682118e-05,2.85549014706433
2025-05-26 15:26:51.874,-0.000125582680113,0.5968274772556229
2025-05-26 15:26:51.882,-0.0001805578433898,-1.769392098997029
2025-05-26 15:26:51.890,-0.0002363016193735,-4.200290623045037
2025-05-26 15:26:51.898,-0.0002922430316106,-6.649987371202464
2025-05-26 15:26:51.906,-0.0003478038959039,-9.070878689714238
2025-05-26 15:26:51.913,-0.0004024219280564,-11.41500972845322
2025-05-26 15:26:51.921,-0.0004555748726138,-13.635487447688906
2025-05-26 15:26:51.929,-0.0005068046732362,-15.687881614454218
2025-05-26 15:26:51.937,-0.0005557405539441,-17.531560376528375
2025-05-26 15:26:51.945,-0.0006021197879917,-19.130909410452933
2025-05-26 15:26:51.953,-0.0006458049263048,-20.45638843591651
2025-05-26 15:26:51.960,-0.0006867963309025,-21.485385786939784
2025-05-26 15:26:51.968,-0.0007252389908914,-22.202840336192565
2025-05-26 15:26:51.976,-0.0007614227814194,-22.601609904705565
2025-05-26 15:26:51.984,-0.0007957755663307,-22.68257582228674
2025-05-26 15:26:51.992,-0.0008288488612743,-22.45448398379768
2025-05-26 15:26:51.999,-0.0008612961729072,-21.93353304909192
2025-05-26 15:26:52.007,-0.0008938445796637,-21.14272989792676
2025-05-26 15:26:52.015,-0.0009272605632145,-20.11104069410937
2025-05-26 15:26:52.023,-0.0009623115022895,-18.87237264117938
2025-05-26 15:26:52.031,-0.0009997246033734,-17.464426523792717
2025-05-26 15:26:52.038,-0.0010401453722734,-15.927463324329349
2025-05-26 15:26:52.046,-0.0010840980002591,-14.30302958463822
2025-05-26 15:26:52.054,-0.0011319501638854,-12.6326858376854
2025-05-26 15:26:52.062,-0.0011838845990282,-10.95678051592598
2025-05-26 15:26:52.070,-0.0012398793495674,-9.31330844528978
2025-05-26 15:26:52.078,-0.001299697891496,-7.736888571762478
2025-05-26 15:26:52.085,-0.0013628895621614,-6.257890165874536
2025-05-26 15:26:52.093,-0.001428800024376,-4.901730627606271
2025-05-26 15:26:52.101,-0.0014965909407065,-3.68836137921589
2025-05-26 15:26:52.109,-0.0015652676429279,-2.631951394855721
2025-05-26 15:26:52.117,-0.0016337133309062,-1.7407708925787233
2025-05-26 15:26:52.124,-0.0017007281805832,-1.01727083381852
2025-05-26 15:26:52.132,-0.0017650716512085,-0.458347360913249
2025-05-26 15:26:52.140,-0.0018255062467169,-0.0557743651449786
2025-05-26 15:26:52.148,-0.0018808410039779,0.2032177886196059
2025-05-26 15:26:52.156,-0.0019299730518596,0.3352435747563232
2025-05-26 15:26:52.163,-0.0019719257099029,0.3599729847366459
2025-05-26 15:26:52.171,-0.0020058817739778,0.2992828521470209
2025-05-26 15:26:52.179,-0.0020312108684425,0.1763808455210423
2025-05-26 15:26:52.187,-0.0020474900294234,0.0149336879986153
2025-05-26 15:26:52.195,-0.0020545170206085,-0.1617704356386484
2025-05-26 15:26:52.203,-0.0020523162675489,-0.3315979530801115
2025-05-26 15:26:52.210,-0.0020411377125591,-0.4742606440462697
2025-05-26 15:26:52.218,-0.0020214492917356,-0.5719014610961571
2025-05-26 15:26:52.226,-0.0019939240351255,-0.6095606093665503
2025-05-26 15:26:52.234,-0.0019594229108821,-0.5755121615609682
2025-05-26 15:26:52.242,-0.0019189744497021,-0.4614667164706317
2025-05-26 15:26:52.249,-0.0018737519427798,-0.2626407618732517
2025-05-26 15:26:52.257,-0.0018250486997808,0.022301735823373
2025-05-26 15:26:52.265,-0.0017742515823537,0.391425615322964
2025-05-26 15:26:52.273,-0.001722812846393,0.8398050431150491
2025-05-26 15:26:52.281,-0.0016722202337205,1.3598916659956837
2025-05-26 15:26:52.288,-0.0016239652458337,1.9419516428863348
2025-05-26 15:26:52.296,-0.0015795096153409,2.5745515278832496
2025-05-26 15:26:52.304,-0.0015402501517098,3.2450725558532656
2025-05-26 15:26:52.312,-0.0015074823336356,3.940233279130197
2025-05-26 15:26:52.320,-0.0014823632111228,4.646601649642282
2025-05-26 15:26:52.328,-0.001465874356328,5.351079433153145
2025-05-26 15:26:52.335,-0.0014587857736479,6.041344148169973
2025-05-26 15:26:52.343,-0.0014616218554301,6.706236388661851
2025-05-26 15:26:52.351,-0.0014746306362207,7.336083261835791
2025-05-26 15:26:52.359,-0.0014977577098539,7.922951606973445
2025-05-26 15:26:52.367,-0.0015306261801416,8.460827534167054
2025-05-26 15:26:52.374,-0.0015725239079661,8.945721524866821
2025-05-26 15:26:52.382,-0.0016223991332732,9.37570077776198
2025-05-26 15:26:52.390,-0.0016788653383091,9.750852593951205
2025-05-26 15:26:52.398,-0.0017402159969445,10.073184334010447
2025-05-26 15:26:52.406,-0.0018044495991109,10.34646683529397
2025-05-26 15:26:52.413,-0.0018693050051047,10.576029162335873
2025-05-26 15:26:52.421,-0.0019323067625802,10.768513203905872
2025-05-26 15:26:52.429,-0.0019908195702442,10.931596966375432
2025-05-26 15:26:52.437,-0.0020421106863295,11.073695493620894
2025-05-26 15:26:52.445,-0.0020834187896157,11.203648221979211
2025-05-26 15:26:52.453,-0.0021120275581584,11.330401302412742
2025-05-26 15:26:52.460,-0.0021253419794735,11.462693025740723
2025-05-26 15:26:52.468,-0.0021209651497871,11.608749993228464
2025-05-26 15:26:52.476,-0.002096773110719,11.776001100347434
2025-05-26 15:26:52.484,-0.0020509851579204,11.970815759594974
2025-05-26 15:26:52.492,-0.0019822270567412,12.19827208960361
2025-05-26 15:26:52.499,-0.0018895847020432,12.461960052409797
2025-05-26 15:26:52.507,-0.0017726459344641,12.763823743567862
2025-05-26 15:26:52.515,-0.0016315284681992,13.104046252602153
2025-05-26 15:26:52.523,-0.0014668922338146,13.480979735766564
2025-05-26 15:26:52.531,-0.001279934942546,13.891122589548525
2025-05-26 15:26:52.538,-0.0010723703441983,14.329144875934258
2025-05-26 15:26:52.546,-0.0008463894358682,14.787962412271895
2025-05-26 15:26:52.554,-0.000604605715459,15.258859179825222
2025-05-26 15:26:52.562,-0.0003499863896063,15.73165690544181
2025-05-26 15:26:52.570,-8.577216617139054e-05,16.1949298075785
2025-05-26 15:26:52.578,0.0001846111765938,16.636261549126964
2025-05-26 15:26:52.585,0.0004576458869483,17.042540392698047
2025-05-26 15:26:52.593,0.0007298162971308,17.40028741558366
2025-05-26 15:26:52.601,0.000997700222545,17.696011438336228
2025-05-26 15:26:52.609,0.0012580544076793,17.916583094857046
2025-05-26 15:26:52.617,0.0015078912373438,18.049619273548227
2025-05-26 15:26:52.624,0.0017445445394376,18.08386804394896
2025-05-26 15:26:52.632,0.001965722912326,18.009583212273423
2025-05-26 15:26:52.640,0.0021695495627175,17.818876891028616
2025-05-26 15:26:52.648,0.0023545881300569,17.506038001924562
2025-05-26 15:26:52.656,0.0025198544220881,17.067804549219648
2025-05-26 15:26:52.663,0.0026648144201715,16.503577899535966
2025-05-26 15:26:52.671,0.0027893693384745,15.815568269847418
2025-05-26 15:26:52.679,0.0028938289216058,15.008862212178188
2025-05-26 15:26:52.687,0.0029788745156417,14.091405099735027
2025-05-26 15:26:52.695,0.0030455137164873,13.073894419209912
2025-05-26 15:26:52.703,0.0030950285534659,11.969582955059323
2025-05-26 15:26:52.710,0.003128919199001,10.793994555057296
2025-05-26 15:26:52.718,0.0031488451483935,9.564558889225218
2025-05-26 15:26:52.726,0.0031565657423967,8.300175230760349
2025-05-26 15:26:52.734,0.003153881827985,7.020718576016233
2025-05-26 15:26:52.742,0.0031425802435358,5.746504184951147
2025-05-26 15:26:52.749,0.0031243826465674,4.497728706471041
2025-05-26 15:26:52.757,0.0031008999887605,3.293907342563196
2025-05-26 15:26:52.765,0.0030735937232251,2.153326939150352
2025-05-26 15:26:52.773,0.0030437446073628,1.0925344621578044
2025-05-26 15:26:52.781,0.0030124296965812,0.1258790668789206
2025-05-26 15:26:52.788,0.0029805077860525,-0.7348760217007143
2025-05-26 15:26:52.796,0.0029486131989244,-1.4808582262823529
2025-05-26 15:26:52.804,0.0029171575098594,-2.106296485819679
2025-05-26 15:26:52.812,0.0028863385508755,-2.6086313626442688
2025-05-26 15:26:52.820,0.0028561558451144,-2.988521255346358
2025-05-26 15:26:52.828,0.0028264314293431,-3.24974545617349
2025-05-26 15:26:52.835,0.002796834862444,-3.3990085959927514
2025-05-26 15:26:52.843,0.002766911110014,-3.4456545984696483
2025-05-26 15:26:52.851,0.0027361099927035,-3.401301467339268
2025-05-26 15:26:52.859,0.0027038160102215,-3.2794109262818045
2025-05-26 15:26:52.867,0.0026693775749476,-3.094809023599692
2025-05-26 15:26:52.874,0.0026321349460071,-2.8631752448119108
2025-05-26 15:26:52.882,0.0025914463832311,-2.600518418134178
2025-05-26 15:26:52.890,0.0025467122005568,-2.3226577488104847
2025-05-26 15:26:52.898,0.0024973964860661,-2.0447267014176576
2025-05-26 15:26:52.906,0.0024430462949451,-1.7807162121068014
2025-05-26 15:26:52.913,0.0023833081386653,-1.5430719216078612
2025-05-26 15:26:52.921,0.0023179416036019,-1.3423578517779495
2025-05-26 15:26:52.929,0.0022468299427243,-1.1869962893900805
2025-05-26 15:26:52.937,0.0021699874997078,-1.0830906901837352
2025-05-26 15:26:52.945,0.0020875638442451,-1.034335288542067
2025-05-26 15:26:52.953,0.0019998445141371,-1.042011915795266
2025-05-26 15:26:52.960,0.001907248279203,-1.1050714126845504
2025-05-26 15:26:52.968,0.0018103208839945,-1.2202940810385925
2025-05-26 15:26:52.976,0.0017097252965853,-1.3825209609672386
2025-05-26 15:26:52.984,0.0016062285710402,-1.5849454385373876
2025-05-26 15:26:52.992,0.0015006855122589,-1.819452863709585
2025-05-26 15:26:52.999,0.0013940194314963,-2.076994541869908
2025-05-26 15:26:53.007,0.0012872004201935,-2.347981679134216
2025-05-26 15:26:53.015,0.0011812217464928,-2.6226846146259324
2025-05-26 15:26:53.023,0.0010770751588628,-2.8916229490288714
2025-05-26 15:26:53.031,0.0009757260130252,-3.145932948232688
2025-05-26 15:26:53.038,0.0008780891854885,-3.3776998172391286
2025-05-26 15:26:53.046,0.0007850066976271,-3.5802440456306868
2025-05-26 15:26:53.054,0.0006972278697088,-3.748352961787069
2025-05-26 15:26:53.062,0.000615392678764,-3.878450834229086
2025-05-26 15:26:53.070,0.0005400188208716,-3.968703248266844
2025-05-26 15:26:53.078,0.0004714927807213,-4.019053973717628
2025-05-26 15:26:53.085,0.0004100650007566,-4.031195028806917
2025-05-26 15:26:53.093,0.0003558490447819,-4.008473046287312
2025-05-26 15:26:53.101,0.0003088244899442,-3.955737279519196
2025-05-26 15:26:53.109,0.00026884316504,-3.879136573674332
2025-05-26 15:26:53.117,0.0002356382807416,-3.785874298060856
2025-05-26 15:26:53.124,0.0002088359638849,-3.6839315237430834
2025-05-26 15:26:53.132,0.0001879687074673,-3.581769584625236
2025-05-26 15:26:53.140,0.0001724902735733,-3.488023551765592
2025-05-26 15:26:53.148,0.0001617916290281,-3.4111980799225217
2025-05-26 15:26:53.156,0.0001552175358906,-3.359376579889532
2025-05-26 15:26:53.163,0.0001520834312907,-3.339953780375239
2025-05-26 15:26:53.171,0.0001516921858283,-3.3594005344637448
2025-05-26 15:26:53.179,0.0001533502264387,-3.4230682696908685
2025-05-26 15:26:53.187,0.0001563823819623,-3.53503884676036
2025-05-26 15:26:53.195,0.0001601447078072,-3.698023841423667
2025-05-26 15:26:53.203,0.0001640345169337,-3.913315450330182
2025-05-26 15:26:53.210,0.0001674969231853,-4.180789392836112
2025-05-26 15:26:53.218,0.0001700274103403,-4.4989583835731
2025-05-26 15:26:53.226,0.0001711702698654,-4.86507303255941
2025-05-26 15:26:53.234,0.0001705131593056,-5.275265439181846
2025-05-26 15:26:53.242,0.0001676784598228,-5.724729331021312
2025-05-26 15:26:53.249,0.0001623124983313,-6.207929401532312
2025-05-26 15:26:53.257,0.0001540739912973,-6.718831557456865
2025-05-26 15:26:53.265,0.0001426232082196,-7.251145123559475
2025-05-26 15:26:53.273,0.0001276133176643,-7.798567685193487
2025-05-26 15:26:53.281,0.0001086851924355,-8.355023184627083
2025-05-26 15:26:53.288,8.546665805868801e-05,-8.914884121562373
2025-05-26 15:26:53.296,5.7576794699822095e-05,-9.473169231656936
2025-05-26 15:26:53.304,2.463546132376038e-05,-10.02570881611058
2025-05-26 15:26:53.312,-1.3722254617102884e-05,-10.569270957127376
2025-05-26 15:26:53.320,-5.7827383058521135e-05,-11.101643163396316
2025-05-26 15:26:53.328,-0.000107955275684,-11.6216655257481
2025-05-26 15:26:53.335,-0.000164301986241,-12.129213193164604
2025-05-26 15:26:53.343,-0.0002269603094291,-12.625127855071549
2025-05-26 15:26:53.351,-0.0002958970143676,-13.111099874139624
2025-05-26 15:26:53.359,-0.0003709327313351,-13.58950468109887
2025-05-26 15:26:53.367,-0.0004517257634697,-14.063198941428768
2025-05-26 15:26:53.374,-0.0005377608554144,-14.535283757338926
2025-05-26 15:26:53.382,-0.0006283437153026,-15.008843709334904
2025-05-26 15:26:53.390,-0.0007226018884669,-15.486671812748146
2025-05-26 15:26:53.398,-0.0008194924233698,-15.970991416498512
2025-05-26 15:26:53.406,-0.0009178166275632,-16.46318665591367
2025-05-26 15:26:53.413,-0.0010162420555329,-16.963553238527336
2025-05-26 15:26:53.421,-0.0011133316802533,-17.47108104581255
2025-05-26 15:26:53.429,-0.001207579944526,-17.983279249143475
2025-05-26 15:26:53.437,-0.0012974550355106,-18.496053372156894
2025-05-26 15:26:53.445,-0.0013814462957989,-19.0036420237244
2025-05-26 15:26:53.453,-0.0014581152499257,-19.498618938403435
2025-05-26 15:26:53.460,-0.0015261483468114,-19.971963573268376
2025-05-26 15:26:53.468,-0.0015844092014495,-20.41320091440804
2025-05-26 15:26:53.476,-0.0016319878487936,-20.8106084451708
2025-05-26 15:26:53.484,-0.0016682443277956,-21.151485524433024
2025-05-26 15:26:53.492,-0.0016928438772874,-21.42247781819057
2025-05-26 15:26:53.499,-0.0017057812290953,-21.609947027035957
2025-05-26 15:26:53.507,-0.0017073919429332,-21.70037406900541
2025-05-26 15:26:53.515,-0.0016983493942922,-21.68078222604346
2025-05-26 15:26:53.523,-0.0016796468362516,-21.53916564163223
2025-05-26 15:26:53.531,-0.001652564849268,-21.26490803610173
2025-05-26 15:26:53.538,-0.0016186254050776,-20.849176619352765
2025-05-26 15:26:53.546,-0.0015795346245097,-20.28527692853733
2025-05-26 15:26:53.554,-0.0015371170212058,-19.56895566603884
2025-05-26 15:26:53.562,-0.0014932445321523,-18.698640490129733
2025-05-26 15:26:53.570,-0.0014497639304782,-17.675608014339243
2025-05-26 15:26:53.578,-0.001408426324368,-16.50407387826323
2025-05-26 15:26:53.585,-0.0013708223790696,-15.191201529834002
2025-05-26 15:26:53.593,-0.0013383266156793,-13.747029174768477
2025-05-26 15:26:53.601,-0.0013120535914505,-12.184317078630766
2025-05-26 15:26:53.609,-0.0012928279682534,-10.518319941768825
2025-05-26 15:26:53.617,-0.0012811695202316,-8.766491320109756
2025-05-26 15:26:53.624,-0.0012772931338068,-6.9481289710457546
2025-05-26 15:26:53.632,-0.0012811229152862,-5.083971517720566
2025-05-26 15:26:53.640,-0.0012923187247052,-3.195757916846917
2025-05-26 15:26:53.648,-0.001310312840765,-1.3057618750871638
2025-05-26 15:26:53.656,-0.0013343540203712,0.5636863928099746
2025-05-26 15:26:53.663,-0.0013635559184401,2.390678782940072
2025-05-26 15:26:53.671,-0.0013969466823537,4.154196418194239
2025-05-26 15:26:53.679,-0.0014335165740767,5.83455399775583
2025-05-26 15:26:53.687,-0.0014722607479201,7.4138108848842625
2025-05-26 15:26:53.695,-0.0015122148303331,8.876139311981799
2025-05-26 15:26:53.703,-0.0015524816561604,10.208141042506568
2025-05-26 15:26:53.710,-0.0015922483105232,11.39910488694995
2025-05-26 15:26:53.718,-0.0016307934071284,12.441198660766435
2025-05-26 15:26:53.726,-0.0016674852532533,13.329590539708391
2025-05-26 15:26:53.734,-0.0017017721874463,14.062496343166783
2025-05-26 15:26:53.742,-0.0017331668843544,14.64115106228889
2025-05-26 15:26:53.749,-0.0017612267518443,15.069704920134962
2025-05-26 15:26:53.757,-0.0017855326925082,15.355046353431208
2025-05-26 15:26:53.765,-0.0018056684976258,15.506556467137775
2025-05-26 15:26:53.773,-0.0018212030100579,15.53580164728216
2025-05-26 15:26:53.781,-0.0018316769219094,15.45617302990139
2025-05-26 15:26:53.788,-0.0018365956433196,15.282483320834624
2025-05-26 15:26:53.796,-0.0018354291185303,15.030532956414
2025-05-26 15:26:53.804,-0.0018276188658326,14.716658713064836
2025-05-26 15:26:53.812,-0.0018125919719875,14.357278550787946
2025-05-26 15:26:53.820,-0.0017897813117354,13.968446665418366
2025-05-26 15:26:53.828,-0.0017586508748672,13.565432406900229
2025-05-26 15:26:53.835,-0.0017187247541102,13.162335902935324
2025-05-26 15:26:53.843,-0.0016696180838281,12.771751938200609
2025-05-26 15:26:53.851,-0.0016110680458698,12.404491922874955
2025-05-26 15:26:53.859,-0.0015429630093521,12.069371701014898
2025-05-26 15:26:53.867,-0.0014653679686576,11.773070581534093
2025-05-26 15:26:53.874,-0.0013785446696053,11.520064424739482
2025-05-26 15:26:53.882,-0.0012829651123849,11.312632999643448
2025-05-26 15:26:53.890,-0.0011793174359543,11.15093925600194
2025-05-26 15:26:53.898,-0.0010685034894619,11.033175735186516
2025-05-26 15:26:53.906,-0.0009516276809939,10.95577116416974
2025-05-26 15:26:53.913,-0.000829976996473,10.913648406939062
2025-05-26 15:26:53.921,-0.0007049924476636,10.90052344190022
2025-05-26 15:26:53.929,-0.0005782326561589,10.909233936662046
2025-05-26 15:26:53.937,-0.0004513307798245,10.932085338025711
2025-05-26 15:26:53.945,-0.0003259464732399,10.9612022020226
2025-05-26 15:26:53.953,-0.0002037149749824,10.988872743856488
2025-05-26 15:26:53.960,-8.619568669057284e-05,11.007875246454342
2025-05-26 15:26:53.968,2.5177268461786865e-05,11.0117759640217
2025-05-26 15:26:53.976,0.0001291400558322,10.995189421158534
2025-05-26 15:26:53.984,0.0002246374616815,10.953993465829278
2025-05-26 15:26:53.992,0.0003108526969339,10.885493013943988
2025-05-26 15:26:53.999,0.0003872274091202,10.788528057142168
2025-05-26 15:26:54.007,0.0004534713614854,10.663523138762187
2025-05-26 15:26:54.015,0.0005095619666036,10.512477100366132
2025-05-26 15:26:54.023,0.0005557344558528,10.338893444330129
2025-05-26 15:26:54.031,0.000592463849509,10.147653137626182
2025-05-26 15:26:54.038,0.0006204400749906,9.944833092955925
2025-05-26 15:26:54.046,0.0006405376242012,9.73747490652608
2025-05-26 15:26:54.054,0.0006537811205437,9.533309712499548
2025-05-26 15:26:54.062,0.0006613081492068,9.340446234505825
2025-05-26 15:26:54.070,0.0006643307141058,9.167030264196846
2025-05-26 15:26:54.078,0.0006640966755233,9.020884852611667
2025-05-26 15:26:54.085,0.0006618524212602,8.909141433613486
2025-05-26 15:26:54.093,0.000658807817013,8.837872882448254
2025-05-26 15:26:54.101,0.0006561042369323,8.811740119664746
2025-05-26 15:26:54.109,0.0006547862706811,8.833664270561965
2025-05-26 15:26:54.117,0.0006557775565987,8.90453654624117
2025-05-26 15:26:54.124,0.0006598610720173,9.0229778814905
2025-05-26 15:26:54.132,0.0006676640925054,9.1851598974373
2025-05-26 15:26:54.140,0.0006796479014385,9.384697896450664
2025-05-26 15:26:54.148,0.000696102188729,9.61262528670569
2025-05-26 15:26:54.156,0.000717143924752,9.857457032497756
2025-05-26 15:26:54.163,0.000742720344125,10.1053474201026
2025-05-26 15:26:54.171,0.000772615556499,10.340344637634532
2025-05-26 15:26:54.179,0.0008064602619828,10.544741445123332
2025-05-26 15:26:54.187,0.0008437441056356,10.699517645486928
2025-05-26 15:26:54.195,0.0008838303279954,10.784866277245118
2025-05-26 15:26:54.203,0.0009259725012809,10.780791581779484
2025-05-26 15:26:54.210,0.0009693332412399,10.667763016924129
2025-05-26 15:26:54.218,0.0010130048331044,10.427406068306537
2025-05-26 15:26:54.226,0.0010560316996673,10.043207523370995
2025-05-26 15:26:54.234,0.0010974345676521,9.501210391920562
2025-05-26 15:26:54.242,0.0011362360560585,8.790671955119697
2025-05-26 15:26:54.249,0.0011714872226545,7.904657676674364
2025-05-26 15:26:54.257,0.0012022943807999,6.840544076514311
2025-05-26 15:26:54.265,0.0012278452821931,5.600405276577535
2025-05-26 15:26:54.273,0.0012474336178444,4.191260857225107
2025-05-26 15:26:54.281,0.0012604807725408,2.6251669218426685
2025-05-26 15:26:54.288,0.0012665538745204,0.9191377819179606
2025-05-26 15:26:54.296,0.0012653793568745,-0.9051077319176392
2025-05-26 15:26:54.304,0.0012568514450178,-2.8215739433545046
2025-05-26 15:26:54.312,0.0012410352153693,-4.800580810759967
2025-05-26 15:26:54.320,0.0012181641565514,-6.809504300786703
2025-05-26 15:26:54.328,0.0011886324696444,-8.81364054138662
2025-05-26 15:26:54.335,0.0011529825859155,-10.777163441738328
2025-05-26 15:26:54.343,0.0011118885146614,-12.664140674033357
2025-05-26 15:26:54.351,0.001066135696272,-14.439569833237435
2025-05-26 15:26:54.359,0.0010165980888266,-16.070395413314003
2025-05-26 15:26:54.367,0.0009642132753338,-17.52646801979681
2025-05-26 15:26:54.374,0.0009099564128719,-18.7814099089394
2025-05-26 15:26:54.382,0.0008548138353764,-19.813355313908268
2025-05-26 15:26:54.390,0.000799757076171,-20.60553979628646
2025-05-26 15:26:54.398,0.000745717999017,-21.14671967658633
2025-05-26 15:26:54.406,0.0006935656186701,-21.43141003849327
2025-05-26 15:26:54.413,0.0006440850825301,-21.45993745014116
2025-05-26 15:26:54.421,0.0005979592211805,-21.23831100537555
2025-05-26 15:26:54.429,0.0005557530692951,-20.77792220352689
2025-05-26 15:26:54.437,0.0005179017628572,-20.09509026099701
2025-05-26 15:26:54.445,0.0004847021744766,-19.210474456552102
2025-05-26 15:26:54.453,0.0004563085512016,-18.14837890314192
2025-05-26 15:26:54.460,0.0004327323222752,-16.935977630233722
2025-05-26 15:26:54.468,0.0004138461814381,-15.602489037926189
2025-05-26 15:26:54.476,0.0003993924800196,-14.17832870477116
2025-05-26 15:26:54.484,0.0003889958324703,-12.694268322224316
2025-05-26 15:26:54.492,0.0003821796274428,-11.180626371719493
2025-05-26 15:26:54.499,0.0003783859007982,-9.666513267602262
2025-05-26 15:26:54.507,0.0003769978190477,-8.179150278624826
2025-05-26 15:26:54.515,0.0003773638797274,-6.743277818029864
2025-05-26 15:26:54.523,0.000378822861747,-5.380664837504619
2025-05-26 15:26:54.531,0.0003807285320097,-4.109727219003679
2025-05-26 15:26:54.539,0.000382473120087,-2.945259339995046
2025-05-26 15:26:54.546,0.0003835086217952,-1.898279473427776
2025-05-26 15:26:54.554,0.0003833651040351,-0.9759864392253148
2025-05-26 15:26:54.562,0.0003816653535574,-0.1818220056880252
2025-05-26 15:26:54.570,0.0003781354136276,0.484369007928377
2025-05-26 15:26:54.578,0.0003726107567198,1.026091121418672
2025-05-26 15:26:54.585,0.000365038033758,1.4498749946793883
2025-05-26 15:26:54.593,0.0003554725154923,1.7648918512185083
2025-05-26 15:26:54.601,0.000344071496403,1.9825195902994832
2025-05-26 15:26:54.609,0.0003310840639934,2.1158750746477866
2025-05-26 15:26:54.617,0.0003168377451857,2.1793270886133165
2025-05-26 15:26:54.624,0.0003017226261656,2.188004093822297
2025-05-26 15:26:54.632,0.0002861736023621,2.157310210460984
2025-05-26 15:26:54.640,0.0002706514516698,2.102461868810312
2025-05-26 15:26:54.648,0.0002556234371826,2.038056354343077
2025-05-26 15:26:54.656,0.0002415441365,1.9776820572960765
2025-05-26 15:26:54.664,0.0002288371640975,1.9335786777002448
2025-05-26 15:26:54.671,0.0002178784024099,1.9163539683824693
2025-05-26 15:26:54.679,0.0002089812872939,1.9347618592360123
2025-05-26 15:26:54.687,0.0002023846055841,1.9955450366890952
2025-05-26 15:26:54.695,0.000198243157766,2.1033432947425874
2025-05-26 15:26:54.703,0.0001966215187026,2.260667265831369
2025-05-26 15:26:54.710,0.0001974909953626,2.467935511854788
2025-05-26 15:26:54.718,0.000200729735977,2.723571436675844
2025-05-26 15:26:54.726,0.0002061258017449,3.024155104644198
2025-05-26 15:26:54.734,0.0002133828948082,3.3646238528151566
2025-05-26 15:26:54.742,0.0002221283685254,3.7385145989322814
2025-05-26 15:26:54.749,0.0002319231274574,4.138239987369871
2025-05-26 15:26:54.757,0.0002422730316031,4.55538997608704
2025-05-26 15:26:54.765,0.0002526414365601,4.981050130148724
2025-05-26 15:26:54.773,0.0002624625388459,5.40612772595387
2025-05-26 15:26:54.781,0.0002711552719178,5.821676759432157
2025-05-26 15:26:54.789,0.0002781376080834,6.21921307141337
2025-05-26 15:26:54.796,0.0002828412258638,6.591011045456051
2025-05-26 15:26:54.804,0.0002847265440847,6.930373702315694
2025-05-26 15:26:54.812,0.0002832980584019,7.231868526122067
2025-05-26 15:26:54.820,0.0002781197553173,7.49152202899575
2025-05-26 15:26:54.828,0.0002688301996196,7.706966908749849
2025-05-26 15:26:54.835,0.0002551567715553,7.877536686222652
2025-05-26 15:26:54.843,0.0002369284875642,8.004303921666182
2025-05-26 15:26:54.851,0.0002140868444881,8.09005948829241
2025-05-26 15:26:54.859,0.0001866941550595,8.139231899930103
2025-05-26 15:26:54.867,0.0001549388846774,8.157747316914788
2025-05-26 15:26:54.874,0.0001191375580891,8.152832555000229
2025-05-26 15:26:54.882,7.973288301360031e-05,8.132765157854685
2025-05-26 15:26:54.890,3.7287838787925616e-05,8.106576319142677
2025-05-26 15:26:54.898,-7.524396273410592e-06,8.083714102435584
2025-05-26 15:26:54.906,-5.393465409639542e-05,8.073675953354053
2025-05-26 15:26:54.914,-0.0001010959219864,8.085620884788806
2025-05-26 15:26:54.921,-0.0001481050241384,8.127972907860709
2025-05-26 15:26:54.929,-0.0001940272233409,8.208028241218098
2025-05-26 15:26:54.937,-0.0002379229089141,8.331579512095432
2025-05-26 15:26:54.945,-0.0002788753568144,8.502570512242993
2025-05-26 15:26:54.953,-0.0003160184570079,8.722795043341026
2025-05-26 15:26:54.960,-0.0003485633282979,8.99165293945669
2025-05-26 15:26:54.968,-0.000375822859737,9.305975449635245
2025-05-26 15:26:54.976,-0.0003972333817734,9.659930764442242
2025-05-26 15:26:54.984,-0.000412372834945,10.04501855067358
2025-05-26 15:26:54.992,-0.0004209749356998,10.450159919179573
2025-05-26 15:26:54.999,-0.0004229389243779,10.861886327284887
2025-05-26 15:26:55.007,-0.0004183345461682,11.264627579491153
2025-05-26 15:26:55.015,-0.0004074020110687,11.641095436643148
2025-05-26 15:26:55.023,-0.0003905468210458,11.972755497429528
2025-05-26 15:26:55.031,-0.0003683295104186,12.240376122593554
2025-05-26 15:26:55.039,-0.0003414504854706,12.42463939584673
2025-05-26 15:26:55.046,-0.0003107302773792,12.50679562843433
2025-05-26 15:26:55.054,-0.0002770856626565,12.46933988509089
2025-05-26 15:26:55.062,-0.0002415022590288,12.296686599009677
2025-05-26 15:26:55.070,-0.0002050043592998,11.975816709971614
2025-05-26 15:26:55.078,-0.0001686229203938,11.496871057882174
2025-05-26 15:26:55.085,-0.0001333627790383,10.853664139146913
2025-05-26 15:26:55.093,-0.0001001702916384,10.044093906574794
2025-05-26 15:26:55.101,-6.990264779175234e-05,9.070426137878288
2025-05-26 15:26:55.109,-4.3300067627472384e-05,7.939436009395189
2025-05-26 15:26:55.117,-2.0961996552282635e-05,6.662394785962163
2025-05-26 15:26:55.124,-3.32829332989387e-06,5.254895763456461
2025-05-26 15:26:55.132,9.333744346471037e-06,3.736520470914815
2025-05-26 15:26:55.140,1.693589251710559e-05,2.130353278550628
2025-05-26 15:26:55.148,1.9568712139611044e-05,0.4623595541168008
2025-05-26 15:26:55.156,1.7494428870661053e-05,-1.2393510527275184
2025-05-26 15:26:55.164,1.1133251416165302e-05,-2.9453491278481625
2025-05-26 15:26:55.171,1.0436732842794187e-06,-4.625766526968204
2025-05-26 15:26:55.179,-1.210245198674519e-05,-6.25119994605056
2025-05-26 15:26:55.187,-2.754905875665153e-05,-7.793602009316813
2025-05-26 15:26:55.195,-4.448805748393326e-05,-9.22712551086083
2025-05-26 15:26:55.203,-6.209323612784815e-05,-10.528888725448196
2025-05-26 15:26:55.210,-7.955444020331747e-05,-11.67963344956894
2025-05-26 15:26:55.218,-9.611052913199276e-05,-12.664252402460663
2025-05-26 15:26:55.226,-0.0001110795910412,-13.472168501248776
2025-05-26 15:26:55.234,-0.0001238849682528,-14.09755498191368
2025-05-26 15:26:55.242,-0.0001340758441645,-14.539392020993551
2025-05-26 15:26:55.249,-0.0001413414773184,-14.801362090600698
2025-05-26 15:26:55.257,-0.0001455185857517,-14.891592450656818
2025-05-26 15:26:55.265,-0.0001465918048009,-14.822258690618494
2025-05-26 15:26:55.273,-0.0001446875212577,-14.609067879014916
2025-05-26 15:26:55.281,-0.0001400617272226,-14.27064352715076
2025-05-26 15:26:55.289,-0.0001330828423964,-13.8278371499741
2025-05-26 15:26:55.296,-0.0001242107031409,-13.302992697633918
2025-05-26 15:26:55.304,-0.0001139730733781,-12.719190575728463
2025-05-26 15:26:55.312,-0.0001029410620067,-12.09949745662576
2025-05-26 15:26:55.320,-9.17047151093257e-05,-11.466246722699177
2025-05-26 15:26:55.328,-8.084980706965665e-05,-10.840372296579035
2025-05-26 15:26:55.335,-7.093655865781615e-05,-10.240815919263875
2025-05-26 15:26:55.343,-6.248076503626338e-05,-9.68402474166448
2025-05-26 15:26:55.351,-5.593767524854964e-05,-9.183552502509952
2025-05-26 15:26:55.359,-5.16888887825834e-05,-8.749773678999647
2025-05-26 15:26:55.367,-5.003244691999312e-05,-8.38971592118437
2025-05-26 15:26:55.374,-5.1176174633683375e-05,-8.107011926854327
2025-05-26 15:26:55.382,-5.523422953164644e-05,-7.901967802236591
2025-05-26 15:26:55.390,-6.22267932744615e-05,-7.771741022336076
2025-05-26 15:26:55.398,-7.208287378566789e-05,-7.710617500249375
2025-05-26 15:26:55.406,-8.464619814014954e-05,-7.710374137406855
2025-05-26 15:26:55.414,-9.968412912197052e-05,-7.760710673943671
2025-05-26 15:26:55.421,-0.0001168994535464,-7.84973277821129
2025-05-26 15:26:55.429,-0.0001359447782371,-7.9644671634517294
2025-05-26 15:26:55.437,-0.0001564390965335,-8.091389121149763
2025-05-26 15:26:55.445,-0.0001779858350418,-8.216943204956815
2025-05-26 15:26:55.453,-0.000200191412916,-8.328038849614126
2025-05-26 15:26:55.460,-0.0002226831522265,-8.412504408151468
2025-05-26 15:26:55.468,-0.0002451253522922,-8.459485358883988
2025-05-26 15:26:55.476,-0.0002672324952209,-8.459775167635149
2025-05-26 15:26:55.484,-0.0002887788348862,-8.406070362624247
2025-05-26 15:26:55.492,-0.000309603970394,-8.29314464712855
2025-05-26 15:26:55.499,-0.0003296143605651,-8.117940192242509
2025-05-26 15:26:55.507,-0.0003487810426982,-7.879577477061543
2025-05-26 15:26:55.515,-0.0003671340220841,-7.579288044548823
2025-05-26 15:26:55.523,-0.0003847538802503,-7.220277202174477
2025-05-26 15:26:55.531,-0.0004017611547688,-6.807525923012474
2025-05-26 15:26:55.539,-0.0004183040422387,-6.347542925775952
2025-05-26 15:26:55.546,-0.0004345450018508,-5.848079085115296
2025-05-26 15:26:55.554,-0.0004506468693721,-5.317816923524309
2025-05-26 15:26:55.562,-0.0004667590882423,-4.76604796843684
2025-05-26 15:26:55.570,-0.0004830046040149,-4.202350260779335
2025-05-26 15:26:55.578,-0.0004994678745693,-3.6362773432670696
2025-05-26 15:26:55.585,-0.0005161843722525,-3.0770687254483056
2025-05-26 15:26:55.593,-0.0005331319289339,-2.5333902105484998
2025-05-26 15:26:55.601,-0.0005502242995805,-2.013110669711295
2025-05-26 15:26:55.609,-0.0005673073615524,-1.5231199581866648
2025-05-26 15:26:55.617,-0.0005841583672838,-1.0691907826586842
2025-05-26 15:26:55.624,-0.0006004885787946,-0.6558855374117867
2025-05-26 15:26:55.632,-0.0006159494356004,-0.2865074969399953
2025-05-26 15:26:55.640,-0.0006301421843029,0.036905671364214
2025-05-26 15:26:55.648,-0.000642630666772,0.3135493019008177
2025-05-26 15:26:55.656,-0.0006529567438387,0.5437842074609519
2025-05-26 15:26:55.664,-0.000660657634136,0.7290391197922506
2025-05-26 15:26:55.671,-0.000665284290739,0.8716884591364789
2025-05-26 15:26:55.679,-0.0006664198513392,0.9749110707292992
2025-05-26 15:26:55.687,-0.0006636972086969,1.0425356363983522
2025-05-26 15:26:55.695,-0.0006568148575802,1.0788783401578874
2025-05-26 15:26:55.703,-0.0006455503489419,1.088578049853462
2025-05-26 15:26:55.710,-0.0006297708735848,1.0764338023080149
2025-05-26 15:26:55.718,-0.0006094406692734,1.047248794425217
2025-05-26 15:26:55.726,-0.0005846250845246,1.0056844428748903
2025-05-26 15:26:55.734,-0.0005554912411485,0.956127433517204
2025-05-26 15:26:55.742,-0.0005223053259543,0.9025720822481672
2025-05-26 15:26:55.749,-0.0004854266336904,0.8485198004428198
2025-05-26 15:26:55.757,-0.0004452985953289,0.796897010679778
2025-05-26 15:26:55.765,-0.0004024371369036,0.7499924829734368
2025-05-26 15:26:55.773,-0.0003574167895747,0.7094147380327331
2025-05-26 15:26:55.781,-0.0003108550134109,0.6760698727728254
2025-05-26 15:26:55.789,-0.000263395234271,0.6501598939811424
2025-05-26 15:26:55.796,-0.0002156891354275,0.6312013951879607
2025-05-26 15:26:55.804,-0.0001683787814024,0.6180641738698427
2025-05-26 15:26:55.812,-0.000122079173342,0.6090291451240737
2025-05-26 15:26:55.820,-7.736184177177587e-05,0.601864636372963
2025-05-26 15:26:55.828,-3.4740063965979204e-05,0.5939198142482536
2025-05-26 15:26:55.835,5.343763504589228e-06,0.5822335767875214
2025-05-26 15:26:55.843,4.252816050204519e-05,0.5636567372419321
2025-05-26 15:26:55.851,7.653968773677685e-05,0.5349847480616051
2025-05-26 15:26:55.859,0.0001071969687876,0.493097600764195
2025-05-26 15:26:55.867,0.0001344115555663,0.4351029343708299
2025-05-26 15:26:55.874,0.0001581857172186,0.3584778397496484
2025-05-26 15:26:55.882,0.0001786073384185,0.261204410754708
2025-05-26 15:26:55.890,0.000195842169879,0.1418938235952122
2025-05-26 15:26:55.898,0.000210123685455,-0.0001063150373123
2025-05-26 15:26:55.906,0.0002217408012065,-0.1646263715346452
2025-05-26 15:26:55.914,0.0002310237517986,-0.3506153153975834
2025-05-26 15:26:55.921,0.000238328523651,-0.5561112024303202
2025-05-26 15:26:55.929,0.0002440203888614,-0.7782440218342999
2025-05-26 15:26:55.937,0.0002484572208598,-1.0132720951640657
2025-05-26 15:26:55.945,0.0002519733664274,-1.2566517680817533
2025-05-26 15:26:55.953,0.0002548648857776,-1.503138660082728
2025-05-26 15:26:55.960,0.0002573769507177,-1.74691733030261
2025-05-26 15:26:55.968,0.0002596941116032,-1.9817549675751929
2025-05-26 15:26:55.976,0.0002619340095038,-2.201173691412269
2025-05-26 15:26:55.984,0.000264144924925,-2.398635307414734
2025-05-26 15:26:55.992,0.0002663073242454,-2.5677319225915345
2025-05-26 15:26:55.999,0.0002683392984664,-2.7023756962852743
2025-05-26 15:26:56.007,0.0002701055056573,-2.7969811614450024
2025-05-26 15:26:56.015,0.0002714289701908,-2.846633962649787
2025-05-26 15:26:56.023,0.0002721049122892,-2.8472404790666026
2025-05-26 15:26:56.031,0.0002719157088959,-2.7956535920004053
2025-05-26 15:26:56.039,0.0002706461022141,-2.689770780763824
2025-05-26 15:26:56.046,0.0002680978387106,-2.528601751159244
2025-05-26 15:26:56.054,0.0002641030269111,-2.3123038817070314
2025-05-26 15:26:56.062,0.0002585356550708,-2.0421848769509325
2025-05-26 15:26:56.070,0.0002513209020314,-1.7206731058507323
2025-05-26 15:26:56.078,0.0002424420681344,-1.3512571358046797
2025-05-26 15:26:56.085,0.0002319450971293,-0.9383969105078518
2025-05-26 15:26:56.093,0.000219940720546,-0.4874098308683531
2025-05-26 15:26:56.101,0.0002066042413989,-0.0043356593847852
2025-05-26 15:26:56.109,0.0001921729331138,0.5042153376880251
2025-05-26 15:26:56.117,0.0001769410136273,1.0312262825033855
2025-05-26 15:26:56.124,0.0001612521863659,1.56944475448849
2025-05-26 15:26:56.132,0.0001454898220251,2.111556218424996
2025-05-26 15:26:56.140,0.0001300649866441,2.650355172920785
2025-05-26 15:26:56.148,0.0001154026892899,3.1789096584906487
2025-05-26 15:26:56.156,0.0001019268971135,3.6907151065806216
2025-05-26 15:26:56.164,9.00450162099886e-05,4.179833891573929
2025-05-26 15:26:56.171,8.013263834454284e-05,4.641017351894995
2025-05-26 15:26:56.179,7.251937889097274e-05,5.069807468207883
2025-05-26 15:26:56.187,6.747656494236024e-05,5.462615830673147
2025-05-26 15:26:56.195,6.52073961563218e-05,5.816778006649866
2025-05-26 15:26:56.203,6.584003280209996e-05,6.130581952488191
2025-05-26 15:26:56.210,6.942387051040024e-05,6.403269710458085
2025-05-26 15:26:56.218,7.592901879025567e-05,6.635012295224803
2025-05-26 15:26:56.226,8.524872884688249e-05,6.82685839453328
2025-05-26 15:26:56.234,9.720429030874796e-05,6.980658272242795
2025-05-26 15:26:56.242,0.00011155180752,7.098965052004228
2025-05-26 15:26:56.249,0.000127990284194,7.184916354552638
2025-05-26 15:26:56.257,0.0001461705422933,7.242100030468048
2025-05-26 15:26:56.265,0.000165704614804,7.274408435120839
2025-05-26 15:26:56.273,0.0001861753429938,7.285886289343159
2025-05-26 15:26:56.281,0.0002071459694566,7.280577610691727
2025-05-26 15:26:56.289,0.00022816956586,7.262377439186944
2025-05-26 15:26:56.296,0.0002487981885362,7.234894079591879
2025-05-26 15:26:56.304,0.0002685917130478,7.201327317879883
2025-05-26 15:26:56.312,0.0002871263369097,7.164367540980735
2025-05-26 15:26:56.320,0.0003040027434008,7.12611991124386
2025-05-26 15:26:56.328,0.0003188539022482,7.088056747463283
2025-05-26 15:26:56.335,0.0003313524676495,7.05100008315738
2025-05-26 15:26:56.343,0.0003412177225349,7.015135067586421
2025-05-26 15:26:56.351,0.0003482219895139,6.98005351748122
2025-05-26 15:26:56.359,0.000352196365629,6.944825591183206
2025-05-26 15:26:56.367,0.0003530355463455,6.908096304185092
2025-05-26 15:26:56.374,0.0003507014213666,6.868202484335948
2025-05-26 15:26:56.382,0.0003452251027195,6.82330481822258
2025-05-26 15:26:56.390,0.0003367071111013,6.771528909956212
2025-05-26 15:26:56.398,0.0003253155779569,6.711108800246612
2025-05-26 15:26:56.406,0.00031128247126,6.640526205780653
2025-05-26 15:26:56.414,0.0002948979878387,6.558638844964264
2025-05-26 15:26:56.421,0.0002765033613778,6.464791602510854
2025-05-26 15:26:56.429,0.0002564824106445,6.358904918646058
2025-05-26 15:26:56.437,0.0002352521972746,6.241535620171804
2025-05-26 15:26:56.445,0.0002132531776259,6.113906388124925
2025-05-26 15:26:56.453,0.0001909392204738,5.977901140532752
2025-05-26 15:26:56.460,0.000168767823933,5.836024779217281
2025-05-26 15:26:56.468,0.0001471908036616,5.691327000044094
2025-05-26 15:26:56.476,0.0001266456431878,5.547291188510578
2025-05-26 15:26:56.484,0.0001075475994079,5.40769079835446
2025-05-26 15:26:56.492,9.028254703218274e-05,5.2764170072427286
2025-05-26 15:26:56.499,7.520043989855337e-05,5.157282812263141
2025-05-26 15:26:56.507,6.260920013686244e-05,5.053810004441004
2025-05-26 15:26:56.515,5.2768863230570806e-05,4.969006571745638
2025-05-26 15:26:56.523,4.588591868324718e-05,4.905142954935906
2025-05-26 15:26:56.531,4.210794037040339e-05,4.863536170653795
2025-05-26 15:26:56.539,4.151872117164273e-05,4.844351096976929
2025-05-26 15:26:56.546,4.4134175034477344e-05,4.846428183993722
2025-05-26 15:26:56.554,4.989926272450888e-05,4.867146512834447
2025-05-26 15:26:56.562,5.86861763767832e-05,4.902330490596657
2025-05-26 15:26:56.570,7.029401276346524e-05,4.946207541620388
2025-05-26 15:26:56.578,8.445017444192893e-05,4.991422937415612
2025-05-26 15:26:56.585,0.0001008137351007,5.029116396273174
2025-05-26 15:26:56.593,0.0001189809643834,5.049063285238528
2025-05-26 15:26:56.601,0.0001384931167071,5.039881195455805
2025-05-26 15:26:56.609,0.0001588464484436,4.989300382382973
2025-05-26 15:26:56.617,0.0001795042522039,4.884494127790007
2025-05-26 15:26:56.624,0.0001999105227244,4.712462561261845
2025-05-26 15:26:56.632,0.0002195047462728,4.46046094832285
2025-05-26 15:26:56.640,0.000237737260736,4.116460990544445
2025-05-26 15:26:56.648,0.0002540846448597,3.669631383677486
2025-05-26 15:26:56.656,0.000268064616564,3.1108218496689948
2025-05-26 15:26:56.664,0.0002792499209403,2.433033212971956
2025-05-26 15:26:56.671,0.0002872806700356,1.6318549534153148
2025-05-26 15:26:56.679,0.0002918745928585,0.7058511661614858
2025-05-26 15:26:56.687,0.000292834713966,-0.3431238769763985
2025-05-26 15:26:56.695,0.0002900541250447,-1.5096982284996965
2025-05-26 15:26:56.703,0.0002835177121169,-2.7848583954345347
2025-05-26 15:26:56.710,0.0002733008816377,-4.155941591946494
2025-05-26 15:26:56.718,0.0002595654441469,-5.6067526004973605
2025-05-26 15:26:56.726,0.0002425528762133,-7.117808908921354
2025-05-26 15:26:56.734,0.0002225752366571,-8.666712366941333
2025-05-26 15:26:56.742,0.0002000040868967,-10.228639863289487
2025-05-26 15:26:56.749,0.0001752578463829,-11.776939806483568
2025-05-26 15:26:56.757,0.0001487880822824,-13.28381586201999
2025-05-26 15:26:56.765,0.0001210652790275,-14.72107480624427
2025-05-26 15:26:56.773,9.25646576536134e-05,-16.060911809712028
2025-05-26 15:26:56.781,6.375261678379428e-05,-17.276704199124573
2025-05-26 15:26:56.789,3.507433853328486e-05,-18.343783914876056
2025-05-26 15:26:56.796,6.943024444474738e-06,-19.240159525157207
2025-05-26 15:26:56.804,-2.0268910830305025e-05,-19.947160718455404
2025-05-26 15:26:56.812,-4.623652920515811e-05,-20.449981524716865
2025-05-26 15:26:56.820,-7.068693231146511e-05,-20.7381028908082
2025-05-26 15:26:56.828,-9.34017901815978e-05,-20.805580387928707
2025-05-26 15:26:56.835,-0.0001142179931196,-20.65118845992636
2025-05-26 15:26:56.843,-0.0001330266341882,-20.27841842997857
2025-05-26 15:26:56.851,-0.0001497705736192,-19.69533317921245
2025-05-26 15:26:56.859,-0.0001644408749079,-18.91428672777637
2025-05-26 15:26:56.867,-0.0001770724262996,-17.951521652118544
2025-05-26 15:26:56.874,-0.0001877390508872,-16.82666117498088
2025-05-26 15:26:56.882,-0.000196548353025,-15.562115746166125
2025-05-26 15:26:56.890,-0.000203636473454,-14.182425947167362
2025-05-26 15:26:56.898,-0.0002091628708622,-12.713564623336795
2025-05-26 15:26:56.906,-0.0002133052173069,-11.182221342259476
2025-05-26 15:26:56.914,-0.0002162544558248,-9.615091691829294
2025-05-26 15:26:56.921,-0.0002182100039478,-8.038192675734255
2025-05-26 15:26:56.929,-0.0002193750231381,-6.476223651750039
2025-05-26 15:26:56.937,-0.0002199516587404,-4.951989996047582
2025-05-26 15:26:56.945,-0.0002201362202637,-3.485904054111068
2025-05-26 15:26:56.953,-0.0002201144059973,-2.095575029791374
2025-05-26 15:26:56.960,-0.0002200568190839,-0.7954963391946882
2025-05-26 15:26:56.968,-0.0002201151005401,0.4031643052238516
2025-05-26 15:26:56.976,-0.0002204189827165,1.4926701223487573
2025-05-26 15:26:56.984,-0.0002210744660142,2.468717100015638
2025-05-26 15:26:56.992,-0.0002221631912131,3.330336846210108
2025-05-26 15:26:56.999,-0.0002237429563646,4.079707713575272
2025-05-26 15:26:57.007,-0.000225849226105,4.721883970828646
2025-05-26 15:26:57.015,-0.0002284974070199,5.264454889162568
2025-05-26 15:26:57.023,-0.0002316856171857,5.717147231771288
2025-05-26 15:26:57.031,-0.0002353976620238,6.091385747399654
2025-05-26 15:26:57.039,-0.0002396059402499,6.399826860143712
2025-05-26 15:26:57.046,-0.0002442740320157,6.655880821150448
2025-05-26 15:26:57.054,-0.0002493587434965,6.873237165126479
2025-05-26 15:26:57.062,-0.000254811383892,7.06540743529255
2025-05-26 15:26:57.070,-0.000260578054529,7.245297860351769
2025-05-26 15:26:57.078,-0.0002665987808034,7.424823056802836
2025-05-26 15:26:57.085,-0.0002728054368878,7.6145699738446755
2025-05-26 15:26:57.093,-0.0002791185829753,7.823519290102712
2025-05-26 15:26:57.101,-0.0002854435260925,8.058829405925785
2025-05-26 15:26:57.109,-0.0002916660997479,8.32568613519648
2025-05-26 15:26:57.117,-0.0002976487935654,8.627219250149814
2025-05-26 15:26:57.124,-0.0003032279006232,8.964485216448312
2025-05-26 15:26:57.132,-0.0003082122645698,9.336513806207154
2025-05-26 15:26:57.140,-0.0003123840360711,9.74041481839488
2025-05-26 15:26:57.148,-0.0003155016614669,10.171539884433866
2025-05-26 15:26:57.156,-0.0003173051777424,10.623693294999407
2025-05-26 15:26:57.164,-0.0003175237707043,11.08938494359434
2025-05-26 15:26:57.171,-0.0003158854276315,11.560117828074857
2025-05-26 15:26:57.179,-0.0003121283633511,12.026702063664231
2025-05-26 15:26:57.187,-0.0003060137385387,12.4795870170675
2025-05-26 15:26:57.195,-0.0002973390487812,12.90920294689662
2025-05-26 15:26:57.203,-0.0002859514586276,13.306303415081429
2025-05-26 15:26:57.210,-0.0002717602935736,13.662299720177511
2025-05-26 15:26:57.218,-0.0002547478890457,13.969578715802813
2025-05-26 15:26:57.226,-0.0002349780320619,14.221795636005504
2025-05-26 15:26:57.234,-0.0002126013200393,14.41413396014341
2025-05-26 15:26:57.242,-0.0001878569023021,14.543524902014974
2025-05-26 15:26:57.249,-0.000161070261666,14.608819781198934
2025-05-26 15:26:57.257,-0.0001326469310673,14.610909307577757
2025-05-26 15:26:57.265,-0.0001030623070911,14.552784667883964
2025-05-26 15:26:57.273,-7.284797952197863e-05,14.4395362442578
2025-05-26 15:26:57.281,-4.257519176182051e-05,14.278286835483271
2025-05-26 15:26:57.289,-1.2836153877920675e-05,14.078057421662194
2025-05-26 15:26:57.296,1.5776030837988317e-05,13.849564843069407
2025-05-26 15:26:57.304,4.268804958394734e-05,13.60495227203569
2025-05-26 15:26:57.312,6.736688339249097e-05,13.357455044864327
2025-05-26 15:26:57.320,8.933933647581187e-05,13.121006277146568
2025-05-26 15:26:57.328,0.000108209820697,12.909788684835965
2025-05-26 15:26:57.335,0.0001236756626347,12.737741130640792
2025-05-26 15:26:57.343,0.0001355392431307,12.618030543857817
2025-05-26 15:26:57.351,0.0001437163506398,12.56250193702773
2025-05-26 15:26:57.359,0.0001482402676225,12.581121171740842
2025-05-26 15:26:57.367,0.0001492613117172,12.68142681326722
2025-05-26 15:26:57.374,0.0001470417822779,12.868008763316272
2025-05-26 15:26:57.382,0.0001419464839313,13.142032279191216
2025-05-26 15:26:57.390,0.0001344291977412,13.500826394884871
2025-05-26 15:26:57.398,0.0001250156434598,13.93755559338755
2025-05-26 15:26:57.406,0.0001142836214984,14.44099279684992
2025-05-26 15:26:57.414,0.0001028411394594,14.995410312576697
2025-05-26 15:26:57.421,9.130341450419924e-05,15.58060327610992
2025-05-26 15:26:57.429,8.02696989207309e-05,16.17205735388969
2025-05-26 15:26:57.437,7.030090002394377e-05,16.74126900595072
2025-05-26 15:26:57.445,6.189894706541975e-05,17.256222480726215
2025-05-26 15:26:57.453,5.548877649492085e-05,17.682022960589933
2025-05-26 15:26:57.460,5.1403651607608713e-05,17.981679974113135
2025-05-26 15:26:57.468,4.987432998461614e-05,18.117029461181534
2025-05-26 15:26:57.476,5.102239264441902e-05,18.049776893262475
2025-05-26 15:26:57.484,5.48578793819486e-05,17.742637831220623
2025-05-26 15:26:57.492,6.128122486423223e-05,17.160546498569435
2025-05-26 15:26:57.499,7.008933996481017e-05,16.271897636282993
2025-05-26 15:26:57.507,8.098552412647139e-05,15.049782386252277
2025-05-26 15:26:57.515,9.359272737147908e-05,13.473175538535193
2025-05-26 15:26:57.523,0.0001074695089225,11.52802948124376
2025-05-26 15:26:57.531,0.0001221278776394,9.208229884694385
2025-05-26 15:26:57.539,0.0001370520833709,6.516369742836182
2025-05-26 15:26:57.546,0.0001517174055871,3.4643020070451214
2025-05-26 15:26:57.554,0.0001656080784499,0.0734366957192301
2025-05-26 15:26:57.562,0.0001782336727513,-3.625244057351882
2025-05-26 15:26:57.570,0.0001891434725254,-7.59147027210117
2025-05-26 15:26:57.578,0.0001979385959713,-11.776274327617102
2025-05-26 15:26:57.585,0.0002042817889105,-16.122882165426702
2025-05-26 15:26:57.593,0.0002079049368882,-20.567888577884904
2025-05-26 15:26:57.601,0.0002086143843664,-25.042687823335186
2025-05-26 15:26:57.609,0.0002062941404754,-29.4751196581742
2025-05-26 15:26:57.617,0.0002009070397516,-33.79128097694374
2025-05-26 15:26:57.624,0.0001924939399478,-37.91744512802455
2025-05-26 15:26:57.632,0.0001811710674686,-41.78202508284262
2025-05-26 15:26:57.640,0.0001671256457046,-45.31751334342816
2025-05-26 15:26:57.648,0.0001506099554208,-48.46233101176884
2025-05-26 15:26:57.656,0.0001319339824063,-51.162520897093415
2025-05-26 15:26:57.664,0.0001114568186732,-53.37322482338533
2025-05-26 15:26:57.671,8.95770234025331e-05,-55.05989318175599
2025-05-26 15:26:57.679,6.672223114658903e-05,-56.19918487541274
2025-05-26 15:26:57.687,4.333838414314125e-05,-56.779527639126215
2025-05-26 15:26:57.695,1.9878994687352865e-05,-56.80132170325992
2025-05-26 15:26:57.703,-3.2052232043083417e-06,-56.27678328483157
2025-05-26 15:26:57.710,-2.547613692603749e-05,-55.2294377864249
2025-05-26 15:26:57.718,-4.6517285450123325e-05,-53.69328526559037
2025-05-26 15:26:57.726,-6.59422252314781e-05,-51.711672168924736
2025-05-26 15:26:57.734,-8.340209520545452e-05,-49.33591306112905
2025-05-26 15:26:57.742,-9.859235880004995e-05,-46.62371377732679
2025-05-26 15:26:57.749,-0.0001112586668824,-43.63745285713762
2025-05-26 15:26:57.757,-0.0001212017670858,-40.4423811669746
2025-05-26 15:26:57.765,-0.0001282813649928,-37.10480027546223
2025-05-26 15:26:57.773,-0.0001324188245266,-33.690278504539094
2025-05-26 15:26:57.781,-0.0001335985821695,-30.26195981394468
2025-05-26 15:26:57.789,-0.0001318681458532,-26.87901505279402
2025-05-26 15:26:57.796,-0.000127336557976,-23.59527796536697
2025-05-26 15:26:57.804,-0.0001201712260519,-20.458100055159267
2025-05-26 15:26:57.812,-0.0001105930665605,-17.50744940012839
2025-05-26 15:26:57.820,-9.886996948044034e-05,-14.775269179627603
2025-05-26 15:26:57.828,-8.53086737832013e-05,-12.285102401272816
2025-05-26 15:26:57.835,-7.024524624980884e-05,-10.05198043785699
2025-05-26 15:26:57.843,-5.40344666345757e-05,-8.082564773713761
2025-05-26 15:26:57.851,-3.703851704834653e-05,-6.375524030759624
2025-05-26 15:26:57.859,-1.961542827849595e-05,-4.922122061357741
2025-05-26 15:26:57.867,-2.1077502601747306e-06,-3.706987779507183
2025-05-26 15:26:57.875,1.5168090100105827e-05,-2.709033530234968
2025-05-26 15:26:57.882,3.1931289201534895e-05,-1.9024861969334523
2025-05-26 15:26:57.890,4.7944596401937067e-05,-1.257993898444852
2025-05-26 15:26:57.898,6.302030784010012e-05,-0.7437709780687822
2025-05-26 15:26:57.906,7.702406047401112e-05,-0.3267449611321228
2025-05-26 15:26:57.914,8.987628572413632e-05,0.0263288333171623
2025-05-26 15:26:57.921,0.0001015513227468,0.3478164081863434
2025-05-26 15:26:57.929,0.000112074348921,0.6682455921539976
2025-05-26 15:26:57.937,0.0001215164310455,1.0154612415803057
2025-05-26 15:26:57.945,0.0001299880857727,1.4139136376845265
2025-05-26 15:26:57.953,0.0001376317377363,1.8840934713719848
2025-05-26 15:26:57.960,0.0001446133950268,2.44212158138358
2025-05-26 15:26:57.968,0.000151113760832,3.0994964336077264
2025-05-26 15:26:57.976,0.0001573189146761,3.862997366798335
2025-05-26 15:26:57.984,0.0001634106766269,4.734737032866449
2025-05-26 15:26:57.992,0.0001695568276418,5.712352352812441
2025-05-26 15:26:58.000,0.0001759014531346,6.78931978958611
2025-05-26 15:26:58.007,0.0001825557428781,7.955377880361076
2025-05-26 15:26:58.015,0.0001895896061161,9.19703782448962
2025-05-26 15:26:58.023,0.0001970244790064,10.498161519602904
2025-05-26 15:26:58.031,0.0002048277320195,11.84058578590762
2025-05-26 15:26:58.039,0.000212909112484,13.204771604472144
2025-05-26 15:26:58.046,0.0002211196569986,14.570457978921986
2025-05-26 15:26:58.054,0.0002292534588971,15.917301440409789
2025-05-26 15:26:58.062,0.0002370525548258,17.225484153367262
2025-05-26 15:26:58.070,0.000244214991713,18.476275924286885
2025-05-26 15:26:58.078,0.0002504058799059,19.65253803638052
2025-05-26 15:26:58.085,0.0002552709839555,20.73915959419781
2025-05-26 15:26:58.093,0.0002584521825357,21.723419831386938
2025-05-26 15:26:58.101,0.0002596039495017,22.595272489403136
2025-05-26 15:26:58.109,0.0002584098874183,23.34755081136401
2025-05-26 15:26:58.117,0.0002545983241017,23.976093833673715
2025-05-26 15:26:58.125,0.0002479560835476,24.479796444743528
2025-05-26 15:26:58.132,0.0002383397307547,24.86058708733214
2025-05-26 15:26:58.140,0.0002256837942667,25.123338006245163
2025-05-26 15:26:58.148,0.0002100056407358,25.2757136077634
2025-05-26 15:26:58.156,0.0001914068211555,25.32796284164639
2025-05-26 15:26:58.164,0.0001700708711592,25.292661590920552
2025-05-26 15:26:58.171,0.0001462577487748,25.18441090988646
2025-05-26 15:26:58.179,0.0001202953141974,25.01949663801837
2025-05-26 15:26:58.187,9.256846049634562e-05,24.81551549378173
2025-05-26 15:26:58.195,6.350664686829059e-05,24.590972285039435
2025-05-26 15:26:58.203,3.3570627360222574e-05,24.36485243756112
2025-05-26 15:26:58.210,3.2391072752371856e-06,24.156173721652564
2025-05-26 15:26:58.218,-2.70040632228049e-05,23.983520932974656
2025-05-26 15:26:58.226,-5.668170477691744e-05,23.8645674356415
2025-05-26 15:26:58.234,-8.533387436404185e-05,23.815587961239554
2025-05-26 15:26:58.242,-0.0001125271461288,23.850967897948298
2025-05-26 15:26:58.250,-0.0001378627733809,23.98271548049581
2025-05-26 15:26:58.257,-0.0001609840002683,24.21998475189444
2025-05-26 15:26:58.265,-0.0001815827615808,24.56861883398583
2025-05-26 15:26:58.273,-0.0001994058721758,25.03072481456663
2025-05-26 15:26:58.281,-0.0002142606264623,25.60429330966919
2025-05-26 15:26:58.289,-0.0002260195680347,26.282877346079427
2025-05-26 15:26:58.296,-0.0002346240946908,27.05534647362559
2025-05-26 15:26:58.304,-0.000240086551189,27.90573279328903
2025-05-26 15:26:58.312,-0.0002424905236485,28.813185706961285
2025-05-26 15:26:58.320,-0.0002419891540979,29.752051497164874
2025-05-26 15:26:58.328,-0.000238801387364,30.692092197066955
2025-05-26 15:26:58.335,-0.0002332061097031,31.59885552565452
2025-05-26 15:26:58.343,-0.0002255341722581,32.434203908922655
2025-05-26 15:26:58.351,-0.00021615838497,33.157005812226856
2025-05-26 15:26:58.359,-0.0002054817390951,33.72398685959918
2025-05-26 15:26:58.367,-0.0001939243085608,34.09073166954341
2025-05-26 15:26:58.375,-0.0001819094206825,34.21282022522093
2025-05-26 15:26:58.382,-0.0001698497606152,34.047075225004946
2025-05-26 15:26:58.390,-0.0001581341028352,33.55288959541122
2025-05-26 15:26:58.398,-0.0001471153450643,32.69359660777224
2025-05-26 15:26:58.406,-0.0001371004237616,31.43783926211036
2025-05-26 15:26:58.414,-0.0001283425091145,29.76089121769301
2025-05-26 15:26:58.421,-0.0001210356710087,27.64587894499755
2025-05-26 15:26:58.429,-0.0001153120618385,25.08485425370235
2025-05-26 15:26:58.437,-0.0001112416036272,22.079668116777984
2025-05-26 15:26:58.445,-0.0001088341387696,18.642600841619657
2025-05-26 15:26:58.453,-0.0001080439376431,14.796710084536771
2025-05-26 15:26:58.460,-0.0001087763425413,10.57586678267072
2025-05-26 15:26:58.468,-0.000110896201832,6.02445948395081
2025-05-26 15:26:58.476,-0.0001142376442416,1.1967593830693508
2025-05-26 15:26:58.484,-0.0001186146738852,-3.844048871310266
2025-05-26 15:26:58.492,-0.0001238320344678,-9.027152396802494
2025-05-26 15:26:58.500,-0.0001296957956273,-14.27568019707104
2025-05-26 15:26:58.507,-0.0001360231526907,-19.50851493679485
2025-05-26 15:26:58.515,-0.0001426509911826,-24.642292402588783
2025-05-26 15:26:58.523,-0.0001494428254663,-29.59352587322032
2025-05-26 15:26:58.531,-0.0001562937617772,-34.28078617579598
2025-05-26 15:26:58.539,-0.0001631331812983,-38.62686446528807
2025-05-26 15:26:58.546,-0.0001699249334371,-42.56084397205511
2025-05-26 15:26:58.554,-0.0001766649916244,-46.02000922793768
2025-05-26 15:26:58.562,-0.000183376725941,-48.95152656674061
2025-05-26 15:26:58.570,-0.0001901041398254,-51.313837796883305
2025-05-26 15:26:58.578,-0.0001969035713478,-53.07771950638246
2025-05-26 15:26:58.585,-0.0002038344779101,-54.22697299564068
2025-05-26 15:26:58.593,-0.0002109500159152,-54.75872374808587
2025-05-26 15:26:58.601,-0.0002182881679952,-54.6833239731659
2025-05-26 15:26:58.609,-0.0002258641224393,-54.02386639050691
2025-05-26 15:26:58.617,-0.0002336644756187,-52.81533139253097
2025-05-26 15:26:58.625,-0.0002416436486754,-51.103402422014206
2025-05-26 15:26:58.632,-0.0002497227213234,-48.94299532871476
2025-05-26 15:26:58.640,-0.0002577907057075,-46.39655623845898
2025-05-26 15:26:58.648,-0.000265708119088,-43.53218881678501
2025-05-26 15:26:58.656,-0.0002733125706363,-40.4216756067793
2025-05-26 15:26:58.664,-0.0002804259591426,-37.13845936532829
2025-05-26 15:26:58.671,-0.000286862788522,-33.75564912356804
2025-05-26 15:26:58.679,-0.0002924390494414,-30.34411225207961
2025-05-26 15:26:58.687,-0.0002969810901481,-26.97070837991505
2025-05-26 15:26:58.695,-0.0003003339087746,-23.696713909956102
2025-05-26 15:26:58.703,-0.0003023683432613,-20.576477442331967
2025-05-26 15:26:58.710,-0.000302986712929,-17.656337040563578
2025-05-26 15:26:58.718,-0.0003021265760824,-14.97382034290649
2025-05-26 15:26:58.726,-0.0002997624083758,-12.557138424626068
2025-05-26 15:26:58.734,-0.0002959051720297,-10.424974428160237
2025-05-26 15:26:58.742,-0.0002905999208103,-8.586558631140184
2025-05-26 15:26:58.750,-0.0002839217346038,-7.042013097550803
2025-05-26 15:26:58.757,-0.0002759703611596,-5.782941579039276
2025-05-26 15:26:58.765,-0.0002668639584424,-4.79323407230011
2025-05-26 15:26:58.773,-0.0002567323161307,-4.050050512857062
2025-05-26 15:26:58.781,-0.0002457099141935,-3.524944559458206
2025-05-26 15:26:58.789,-0.0002339291393898,-3.1850863078482634
2025-05-26 15:26:58.796,-0.0002215139181434,-2.994542034099644
2025-05-26 15:26:58.804,-0.0002085739544739,-2.9155696383254006
2025-05-26 15:26:58.812,-0.0001951997089442,-2.9098902447819897
2025-05-26 15:26:58.820,-0.00018145823109,-2.939899293897815
2025-05-26 15:26:58.828,-0.0001673899661917,-2.969784293069801
2025-05-26 15:26:58.835,-0.0001530066955407,-2.966521018326885
2025-05-26 15:26:58.843,-0.0001382908244067,-2.900725209562814
2025-05-26 15:26:58.851,-0.0001231962686679,-2.747342496688469
2025-05-26 15:26:58.859,-0.0001076511619996,-2.4861652359195894
2025-05-26 15:26:58.867,-9.15624883555421e-05,-2.102170916918481
2025-05-26 15:26:58.875,-7.482256583369742e-05,-1.5856826187331996
2025-05-26 15:26:58.882,-5.731711972918665e-05,-0.9323574613046596
2025-05-26 15:26:58.890,-3.893452390833701e-05,-0.1430139631627706
2025-05-26 15:26:58.898,-1.95756778012106e-05,0.7766864555908071
2025-05-26 15:26:58.906,8.360728253709592e-07,1.816684999614713
2025-05-26 15:26:58.914,2.2345567037054305e-05,2.963076466392505
2025-05-26 15:26:58.921,4.495755707275135e-05,4.198742184724963
2025-05-26 15:26:58.929,6.862998496865244e-05,5.504040472611369
2025-05-26 15:26:58.937,9.326914596743732e-05,6.857530083050848
2025-05-26 15:26:58.945,0.00011872697332,8.236702886338925
2025-05-26 15:26:58.953,0.0001448005959455,9.618703601071555
2025-05-26 15:26:58.960,0.0001712342593881,10.981016619544976
2025-05-26 15:26:58.968,0.0001977236604405,12.30210273379978
2025-05-26 15:26:58.976,0.0002239227069064,13.561971696041786
2025-05-26 15:26:58.984,0.000249452630548,14.742679874621343
2025-05-26 15:26:58.992,0.0002739132210146,15.828745628270806
2025-05-26 15:26:59.000,0.0002968957394374,16.807478260348734
2025-05-26 15:26:59.007,0.0003179968866691,17.6692193944476
2025-05-26 15:26:59.015,0.0003368330971603,18.40749822295362
2025-05-26 15:26:59.023,0.0003530544066654,19.019104239335107
2025-05-26 15:26:59.031,0.0003663571814572,19.504082718454523
2025-05-26 15:26:59.039,0.0003764950892864,19.865659332083947
2025-05-26 15:26:59.046,0.0003832878257138,20.110100890245317
2025-05-26 15:26:59.054,0.0003866272574894,20.24651933275176
2025-05-26 15:26:59.062,0.0003864807843622,20.28662583971801
2025-05-26 15:26:59.070,0.0003828918509844,20.24444138198853
2025-05-26 15:26:59.078,0.0003759776804648,20.135969297097247
2025-05-26 15:26:59.085,0.0003659244629221,19.978834663348565
2025-05-26 15:26:59.093,0.0003529803917166,19.79189446540249
2025-05-26 15:26:59.101,0.0003374470496982,19.59482190240285
2025-05-26 15:26:59.109,0.0003196696849987,19.40766776785336
2025-05-26 15:26:59.117,0.0003000268960095,19.25040169008484
2025-05-26 15:26:59.125,0.000278920193521,19.142436204477743
2025-05-26 15:26:59.132,0.0002567638391408,19.102137156384728
2025-05-26 15:26:59.140,0.0002339752796721,19.14632480877164
2025-05-26 15:26:59.148,0.0002109664119323,19.28977122959211
2025-05-26 15:26:59.156,0.0001881358260627,19.54470101623881
2025-05-26 15:26:59.164,0.0001658620917991,19.92030411028176
2025-05-26 15:26:59.171,0.0001444980749833,20.42227127277709
2025-05-26 15:26:59.179,0.0001243662036644,21.05236461111864
2025-05-26 15:26:59.187,0.0001057545483042,21.808037233507708
2025-05-26 15:26:59.195,8.891354999476556e-05,22.682117504476757
2025-05-26 15:26:59.203,7.405324555681799e-05,23.662574329284663
2025-05-26 15:26:59.210,6.134091012114412e-05,24.732380256564447
2025-05-26 15:26:59.218,5.0899139306619695e-05,25.8694888221786
2025-05-26 15:26:59.226,4.2804473297431526e-05,27.04694135509437
2025-05-26 15:26:59.234,3.708669629222268e-05,28.23311636050981
2025-05-26 15:26:59.242,3.372893677226955e-05,29.392131562397136
2025-05-26 15:26:59.250,3.2668666145275164e-05,30.48440474042158
2025-05-26 15:26:59.257,3.37996541706611e-05,31.467374680491996
2025-05-26 15:26:59.265,3.697488999922298e-05,32.29637795749861
2025-05-26 15:26:59.273,4.201041889248401e-05,32.92567101816944
2025-05-26 15:26:59.281,4.86899864896452e-05,33.30958033114437
2025-05-26 15:26:59.289,5.677034609507446e-05,33.40375648845496
2025-05-26 15:26:59.296,6.598708390691273e-05,33.16650140449697
2025-05-26 15:26:59.304,7.606083760847086e-05,32.56013153220044
2025-05-26 15:26:59.312,8.670379855465742e-05,31.55233468869524
2025-05-26 15:26:59.320,9.762638529582212e-05,30.117474042837024
2025-05-26 15:26:59.328,0.0001085439473931,28.237790429650172
2025-05-26 15:26:59.335,0.0001191832908864,25.904453731857952
2025-05-26 15:26:59.343,0.0001292887322653,23.11841582869545
2025-05-26 15:26:59.351,0.0001386273499483,19.89102166808336
2025-05-26 15:26:59.359,0.0001469931569533,16.2443413525723
2025-05-26 15:26:59.367,0.0001542100513643,12.2111945845516
2025-05-26 15:26:59.375,0.0001601335644155,7.834849091108842
2025-05-26 15:26:59.382,0.0001646515804228,3.1683863133884835
2025-05-26 15:26:59.390,0.0001676843227879,-1.7262598285509514
2025-05-26 15:26:59.398,0.0001691839584579,-6.779572480847003
2025-05-26 15:26:59.406,0.0001691341461856,-11.915998613700577
2025-05-26 15:26:59.414,0.0001675497459956,-17.05573030723323
2025-05-26 15:26:59.421,0.0001644767567472,-22.116667711513664
2025-05-26 15:26:59.429,0.0001599924084989,-27.016502535438597
2025-05-26 15:26:59.437,0.0001542052460239,-31.674854893006213
2025-05-26 15:26:59.445,0.0001472550058939,-36.01539288121084
2025-05-26 15:26:59.453,0.0001393120921012,-39.96786359010526
2025-05-26 15:26:59.460,0.0001305764728275,-43.46996644446312
2025-05-26 15:26:59.468,0.0001212758447409,-46.469004807855725
2025-05-26 15:26:59.476,0.0001116629400269,-48.923259465978674
2025-05-26 15:26:59.484,0.0001020118855077,-50.803037634943536
2025-05-26 15:26:59.492,9.261356266729708e-05,-52.09136307652236
2025-05-26 15:26:59.500,8.376996178757282e-05,-52.784286203486246
2025-05-26 15:26:59.507,7.578757197115888e-05,-52.89080710350791
2025-05-26 15:26:59.515,6.896990041417892e-05,-52.43241854411291
2025-05-26 15:26:59.523,6.360926736302692e-05,-51.44228960179814
2025-05-26 15:26:59.531,5.997807582243393e-05,-49.9641229962585
2025-05-26 15:26:59.539,5.831980503976647e-05,-48.050729996755166
2025-05-26 15:26:59.546,5.884002156359893e-05,-45.76237549791348
2025-05-26 15:26:59.554,6.169773857068111e-05,-43.164952259784805
2025-05-26 15:26:59.562,6.699748039487336e-05,-40.328047232634354
2025-05-26 15:26:59.570,7.478242202216098e-05,-37.32296432942684
2025-05-26 15:26:59.578,8.502897013914843e-05,-34.22076706226209
2025-05-26 15:26:59.585,9.764313082966504e-05,-31.0904013008423
2025-05-26 15:26:59.593,0.0001124589673261,-27.996953289664148
2025-05-26 15:26:59.601,0.0001292393880289,-25.00009128133049
2025-05-26 15:26:59.609,0.0001476794197018,-22.15273104861385
2025-05-26 15:26:59.617,0.0001674120135488,-19.499956487288895
2025-05-26 15:26:59.625,0.0001880163055522,-17.078216880348705
2025-05-26 15:26:59.632,0.000209028118832,-14.914812525969436
2025-05-26 15:26:59.640,0.0002299523803147,-13.02767069015405
2025-05-26 15:26:59.648,0.0002502770518043,-11.425404560943791
2025-05-26 15:26:59.656,0.0002694881462069,-10.107639348982126
2025-05-26 15:26:59.664,0.0002870853807602,-9.065582146632648
2025-05-26 15:26:59.671,0.0003025979671328,-8.282805816824252
2025-05-26 15:26:59.679,0.0003155999344477,-7.736212164823575
2025-05-26 15:26:59.687,0.0003257242617191,-7.397136023474192
2025-05-26 15:26:59.695,0.0003326750357668,-7.2325496762112
2025-05-26 15:26:59.703,0.0003362368999613,-7.206326232476076
2025-05-26 15:26:59.710,0.0003362812066773,-7.280521101008823
2025-05-26 15:26:59.718,0.0003327684865147,-7.416632483867353
2025-05-26 15:26:59.726,0.0003257470645085,-7.576804705073492
2025-05-26 15:26:59.734,0.0003153478728522,-7.724942028879383
2025-05-26 15:26:59.742,0.0003017757261872,-7.827705232796781
2025-05-26 15:26:59.750,0.0002852975360585,-7.855368389984237
2025-05-26 15:26:59.757,0.0002662281409469,-7.782518886997553
2025-05-26 15:26:59.765,0.0002449146028681,-7.588589452550533
2025-05-26 15:26:59.773,0.0002217199373294,-7.25821669931242
2025-05-26 15:26:59.781,0.0001970072636424,-6.781426198679206
2025-05-26 15:26:59.789,0.0001711252875205,-6.153649258339549
2025-05-26 15:26:59.796,0.0001443958981699,-5.375581219686536
2025-05-26 15:26:59.804,0.0001171045066679,-4.452895123244179
2025-05-26 15:26:59.812,8.949356477177746e-05,-3.3958279146966843
2025-05-26 15:26:59.820,6.175947909415065e-05,-2.2186589205558125
2025-05-26 15:26:59.828,3.4052897455953335e-05,-0.939102084263244
2025-05-26 15:26:59.835,6.482121460934903e-06,0.4223655716240866
2025-05-26 15:26:59.843,-2.088079094364425e-05,1.8432165670349416
2025-05-26 15:26:59.851,-4.799181931411269e-05,3.2996044482938567
2025-05-26 15:26:59.859,-7.482536285414147e-05,4.767093003116507
2025-05-26 15:26:59.867,-0.0001013639605872,6.221363705087486
2025-05-26 15:26:59.875,-0.0001275881080625,7.638883963631815
2025-05-26 15:26:59.882,-0.0001534668889514,8.9975211796464
2025-05-26 15:26:59.890,-0.0001789500525293,10.277090264103474
2025-05-26 15:26:59.898,-0.0002039620366486,11.45982504395502
2025-05-26 15:26:59.906,-0.0002283982666502,12.53076673447407
2025-05-26 15:26:59.914,-0.0002521238693685,13.478065292681842
2025-05-26 15:26:59.921,-0.0002749747573559,14.293191898235834
2025-05-26 15:26:59.929,-0.0002967608907958,14.97106297149175
2025-05-26 15:26:59.937,-0.0003172714183212,15.510077983644011
2025-05-26 15:26:59.945,-0.0003362813155984,15.912074808642451
2025-05-26 15:26:59.953,-0.000353559072075,16.182207505217743
2025-05-26 15:26:59.960,-0.0003688749375775,16.328752225858434
2025-05-26 15:26:59.968,-0.0003820092547303,16.362847481838987
2025-05-26 15:26:59.976,-0.0003927604709336,16.298175320719455
2025-05-26 15:26:59.984,-0.0004009525209681,16.15059017126877
2025-05-26 15:26:59.992,-0.0004064413718772,15.9377022493996
2025-05-26 15:27:00.000,-0.0004091206044417,15.67842255204988
2025-05-26 15:27:00.007,-0.000408925946885,15.392476634944082
2025-05-26 15:27:00.015,-0.0004058386646438,15.09989460609322
2025-05-26 15:27:00.023,-0.0003998876713945,14.820485093134195
2025-05-26 15:27:00.031,-0.0003911502112845,14.573301372907478
2025-05-26 15:27:00.039,-0.0003797509971705,14.376108386184924
2025-05-26 15:27:00.046,-0.0003658597636428,14.244859983028332
2025-05-26 15:27:00.054,-0.0003496872860786,14.193196424621014
2025-05-26 15:27:00.062,-0.0003314800178775,14.231972865930391
2025-05-26 15:27:00.070,-0.0003115136049993,14.36883021092969
2025-05-26 15:27:00.078,-0.0002900856470601,14.607820303354572
2025-05-26 15:27:00.085,-0.0002675081744588,14.949097808057816
2025-05-26 15:27:00.093,-0.0002441003670216,15.388691257404584
2025-05-26 15:27:00.101,-0.0002201820054513,15.9183654908479
2025-05-26 15:27:00.109,-0.0001960680022269,16.525587016067462
2025-05-26 15:27:00.117,-0.0001720641342994,17.193602583473513
2025-05-26 15:27:00.125,-0.0001484638619762,17.90163941755611
2025-05-26 15:27:00.132,-0.0001255459411057,18.6252330358282
2025-05-26 15:27:00.140,-0.0001035724810081,19.33668539565765
2025-05-26 15:27:00.148,-8.278718320959404e-05,20.005652277565915
2025-05-26 15:27:00.156,-6.341365676990586e-05,20.599854426202278
2025-05-26 15:27:00.164,-4.565384672161702e-05,21.08590215447962
2025-05-26 15:27:00.171,-2.9686671125674724e-05,21.430218034396965
2025-05-26 15:27:00.179,-1.5666947448919984e-05,21.60003714338037
2025-05-26 15:27:00.187,-3.7246435502178574e-06,21.5644593292023
2025-05-26 15:27:00.195,6.035554678464424e-06,21.295523344241698
2025-05-26 15:27:00.203,1.3534396636573054e-05,20.769268743761295
2025-05-26 15:27:00.210,1.871799405740883e-05,19.96674841960575
2025-05-26 15:27:00.218,2.1557576463090726e-05,18.8749528306931
2025-05-26 15:27:00.226,2.2049120419163453e-05,17.48760666047272
2025-05-26 15:27:00.234,2.0212879850073555e-05,15.805800006036174
2025-05-26 15:27:00.242,1.6092820540331886e-05,13.83841944620356
2025-05-26 15:27:00.250,9.75593485978102e-06,11.60234951834647
2025-05-26 15:27:00.257,1.291385898359579e-06,9.12242221208663
2025-05-26 15:27:00.265,-9.190593249868648e-06,6.4311008829577805
2025-05-26 15:27:00.273,-2.1560136318400056e-05,3.567895177335921
2025-05-26 15:27:00.281,-3.5669615878515626e-05,0.578514684480994
2025-05-26 15:27:00.289,-5.13560458024821e-05,-2.486219469700805
2025-05-26 15:27:00.296,-6.844409219528752e-05,-5.571674629099501
2025-05-26 15:27:00.304,-8.674973878633879e-05,-8.620877424954763
2025-05-26 15:27:00.312,-0.0001060846053555,-11.57610583695757
2025-05-26 15:27:00.320,-0.000126260855056,-14.38054627260895
2025-05-26 15:27:00.328,-0.0001470965493483,-16.979955340640497
2025-05-26 15:27:00.335,-0.000168421219312,-19.324264719915863
2025-05-26 15:27:00.343,-0.0001900813233757,-21.36906915416605
2025-05-26 15:27:00.351,-0.0002119451684364,-23.07694203363547
2025-05-26 15:27:00.359,-0.0002339068179937,-24.418529991372544
2025-05-26 15:27:00.367,-0.0002558885350728,-25.37338703808098
2025-05-26 15:27:00.375,-0.0002778414102886,-25.930519473403955
2025-05-26 15:27:00.382,-0.0002997439672442,-26.08862456955743
2025-05-26 15:27:00.390,-0.0003215986894882,-25.85601823123325
2025-05-26 15:27:00.398,-0.0003434265738435,-25.25025891240987
2025-05-26 15:27:00.406,-0.0003652599691863,-24.29748647476384
2025-05-26 15:27:00.414,-0.0003871340751557,-23.0315049257455
2025-05-26 15:27:00.421,-0.0004090775483486,-21.492646681204192
2025-05-26 15:27:00.429,-0.0004311027182891,-19.7264628562504
2025-05-26 15:27:00.437,-0.0004531959503227,-17.7822888984533
2025-05-26 15:27:00.445,-0.0004753086805147,-15.711737544080624
2025-05-26 15:27:00.453,-0.000497349590766,-13.5671716113822
2025-05-26 15:27:00.460,-0.0005191783284457,-11.400207655551892
2025-05-26 15:27:00.468,-0.0005406011270591,-9.26029819381261
2025-05-26 15:27:00.476,-0.0005613686410099,-7.193435325352947
2025-05-26 15:27:00.484,-0.000581176248183,-5.24101241972211
2025-05-26 15:27:00.492,-0.0005996669906105,-3.43887345080328
2025-05-26 15:27:00.500,-0.0006164372167673,-1.8165718403509032
2025-05-26 15:27:00.507,-0.0006310448626337,-0.3968526656071475
2025-05-26 15:27:00.515,-0.0006430201687636,0.8046359233660882
2025-05-26 15:27:00.523,-0.0006518784924399,1.779403974452341
2025-05-26 15:27:00.531,-0.0006571347645701,2.525962834499073
2025-05-26 15:27:00.539,-0.0006583190785791,3.049465761700475
2025-05-26 15:27:00.546,-0.0006549928645114,3.3611673872612173
2025-05-26 15:27:00.554,-0.0006467650556265,3.477728000086445
2025-05-26 15:27:00.562,-0.000633307588828,3.4203921502442194
2025-05-26 15:27:00.570,-0.0006143695348475,3.214073430164264
2025-05-26 15:27:00.578,-0.0005897891697057,2.8863784963675023
2025-05-26 15:27:00.585,-0.0005595033672307,2.466603477464495
2025-05-26 15:27:00.593,-0.0005235537743126,1.984734947613922
2025-05-26 15:27:00.601,-0.0004820893163627,1.4704857261866908
2025-05-26 15:27:00.609,-0.0004353647078197,0.95239301372498
2025-05-26 15:27:00.617,-0.0003837348478467,0.4570029314578647
2025-05-26 15:27:00.625,-0.0003276452508298,0.0081615520580148
2025-05-26 15:27:00.632,-0.0002676189460214,-0.3735718471994565
2025-05-26 15:27:00.640,-0.0002042405405786,-0.6713781589319651
2025-05-26 15:27:00.648,-0.0001381383421862,-0.872491964076534
2025-05-26 15:27:00.656,-6.996553353142173e-05,-0.968373330045543
2025-05-26 15:27:00.664,-3.81356015398959e-07,-0.9547404651994752
2025-05-26 15:27:00.671,6.996685521844378e-05,-0.8314699343173748
2025-05-26 15:27:00.679,0.0001404600517852,-0.6023748280591327
2025-05-26 15:27:00.687,0.0002105216089167,-0.2748744199288692
2025-05-26 15:27:00.695,0.0002796286422721,0.1404286444969051
2025-05-26 15:27:00.703,0.000347320059318,0.6302457513117754
2025-05-26 15:27:00.710,0.0004132010639668,1.17915531145712
2025-05-26 15:27:00.718,0.0004769439933983,1.770191897859262
2025-05-26 15:27:00.726,0.0005382855188047,2.3854522793406185
2025-05-26 15:27:00.734,0.0005970204185235,3.0066998717241007
2025-05-26 15:27:00.742,0.0006529923503761,3.6159503762638847
2025-05-26 15:27:00.750,0.0007060822823522,4.196023007622629
2025-05-26 15:27:00.757,0.0007561954361086,4.731043620010294
2025-05-26 15:27:00.765,0.0008032477194005,5.206888116401819
2025-05-26 15:27:00.773,0.0008471526586057,5.61155668714378
2025-05-26 15:27:00.781,0.000887809790767,5.9354716122902005
2025-05-26 15:27:00.789,0.0009250953405279,6.1716935376369175
2025-05-26 15:27:00.796,0.0009588557998645,6.316053267509177
2025-05-26 15:27:00.804,0.0009889047688547,6.367198183648952
2025-05-26 15:27:00.812,0.0010150231480404,6.326554384472054
2025-05-26 15:27:00.820,0.0010369625546563,6.198207538993516
2025-05-26 15:27:00.828,0.0010544516988954,5.988707265354752
2025-05-26 15:27:00.835,0.0010672053866739,5.706801567308511
2025-05-26 15:27:00.843,0.0010749357712125,5.363109468124041
2025-05-26 15:27:00.851,0.0010773654287126,4.9697414285858885
2025-05-26 15:27:00.859,0.0010742417767271,4.5398783752251175
2025-05-26 15:27:00.867,0.0010653522914019,4.087321151641674
2025-05-26 15:27:00.875,0.0010505399178529,3.62602290660472
2025-05-26 15:27:00.882,0.0010297180133373,3.169617330791336
2025-05-26 15:27:00.890,0.0010028841226322,2.730955752074317
2025-05-26 15:27:00.898,0.0009701318661801,2.3216659183014454
2025-05-26 15:27:00.906,0.0009316602307933,1.9517448672243496
2025-05-26 15:27:00.914,0.0008877795960938,1.629197631413557
2025-05-26 15:27:00.921,0.0008389139124871,1.359732662666194
2025-05-26 15:27:00.929,0.0007855985721437,1.1465237822532963
2025-05-26 15:27:00.937,0.0007284736854477,0.9900471587976044
2025-05-26 15:27:00.945,0.0006682726920997,0.8880002704809121
2025-05-26 15:27:00.953,0.0006058064952899,0.835308011376795
2025-05-26 15:27:00.960,0.0005419435939812,0.8242190515467501
2025-05-26 15:27:00.968,0.0004775869643412,0.8444932705996044
2025-05-26 15:27:00.976,0.0004136486552348,0.8836785826121135
2025-05-26 15:27:00.984,0.0003510231870328,0.9274727967695092
2025-05-26 15:27:00.992,0.0002905608965534,0.9601633679655752
2025-05-26 15:27:01.000,0.0002330423868987,0.965135061117414
2025-05-26 15:27:01.007,0.000179155218351,0.9254327793285466
2025-05-26 15:27:01.015,0.0001294738803837,0.8243641992240893
2025-05-26 15:27:01.023,8.444389479637974e-05,0.6461245305240436
2025-05-26 15:27:01.031,4.437064193623926e-05,0.3764237847573886
2025-05-26 15:27:01.039,9.41322625363171e-06,0.003095513137332
2025-05-26 15:27:01.046,-2.041655876050384e-05,-0.4833348312447228
2025-05-26 15:27:01.054,-4.525032817201297e-05,-1.089143827817982
2025-05-26 15:27:01.062,-6.535461210152128e-05,-1.8169874909497676
2025-05-26 15:27:01.070,-8.111826430320685e-05,-2.665581662613464
2025-05-26 15:27:01.078,-9.303637638537234e-05,-3.629502327494335
2025-05-26 15:27:01.085,-0.00010169137744,-4.699119253411974
2025-05-26 15:27:01.093,-0.0001077320439302,-5.86067194668265
2025-05-26 15:27:01.101,-0.0001118511622085,-7.096491736598312
2025-05-26 15:27:01.109,-0.0001147625798497,-8.385368062346862
2025-05-26 15:27:01.117,-0.0001171783559239,-9.703050997158696
2025-05-26 15:27:01.125,-0.0001197866781124,-11.022876028851464
2025-05-26 15:27:01.132,-0.0001232311595042,-12.316491471508522
2025-05-26 15:27:01.140,-0.0001280920628745,-13.554663957784769
2025-05-26 15:27:01.148,-0.0001348699275528,-14.708133572346185
2025-05-26 15:27:01.156,-0.0001439719953561,-15.748487588969263
2025-05-26 15:27:01.164,-0.000155701748644,-16.64902063463648
2025-05-26 15:27:01.171,-0.0001702517859629,-17.38554949151524
2025-05-26 15:27:01.179,-0.0001877001691749,-17.937152627371052
2025-05-26 15:27:01.187,-0.0002080102802841,-18.286807785063733
2025-05-26 15:27:01.195,-0.0002310341260796,-18.42190534979618
2025-05-26 15:27:01.203,-0.0002565189239052,-18.334620480811846
2025-05-26 15:27:01.211,-0.0002841166921948,-18.022132843827546
2025-05-26 15:27:01.218,-0.0003133964550507,-17.486688898948053
2025-05-26 15:27:01.226,-0.0003438585533838,-16.735507771454515
2025-05-26 15:27:01.234,-0.0003749504485329,-15.78053746299462
2025-05-26 15:27:01.242,-0.0004060833401229,-14.638073298218446
2025-05-26 15:27:01.250,-0.0004366489343568,-13.328254865659664
2025-05-26 15:27:01.257,-0.0004660357916741,-11.874461192458762
2025-05-26 15:27:01.265,-0.0004936448137805,-10.30262644029762
2025-05-26 15:27:01.273,-0.0005189035701764,-8.640500019315496
2025-05-26 15:27:01.281,-0.000541279312204,-6.916875719217676
2025-05-26 15:27:01.289,-0.0005602906628009,-5.160814315508372
2025-05-26 15:27:01.296,-0.0005755180619443,-3.4008832111691216
2025-05-26 15:27:01.304,-0.0005866130692565,-1.664435120964207
2025-05-26 15:27:01.312,-0.0005933065901617,0.0230542986094803
2025-05-26 15:27:01.320,-0.0005954160183285,1.6385725230795958
2025-05-26 15:27:01.328,-0.0005928511784839,3.1620654889252378
2025-05-26 15:27:01.336,-0.0005856188201932,4.576830890128511
2025-05-26 15:27:01.343,-0.0005738252890683,5.869801493757239
2025-05-26 15:27:01.351,-0.0005576769293407,7.031713968709035
2025-05-26 15:27:01.359,-0.000537477779923,8.057162192394886
2025-05-26 15:27:01.367,-0.0005136242199853,8.944537415246334
2025-05-26 15:27:01.375,-0.0004865963721887,9.695860933409389
2025-05-26 15:27:01.382,-0.0004569462441096,10.316517956816195
2025-05-26 15:27:01.390,-0.0004252827779555,10.814904077012486
2025-05-26 15:27:01.398,-0.0003922542072893,11.201998055482395
2025-05-26 15:27:01.406,-0.0003585283712136,11.4908764978436
2025-05-26 15:27:01.414,-0.0003247718466223,11.696187299253086
2025-05-26 15:27:01.421,-0.0002916288767745,11.833599509757024
2025-05-26 15:27:01.429,-0.0002597010984263,11.919247460566396
2025-05-26 15:27:01.437,-0.0002295290129259,11.96918661259642
2025-05-26 15:27:01.445,-0.0002015760076786,11.998877653158129
2025-05-26 15:27:01.453,-0.0001762155287121,12.02271391429305
2025-05-26 15:27:01.461,-0.0001537217856264,12.05360527895928
2025-05-26 15:27:01.468,-0.0001342641863878,12.102629458225872
2025-05-26 15:27:01.476,-0.0001179055546777,12.178758954518017
2025-05-26 15:27:01.484,-0.0001046040457933,12.288669274672548
2025-05-26 15:27:01.492,-9.421852813799837e-05,12.43663113515244
2025-05-26 15:27:01.500,-8.651705692224017e-05,12.624486627120648
2025-05-26 15:27:01.507,-8.118797156629662e-05,12.851706687073944
2025-05-26 15:27:01.515,-7.785309953672852e-05,13.115524831682851
2025-05-26 15:27:01.523,-7.608251893201226e-05,13.411140021384687
2025-05-26 15:27:01.531,-7.541031779961381e-05,13.731979758063282
2025-05-26 15:27:01.539,-7.535081359807232e-05,14.070013128362485
2025-05-26 15:27:01.546,-7.541475651117973e-05,14.416102491339904
2025-05-26 15:27:01.554,-7.512509571941584e-05,14.76038187459709
2025-05-26 15:27:01.562,-7.40319139667137e-05,15.0926498694326
2025-05-26 15:27:01.570,-7.172614450863062e-05,15.40276487521998
2025-05-26 15:27:01.578,-6.785169693792916e-05,15.68103089756835
2025-05-26 15:27:01.586,-6.211564470199644e-05,15.918562704812608
2025-05-26 15:27:01.593,-5.429616950888848e-05,16.107619939773812
2025-05-26 15:27:01.601,-4.4248016695780406e-05,16.24190072118875
2025-05-26 15:27:01.609,-3.190529125226983e-05,16.31678631820231
2025-05-26 15:27:01.617,-1.728151651899808e-05,16.329529624632293
2025-05-26 15:27:01.625,-4.6698620562007807e-07,16.279381394482037
2025-05-26 15:27:01.632,1.8376435606624663e-05,16.16764953489398
2025-05-26 15:27:01.640,3.902277549725823e-05,15.99768820443354
2025-05-26 15:27:01.648,6.119124501185568e-05,15.77481505193689
2025-05-26 15:27:01.656,8.45568283299024e-05,15.50615666162873
2025-05-26 15:27:01.664,0.000108761561999,15.200424129293124
