Timestamp,Lead I (LA-RA),Lead II (LL-LA),Lead III (LL-RA),Vx-RL
2025-05-26 15:23:04.578,-0.1667913279345718,0.0677740498120853,-0.0990172782606224,0.2138917616343288
2025-05-26 15:23:04.586,-0.1985804813542302,0.0083250347828085,-0.1902554466888551,0.1859530998441787
2025-05-26 15:23:04.590,-0.2261593416917409,-0.0671961319674491,-0.2933554737558113,0.1631676015803311
2025-05-26 15:23:04.594,-0.2454708440307816,-0.1375284669622591,-0.3829993110696986,0.1421407188238638
2025-05-26 15:23:04.598,-0.2544126373516618,-0.168366001525777,-0.4227786389337519,0.1174192149905696
2025-05-26 15:23:04.602,-0.2573119140428199,-0.1531306187451848,-0.4104425328224616,0.0888418773758625
2025-05-26 15:23:04.606,-0.2625984758616406,-0.1133279281259526,-0.3759264039998597,0.0599431434397248
2025-05-26 15:23:04.609,-0.2752976276276581,-0.0707028909616286,-0.3460005185803622,0.0348331625207289
2025-05-26 15:23:04.613,-0.2939510342434945,-0.0341507521528652,-0.3281017863661769,0.0182012699155434
2025-05-26 15:23:04.617,-0.3151440573772335,-0.0034989308236921,-0.3186429881478965,0.0109539834499942
2025-05-26 15:23:04.621,-0.3384353719374902,0.0270904421686196,-0.3113449296923331,0.004570374360241
2025-05-26 15:23:04.625,-0.3637037013909407,0.0624436685025928,-0.3012600327893528,-0.0119044837431604
2025-05-26 15:23:04.629,-0.38567013804377,0.0978023501257375,-0.2878677877969053,-0.0382563448077497
2025-05-26 15:23:04.633,-0.3978117567608634,0.1248797390409892,-0.2729320175750739,-0.0643440166895756
2025-05-26 15:23:04.637,-0.4019994418473427,0.143377573192538,-0.2586218684852803,-0.0837058583882431
2025-05-26 15:23:04.641,-0.4072636562661812,0.1571985307130756,-0.2500651253598044,-0.0980666009777676
2025-05-26 15:23:04.645,-0.4172587588905586,0.1683730543858713,-0.2488857042883633,-0.1110919035718826
2025-05-26 15:23:04.649,-0.4246924459109754,0.1816815026607093,-0.243010943009624,-0.1237278225348652
2025-05-26 15:23:04.652,-0.422009233418344,0.2020533718354093,-0.2199558613165844,-0.1325883246982461
2025-05-26 15:23:04.656,-0.4135482108599071,0.2241718243029838,-0.1893763862655495,-0.1316765337205162
2025-05-26 15:23:04.660,-0.4101691845059847,0.2377961004877945,-0.1723730837029052,-0.1202933195428632
2025-05-26 15:23:04.664,-0.4136513894105706,0.2424642280777831,-0.1711871609927098,-0.1071792069892101
2025-05-26 15:23:04.668,-0.4153613463785719,0.2463815712625795,-0.168979774749529,-0.1013394314393937
2025-05-26 15:23:04.672,-0.4105140239282958,0.254645176812428,-0.1558688467233152,-0.1019093915276532
2025-05-26 15:23:04.676,-0.4047449588747641,0.2666595121962781,-0.1380854462611533,-0.1024080510476242
2025-05-26 15:23:04.680,-0.4047134300158324,0.2804510010739867,-0.1242624284993581,-0.1012290842890274
2025-05-26 15:23:04.684,-0.4094338122893951,0.2925610629682255,-0.1168727488519136,-0.1011743915308301
2025-05-26 15:23:04.688,-0.4140399784873875,0.2971828220503554,-0.1168571559408548,-0.0997841171070442
2025-05-26 15:23:04.691,-0.4171151296628311,0.2922906381863541,-0.1248244909546778,-0.0879104393510662
2025-05-26 15:23:04.695,-0.4199100713929722,0.2863774186530113,-0.1335326521926842,-0.0628870818379087
2025-05-26 15:23:04.699,-0.4214909071152803,0.2931165173356226,-0.128374389205477,-0.0375359713430917
2025-05-26 15:23:04.703,-0.4198751725032814,0.3158738345682728,-0.1040013373333494,-0.0270534428573919
2025-05-26 15:23:04.707,-0.416223321230605,0.3411931061581382,-0.0750302144444106,-0.0301994011123464
2025-05-26 15:23:04.711,-0.4140275567920304,0.3525038568007649,-0.0615236993373889,-0.0322119403552837
2025-05-26 15:23:04.715,-0.4149799168474671,0.3468021176622734,-0.06817779850443,-0.0237641137176183
2025-05-26 15:23:04.719,-0.4153770997702147,0.3312390500034898,-0.0841380490581942,-0.0102174184019928
2025-05-26 15:23:04.723,-0.4065131022372848,0.3078566885618261,-0.0986564129398625,-0.0022689196472073
2025-05-26 15:23:04.727,-0.3849359684734539,0.2726986161020706,-0.1122373516095567,-0.0012688269670185
2025-05-26 15:23:04.731,-0.3620483037148035,0.2292546464535344,-0.1327936564726233,0.0010851414041535
2025-05-26 15:23:04.734,-0.3514897142718315,0.1913531923751099,-0.160136521080279,0.0070961497861608
2025-05-26 15:23:04.738,-0.347450789421348,0.1692333303392857,-0.1782174582380767,0.0067741775670722
2025-05-26 15:23:04.742,-0.3322136284001599,0.1613467616434727,-0.170866865886027,-0.0058272837275547
2025-05-26 15:23:04.746,-0.3054838195634067,0.1635426095720774,-0.1419412090938964,-0.0206360655373889
2025-05-26 15:23:04.750,-0.2868620679186008,0.1769971470078933,-0.109864919985654,-0.024785234492807
2025-05-26 15:23:04.754,-0.2866376020683446,0.1992930105014306,-0.0873445906140817,-0.0189901660615208
2025-05-26 15:23:04.758,-0.2915588787911422,0.2112168547586062,-0.080342023052591,-0.0152789227799317
2025-05-26 15:23:04.762,-0.2832700060716993,0.1832814431924432,-0.0999885618724771,-0.0245727228620345
2025-05-26 15:23:04.766,-0.2588934022750343,0.1068230801175632,-0.1520703211233338,-0.0464982313771696
2025-05-26 15:23:04.770,-0.2310709401462701,0.0149458033513441,-0.2161251357330179,-0.0688440662461727
2025-05-26 15:23:04.777,-0.2147454463548326,-0.0458494487732963,-0.2605948940387568,-0.0819848844005518
2025-05-26 15:23:04.781,-0.2148744859390297,-0.0651578074893496,-0.2800322923119981,-0.0922276112450716
2025-05-26 15:23:04.785,-0.2223486902666093,-0.0724776223586312,-0.2948263114817633,-0.1113719427081829
2025-05-26 15:23:04.789,-0.2199453524903475,-0.0951993754700252,-0.3151447267893793,-0.1359258771963954
2025-05-26 15:23:04.793,-0.1960424596557667,-0.1306175835653539,-0.3266600420225138,-0.1482100680350211
2025-05-26 15:23:04.797,-0.155868664191109,-0.1590456214803286,-0.3149142844455824,-0.1380891352828193
2025-05-26 15:23:04.801,-0.1163130839475093,-0.1726147400054145,-0.2889278227001368,-0.1148466596841658
2025-05-26 15:23:04.805,-0.0882404906244476,-0.1842493866283962,-0.2724898759729584,-0.0946859119652081
2025-05-26 15:23:04.809,-0.0695404397050971,-0.2073816800817075,-0.2769221184794415,-0.0820709749241655
2025-05-26 15:23:04.813,-0.0562466899322685,-0.2357357562142416,-0.2919824448117322,-0.069702749911199
2025-05-26 15:23:04.816,-0.0509660157243633,-0.2528821015519958,-0.3038481159147188,-0.0550296086589665
2025-05-26 15:23:04.820,-0.0559588503609798,-0.2539814757243136,-0.309940324697053,-0.0473065570856971
2025-05-26 15:23:04.824,-0.0665289453050509,-0.2454855291088138,-0.312014472998577,-0.0543439028810509
2025-05-26 15:23:04.828,-0.0766772637917972,-0.2292410776391673,-0.3059183399882688,-0.0703833366474304
2025-05-26 15:23:04.832,-0.0844480909991961,-0.2002175152768859,-0.2846656048065246,-0.0830507372647466
2025-05-26 15:23:04.836,-0.0891075365072992,-0.1598794744803066,-0.2489870094919512,-0.0860089637713783
2025-05-26 15:23:04.840,-0.0902721732674689,-0.1214771174535539,-0.2117492891990458,-0.0814089311643354
2025-05-26 15:23:04.844,-0.0905633429465342,-0.0953008340251649,-0.1858641754226522,-0.0765113684634411
2025-05-26 15:23:04.848,-0.0932704655182065,-0.0743313773604236,-0.1676018413027993,-0.0774602992821813
2025-05-26 15:23:04.852,-0.0977142629940879,-0.0458486431953992,-0.1435629045880551,-0.0804122560627106
2025-05-26 15:23:04.856,-0.1002322353330079,-0.0129821267131727,-0.1132143604193958,-0.0751768524086658
2025-05-26 15:23:04.859,-0.0992417459604286,0.0112981874908599,-0.0879435568164558,-0.0634889083845711
2025-05-26 15:23:04.863,-0.097212076016624,0.0280407885591615,-0.069171285777821,-0.0618205436027711
2025-05-26 15:23:04.867,-0.0970744949711561,0.0514938605231009,-0.0455806327432353,-0.0788330923977184
2025-05-26 15:23:04.871,-0.0994610725038752,0.0856340381200801,-0.0138270326546454,-0.1030439977439518
2025-05-26 15:23:04.875,-0.1045814665727913,0.1172926614758562,0.0127111966574938,-0.1198328463682923
2025-05-26 15:23:04.879,-0.1115143416982388,0.1343203714581561,0.0228060315403956,-0.1280442677540703
2025-05-26 15:23:04.883,-0.1151517759848247,0.1429864257745564,0.0278346515950293,-0.1329339745221487
2025-05-26 15:23:04.887,-0.1114237853690656,0.1642369475143146,0.0528131639739022,-0.1346492210229242
2025-05-26 15:23:04.891,-0.1039081309869542,0.2093090847772277,0.1054009556428978,-0.1327028565961615
2025-05-26 15:23:04.895,-0.0975060847578754,0.2605855193043213,0.1630794364243065,-0.1331631584845424
2025-05-26 15:23:04.899,-0.0908673411705559,0.2877879055109446,0.1969205662426647,-0.1412850891166431
2025-05-26 15:23:04.902,-0.081829637651595,0.2832308834940937,0.2014012477672679,-0.1519906190931821
2025-05-26 15:23:04.906,-0.0720851570863868,0.268694538961625,0.1966093838225396,-0.1560143175598516
2025-05-26 15:23:04.910,-0.0606866513671582,0.2691478344742052,0.2084611850784258,-0.1511353900218005
2025-05-26 15:23:04.914,-0.0414781300142561,0.2892114942079051,0.2477333661888843,-0.1415574137405296
2025-05-26 15:23:04.918,-0.0129478252656759,0.3122132748616814,0.2992654516129805,-0.1322547455469847
2025-05-26 15:23:04.922,0.014023182469416,0.3188809620048525,0.3329041465123182,-0.1277757794481826
2025-05-26 15:23:04.926,0.0247845845275284,0.3087830725286501,0.3335676591168279,-0.1296601444508247
2025-05-26 15:23:04.930,0.0189203488949147,0.298753555360896,0.3176739063394936,-0.1330766934377142
2025-05-26 15:23:04.934,0.0122126188710878,0.3012616118582014,0.3134742328340201,-0.1316133871816906
2025-05-26 15:23:04.938,0.0135000928196697,0.3150665088116605,0.3285666037557814,-0.1251235888867089
2025-05-26 15:23:04.941,0.0102023719036831,0.3330954375062657,0.3432978115553151,-0.1205322532937376
2025-05-26 15:23:04.945,-0.0100593545168427,0.346563473738665,0.3365041213890697,-0.126730771307889
2025-05-26 15:23:04.949,-0.0356486090114141,0.3479672919151413,0.3123186850912898,-0.1457384545162797
2025-05-26 15:23:04.953,-0.0463567432263648,0.3422804130304107,0.2959236720101563,-0.1662213968727393
2025-05-26 15:23:04.957,-0.0432064156318748,0.3462667564327627,0.3030603430262038,-0.1745300823467201
2025-05-26 15:23:04.961,-0.0435460872634226,0.3663374719763707,0.3227913869587016,-0.174745791766757
2025-05-26 15:23:04.965,-0.0506340614557383,0.3889053650041446,0.3382713058135831,-0.183416074408455
2025-05-26 15:23:04.969,-0.0493345535939084,0.4018304862202129,0.3524959349089933,-0.2020976017048477
2025-05-26 15:23:04.973,-0.0359449976237888,0.409919646936894,0.3739746516133806,-0.2151451379402585
2025-05-26 15:23:04.977,-0.0295238051885772,0.4187857231161218,0.3892619202466028,-0.2188488149196377
2025-05-26 15:23:04.981,-0.040619742331246,0.4211604089922381,0.3805406689983242,-0.2291476645693804
2025-05-26 15:23:04.984,-0.0507524674566776,0.4130491982448767,0.3622967331420229,-0.2536906427140846
2025-05-26 15:23:04.988,-0.0426056541325549,0.407900225850455,0.3652945740878335,-0.2793957951905926
2025-05-26 15:23:04.992,-0.0304731968507665,0.4190254276449296,0.3885522331811438,-0.294645877373685
2025-05-26 15:23:04.996,-0.035560243274392,0.4379113931404213,0.4023511522698593,-0.3045292357698127
2025-05-26 15:23:05.000,-0.0460579523799919,0.4440751176392698,0.3980171676784384,-0.3192029371748891
2025-05-26 15:23:05.004,-0.0291574225722229,0.4304532849877797,0.4012958648494081,-0.3381850780016141
2025-05-26 15:23:05.008,0.024394571620077,0.4078232892736132,0.4322178633428302,-0.3459329666679394
2025-05-26 15:23:05.012,0.091022533699422,0.3939919612946921,0.4850144974584403,-0.3259950427309003
2025-05-26 15:23:05.016,0.1498679913505436,0.4152809731911951,0.5651489670200036,-0.2980717608741434
2025-05-26 15:23:05.020,0.2156996213370942,0.508091401347365,0.723791025175974,-0.3349967913051057
2025-05-26 15:23:05.024,0.3276218861389161,0.6956841172817578,1.0233060059257704,-0.5013209566791011
2025-05-26 15:23:05.027,0.4867408506025714,0.9557467075549956,1.4424875606760776,-0.76301108698655
2025-05-26 15:23:05.031,0.6033913915748462,1.2035685564317644,1.806959950537443,-1.000376438364429
2025-05-26 15:23:05.035,0.5586772596299527,1.3087853650991947,1.8674626272716848,-1.1275332090528267
2025-05-26 15:23:05.039,0.3567821632600848,1.1741236064137084,1.5309057722282502,-1.1559353431366977
2025-05-26 15:23:05.043,0.161661403384986,0.8405427976371713,1.002204203588222,-1.129693552743822
2025-05-26 15:23:05.047,0.1254048779510925,0.4905485252594338,0.6159534057870795,-1.0583201828932984
2025-05-26 15:23:05.051,0.2269811516985433,0.3061086775957779,0.5330898318808226,-0.9366605278474044
2025-05-26 15:23:05.055,0.3329128169479224,0.3263466598897313,0.659259479434373,-0.7805939391787735
2025-05-26 15:23:05.059,0.3640418262930014,0.4505392998255927,0.8145811287251371,-0.6194127480219981
2025-05-26 15:23:05.063,0.3445876805459698,0.5539586473041784,0.898546330465225,-0.4779301703588115
2025-05-26 15:23:05.066,0.3291798663994034,0.5854805882476033,0.9146604572700332,-0.3661718507958269
2025-05-26 15:23:05.070,0.340076653713986,0.5719165662587993,0.9119932226041766,-0.2712306851130441
2025-05-26 15:23:05.074,0.3637902853879132,0.5569944183992308,0.9207847064265752,-0.1683844920923116
2025-05-26 15:23:05.078,0.3776776306218034,0.5545675526789766,0.9322451859467606,-0.0436564104933153
2025-05-26 15:23:05.082,0.3783345332474492,0.5551582650267477,0.9334928009259356,0.1016779580866534
2025-05-26 15:23:05.086,0.3835066089150289,0.5531203764539079,0.9366269880269552,0.2549033992339087
2025-05-26 15:23:05.090,0.4003791742363405,0.5553205417351597,0.9556997186356844,0.3883040109726716
2025-05-26 15:23:05.094,0.4090634759077194,0.5714326414296858,0.9804961200061592,0.4667840803939327
2025-05-26 15:23:05.098,0.3944347004141184,0.6005336853363914,0.9949683884227396,0.4735480666155685
2025-05-26 15:23:05.102,0.3748730665071361,0.6259602902682297,1.0008333594515828,0.4275406090096071
2025-05-26 15:23:05.106,0.3777923363343254,0.6274470016706778,1.005239340685384,0.3712710964876947
2025-05-26 15:23:05.109,0.4030819721055053,0.5993824546539386,1.0024644294424612,0.338069557478266
2025-05-26 15:23:05.113,0.4300537572972943,0.5519537469218349,0.9820075069033752,0.332392632685398
2025-05-26 15:23:05.117,0.4447214999062517,0.4990145103266453,0.9437360129186938,0.3443600863659423
2025-05-26 15:23:05.121,0.4415053159386813,0.4529902566959113,0.894495575322351,0.3720677605872307
2025-05-26 15:23:05.125,0.412257311172908,0.4218673052504314,0.8341246191117455,0.4150822383360068
2025-05-26 15:23:05.129,0.357046022528571,0.399756439569952,0.7568024647859435,0.4561589710948533
2025-05-26 15:23:05.133,0.3021431290562276,0.3703919733722695,0.6725351051149466,0.4731881657946673
2025-05-26 15:23:05.137,0.2836538135509325,0.3278667982284775,0.6115206144654088,0.4678155361916548
2025-05-26 15:23:05.141,0.3048545291953859,0.2822387776924171,0.5870933095723239,0.4590402618050656
2025-05-26 15:23:05.145,0.3275245786186374,0.241834517970583,0.5693590992705602,0.4477112198744326
2025-05-26 15:23:05.149,0.3169070882189445,0.2062929093528238,0.5232000002496284,0.4117297605435934
2025-05-26 15:23:05.152,0.2796383539557864,0.1800080256386465,0.4596463822693115,0.341882490460578
2025-05-26 15:23:05.156,0.2464544487591072,0.1749529755309972,0.4214074269612425,0.2650241102801687
2025-05-26 15:23:05.160,0.2331133731501691,0.1958512599476031,0.4289646357635267,0.2252241559589809
2025-05-26 15:23:05.164,0.2309618274329885,0.2357623556373422,0.4667241857301582,0.2462969177509879
2025-05-26 15:23:05.168,0.2262120808952921,0.2855920288356366,0.511804112385216,0.3122991244719924
2025-05-26 15:23:05.172,0.2167996509241823,0.3358876765831474,0.5526873301555104,0.3848259308688778
2025-05-26 15:23:05.176,0.2112918390889272,0.3733866916149542,0.5846785333444453,0.4392480423627241
2025-05-26 15:23:05.180,0.2165938009506084,0.3858417204425884,0.602435524025454,0.4775211984423936
2025-05-26 15:23:05.184,0.2292177074351857,0.3674938384727269,0.5967115485321075,0.507191550456342
2025-05-26 15:23:05.188,0.2395983172660647,0.3199882899036212,0.5595866097853541,0.524128285425139
2025-05-26 15:23:05.191,0.2438607259743617,0.2563541371321281,0.5002148657122519,0.5231907423391859
2025-05-26 15:23:05.195,0.2470690864085404,0.1985940869375763,0.4456631759412152,0.5118698080527008
2025-05-26 15:23:05.199,0.2542962752991562,0.1566002611961688,0.4108965390798912,0.5021861934515373
2025-05-26 15:23:05.203,0.2648773707755288,0.1152799542056748,0.3801573275548008,0.4981708818203283
2025-05-26 15:23:05.207,0.2779484237144586,0.0592841678356244,0.3372325941114001,0.4990193658897799
2025-05-26 15:23:05.211,0.2966437340695375,0.0018382381017315,0.298481974719528,0.5051901111771849
2025-05-26 15:23:05.215,0.3210228320684194,-0.0292048523401861,0.2918179822635257,0.5152165163345604
2025-05-26 15:23:05.219,0.3402447938806527,-0.0223430670767096,0.3179017293258398,0.5227831404245008
2025-05-26 15:23:05.223,0.3395682577112129,0.0162954385899042,0.3558636988082885,0.51992879234923
2025-05-26 15:23:05.227,0.3177940042845474,0.0765743037364171,0.3943683105125848,0.5005023944296879
2025-05-26 15:23:05.231,0.292395826095936,0.1454957955710707,0.4378916241432072,0.4599274446355291
2025-05-26 15:23:05.234,0.284028919253762,0.2078608675933778,0.4918897893075806,0.3942247491791402
2025-05-26 15:23:05.238,0.3014027187435023,0.2539910226886961,0.5553937438755029,0.3044604391927549
2025-05-26 15:23:05.242,0.3430420247735704,0.2836083758597246,0.626650403058495,0.2033378548787574
2025-05-26 15:23:05.246,0.4032812400126484,0.3045627308814597,0.7078439733013683,0.1131323234604397
2025-05-26 15:23:05.250,0.4699215088760745,0.3216498291035894,0.7915713403688454,0.0571315808888203
2025-05-26 15:23:05.254,0.5247125056895268,0.3154231943588052,0.8401357024180682,0.048855806747514
2025-05-26 15:23:05.258,0.5550200578894664,0.250987773694333,0.8060078339328742,0.0739468668956479
2025-05-26 15:23:05.262,0.5631434735641406,0.1348989253680716,0.6980424012607152,0.0863488279731583
2025-05-26 15:23:05.266,0.5618519262452881,0.041161368633401,0.6030132971867719,0.0510555186484891
2025-05-26 15:23:05.270,0.5642906448740179,0.0415895917309443,0.605880238891444,-0.006756360791377
2025-05-26 15:23:05.274,0.5786839274791566,0.1237304753906087,0.7024144051331647,-0.0230416150401827
2025-05-26 15:23:05.277,0.6042751237526147,0.2055500414787931,0.8098251674715511,0.0356345807314261
2025-05-26 15:23:05.281,0.6256103732579175,0.2152442399324843,0.8408546154076787,0.1496571307774772
2025-05-26 15:23:05.285,0.6192111823833855,0.1430408457470893,0.7622520303240826,0.2800331683514189
2025-05-26 15:23:05.289,0.5774850235708682,0.0342260274220444,0.6117110531612604,0.390831998731212
2025-05-26 15:23:05.293,0.5210864064675507,-0.0602641313201392,0.4608222772899374,0.4544282246424314
2025-05-26 15:23:05.297,0.4805334959531966,-0.1275723929103626,0.3529611051599772,0.4697579420334912
2025-05-26 15:23:05.301,0.4732184164887357,-0.1779154405963025,0.2953029779838541,0.4639192365928172
2025-05-26 15:23:05.305,0.4996747411093898,-0.2034027606618811,0.2962719825117464,0.4565141152549211
2025-05-26 15:23:05.309,0.5500821216434724,-0.1896250796898574,0.3604570439897304,0.4400215346546646
2025-05-26 15:23:05.313,0.6134865175991663,-0.1581577925126855,0.4553287270947404,0.4037796089276375
2025-05-26 15:23:05.316,0.6842306617087439,-0.1521138502228688,0.5321168134663358,0.3547441108212406
2025-05-26 15:23:05.320,0.7506170927152103,-0.1744740897905143,0.5761430048762395,0.307357323380183
2025-05-26 15:23:05.324,0.7827101302265819,-0.1756148283039186,0.6070953038441194,0.2693606042795665
2025-05-26 15:23:05.328,0.7560279140341168,-0.1152451914740869,0.6407827244513298,0.2411429644965478
2025-05-26 15:23:05.332,0.6883969002730328,-0.0149665421979956,0.6734303599364163,0.2182438789249031
2025-05-26 15:23:05.336,0.6301278362642484,0.0662043286797342,0.6963321667747415,0.1925348703360169
2025-05-26 15:23:05.340,0.6135783553879444,0.0941872528362108,0.7077656100231339,0.1569401306229062
2025-05-26 15:23:05.344,0.6287543497245047,0.0786083038273366,0.7073626553186407,0.1112761611185657
2025-05-26 15:23:05.348,0.6510194236220394,0.0391854871500018,0.6902049125068324,0.0627547581407685
2025-05-26 15:23:05.352,0.6750366150811175,-0.0192017090114333,0.6558349077720986,0.0200609654257517
2025-05-26 15:23:05.356,0.7111522007118991,-0.0954090882113815,0.6157431141696278,-0.0144889108819061
2025-05-26 15:23:05.359,0.7624105235713505,-0.1808742032244361,0.5815363219821728,-0.0476661029680079
2025-05-26 15:23:05.363,0.8190293701659391,-0.266780594333535,0.5522487774337841,-0.0888156816088377
2025-05-26 15:23:05.367,0.8658708892028099,-0.3440835410707836,0.521787349699277,-0.1387815970740502
2025-05-26 15:23:05.371,0.890253527146198,-0.3991196010768674,0.4911339276018134,-0.1867364304265159
2025-05-26 15:23:05.379,0.8992503318146403,-0.4330647573741013,0.4661855759377926,-0.2225170926448554
2025-05-26 15:23:05.383,0.9269804411314416,-0.4755549668341803,0.4514254757590949,-0.2515347304840407
2025-05-26 15:23:05.387,0.9997831575439352,-0.547935249767437,0.4518479092025624,-0.2909177923346231
2025-05-26 15:23:05.391,1.0976674449348958,-0.6249219232110792,0.4727455231136626,-0.350160944632998
2025-05-26 15:23:05.395,1.1687295229739942,-0.6601750634856538,0.5085544608417831,-0.4194682835082647
2025-05-26 15:23:05.399,1.1704994508016573,-0.6328293257329791,0.5376701263855366,-0.4761428065304718
2025-05-26 15:23:05.402,1.0913771094185605,-0.5529990685074768,0.5383780421907901,-0.5057307802501957
2025-05-26 15:23:05.406,0.9592927627774304,-0.4511320827111596,0.5081606813083669,-0.5246913171927702
2025-05-26 15:23:05.410,0.836787564474866,-0.3720069965052791,0.4647805691742425,-0.5717202863196809
2025-05-26 15:23:05.414,0.7797031496492038,-0.3454263817519242,0.4342767690645515,-0.6613762198046981
2025-05-26 15:23:05.418,0.7922579747975006,-0.3585784037450634,0.4336795721815144,-0.762236213553256
2025-05-26 15:23:05.422,0.8352197913315884,-0.3834415184205134,0.4517782740012372,-0.8383121812889738
2025-05-26 15:23:05.426,0.8711375242874221,-0.4191254885880807,0.4520120367510702,-0.8882349600292229
2025-05-26 15:23:05.430,0.8896092831975351,-0.478146021047087,0.4114632631643093,-0.9248670886772792
2025-05-26 15:23:05.434,0.8996503948434773,-0.5487908869990095,0.3508595088195337,-0.9445450408850372
2025-05-26 15:23:05.438,0.9117325504505692,-0.6037625006976726,0.3079700506879312,-0.936376801241149
2025-05-26 15:23:05.441,0.9249528769710682,-0.6331560596258967,0.2917968182407717,-0.9001376303923423
2025-05-26 15:23:05.445,0.9263649932331062,-0.6421128452571034,0.2842521488334837,-0.8436573649291453
2025-05-26 15:23:05.449,0.9048954883561016,-0.6312002795224573,0.2736952096522602,-0.7812272492113923
2025-05-26 15:23:05.453,0.8664294693850133,-0.6049673678339021,0.2614621023289437,-0.7391300764855598
2025-05-26 15:23:05.457,0.828698018952392,-0.5840496299066983,0.2446483897830943,-0.7413675933337455
2025-05-26 15:23:05.461,0.800238226881693,-0.5836789142925889,0.2165593132882148,-0.7805901171244788
2025-05-26 15:23:05.465,0.7747052203280351,-0.5927154661311953,0.1819897548575072,-0.8209373647732797
2025-05-26 15:23:05.469,0.7474811583788856,-0.5921888091033987,0.1552923498951354,-0.8411929251790108
2025-05-26 15:23:05.473,0.7240300718671022,-0.5817373728412012,0.1422926996041744,-0.8584279842985826
2025-05-26 15:23:05.477,0.7086822285735531,-0.5754457080704916,0.1332365210427377,-0.8953044725543576
2025-05-26 15:23:05.481,0.6981288053424486,-0.5844646573074098,0.1136641485369793,-0.9436151488440572
2025-05-26 15:23:05.484,0.6894714365813068,-0.6119983289253819,0.0774731081172221,-0.9836234881584554
2025-05-26 15:23:05.488,0.6845356407641707,-0.6556203244935402,0.0289153166898517,-1.0231916383943394
2025-05-26 15:23:05.492,0.6809638588841687,-0.7090214840744136,-0.0280576248101543,-1.0846311689245134
2025-05-26 15:23:05.496,0.6654204964162167,-0.7636318179963317,-0.0982113212370168,-1.1612165806207488
2025-05-26 15:23:05.500,0.6253058496237165,-0.8091523200147765,-0.1838464700876181,-1.2208931299625614
2025-05-26 15:23:05.504,0.5659897751291886,-0.8387831142758527,-0.272793338885493,-1.246232399783581
2025-05-26 15:23:05.508,0.5049716008580981,-0.8598472191177685,-0.3548756180382759,-1.2400404422268974
2025-05-26 15:23:05.512,0.4500805377855461,-0.8877942226099454,-0.4377136846394176,-1.2036389960514726
2025-05-26 15:23:05.516,0.3959833174094663,-0.9211029380925112,-0.5251196205362664,-1.1394915437146516
2025-05-26 15:23:05.520,0.3378514749539269,-0.9377606569844698,-0.5999091819255452,-1.0647753359990757
2025-05-26 15:23:05.524,0.276211521769645,-0.924964812289397,-0.6487532904550946,-1.0012291532319906
2025-05-26 15:23:05.527,0.2132065083603525,-0.8946838897196205,-0.6814773813307717,-0.9585004804018548
2025-05-26 15:23:05.531,0.1484074482407252,-0.8620344709191837,-0.7136270226865582,-0.9335117412775146
2025-05-26 15:23:05.535,0.075899797997499,-0.8234854200422571,-0.7475856220934681,-0.914541528260295
2025-05-26 15:23:05.539,-4.818583510263728e-05,-0.7640770979075607,-0.7641252838319635,-0.8838959892528453
2025-05-26 15:23:05.543,-0.0435512254051828,-0.6766956625207041,-0.7202468880514339,-0.8317331729489112
2025-05-26 15:23:05.547,-0.021628892706416,-0.5672375944414826,-0.5888664873085852,-0.7711686304020858
2025-05-26 15:23:05.551,0.0229463539713734,-0.4457116133751791,-0.4227652596033608,-0.7215607052173296
2025-05-26 15:23:05.555,-0.0130397993854065,-0.3198299671461513,-0.3328697667713617,-0.6764057814171311
2025-05-26 15:23:05.559,-0.1710981042622144,-0.196516379158558,-0.3676144836970337,-0.6237057972728908
2025-05-26 15:23:05.563,-0.3710094370134362,-0.0838667208208079,-0.4548761581445199,-0.6001847282376487
2025-05-26 15:23:05.566,-0.5063530192859587,0.0082436111155075,-0.4981094085175104,-0.6604713265368489
2025-05-26 15:23:05.570,-0.5577583768657495,0.0675095755862005,-0.490248801665759,-0.7738430207769817
2025-05-26 15:23:05.574,-0.5801409035184562,0.0845303503044848,-0.4956105536366418,-0.8303173278719549
2025-05-26 15:23:05.578,-0.6154968881600247,0.0625254914796566,-0.5529713971362824,-0.77916597335758
2025-05-26 15:23:05.582,-0.6568331976090642,0.0175962681188862,-0.6392369299807497,-0.6880140370366333
2025-05-26 15:23:05.586,-0.684429694418812,-0.030749231331704,-0.7151789262784288,-0.6415030137353829
2025-05-26 15:23:05.590,-0.7048504003137052,-0.0670288538906346,-0.771879254768211,-0.6449421071104449
2025-05-26 15:23:05.594,-0.7409592903130403,-0.0865732364300592,-0.8275325273396751,-0.645801406445722
2025-05-26 15:23:05.598,-0.7949801761830632,-0.1002677167599944,-0.8952478935724176,-0.6066738936843461
2025-05-26 15:23:05.602,-0.8418539052327152,-0.1195143100581272,-0.9613682159552728,-0.54129119141312
2025-05-26 15:23:05.606,-0.8613729671057321,-0.1327346498432483,-0.994107617648157,-0.4937038696161262
2025-05-26 15:23:05.609,-0.8606276033026474,-0.1164782369553931,-0.9771058409892664,-0.4876209105808006
2025-05-26 15:23:05.613,-0.8587719229583333,-0.0739279572181044,-0.932699880938864,-0.5006888212962043
2025-05-26 15:23:05.617,-0.8599768194594446,-0.0379011878481378,-0.8978780081026303,-0.4975557355322149
2025-05-26 15:23:05.621,-0.8518319551337855,-0.0276835929396918,-0.8795155489013303,-0.4802128985953823
2025-05-26 15:23:05.625,-0.8323543206411174,-0.0270256697195745,-0.8593799912194777,-0.4850025551526423
2025-05-26 15:23:05.629,-0.8263832271982471,-0.0175882170184479,-0.8439714451052535,-0.5264556960181529
2025-05-26 15:23:05.633,-0.8591686114844163,-0.0111456906134424,-0.870314303016709,-0.5662913953600069
2025-05-26 15:23:05.637,-0.9210298075516472,-0.026982245411166,-0.9480120539120648,-0.5580489936399988
2025-05-26 15:23:05.641,-0.98068468777566,-0.0537885375376871,-1.0344732262918186,-0.5080301818786366
2025-05-26 15:23:05.645,-1.0292657672191123,-0.0602637116965466,-1.0895294799224304,-0.4635138413702673
2025-05-26 15:23:05.649,-1.0818713132366806,-0.0361866562207696,-1.1180579704924951,-0.451646654847394
2025-05-26 15:23:05.652,-1.1355035838665746,-0.0022103200297175,-1.137713904959261,-0.4612893768331819
2025-05-26 15:23:05.656,-1.164117163241679,0.017028607277965,-1.147088557053634,-0.4728829612123761
2025-05-26 15:23:05.660,-1.1660964089619492,0.015475236422047,-1.1506211736562872,-0.4770220346011267
2025-05-26 15:23:05.664,-1.1766151442763673,0.0031836898812253,-1.1734314555379726,-0.4756585367579068
2025-05-26 15:23:05.668,-1.2159552361149235,-0.0101407609878133,-1.2260959982712265,-0.4828466675302255
2025-05-26 15:23:05.672,-1.2638598167302626,-0.0248336783660724,-1.2886934962891647,-0.5088637032338172
2025-05-26 15:23:05.676,-1.3044455506104848,-0.0428742462358239,-1.3473197980631757,-0.5371740861291712
2025-05-26 15:23:05.680,-1.3582595829359807,-0.0555511521748279,-1.413810736352162,-0.5404993183617457
2025-05-26 15:23:05.684,-1.4431174986455604,-0.0500608233384774,-1.493178323249119,-0.5228876774500882
2025-05-26 15:23:05.688,-1.5345326515798257,-0.026438170338602,-1.56097082320531,-0.5156448690088774
2025-05-26 15:23:05.691,-1.5960600113572128,0.0034466586609677,-1.5926133540042138,-0.5282123076268432
2025-05-26 15:23:05.695,-1.6266947966010576,0.0308962631204564,-1.5957985348106036,-0.5382480497857025
2025-05-26 15:23:05.699,-1.6469777000627557,0.0522965153877913,-1.594681186026915,-0.5330435166324772
2025-05-26 15:23:05.703,-1.65499816620037,0.0622061598836046,-1.5927920076883617,-0.5211487616467473
2025-05-26 15:23:05.707,-1.6335722223482525,0.0608710289138683,-1.5727011948239342,-0.4995878841366664
2025-05-26 15:23:05.711,-1.5966462606830552,0.0634066280271921,-1.5332396340643804,-0.4507982418573578
2025-05-26 15:23:05.715,-1.5873269376329255,0.083602443494418,-1.503724495567028,-0.3784839258367197
2025-05-26 15:23:05.719,-1.6177542385323078,0.1116337733562833,-1.5061204666225532,-0.309023324352891
2025-05-26 15:23:05.723,-1.6477982332948715,0.124512383373769,-1.5232858513828318,-0.2495717958883837
2025-05-26 15:23:05.727,-1.6444980677137964,0.1167433265853992,-1.5277547426056524,-0.1773552513092909
2025-05-26 15:23:05.731,-1.6281896723931022,0.101634081571524,-1.5265555923163847,-0.0796951223523665
2025-05-26 15:23:05.734,-1.6293394597256996,0.0750012087989774,-1.5543382524381573,0.0225679884894587
2025-05-26 15:23:05.738,-1.6278020056496458,-0.0044538422776246,-1.6322558494518449,0.1041539371298208
2025-05-26 15:23:05.742,-1.572633677847887,-0.1778327910364871,-1.7504664704210795,0.1707114610639343
2025-05-26 15:23:05.746,-1.451223561583617,-0.4347536486958644,-1.8859772118306428,0.2513990842006035
2025-05-26 15:23:05.750,-1.3135064311451012,-0.7112911255571335,-2.024797558268437,0.352953828619787
2025-05-26 15:23:05.754,-1.2247497654695327,-0.924331131802795,-2.1490808988502663,0.4151104092244638
2025-05-26 15:23:05.758,-1.1875068851819253,-0.997341625044312,-2.1848485118134167,0.3266447326972573
2025-05-26 15:23:05.762,-1.1159887274596545,-0.8783490403026495,-1.9943377693604312,0.028666392945969
2025-05-26 15:23:05.766,-0.939486365561274,-0.57099227395758,-1.5104786411298796,-0.3938963373984214
2025-05-26 15:23:05.770,-0.7394772650946257,-0.1737962249800945,-0.9132734916964004,-0.7730891563388139
2025-05-26 15:23:05.774,-0.6912395458104241,0.1222877561756384,-0.5689517912635942,-1.0175274805999683
2025-05-26 15:23:05.777,-0.8308489116018023,0.1408315094125438,-0.6900174038255744,-1.1621776310191323
2025-05-26 15:23:05.781,-0.9849457643002436,-0.1218770153182963,-1.1068227812649831,-1.2627684318280663
2025-05-26 15:23:05.785,-0.988571680503071,-0.4699327145168175,-1.4585043966757312,-1.30900006613813
2025-05-26 15:23:05.789,-0.8732672002846557,-0.6784349537543357,-1.5517021557004782,-1.2646915988720084
2025-05-26 15:23:05.793,-0.778656045506863,-0.6796064964669462,-1.458262543639787,-1.1469259295755374
2025-05-26 15:23:05.797,-0.7646228833122858,-0.5731279806828096,-1.3377508656680202,-1.0289564155337203
2025-05-26 15:23:05.801,-0.7757323427419657,-0.49032634698742,-1.2660586914099934,-0.968292291234966
2025-05-26 15:23:05.805,-0.740185755079888,-0.4762585780874007,-1.2164443348523837,-0.9490975619416984
2025-05-26 15:23:05.809,-0.6549570125664007,-0.4930191909819647,-1.147976205235555,-0.90777147373558
2025-05-26 15:23:05.813,-0.5865284188500343,-0.5040894584877846,-1.0906178790287235,-0.806868750208698
2025-05-26 15:23:05.816,-0.5999256405717865,-0.5182682832952393,-1.1181939255633604,-0.6673908553575256
2025-05-26 15:23:05.820,-0.6853827745273989,-0.5503016093744093,-1.235684385601421,-0.5417110879833273
2025-05-26 15:23:05.824,-0.7684785339652435,-0.5836039757774139,-1.3520825114424986,-0.4746537637057326
2025-05-26 15:23:05.828,-0.793666427108805,-0.5950508012521446,-1.388717230061508,-0.4685527323941834
2025-05-26 15:23:05.832,-0.7707219507384113,-0.5879349873152402,-1.3586569397569843,-0.4647579073316605
2025-05-26 15:23:05.836,-0.7344652099039092,-0.5807712623133501,-1.3152364739223583,-0.3922358928580036
2025-05-26 15:23:05.840,-0.6951475431705734,-0.5796332855734975,-1.2747808304478572,-0.2561041716250097
2025-05-26 15:23:05.844,-0.6493661145245062,-0.5734306869433581,-1.2227968031697705,-0.1388680466944964
2025-05-26 15:23:05.848,-0.611432324588252,-0.5508311056496881,-1.1622634319397944,-0.098647489391638
2025-05-26 15:23:05.852,-0.6003577783171917,-0.5159660187253543,-1.1163237987442498,-0.1115771277192554
2025-05-26 15:23:05.856,-0.60557387655086,-0.484435746703684,-1.0900096249534483,-0.1239302451388573
2025-05-26 15:23:05.859,-0.5947238000039134,-0.4657892992596739,-1.0605131009584077,-0.1128222269353193
2025-05-26 15:23:05.863,-0.5547966331299149,-0.4572308353183453,-1.0120274701402754,-0.0870903882806112
2025-05-26 15:23:05.867,-0.504877844573252,-0.4526474465338281,-0.9575252927967102,-0.0677285421864364
2025-05-26 15:23:05.871,-0.4672014401499177,-0.4482781037850108,-0.9154795456201232,-0.0728063756032166
2025-05-26 15:23:05.875,-0.4419216995599584,-0.4412917747042852,-0.8832134759433843,-0.0993459420212412
2025-05-26 15:23:05.879,-0.4158660865969377,-0.4304414429857246,-0.8463075312564409,-0.1297139927645037
2025-05-26 15:23:05.883,-0.3858995491015744,-0.4157776371504353,-0.8016771879210292,-0.1731105771243822
2025-05-26 15:23:05.887,-0.3642998881767518,-0.3943973541376073,-0.7586972439771091,-0.2743780722666098
2025-05-26 15:23:05.891,-0.3639565354510046,-0.3603330993049459,-0.7242896364107572,-0.4469938928149649
2025-05-26 15:23:05.895,-0.3866482488216807,-0.3106411928769977,-0.6972894433457855,-0.6169676015402517
2025-05-26 15:23:05.899,-0.4242122148832467,-0.252077943722337,-0.6762901602455926,-0.6748255684144656
2025-05-26 15:23:05.902,-0.4615268838661505,-0.2021691237742283,-0.6636960092721609,-0.5676191213574185
2025-05-26 15:23:05.906,-0.4807917726329903,-0.176779358353808,-0.6575711326087261,-0.3091057450986542
2025-05-26 15:23:05.910,-0.4747458837381783,-0.1735216431056294,-0.6482675284558369,0.0465053412254286
2025-05-26 15:23:05.914,-0.4529383563267946,-0.1760824695779416,-0.6290208275074469,0.3866009183878284
2025-05-26 15:23:05.918,-0.4265680070741505,-0.1735229683011555,-0.6000909769678247,0.5746172303739834
2025-05-26 15:23:05.922,-0.3966890610949691,-0.1637740323711854,-0.5604630950468779,0.5839407152943188
2025-05-26 15:23:05.926,-0.3652475049432416,-0.1438078165094218,-0.5090553230213479,0.5362632601396484
2025-05-26 15:23:05.930,-0.3425534845786331,-0.110849204710039,-0.4534026908459277,0.5522086999073108
2025-05-26 15:23:05.934,-0.3328361200293181,-0.0703331948333301,-0.4031693164078284,0.6301115450412624
2025-05-26 15:23:05.938,-0.3255847851224187,-0.0323944599717968,-0.3579792466257003,0.7006332173320213
2025-05-26 15:23:05.941,-0.3120420934041874,-0.0004514585691418,-0.3124935534906661,0.7232681088984412
2025-05-26 15:23:05.945,-0.3000155479080698,0.0337598544240402,-0.2662556949878955,0.7018916070591041
2025-05-26 15:23:05.949,-0.3020993855022088,0.0831073373953316,-0.2189920495969197,0.663449995042171
2025-05-26 15:23:05.953,-0.3176792371872889,0.1503561174092934,-0.1673231212525982,0.6392808298386703
2025-05-26 15:23:05.957,-0.3370654234544982,0.2222912325116838,-0.1147741924012458,0.6382349544523362
2025-05-26 15:23:05.961,-0.3544353676375684,0.2849292961242698,-0.0695060729562449,0.6396982693953581
2025-05-26 15:23:05.965,-0.3643379585589797,0.3387763594128428,-0.0255616005736062,0.6249864310346092
2025-05-26 15:23:05.969,-0.3566387465690897,0.3882852506640223,0.0316465026844584,0.5990511762211919
2025-05-26 15:23:05.973,-0.3301933596651001,0.425942933787969,0.0957495727304531,0.5731733457670989
2025-05-26 15:23:05.977,-0.2994053560651747,0.4406253640410476,0.1412200066009633,0.5464324287520492
2025-05-26 15:23:05.981,-0.2725580410684523,0.4328433983549014,0.1602853559286754,0.5140362052289387
2025-05-26 15:23:05.984,-0.2368820654701636,0.4132627023631836,0.1763806355536492,0.478331467142728
2025-05-26 15:23:05.988,-0.178412141211135,0.3957172063249903,0.2173050637942563,0.441681086144614
2025-05-26 15:23:05.992,-0.1062793338944011,0.3928233166545418,0.2865439814600765,0.3980964174673997
2025-05-26 15:23:05.996,-0.0480635523601578,0.4072597283445306,0.3591961747032056,0.3401114215042063
2025-05-26 15:23:06.000,-0.0266813909220716,0.4285686968110826,0.4018873046275927,0.2704058187364911
2025-05-26 15:23:06.004,-0.0441901145266019,0.4449853183170904,0.4007952025503379,0.202121761948403
2025-05-26 15:23:06.008,-0.0812055683815111,0.4526532199703628,0.3714476503701701,0.1472357708965733
2025-05-26 15:23:06.012,-0.108615586627727,0.4508272854151818,0.3422116975895357,0.106549362328825
2025-05-26 15:23:06.016,-0.1063022629089602,0.4394190174984602,0.3331167534127126,0.0730619271711988
2025-05-26 15:23:06.020,-0.0774338048997159,0.4256193127031971,0.34818550664929,0.041672699998432
2025-05-26 15:23:06.024,-0.0419967644324024,0.4220513055441295,0.380054539980816,0.0118460771699556
2025-05-26 15:23:06.027,-0.0125342051586821,0.4324786714496753,0.419944465182839,-0.0127920807528196
2025-05-26 15:23:06.031,0.0180018255984944,0.4456355592308026,0.4636373837438364,-0.0230912945085483
2025-05-26 15:23:06.035,0.0601336048312291,0.4466770561696739,0.506810659939315,-0.0128424159639856
2025-05-26 15:23:06.039,0.1085699385955628,0.4314770353764411,0.5400469729353428,0.0064696733383952
2025-05-26 15:23:06.043,0.1479705124256752,0.4089045436980695,0.5568750551118775,0.0117644068510932
2025-05-26 15:23:06.047,0.172187929236414,0.3912507102031856,0.5634386384522024,-0.0051449536925346
2025-05-26 15:23:06.051,0.1879408299423943,0.3823864145482657,0.5703272435284652,-0.0286805976032693
2025-05-26 15:23:06.055,0.2040407454166959,0.3735102392672187,0.5775509837481339,-0.0418283250367155
2025-05-26 15:23:06.059,0.2271783336068524,0.351012917004707,0.5781912497025608,-0.0437424919212074
2025-05-26 15:23:06.063,0.2615309034578901,0.3118244460495676,0.5733553486248997,-0.0364393975903312
2025-05-26 15:23:06.066,0.3001704363418169,0.2696619720685914,0.5698324075545145,-0.0110083903643086
2025-05-26 15:23:06.070,0.3248683119244185,0.2394937617348207,0.5643620728310976,0.0346777183175315
2025-05-26 15:23:06.074,0.3272652412645879,0.2191863505110125,0.5464515909760493,0.0807918823908893
2025-05-26 15:23:06.078,0.3217559811176387,0.1979225567988412,0.5196785371454207,0.1108951619918541
2025-05-26 15:23:06.082,0.3270787022026497,0.1777832819329977,0.5048619833928882,0.1366128543143312
2025-05-26 15:23:06.086,0.3477210337320591,0.1709220566658829,0.5186430896842005,0.1753566019864969
2025-05-26 15:23:06.090,0.3829973085923023,0.1778835473712341,0.5608808552799521,0.2200589947472736
2025-05-26 15:23:06.094,0.4339530529625369,0.1836840607625356,0.6176371130719831,0.2513336024677174
2025-05-26 15:23:06.098,0.4855379227524003,0.1757596072420154,0.6612975293714163,0.2662765029791885
2025-05-26 15:23:06.102,0.5048802579187799,0.1560051180901825,0.6608853754162413,0.277204517885781
2025-05-26 15:23:06.106,0.4786336740950918,0.1343212561141873,0.6129549296480148,0.2895454165670991
2025-05-26 15:23:06.109,0.4344393845002054,0.1166596369607148,0.5510990209319508,0.2954322183023697
2025-05-26 15:23:06.113,0.4091161858573074,0.1007091135835398,0.5098252989438066,0.2859307885752085
2025-05-26 15:23:06.117,0.4113521119510132,0.0799100646791544,0.4912621761646843,0.259375808507288
2025-05-26 15:23:06.121,0.4247174834605733,0.0521514671060464,0.4768689501336148,0.2199667285678594
2025-05-26 15:23:06.125,0.4312818766774455,0.0268864158303942,0.4581682921085709,0.1761326442669935
2025-05-26 15:23:06.129,0.4257509961916529,0.0190381288384688,0.4447891246645153,0.1388408768753756
2025-05-26 15:23:06.133,0.4162232905517823,0.0305519528643201,0.446775243083372,0.1153782267430527
2025-05-26 15:23:06.137,0.4123935171253135,0.0449158421680648,0.4573093589939867,0.1033081573569468
2025-05-26 15:23:06.141,0.4103802340677391,0.048104746684764,0.4584849804879464,0.0911334307073066
2025-05-26 15:23:06.145,0.3970115584682165,0.0459906363183773,0.4430021945572423,0.0689128041452205
2025-05-26 15:23:06.149,0.3724721286558642,0.0506385709519651,0.4231106994126915,0.0495904290142747
2025-05-26 15:23:06.152,0.3560561842150186,0.0605043332548134,0.4165605173088073,0.0793248848641154
2025-05-26 15:23:06.156,0.3601668898110377,0.0663974573841641,0.4265643470697956,0.1990255428352846
2025-05-26 15:23:06.160,0.368898001500756,0.0655068474404712,0.4344048488523186,0.378903263732485
2025-05-26 15:23:06.164,0.3557326416531356,0.0591019878202611,0.4148346294200462,0.5216752653888963
2025-05-26 15:23:06.168,0.3166154605437432,0.049061215696052,0.365676676221348,0.5629224494209194
2025-05-26 15:23:06.172,0.2722748618964384,0.043186389123938,0.3154612510381162,0.5481547230862709
2025-05-26 15:23:06.176,0.241997234240227,0.0494583369806819,0.2914555712761925,0.578856762296188
2025-05-26 15:23:06.180,0.2271978902963067,0.0627770883405551,0.2899749787290415,0.6988426458592547
2025-05-26 15:23:06.184,0.2182867778961017,0.0719402991921406,0.2902270772161875,0.8637504118369813
2025-05-26 15:23:06.188,0.2078018644854611,0.0761950037021632,0.283996868352155,1.0077893167804717
2025-05-26 15:23:06.191,0.1950577955297164,0.0801009366869164,0.2751587324194323,1.1104741759435113
2025-05-26 15:23:06.195,0.1828957339545463,0.079881629159132,0.2627773633545978,1.199926774333147
2025-05-26 15:23:06.199,0.1767905162037614,0.0700235739128412,0.2468140903942422,1.305378984913896
2025-05-26 15:23:06.203,0.1876920256718333,0.0557003734757458,0.2433923994621333,1.4154692972832834
2025-05-26 15:23:06.207,0.2233895224502191,0.0456382582867517,0.2690277810901993,1.4943733637083907
2025-05-26 15:23:06.211,0.2693183734390711,0.0390409264974091,0.3083593003288362,1.5298978591349517
2025-05-26 15:23:06.215,0.2901811098397903,0.031011418222528,0.3211925284924169,1.5385286462229002
2025-05-26 15:23:06.219,0.262521349450206,0.0261906102331736,0.2887119601507629,1.5305651301969485
2025-05-26 15:23:06.223,0.199656300615495,0.0337524324350762,0.233408733556781,1.5030463557923548
2025-05-26 15:23:06.227,0.1380993835176162,0.0486925829343386,0.1867919669980038,1.4629310133278624
2025-05-26 15:23:06.231,0.1057233221811345,0.0523351244560489,0.1580584472219956,1.4274312739619348
2025-05-26 15:23:06.234,0.1068345723575268,0.0364528431902566,0.1432874161703728,1.39993931362589
2025-05-26 15:23:06.238,0.1293849519126136,0.0144097721573982,0.1437947247314429,1.3657616704653222
2025-05-26 15:23:06.242,0.1569298840778157,0.0038002385657435,0.1607301233452102,1.316397494837343
2025-05-26 15:23:06.246,0.1757551024182029,0.0095630586311046,0.1853181617906175,1.265708401846224
2025-05-26 15:23:06.250,0.1807901080682329,0.0251987140112978,0.2059888228592343,1.23410365455927
2025-05-26 15:23:06.254,0.1786058135907479,0.039325698546758,0.2179315129560527,1.224913509478179
2025-05-26 15:23:06.258,0.1804522171906516,0.0429810374522259,0.2234332555017276,1.2282417789820204
2025-05-26 15:23:06.262,0.1920133240608206,0.0381937979898704,0.2302071229498601,1.2412866717430728
2025-05-26 15:23:06.266,0.2120146946872284,0.0326572112281193,0.2446719068535953,1.269092911703568
2025-05-26 15:23:06.270,0.235094027407793,0.0236258208651476,0.2587198492501396,1.3110410117559703
2025-05-26 15:23:06.274,0.2522499510087741,0.0026116092000896,0.2548615612262923,1.3621637384132534
2025-05-26 15:23:06.277,0.2580158788043402,-0.0222886737679453,0.2357272060945595,1.422090704184108
2025-05-26 15:23:06.281,0.2619160692716207,-0.0302483395624743,0.2316677308070816,1.4932995056001352
2025-05-26 15:23:06.285,0.2801682619294092,-0.0181417150080847,0.2620265480584927,1.5798401706318366
2025-05-26 15:23:06.289,0.31170751835043,-0.0073423054018182,0.3043652141259259,1.6896648608714475
2025-05-26 15:23:06.293,0.3382094766982491,-0.0168519189600079,0.3213575589565063,1.8231466786486143
2025-05-26 15:23:06.297,0.3514015468688314,-0.0460528184746005,0.3053487296528979,1.961574017456265
2025-05-26 15:23:06.301,0.361821211370555,-0.0837567062375984,0.2780645064313068,2.082146135357242
2025-05-26 15:23:06.305,0.3769888612384892,-0.1179709800447541,0.2590178825322493,2.1737497406675934
2025-05-26 15:23:06.309,0.3907410147630705,-0.1376712459527576,0.2530697701898677,2.2255269839100835
2025-05-26 15:23:06.313,0.3990086501401602,-0.1396732189028078,0.25933543265782,2.225066632420794
2025-05-26 15:23:06.316,0.4078585415120494,-0.1328629640439489,0.2749955789287894,2.1852748531270896
2025-05-26 15:23:06.320,0.4200447022153628,-0.1268400597964128,0.2932046439199502,2.146167756438662
2025-05-26 15:23:06.324,0.428966617418452,-0.1223464913315904,0.3066201276289263,2.134144386824349
2025-05-26 15:23:06.328,0.432713838931285,-0.1184082592968526,0.3143055812177513,2.140025620674343
2025-05-26 15:23:06.332,0.4414624057008574,-0.1181311932902725,0.3233312140346343,2.142444791547512
2025-05-26 15:23:06.336,0.4620610651157457,-0.1218104551439049,0.34025061163645,2.131109417834434
2025-05-26 15:23:06.340,0.4838679622566121,-0.1239753891787566,0.3598925747835627,2.1040161643775037
2025-05-26 15:23:06.344,0.489555929846574,-0.1198221296715922,0.3697338019221558,2.0618592964694065
2025-05-26 15:23:06.348,0.4759244831252777,-0.1074897868585586,0.3684346980550578,2.0089067683004425
2025-05-26 15:23:06.352,0.4568936075065808,-0.0872090377344294,0.369684571601362,1.9455692504852289
2025-05-26 15:23:06.356,0.4484748178334674,-0.0650317187464128,0.3834431009574363,1.8630066471722044
2025-05-26 15:23:06.359,0.4558244092446028,-0.0514929523975524,0.4043314587590093,1.760262321167509
2025-05-26 15:23:06.363,0.4722150914960304,-0.0511127162479932,0.4211023772014833,1.6603477625378975
2025-05-26 15:23:06.367,0.4847575778818815,-0.0590219370554838,0.4257356428210543,1.5902290088962316
2025-05-26 15:23:06.371,0.4827418271798134,-0.0701739469799731,0.4125678822358238,1.5490203828058833
2025-05-26 15:23:06.375,0.4673093887920317,-0.0850589150650123,0.3822504758046792,1.5143208988499286
2025-05-26 15:23:06.379,0.4504655775230626,-0.1038430981488495,0.3466224814936192,1.475935243277425
2025-05-26 15:23:06.383,0.4367077219874507,-0.1209765549801462,0.3157311691682933,1.4456276796191043
2025-05-26 15:23:06.387,0.4171831179475097,-0.1306513853178358,0.286531734832257,1.4366729885198677
2025-05-26 15:23:06.391,0.3959961380453902,-0.1348440702005065,0.2611520700892751,1.4470122545716086
2025-05-26 15:23:06.395,0.3966858134905995,-0.1401933424743569,0.2564924733025776,1.4594801180575834
2025-05-26 15:23:06.399,0.4161389756181315,-0.1477164911409687,0.2684224868054364,1.454846874008187
2025-05-26 15:23:06.402,0.4052198776691941,-0.151866763089245,0.2533531169501499,1.430638527120729
2025-05-26 15:23:06.406,0.3323541841002349,-0.150633630507981,0.1817205560044213,1.4008765152403018
2025-05-26 15:23:06.410,0.2384036347866333,-0.1504878339203242,0.0879158033205421,1.3702234006478062
2025-05-26 15:23:06.414,0.1920089173563444,-0.157483073956087,0.0345258458966962,1.3260512072465065
2025-05-26 15:23:06.418,0.2094895130452793,-0.1672476247822838,0.0422418908016811,1.2634829954513225
2025-05-26 15:23:06.422,0.2492147263729082,-0.1705393386291601,0.0786753903245687,1.1924235758242323
2025-05-26 15:23:06.426,0.2738145557181481,-0.1673178474675643,0.1064967108735321,1.114286558538084
2025-05-26 15:23:06.430,0.2885542735619315,-0.1659991472063479,0.1225551290209102,1.0206667189369558
2025-05-26 15:23:06.434,0.3144379485423664,-0.1693868737663801,0.1450510774838496,0.9174391871771994
2025-05-26 15:23:06.438,0.3472978137959526,-0.1734974274068608,0.1738003891392813,0.8238988277429152
2025-05-26 15:23:06.441,0.363724634879337,-0.1799543366126582,0.1837703010590246,0.7477208116202462
2025-05-26 15:23:06.445,0.3594931103186704,-0.1959326568256644,0.1635604563277846,0.6798124843873723
2025-05-26 15:23:06.449,0.359745006537357,-0.2229571548267155,0.136787854588137,0.6140314354002245
2025-05-26 15:23:06.453,0.3873846354048842,-0.2566496745872056,0.1307349637376443,0.561765427867084
2025-05-26 15:23:06.457,0.436267635512388,-0.2864780308069306,0.1497896076675564,0.5424500476838208
2025-05-26 15:23:06.461,0.4826627650893894,-0.2804390332628799,0.2022237348309825,0.5511869186014071
2025-05-26 15:23:06.465,0.5204559652983565,-0.1897986336698753,0.3306573346757342,0.5334619492163544
2025-05-26 15:23:06.469,0.5780933098442727,0.0066865334146718,0.5847798463487652,0.4169382523022086
2025-05-26 15:23:06.473,0.6768420633104995,0.2721085888167677,0.9489506552591894,0.1912494465045827
2025-05-26 15:23:06.477,0.7626273813852756,0.5245575691207353,1.287184953680202,-0.0630358906956081
2025-05-26 15:23:06.481,0.7313276514250069,0.6630388561894847,1.3943665108314556,-0.251473595887802
2025-05-26 15:23:06.484,0.5628828411832114,0.6099548580293996,1.1728377024722063,-0.3531984602913837
2025-05-26 15:23:06.488,0.3723676048084259,0.3781633866590778,0.7505309947691523,-0.4056645077289534
2025-05-26 15:23:06.492,0.2729732652177945,0.0841966744718173,0.3571699430333606,-0.4296090908179669
2025-05-26 15:23:06.496,0.246228865516752,-0.1384171971141497,0.1078116717890292,-0.4105153570512497
2025-05-26 15:23:06.500,0.2047458313787266,-0.2316145747301193,-0.0268687399223112,-0.3431476625291619
2025-05-26 15:23:06.504,0.1276274908987076,-0.2190455959664394,-0.0914181015966763,-0.258126048612594
2025-05-26 15:23:06.508,0.0700763226142025,-0.1561942856867705,-0.0861179595596999,-0.1986996906707031
2025-05-26 15:23:06.512,0.0719532902718461,-0.090576922756051,-0.0186236289289419,-0.1849438251263249
2025-05-26 15:23:06.516,0.1121656569757407,-0.0468542310473281,0.0653114295262057,-0.2042403720992717
2025-05-26 15:23:06.520,0.1444561648247021,-0.027068724615358,0.1173874438489428,-0.232021095464461
2025-05-26 15:23:06.524,0.1464773361708731,-0.022815831107641,0.1236615087442212,-0.256667803694634
2025-05-26 15:23:06.527,0.1350650756592007,-0.0279396338274668,0.1071254455546141,-0.2810833263172161
2025-05-26 15:23:06.531,0.1425768122292016,-0.037564293886968,0.1050125221073098,-0.3055461892773433
2025-05-26 15:23:06.535,0.1735830620458117,-0.0426020341293778,0.130981031723014,-0.322038147455325
2025-05-26 15:23:06.539,0.192716128790036,-0.0359950643935971,0.1567210682438365,-0.3293824712024954
2025-05-26 15:23:06.543,0.1699533003735241,-0.0226635108682944,0.1472897933937432,-0.3411841280702126
2025-05-26 15:23:06.547,0.1229431646504309,-0.0152934217950984,0.107649746785397,-0.3677599403008735
2025-05-26 15:23:06.551,0.0921273007983669,-0.0192054032414625,0.0729219015279634,-0.3989525376297984
2025-05-26 15:23:06.555,0.0902213933036844,-0.0268586268636408,0.0633627704512043,-0.4177611466967219
2025-05-26 15:23:06.559,0.1020138261744306,-0.0298055189344299,0.0722083112912627,-0.4243013346378456
2025-05-26 15:23:06.563,0.1185647872096107,-0.0296293397689554,0.0889354515324794,-0.4329064768862876
2025-05-26 15:23:06.566,0.142614908309763,-0.0316304186352768,0.1109844938065159,-0.4501937276149583
2025-05-26 15:23:06.570,0.1683699640703589,-0.0355897768011259,0.1327801914404876,-0.4683554138743742
2025-05-26 15:23:06.574,0.1833797404865805,-0.0403770804221606,0.1430026642745583,-0.4786019231243847
2025-05-26 15:23:06.578,0.1914967700195787,-0.0489456877853911,0.1425510864835513,-0.4819847670102369
2025-05-26 15:23:06.582,0.2117112467009919,-0.0612796979451661,0.1504315530442518,-0.48564239825949
2025-05-26 15:23:06.586,0.2457554973228789,-0.0709971307433886,0.1747583709060512,-0.494150845773612
2025-05-26 15:23:06.590,0.2639747626032706,-0.074043827699148,0.1899309392681809,-0.5073128799301327
2025-05-26 15:23:06.594,0.2387676635271215,-0.0731594528530447,0.1656082150757271,-0.5224703845747263
2025-05-26 15:23:06.598,0.1828102836831415,-0.0724421543545336,0.1103681337678104,-0.5357787665227056
2025-05-26 15:23:06.602,0.1375216761849192,-0.0740738904651872,0.0634477901957382,-0.5444379371412631
2025-05-26 15:23:06.606,0.1279978169565913,-0.0783767774954934,0.049621043973081,-0.5501435767566663
2025-05-26 15:23:06.609,0.1447460773512231,-0.0823090276859967,0.0624370542129142,-0.5572434285666055
2025-05-26 15:23:06.613,0.1660493003294982,-0.0823095614431814,0.0837397434696109,-0.5668483922185885
2025-05-26 15:23:06.617,0.1812351843341831,-0.080285396706055,0.1009497922464891,-0.5771519472313991
2025-05-26 15:23:06.621,0.1927462747551303,-0.0803021177299062,0.1124441616778066,-0.5885048619702258
2025-05-26 15:23:06.625,0.2084369345236208,-0.0805076951033234,0.1279292441064717,-0.6017202589098011
2025-05-26 15:23:06.629,0.2304027918662548,-0.0757890018797691,0.1546137947059319,-0.6132676055488555
2025-05-26 15:23:06.633,0.247365130013283,-0.0662792541519948,0.1810858806136485,-0.6189406365607668
2025-05-26 15:23:06.637,0.2478456540289819,-0.0571920686847753,0.1906535901288099,-0.6195895861284545
2025-05-26 15:23:06.641,0.2396149732141167,-0.0518494133931685,0.1877655646369242,-0.6185325894907795
2025-05-26 15:23:06.645,0.2385531352368254,-0.0478595054550105,0.1906936346284867,-0.6173919512212426
2025-05-26 15:23:06.649,0.2400827327444379,-0.0399185740615641,0.200164163559931,-0.6166597246469581
2025-05-26 15:23:06.652,0.2223492122021149,-0.0268865073478746,0.1954627097613174,-0.6153443940781418
2025-05-26 15:23:06.656,0.1818211898939605,-0.0156434788697543,0.1661777159604006,-0.6101243788336042
2025-05-26 15:23:06.660,0.151053011673666,-0.0143603763608712,0.1366926402770265,-0.6001424935592371
2025-05-26 15:23:06.664,0.168598363973295,-0.021278478326366,0.1473198906387281,-0.5907504361492067
2025-05-26 15:23:06.668,0.2304581487861276,-0.0256194268489535,0.2048387269564764,-0.587413891788312
2025-05-26 15:23:06.672,0.2836439911417494,-0.021639567808643,0.2620044283791918,-0.5886750919183339
2025-05-26 15:23:06.676,0.278853383471009,-0.01441528417313,0.2644381043693302,-0.5895422053351544
2025-05-26 15:23:06.680,0.2216255068579582,-0.0088671083408014,0.2127584036131303,-0.5889045376392548
2025-05-26 15:23:06.684,0.1624292104103296,-0.0028491337701439,0.1595800817607707,-0.5889744720120342
2025-05-26 15:23:06.688,0.1470680485758206,0.0041837594210731,0.1512518131417141,-0.588963518780371
2025-05-26 15:23:06.691,0.1831674403918325,0.0051028905901896,0.1882703361495095,-0.5852460060666291
2025-05-26 15:23:06.695,0.2412901551513833,-0.0058574479885992,0.2354327123516027,-0.5790835748193197
2025-05-26 15:23:06.699,0.283821633078441,-0.0235271944864003,0.2602944438022044,-0.5767323552483219
2025-05-26 15:23:06.703,0.3014473464271405,-0.0370039447987233,0.2644434068599506,-0.5784672759127205
2025-05-26 15:23:06.707,0.315965368162292,-0.04160388582318,0.2743614875905532,-0.5772563972806457
2025-05-26 15:23:06.711,0.3417901515143766,-0.0408695827425113,0.3009205740414155,-0.5721720845280305
2025-05-26 15:23:06.715,0.3641237046809994,-0.0392341151933505,0.324889594775013,-0.5707757809154037
2025-05-26 15:23:06.719,0.3680961428709041,-0.0374972215962946,0.3305989265801398,-0.5751907761397008
2025-05-26 15:23:06.723,0.3676209454190238,-0.0334994923943038,0.3341214583473085,-0.5794082247157311
2025-05-26 15:23:06.727,0.3838203915631505,-0.0241609495405919,0.3596594473601209,-0.581826111984542
2025-05-26 15:23:06.731,0.4098044765521724,-0.0089447614474936,0.4008597204564433,-0.5870490168569269
2025-05-26 15:23:06.734,0.4224551535305203,0.0083879587526394,0.43084311764961,-0.5957177006520245
2025-05-26 15:23:06.738,0.4215553374034834,0.0238645381969186,0.4454198809809213,-0.6054892206660527
2025-05-26 15:23:06.742,0.4292902339894878,0.036331983313315,0.4656222226952847,-0.6197593991559254
2025-05-26 15:23:06.746,0.4497007545129831,0.0431414768887504,0.4928422368048872,-0.6424926727029618
2025-05-26 15:23:06.750,0.4529843424739933,0.0390106971368707,0.4919950450250477,-0.6676478480283651
2025-05-26 15:23:06.754,0.4091705136856928,0.0266841138433377,0.4358546329541058,-0.6857248162016306
2025-05-26 15:23:06.758,0.3240179411362316,0.0229547460038445,0.3469726925741624,-0.6974704411756547
2025-05-26 15:23:06.762,0.2326468252048883,0.0423752870338926,0.2750221176801307,-0.7115352415438285
2025-05-26 15:23:06.766,0.1657831155432292,0.0769517846105173,0.2427349056023429,-0.7317235003181942
2025-05-26 15:23:06.770,0.132607096276471,0.103373506465054,0.23598060819757,-0.7531807064526723
2025-05-26 15:23:06.774,0.1297006634719476,0.1094407602665733,0.23914142920058,-0.7683750789510195
2025-05-26 15:23:06.777,0.1489226436543402,0.103669913648799,0.2525925627692154,-0.7737580410362661
2025-05-26 15:23:06.781,0.1756813079572328,0.1014235770117317,0.2771048904385037,-0.774293046669097
2025-05-26 15:23:06.785,0.1955611526667057,0.1107417156299519,0.3063028737699637,-0.7805842265821596
2025-05-26 15:23:06.789,0.2071863286565554,0.1283189212343554,0.335505255367121,-0.7948261563875287
2025-05-26 15:23:06.793,0.2214813759015173,0.1417723189121846,0.3632537002908739,-0.804258472428382
2025-05-26 15:23:06.797,0.247684278415533,0.1404690859886935,0.3881533698812536,-0.7992746885546024
2025-05-26 15:23:06.801,0.2775122779203947,0.1289795921903536,0.4064918755877538,-0.7912536416646241
2025-05-26 15:23:06.805,0.2798144487412528,0.1219834053349504,0.4017978595528674,-0.7989449818001031
2025-05-26 15:23:06.809,0.2302596990340219,0.1226608765211687,0.3529205810299365,-0.8230603941706648
2025-05-26 15:23:06.813,0.1601921603595639,0.1186869847800259,0.2788791506108937,-0.8469043262157324
2025-05-26 15:23:06.816,0.1399631317511563,0.1046824648008722,0.2446456020195589,-0.8577721958674244
2025-05-26 15:23:06.820,0.18332642451182,0.0938066884636568,0.2771331184392513,-0.857947673438593
2025-05-26 15:23:06.824,0.2111600436416231,0.0994226003634687,0.3105826494641355,-0.8579984257572445
2025-05-26 15:23:06.828,0.1529935375493814,0.1194612179602926,0.2724547609623276,-0.8660161909341552
2025-05-26 15:23:06.832,0.0453855978725107,0.1456612528876572,0.1910468562054852,-0.880397909955415
2025-05-26 15:23:06.836,-0.015737320944951,0.1720526568168497,0.1563153413098966,-0.8896331647526826
2025-05-26 15:23:06.840,0.0096683612046172,0.1880065571416155,0.1976749237765905,-0.8820142122719222
2025-05-26 15:23:06.844,0.0785677486573146,0.1814449637711477,0.2600127178497254,-0.8555632671164498
2025-05-26 15:23:06.848,0.1347745152644678,0.1562293423146249,0.2910038629897248,-0.8174494562767379
2025-05-26 15:23:06.852,0.1714166517463682,0.130620323174465,0.3020369803205012,-0.7792911876491027
2025-05-26 15:23:06.856,0.2203105218787146,0.1163491053518089,0.3366596326194357,-0.7533058798907667
2025-05-26 15:23:06.859,0.2956182414211981,0.1144705097296841,0.4100887565281104,-0.7443728513642952
2025-05-26 15:23:06.863,0.3647824067348341,0.1273722090254389,0.4921546211239123,-0.7463660780983554
2025-05-26 15:23:06.867,0.3812276079387072,0.1560929415636986,0.5373205548515101,-0.7529745062012465
2025-05-26 15:23:06.871,0.3337297272023611,0.1913575652004902,0.5250872977378571,-0.7665577653697396
2025-05-26 15:23:06.875,0.253622743380625,0.2232712134001268,0.4768939621014438,-0.78780498454732
2025-05-26 15:23:06.879,0.1872892481451757,0.2484013378415303,0.4356905912911671,-0.8029969823012736
2025-05-26 15:23:06.883,0.1731539978646064,0.2542813773349475,0.4274353804861333,-0.7939532331357401
2025-05-26 15:23:06.887,0.2241223522856255,0.2201268612511488,0.4442492188057558,-0.7607376612836901
2025-05-26 15:23:06.891,0.3075925101731214,0.1524885264402805,0.4600810418652777,-0.7245109877085729
2025-05-26 15:23:06.895,0.3555775839874934,0.0963625386525762,0.4519401278733093,-0.7052287424007504
2025-05-26 15:23:06.899,0.3227069874983522,0.0893910302740395,0.4120980229847745,-0.7035808749840802
2025-05-26 15:23:06.902,0.2350521301300432,0.1227516647463914,0.3578038000677452,-0.7068335757994512
2025-05-26 15:23:06.906,0.1647668392500449,0.1610635573484068,0.3258304017696657,-0.704818549632106
2025-05-26 15:23:06.910,0.1546940151344811,0.1825773345709098,0.3372713548556504,-0.6947328161135646
2025-05-26 15:23:06.914,0.1816127504049358,0.1881948545294102,0.369807610061174,-0.6765429851940933
2025-05-26 15:23:06.918,0.1996720964228757,0.1872816888579459,0.386953790383318,-0.653795987648419
2025-05-26 15:23:06.922,0.2043973247803193,0.1876306183311,0.3920279481906867,-0.635165473323051
2025-05-26 15:23:06.926,0.2291813543477951,0.1920390464358819,0.4212204058396214,-0.6240067782601539
2025-05-26 15:23:06.930,0.278770022433417,0.1973558018782826,0.4761258293419751,-0.6115429027328898
2025-05-26 15:23:06.934,0.3019187165869695,0.2001975836675459,0.5021163052575677,-0.5917771599189066
2025-05-26 15:23:06.938,0.2535987988355103,0.2040696912735161,0.4576684950857249,-0.5750647455183902
2025-05-26 15:23:06.941,0.1582751230347011,0.2145089701967284,0.3727840981823114,-0.5741625374600345
2025-05-26 15:23:06.945,0.0827040276709828,0.2286626385625754,0.3113666711567022,-0.5831639498035883
2025-05-26 15:23:06.949,0.0628366503150538,0.238954181742849,0.301790836951303,-0.5809421464347688
2025-05-26 15:23:06.953,0.0796747555555868,0.2446964797727206,0.3243712401923845,-0.553114495370953
2025-05-26 15:23:06.957,0.0947830412641523,0.2492449448149062,0.3440279909147288,-0.5052728819696717
2025-05-26 15:23:06.961,0.0931834953135113,0.2500858069315789,0.3432693070509782,-0.4552249885538393
2025-05-26 15:23:06.965,0.0910489283961257,0.2439125712210828,0.3349615043911121,-0.4156165350517584
2025-05-26 15:23:06.969,0.1029402312028208,0.2364510757896702,0.3393913117343498,-0.3877220080775505
2025-05-26 15:23:06.973,0.1128556084937221,0.235643392080872,0.3484990052854912,-0.3707552056577801
2025-05-26 15:23:06.977,0.0971958134400882,0.2387234500302909,0.3359192681494729,-0.3683602172729848
2025-05-26 15:23:06.981,0.0678972135716909,0.235005058156571,0.30290227637333,-0.3817161578358826
2025-05-26 15:23:06.984,0.0610735045609206,0.2205886551773005,0.2816621643487683,-0.4029704881828293
2025-05-26 15:23:06.988,0.0830290474583496,0.2049182275817771,0.287947279617281,-0.4210730085095866
2025-05-26 15:23:06.992,0.1039427319294129,0.2009452538168834,0.3048879902897111,-0.4320203936214587
2025-05-26 15:23:06.996,0.113307107923838,0.2104724289169956,0.3237795413483652,-0.4408022203683185
2025-05-26 15:23:07.000,0.1433283766513157,0.2217338358399965,0.3650622169620772,-0.4537242199661432
2025-05-26 15:23:07.004,0.2248730587099298,0.2223039080264779,0.4471769711715383,-0.469661377517455
2025-05-26 15:23:07.008,0.3552949580793995,0.2131725400750341,0.5684675025541039,-0.4799911723269797
2025-05-26 15:23:07.012,0.5015319400627554,0.2081012929523235,0.7096332373773075,-0.4785276705798937
2025-05-26 15:23:07.016,0.5819308423941266,0.2180746226721399,0.800005469389764,-0.4686298687511117
2025-05-26 15:23:07.020,0.4801711227282959,0.2391280592901692,0.7192991863042916,-0.4553906071272613
2025-05-26 15:23:07.024,0.173582756285221,0.2596421172610456,0.4332248777951782,-0.4373218080270755
2025-05-26 15:23:07.027,-0.1761641372108535,0.2767471296019017,0.1005829966013618,-0.4179354053024969
2025-05-26 15:23:07.031,-0.3618355386901666,0.2991588520146688,-0.0626766825055344,-0.4150417375026309
2025-05-26 15:23:07.035,-0.3437299111787855,0.3358351445697823,-0.0078947624786085,-0.4376452298830298
2025-05-26 15:23:07.039,-0.2487458919730863,0.3856303969087586,0.1368845090278392,-0.4642486928129326
2025-05-26 15:23:07.043,-0.1972799806005993,0.4349093601350158,0.2376293835872197,-0.4685132563569809
2025-05-26 15:23:07.047,-0.2070875654957071,0.4665758457352881,0.2594882842508708,-0.4572200296182001
2025-05-26 15:23:07.051,-0.2341223706710024,0.4769813281754361,0.2428589614744376,-0.4582674449841243
2025-05-26 15:23:07.055,-0.2400416934810322,0.4797603702348719,0.2397186806843264,-0.4769705541415306
2025-05-26 15:23:07.059,-0.2238273983839607,0.489255749470427,0.2654283549771243,-0.4892134860684966
2025-05-26 15:23:07.063,-0.2143156821797368,0.5072704955854682,0.2929548172542835,-0.4782800406542613
2025-05-26 15:23:07.066,-0.2312982964076499,0.5280698117334337,0.2967715191316779,-0.4537005354856344
2025-05-26 15:23:07.070,-0.2592478762132816,0.5481950133843467,0.2889471409361343,-0.4288189582886702
2025-05-26 15:23:07.074,-0.2740354241137733,0.5657233921947291,0.2916879718058397,-0.4051554481833785
2025-05-26 15:23:07.078,-0.2816502211468722,0.5725852674422969,0.2909350499781316,-0.3853845585515751
2025-05-26 15:23:07.082,-0.303330926677239,0.5591646679016812,0.2558337448636139,-0.3750391941356787
2025-05-26 15:23:07.086,-0.3317960839453601,0.532722456970125,0.2009263766218323,-0.3641716806721146
2025-05-26 15:23:07.090,-0.3373283056074434,0.5167294793249766,0.1794011772739584,-0.334776953367873
2025-05-26 15:23:07.094,-0.3188421970210986,0.521567403977935,0.2027252104713555,-0.2937533184688123
2025-05-26 15:23:07.098,-0.3112051906057327,0.5317398262387889,0.2205346391037546,-0.2690497342824682
2025-05-26 15:23:07.102,-0.3298575676768461,0.5305575312092354,0.2006999669598879,-0.2650747595959376
2025-05-26 15:23:07.106,-0.3465930616732173,0.5185799491984138,0.1719868909113804,-0.253681110898564
2025-05-26 15:23:07.109,-0.3375409848556716,0.4998308369731223,0.1622898554620611,-0.2181069551223734
2025-05-26 15:23:07.113,-0.3103295971594042,0.4693427869862029,0.1590131931278389,-0.1749024798394466
2025-05-26 15:23:07.117,-0.2631190355382072,0.4232033517957161,0.1600843195146405,-0.1452003771886189
2025-05-26 15:23:07.121,-0.1778557010155189,0.3659129124646825,0.1880572146641476,-0.1316178440922151
2025-05-26 15:23:07.125,-0.0896421282352276,0.3037533091592121,0.2141111840975244,-0.1283509850253349
2025-05-26 15:23:07.129,-0.0921533259455301,0.2456384294655319,0.1534851066505304,-0.1319165514925527
2025-05-26 15:23:07.133,-0.2141510488637809,0.210612498793713,-0.0035385469836764,-0.136248554798096
2025-05-26 15:23:07.137,-0.3473005013629732,0.2164551350288956,-0.1308453632906622,-0.1301913259154997
2025-05-26 15:23:07.141,-0.369951942207311,0.2553426135202404,-0.1146093256852908,-0.1062987176791893
2025-05-26 15:23:07.145,-0.3073178650972062,0.2927269751064979,-0.0145908870313457,-0.069109605649786
2025-05-26 15:23:07.149,-0.2874002590068971,0.2996165862163459,0.0122163301248852,-0.0314686281113873
2025-05-26 15:23:07.152,-0.3507273025935955,0.2825841996705694,-0.0681431000512037,-0.0015725290005879
2025-05-26 15:23:07.156,-0.3995809775853417,0.2743458288326153,-0.1252351459230306,0.0277926134327251
2025-05-26 15:23:07.160,-0.3603991112800128,0.3021885599054782,-0.0582105485868831,0.0737141159423625
2025-05-26 15:23:07.164,-0.2966355026876563,0.3824832013232617,0.0858477013798026,0.130703644946411
2025-05-26 15:23:07.168,-0.2931046425922651,0.5359855110980032,0.2428808712059976,0.1387572030323484
2025-05-26 15:23:07.172,-0.3087672112959394,0.7783925094792227,0.4696253008407881,0.0191509950094928
2025-05-26 15:23:07.176,-0.2369794019494663,1.0938592320136942,0.8568798326797414,-0.2232296043087018
2025-05-26 15:23:07.180,-0.0736550660113592,1.423140201173929,1.3494851377351709,-0.4631182562793608
2025-05-26 15:23:07.184,0.0486520554290574,1.656121787513205,1.7047738454709715,-0.5746923558064971
2025-05-26 15:23:07.188,-0.0120873141179289,1.6606267988920265,1.648539487259501,-0.5697947991837098
2025-05-26 15:23:07.191,-0.2783367525647428,1.403507361852054,1.125170611730469,-0.5533273626346285
2025-05-26 15:23:07.195,-0.6453739039972393,1.0449556353610614,0.3995817337644388,-0.559029055774919
2025-05-26 15:23:07.199,-0.9718453133331976,0.8224675885776507,-0.1493777223985636,-0.5139307124617721
2025-05-26 15:23:07.203,-1.1564716713330472,0.8270462785768894,-0.3294253904428075,-0.3678049300272047
2025-05-26 15:23:07.207,-1.1672177658295937,0.9528580547979724,-0.2143597087608757,-0.1760269976040812
2025-05-26 15:23:07.211,-1.0702555338534707,1.0528619974839466,-0.0173935341411398,-0.0326605166717042
2025-05-26 15:23:07.215,-1.0071954981611926,1.0791893344002008,0.0719938384241312,0.0263192825438621
2025-05-26 15:23:07.219,-1.0570133657092358,1.0756357274120028,0.0186223638442074,0.0367959089716859
2025-05-26 15:23:07.223,-1.1421296946288426,1.088507676615456,-0.0536220159148713,0.0540980216813493
2025-05-26 15:23:07.227,-1.1441105987819773,1.1096052305835389,-0.0345053661422738,0.0988992382325205
2025-05-26 15:23:07.231,-1.0696668019209998,1.0991474365638538,0.0294806366561166,0.1487588319069972
2025-05-26 15:23:07.234,-1.035283765740342,1.0519566950796504,0.016672931309049,0.1801095581803688
2025-05-26 15:23:07.238,-1.118229913929647,1.0186809496548777,-0.0995489623481334,0.203514416107108
2025-05-26 15:23:07.242,-1.2317522149111342,1.0436654837560222,-0.1880867292708646,0.2416288308376898
2025-05-26 15:23:07.246,-1.1353645242313646,1.0997694691939923,-0.0355950531956881,0.2907712838567305
2025-05-26 15:23:07.250,-0.700062567516677,1.1172849758541208,0.4172224101359315,0.330995442400701
2025-05-26 15:23:07.254,-0.222280519698488,1.073162824759517,0.8508823068164427,0.3623965413718151
2025-05-26 15:23:07.258,-0.2056268141625478,1.0181578291760534,0.812531016726564,0.4058532708635922
2025-05-26 15:23:07.262,-0.6945647361452048,1.0045307795743883,0.3099660451000153,0.4705288247947377
2025-05-26 15:23:07.266,-1.1581220672735817,1.0106484677507344,-0.1474735978947897,0.5375297785211892
2025-05-26 15:23:07.270,-1.1903056406844916,0.9626927113310232,-0.227612927768283,0.5794345139675577
2025-05-26 15:23:07.274,-0.9621065746494448,0.8250805538374912,-0.1370260192689822,0.5861809986637438
2025-05-26 15:23:07.277,-0.829908190493292,0.6357867803160283,-0.1941214086761192,0.564631830304887
2025-05-26 15:23:07.281,-0.8510514702570499,0.443492500829156,-0.4075589679689737,0.523504686679505
2025-05-26 15:23:07.285,-0.8518394413667288,0.2527770647223799,-0.5990623752279242,0.4745563300860081
2025-05-26 15:23:07.289,-0.7203336511696072,0.0558396029492669,-0.6644940468458527,0.4416891567229912
2025-05-26 15:23:07.293,-0.4945583749944101,-0.12870282462604,-0.623261198287282,0.4471174927979769
2025-05-26 15:23:07.297,-0.2904238842360019,-0.2839611631098336,-0.5743850460541922,0.4837256705143525
2025-05-26 15:23:07.301,-0.198783025895374,-0.4187148752120619,-0.6174978998577572,0.5167353079577475
2025-05-26 15:23:07.305,-0.193612088785177,-0.5327677379444694,-0.7263798255215737,0.522062346030143
2025-05-26 15:23:07.309,-0.1591813587415746,-0.5994823830052478,-0.7586637405795704,0.5119797714437929
2025-05-26 15:23:07.313,-0.0490149981681372,-0.6022865360257871,-0.6513015330674294,0.5135512734085426
2025-05-26 15:23:07.316,0.0445640508031814,-0.5534077583660939,-0.5088437064777247,0.5331322185057541
2025-05-26 15:23:07.320,0.0305209913978345,-0.4755241074935729,-0.4450031150518119,0.5518824870750014
2025-05-26 15:23:07.324,-0.0518658947355684,-0.3958576001355918,-0.4477234938676579,0.5479627997615035
2025-05-26 15:23:07.328,-0.1183985275809497,-0.3437615795016397,-0.4621601061190764,0.5177861574412951
2025-05-26 15:23:07.332,-0.1739271471797666,-0.3242690603836166,-0.4981962066403497,0.4783958041196103
2025-05-26 15:23:07.336,-0.2605337926847381,-0.3096902721739868,-0.5702240639765017,0.4483023334833503
2025-05-26 15:23:07.340,-0.3379371311745533,-0.2784212983629357,-0.6163584286954058,0.4294196164200374
2025-05-26 15:23:07.344,-0.3332372020099298,-0.2464398978421544,-0.5796770990493458,0.4125688452146661
2025-05-26 15:23:07.348,-0.2667835395967258,-0.2440809954197695,-0.5108645342533101,0.3937598247678497
2025-05-26 15:23:07.352,-0.2165983879373545,-0.2731872947618243,-0.4897856819761909,0.3802494773670458
2025-05-26 15:23:07.356,-0.1972359062934397,-0.3016886881441721,-0.4989245937545524,0.3840075185184259
2025-05-26 15:23:07.359,-0.1781951525324364,-0.2982241664454967,-0.4764193183337962,0.4064404519304467
2025-05-26 15:23:07.363,-0.164387017259132,-0.2656019841822096,-0.4299890008358545,0.4294834013160171
2025-05-26 15:23:07.367,-0.1464393482852776,-0.2401083102628553,-0.3865476579820295,0.4329810098166715
2025-05-26 15:23:07.371,-0.051623535935281,-0.2594159699692585,-0.3110395053780959,0.4205486495151258
2025-05-26 15:23:07.375,0.1300140452546689,-0.3289536421087148,-0.1989395963663434,0.4126978832502845
2025-05-26 15:23:07.379,0.2630013129127868,-0.416576648743618,-0.1535753353810702,0.4158589096488727
2025-05-26 15:23:07.383,0.2323763481018143,-0.483189701148058,-0.2508133526349119,0.4191880269246835
2025-05-26 15:23:07.387,0.0955629332968986,-0.5226007109523374,-0.4270377772832917,0.4211291287828561
2025-05-26 15:23:07.391,-0.0275686840170806,-0.5635152218348545,-0.59108390551848,0.4312624607526508
2025-05-26 15:23:07.395,-0.1101536341052367,-0.6263268597162739,-0.7364804935256013,0.4428345044418553
2025-05-26 15:23:07.399,-0.1804012684777592,-0.6950285387221509,-0.8754298069414731,0.4342817343018779
2025-05-26 15:23:07.402,-0.2149814970833456,-0.7498191277019458,-0.9648006245652346,0.4033401562465308
2025-05-26 15:23:07.406,-0.1517955205200406,-0.8116737189601471,-0.963469239298635,0.3709139630377648
2025-05-26 15:23:07.410,0.0149270034681873,-0.9213177655126832,-0.9063907619003514,0.3482615576642641
2025-05-26 15:23:07.414,0.2012002674533443,-1.0708744913817054,-0.8696742238209236,0.3252544605641966
2025-05-26 15:23:07.418,0.3140586978435435,-1.1887862115203118,-0.8747275136066582,0.2902163820467115
2025-05-26 15:23:07.422,0.3508280101194626,-1.21089875582761,-0.8600707456760177,0.2406233077673707
2025-05-26 15:23:07.426,0.3862443009867511,-1.1456715089660934,-0.7594272079845686,0.1767263622076123
2025-05-26 15:23:07.430,0.4640846510599838,-1.052004398493413,-0.5879197474749431,0.1032433564934654
2025-05-26 15:23:07.434,0.5445464858781388,-0.9729042481977584,-0.4283577623974292,0.0392539742251023
2025-05-26 15:23:07.438,0.5724759437863074,-0.9129450739130168,-0.3404691302416048,0.0102509982223859
2025-05-26 15:23:07.441,0.5567836373904522,-0.8647835704592933,-0.3079999332208635,0.0217420168867573
2025-05-26 15:23:07.445,0.5494957940821579,-0.8267105338727732,-0.2772147399787922,0.0527603834542565
2025-05-26 15:23:07.449,0.567448862525163,-0.793160196417567,-0.225711334116074,0.0842862743834634
2025-05-26 15:23:07.453,0.5743342502275957,-0.7526860441555285,-0.1783517941875156,0.1183558854861989
2025-05-26 15:23:07.457,0.5406151798667218,-0.7047598328985252,-0.1641446533278715,0.1573371316831325
2025-05-26 15:23:07.461,0.4852040725272633,-0.6626726543428818,-0.1774685821477368,0.1841499009906753
2025-05-26 15:23:07.465,0.4406007995196491,-0.630564589230493,-0.1899637900779469,0.1824678229278578
2025-05-26 15:23:07.469,0.4041974194624054,-0.5918542953185535,-0.1876568762579193,0.1628779743237077
2025-05-26 15:23:07.473,0.3536483558553263,-0.5317645088441475,-0.1781161534259659,0.1513164099098432
2025-05-26 15:23:07.477,0.2942466202391878,-0.4592798104253399,-0.1650331906590109,0.1608878243508997
2025-05-26 15:23:07.481,0.2540381787147977,-0.3946688353063533,-0.1406306570991523,0.1869088442329782
2025-05-26 15:23:07.484,0.2343791056762352,-0.3431859197389816,-0.1088068146039559,0.2212029590917934
2025-05-26 15:23:07.488,0.2015697129895401,-0.2918204389276143,-0.0902507265132215,0.2615715415923089
2025-05-26 15:23:07.492,0.1389627398123694,-0.2321477885088179,-0.0931850493065854,0.306855347089617
2025-05-26 15:23:07.496,0.0810274416668918,-0.1823265056682475,-0.1012990646461204,0.3412605349195208
2025-05-26 15:23:07.500,0.0753921039900313,-0.1783480650419237,-0.102955961729581,0.3296887820676026
2025-05-26 15:23:07.504,0.1238909839849491,-0.2344559316549755,-0.1105649483801144,0.2496998240866507
2025-05-26 15:23:07.508,0.1832078022158048,-0.3183840381809366,-0.1351762367090118,0.1341464835180918
2025-05-26 15:23:07.512,0.2192376377683304,-0.3813101922242847,-0.1620725552342424,0.0523005043624516
2025-05-26 15:23:07.516,0.2364659200222346,-0.4073006095394129,-0.1708346903280617,0.0230068786612516
2025-05-26 15:23:07.520,0.2523198180805071,-0.4144009814208859,-0.1620811641822357,-0.0319033992423605
2025-05-26 15:23:07.524,0.270328707913499,-0.4160838362128927,-0.1457551291733929,-0.2101906468525307
2025-05-26 15:23:07.527,0.2872741009249837,-0.4089746391178988,-0.1217005391007369,-0.5109919888285313
2025-05-26 15:23:07.531,0.3015644619447063,-0.392557294339326,-0.0909928333349501,-0.8335299391460776
2025-05-26 15:23:07.535,0.3035147538075154,-0.372035951212649,-0.0685211983753421,-1.095260008068653
2025-05-26 15:23:07.539,0.2774348290857935,-0.34376246350056,-0.0663276354152024,-1.2981172105580123
2025-05-26 15:23:07.543,0.2241647732166539,-0.3018779762868986,-0.0777132041033962,-1.4663321940524037
2025-05-26 15:23:07.547,0.1672449953127798,-0.2575920021314266,-0.0903470078842361,-1.5902297055189871
2025-05-26 15:23:07.551,0.1233762414050521,-0.2307129726005059,-0.1073367322902448,-1.659291939829057
2025-05-26 15:23:07.555,0.0737516756941103,-0.2196498681693773,-0.1458981935983345,-1.6864515455236144
2025-05-26 15:23:07.559,-0.0149458982596333,-0.1954097639856845,-0.2103556633994026,-1.6800406040218228
2025-05-26 15:23:07.563,-0.1353681513691611,-0.1322252496180432,-0.2675934021733618,-1.643013774334915
2025-05-26 15:23:07.566,-0.228655901516749,-0.0362341804527907,-0.2648900831845632,-1.6038630999632453
2025-05-26 15:23:07.570,-0.250210282939137,0.0629492978398726,-0.1872609863408158,-1.6104853961402286
2025-05-26 15:23:07.574,-0.2322437534564318,0.1441543871571927,-0.0880893675696178,-1.6837742840343466
2025-05-26 15:23:07.578,-0.2518973789953233,0.206441168452846,-0.0454562118440109,-1.7749967867678855
2025-05-26 15:23:07.582,-0.3408849114738234,0.2423909521299998,-0.0984939606740159,-1.7791067969078245
2025-05-26 15:23:07.586,-0.4575728997489641,0.2135698578040799,-0.2440030433002229,-1.633480443591121
2025-05-26 15:23:07.590,-0.5483643373245859,0.0846207745187176,-0.4637435641875681,-1.408574812978038
2025-05-26 15:23:07.594,-0.6000102761962949,-0.1129747146531252,-0.7129849922606374,-1.253670396823915
2025-05-26 15:23:07.598,-0.623857862525611,-0.2915367238426757,-0.91539458780775,-1.2417182381524718
2025-05-26 15:23:07.602,-0.625044712974091,-0.3997800827136945,-1.0248247971514153,-1.296466775076614
2025-05-26 15:23:07.606,-0.6064290084020879,-0.4675247572748378,-1.0739537671645305,-1.283016235119463
2025-05-26 15:23:07.609,-0.5824596356314887,-0.5471924010839953,-1.1296520382303767,-1.15434480034452
2025-05-26 15:23:07.613,-0.5714290676556031,-0.6572144560365955,-1.2286435252345016,-0.9838585604423244
2025-05-26 15:23:07.617,-0.5799509720542766,-0.7916741183826415,-1.371625092002729,-0.8575623849687507
2025-05-26 15:23:07.621,-0.6022282155005121,-0.9322843622242598,-1.5345125793125374,-0.777489301130587
2025-05-26 15:23:07.625,-0.6302515429465911,-1.034822830068772,-1.6650743746278254,-0.6866394734501642
2025-05-26 15:23:07.629,-0.6602118667898188,-1.044181453929519,-1.704393322357767,-0.5532401845935553
2025-05-26 15:23:07.633,-0.691045146431656,-0.9427238297111648,-1.6337689778041338,-0.4054250044543429
2025-05-26 15:23:07.637,-0.720087022089799,-0.7752978184419446,-1.4953848422134357,-0.2911629995878437
2025-05-26 15:23:07.641,-0.7408011322637222,-0.6218768558507415,-1.3626779898181731,-0.2222616007472778
2025-05-26 15:23:07.645,-0.7461744504777584,-0.5350437095704483,-1.2812181617757727,-0.1729165367371303
2025-05-26 15:23:07.649,-0.7376926379406534,-0.4992922026370225,-1.2369848423271774,-0.1258582257620107
2025-05-26 15:23:07.652,-0.7275440023499226,-0.4697364212092595,-1.1972804253278206,-0.091079490075915
2025-05-26 15:23:07.656,-0.7247570620524845,-0.446284766297263,-1.171041830137915,-0.0759984583743303
2025-05-26 15:23:07.660,-0.7249797828585223,-0.4723057732397279,-1.1972855579076778,-0.0676510979644691
2025-05-26 15:23:07.664,-0.7216225632389974,-0.5667437492708475,-1.288366314339715,-0.0511314956685407
2025-05-26 15:23:07.668,-0.7152215141206841,-0.706073011220299,-1.4212945271888602,-0.0200668017175021
2025-05-26 15:23:07.672,-0.70323913788644,-0.8649505878099201,-1.5681897275616576,0.0316062051971713
2025-05-26 15:23:07.676,-0.6780907567577146,-1.029039112417646,-1.7071298710591625,0.1046462028380439
2025-05-26 15:23:07.680,-0.6474239356160797,-1.1852683820533765,-1.8326923195716296,0.1888594806922233
2025-05-26 15:23:07.684,-0.6385060409545769,-1.3319087647392525,-1.970414807612659,0.2837025441677505
2025-05-26 15:23:07.688,-0.6661804204923374,-1.4698274438144916,-2.1360078662412487,0.4057321879929105
2025-05-26 15:23:07.691,-0.7095041331955537,-1.578366860261694,-2.287870995407534,0.5517006216340307
2025-05-26 15:23:07.695,-0.737386167764981,-1.641193056325026,-2.3785792260562046,0.6793780245526535
2025-05-26 15:23:07.699,-0.7499944538737209,-1.6727193993108185,-2.42271385516565,0.75114506243578
2025-05-26 15:23:07.703,-0.7782076143125287,-1.67387795899201,-2.452085575299506,0.773300940777822
2025-05-26 15:23:07.707,-0.8412857695530431,-1.6092937120087027,-2.4505794835702077,0.772667784627439
2025-05-26 15:23:07.711,-0.917351059796323,-1.4688949941972134,-2.386246056015322,0.7580057812518703
2025-05-26 15:23:07.715,-0.9645790168922396,-1.2958036261955923,-2.260382645122389,0.7220815967990559
2025-05-26 15:23:07.719,-0.966808327597518,-1.126651453548811,-2.0934597831928743,0.6665268546223848
2025-05-26 15:23:07.723,-0.9474763510867674,-0.9589018420152754,-1.906378195159894,0.6114929167561718
2025-05-26 15:23:07.727,-0.940299111205704,-0.7881928345270628,-1.7284919478014031,0.5832752769151632
2025-05-26 15:23:07.731,-0.957057257519084,-0.6259500869690362,-1.5830073465671268,0.5925825860428603
2025-05-26 15:23:07.734,-0.9833052610464956,-0.4722172115496059,-1.4555224746850146,0.6233644907336826
2025-05-26 15:23:07.738,-0.996438191187518,-0.3132645912309607,-1.309702784516571,0.6483344292777915
2025-05-26 15:23:07.742,-0.987406387201959,-0.1525287194223885,-1.1399351087307776,0.6571005685118371
2025-05-26 15:23:07.746,-0.968099047005604,-0.0096301335691659,-0.9777291826890404,0.6610299838897618
2025-05-26 15:23:07.750,-0.9567559734901332,0.1163679553885279,-0.8403880202234774,0.6692239259818233
2025-05-26 15:23:07.754,-0.9581029447557532,0.2513878631307745,-0.7067150837538095,0.6724582220113089
2025-05-26 15:23:07.758,-0.9608344372544948,0.4061009061502791,-0.5547335332389386,0.6578960470148429
2025-05-26 15:23:07.762,-0.9503133124921028,0.5552740498154894,-0.3950392648165692,0.6279922068245445
2025-05-26 15:23:07.766,-0.9194503235931616,0.6670626246384704,-0.2523877010997867,0.5921593144658873
2025-05-26 15:23:07.770,-0.8723215892616286,0.7381385527073361,-0.134183038704029,0.5465738764524515
2025-05-26 15:23:07.774,-0.8224598495969526,0.7885871611133413,-0.0338726906367745,0.4784271989371792
2025-05-26 15:23:07.777,-0.7822269150141076,0.8311963657028815,0.0489694485330097,0.3887703210185151
2025-05-26 15:23:07.781,-0.7500152761315819,0.8633164935083895,0.1133012152183871,0.295459969589619
2025-05-26 15:23:07.785,-0.7172378981148123,0.8851705344455288,0.167932634169915,0.2146251268326502
2025-05-26 15:23:07.789,-0.6888700850522591,0.9034559599351828,0.2145858727210502,0.1524150433796093
2025-05-26 15:23:07.793,-0.6785649512149007,0.9169344219994346,0.2383694686226308,0.1099203043462849
2025-05-26 15:23:07.797,-0.6805837222059999,0.9211943825337956,0.2406106581656918,0.0851038615984483
2025-05-26 15:23:07.801,-0.669357446617966,0.9275551374199706,0.2581976886396676,0.0744048805849713
2025-05-26 15:23:07.805,-0.6327989592005806,0.954382902513445,0.3215839411516212,0.075866685511736
2025-05-26 15:23:07.809,-0.5857564440491676,0.9968569323554192,0.4111004861474359,0.0863798655745692
2025-05-26 15:23:07.813,-0.5431036876008004,1.0270516317755254,0.4839479420181659,0.0991776775411024
2025-05-26 15:23:07.816,-0.4974226630889984,1.032253922060726,0.5348312568170528,0.1090554397042251
2025-05-26 15:23:07.820,-0.4375082650455714,1.0332261905446605,0.5957179233475343,0.1162121362816996
2025-05-26 15:23:07.824,-0.3757064846994336,1.049464057080662,0.6737575702344468,0.1230339325919525
2025-05-26 15:23:07.828,-0.3323590208177303,1.0655221662792425,0.7331631433194846,0.1322428486445641
2025-05-26 15:23:07.832,-0.2995522046463558,1.0583383017334504,0.7587860949491395,0.149624361622451
2025-05-26 15:23:07.836,-0.2534543773795896,1.0438771430629572,0.7904227635504829,0.181053093440806
2025-05-26 15:23:07.840,-0.2015414702743194,1.0569084783908254,0.8553670059905868,0.219843583573007
2025-05-26 15:23:07.844,-0.1778806751807314,1.08766364039984,0.9097829631004096,0.2450741028621828
2025-05-26 15:23:07.848,-0.1855825271859034,1.0870265855109702,0.901444056212716,0.2472860972432315
2025-05-26 15:23:07.852,-0.1823324956365281,1.0427339922630314,0.860401494521165,0.2493340362114959
2025-05-26 15:23:07.856,-0.1347028598624724,0.9987003946527722,0.8639975326939656,0.2821386420240825
2025-05-26 15:23:07.859,-0.0583787236059947,0.9855065531785664,0.927127827485847,0.3429145020516989
2025-05-26 15:23:07.863,0.0074330843961992,0.9888610337228956,0.9962941160410834,0.39113588078291
2025-05-26 15:23:07.867,0.0551030456085729,1.0063898468190104,1.0614928903585985,0.3782181653209469
2025-05-26 15:23:07.871,0.1337286828291149,1.0785026295267652,1.2122313102978768,0.2757052684377222
2025-05-26 15:23:07.875,0.2959149219643944,1.2339379091419085,1.529852829060219,0.0963770251835759
2025-05-26 15:23:07.879,0.4900295899532782,1.43108146768225,1.9211110556005464,-0.0989271303947542
2025-05-26 15:23:07.883,0.5564019826390038,1.551628548208141,2.108030528823275,-0.2347448632020687
2025-05-26 15:23:07.887,0.4094455249283292,1.4524912174201594,1.861936740337606,-0.2731850399542423
2025-05-26 15:23:07.891,0.1754595507899288,1.0975839396281288,1.273043488421416,-0.2228405213592491
2025-05-26 15:23:07.895,0.0529130647442968,0.662455516466999,0.7153685792281996,-0.1063062256199538
2025-05-26 15:23:07.899,0.0823935350195356,0.398951804755045,0.4813453378047452,0.0554486927023901
2025-05-26 15:23:07.902,0.15023699991644,0.3591159410253044,0.5093529389868992,0.2340177941641957
2025-05-26 15:23:07.906,0.1710868590373505,0.3741947725264274,0.5452816296254551,0.3955346611701277
2025-05-26 15:23:07.910,0.1677541546504538,0.3180556876432169,0.4858098403713158,0.5154837936077488
2025-05-26 15:23:07.914,0.1928058918511873,0.2278969854201734,0.4207028753643655,0.5821457260652444
2025-05-26 15:23:07.918,0.2492815300138359,0.1498684073289239,0.3991499354526352,0.5908948146870452
2025-05-26 15:23:07.922,0.2981274431660192,0.051277469434075,0.3494049107286516,0.5526927531816435
2025-05-26 15:23:07.926,0.3136750630161053,-0.0774868946261014,0.2361881665369022,0.5033449965713008
2025-05-26 15:23:07.930,0.3206758412824377,-0.1894449808623281,0.131230858584408,0.4759052750309019
2025-05-26 15:23:07.934,0.3704086965445238,-0.2767335801809536,0.0936751145464461,0.4695913173580899
2025-05-26 15:23:07.938,0.4763989988474374,-0.386610818754222,0.0897881782967403,0.4780546819485378
2025-05-26 15:23:07.941,0.5926071510291928,-0.5342509231792618,0.058356226074115,0.5263635640314067
2025-05-26 15:23:07.945,0.6710276392655776,-0.6726782112177632,-0.0016505737085649,0.6322793660574813
2025-05-26 15:23:07.949,0.7188419007235526,-0.7449366235638555,-0.0260947245765538,0.7529762226118848
2025-05-26 15:23:07.953,0.7698470673139347,-0.72849584649079,0.041351219109254,0.8215524055117872
2025-05-26 15:23:07.957,0.8187921240580575,-0.6421933004303391,0.1765988219366832,0.8233801131107259
2025-05-26 15:23:07.961,0.8296579311249372,-0.5302418977199111,0.2994160317354716,0.7988002798249766
2025-05-26 15:23:07.965,0.8042947760474386,-0.4274476707364575,0.3768471036629852,0.7840428708860597
2025-05-26 15:23:07.969,0.7912130561523953,-0.333503878243721,0.4577091762844352,0.7781441042198525
2025-05-26 15:23:07.973,0.8169079581596915,-0.2375383431324952,0.5793696134277584,0.759976947701789
2025-05-26 15:23:07.977,0.8566630587939777,-0.1648732179117293,0.6917898393062848,0.7225033950144274
2025-05-26 15:23:07.981,0.888097891173048,-0.1626905598283925,0.7254073297915975,0.6906958195776157
2025-05-26 15:23:07.984,0.9277378173263524,-0.2280652117817155,0.6996726040164234,0.6995678916958534
2025-05-26 15:23:07.988,0.9944938889582792,-0.292929484336613,0.7015644031198527,0.7477970269333859
2025-05-26 15:23:07.992,1.0733733231892597,-0.3040825639612042,0.7692907577515713,0.7891061977504716
2025-05-26 15:23:07.996,1.1350862641838024,-0.2800843622963366,0.8550019004351838,0.7854914147629571
2025-05-26 15:23:08.000,1.169080031092602,-0.2667621050263658,0.9023179246396428,0.7507800592963481
2025-05-26 15:23:08.004,1.1878934638088583,-0.2786925684763539,0.909200893933531,0.7137328225874822
2025-05-26 15:23:08.008,1.2184673774799195,-0.3121383932779537,0.9063289828299802,0.6558458510690203
2025-05-26 15:23:08.012,1.2904664921378073,-0.3751422071323533,0.915324283658974,0.5346853547594408
2025-05-26 15:23:08.016,1.406721312544502,-0.4703748063119329,0.9363465049125036,0.3671391491994976
2025-05-26 15:23:08.020,1.522935707789947,-0.5724350664219822,0.9505006400763952,0.2347362712602617
2025-05-26 15:23:08.024,1.583635398913954,-0.6470513855182105,0.9365840121325748,0.196588596720514
2025-05-26 15:23:08.027,1.5781738620275083,-0.6825848005887796,0.8955890602024131,0.2422328673642691
2025-05-26 15:23:08.031,1.5407402681741091,-0.6943855346019661,0.8463547323629946,0.3322437918592439
2025-05-26 15:23:08.035,1.5037054289444831,-0.7035815468517974,0.800123880912636,0.4401639843644681
2025-05-26 15:23:08.039,1.46850684451173,-0.7131227447595494,0.7553840986016278,0.5501327866490229
2025-05-26 15:23:08.043,1.4159787928196654,-0.7088777147760068,0.7071010769213042,0.6462188127990941
2025-05-26 15:23:08.047,1.335174899429914,-0.6857324484339147,0.649442449901727,0.7136297100967055
2025-05-26 15:23:08.051,1.240368766023176,-0.6526117091166082,0.5877570558418979,0.7458823885093039
2025-05-26 15:23:08.055,1.1580963270765037,-0.6064386836603335,0.5516576423817328,0.7553120842617925
2025-05-26 15:23:08.059,1.1003989377649612,-0.5355948376926346,0.5648040990672536,0.7703424132794172
2025-05-26 15:23:08.063,1.0567749329667755,-0.4572667730448161,0.5995081589460309,0.8076456317214719
2025-05-26 15:23:08.066,1.010645666199336,-0.4127385887571004,0.5979070764964962,0.8512404342734429
2025-05-26 15:23:08.070,0.957643370081736,-0.4213599129321941,0.5362834562345054,0.8723193738583981
2025-05-26 15:23:08.074,0.906535477948476,-0.4707528630648854,0.435782613998755,0.8642555488964019
2025-05-26 15:23:08.078,0.8659805412490452,-0.5400336033688904,0.3259469370255347,0.8457242345236053
2025-05-26 15:23:08.082,0.8359799001795966,-0.6007289569788835,0.2352509423770854,0.8363590254246772
2025-05-26 15:23:08.086,0.8149251391757512,-0.6202455569386256,0.1946795814446388,0.8433432172972944
2025-05-26 15:23:08.090,0.8087500917943858,-0.603546324087073,0.205203766945536,0.8661736476096386
2025-05-26 15:23:08.094,0.8245383939130091,-0.6070340130915326,0.2175043800908054,0.8984750652042446
2025-05-26 15:23:08.098,0.8577079057667738,-0.6712309511710212,0.186476953897071,0.9255367093350044
2025-05-26 15:23:08.102,0.8946868059849169,-0.7585790881397824,0.136107717178231,0.9336270666985486
2025-05-26 15:23:08.106,0.9287363486835896,-0.7944670933237962,0.134269254723924,0.9246284998085044
2025-05-26 15:23:08.109,0.9660103729865248,-0.75576251869092,0.2102478536913941,0.9127338070680237
2025-05-26 15:23:08.113,1.01325145392491,-0.6848162362124358,0.3284352171412544,0.90564365242988
2025-05-26 15:23:08.117,1.0644994909776488,-0.6252543447239028,0.4392451457152317,0.8972457740733549
2025-05-26 15:23:08.121,1.1051852743125248,-0.5782514399589299,0.5269338338464795,0.8788805406579645
2025-05-26 15:23:08.125,1.1262694177112276,-0.523646839373179,0.6026225778628016,0.8482508936493727
2025-05-26 15:23:08.129,1.127462435138018,-0.4555751054753764,0.6718873292211552,0.8065778170344672
2025-05-26 15:23:08.133,1.1090735984638052,-0.3855140526014682,0.723559545454673,0.7581949998131229
2025-05-26 15:23:08.137,1.070000064413918,-0.325072671167096,0.7449273928711406,0.7148464145285852
2025-05-26 15:23:08.141,1.0142768634618975,-0.2760176008713138,0.7382592622467514,0.687078747015415
2025-05-26 15:23:08.145,0.9517237597617608,-0.2312987782075537,0.7204249812444401,0.6681403305951696
2025-05-26 15:23:08.149,0.8887275388419569,-0.1825148195058502,0.7062127190611586,0.6407411786810859
2025-05-26 15:23:08.152,0.8210775270527202,-0.1298509046651273,0.6912266221454278,0.6014997560421738
2025-05-26 15:23:08.156,0.7399735457182018,-0.0823567932101782,0.657616752297641,0.5630505435309203
2025-05-26 15:23:08.160,0.6479433562374421,-0.0456628641358561,0.6022804919250668,0.5323366249088438
2025-05-26 15:23:08.164,0.563784463696939,-0.0165206967155043,0.5472637668403197,0.5020068513534192
2025-05-26 15:23:08.168,0.5036697479829889,0.0067541342321475,0.5104238821076832,0.4630755540296889
2025-05-26 15:23:08.172,0.4625860513393706,0.0193642975940749,0.4819503488578404,0.416707642967003
2025-05-26 15:23:08.176,0.4238165944945645,0.0226402454898832,0.4464568399421554,0.3732256597347078
2025-05-26 15:23:08.180,0.3803926199708006,0.0283147048727855,0.4087073248367129,0.3408471768560068
2025-05-26 15:23:08.184,0.3382313719602862,0.0392819053767139,0.3775132773644802,0.3157200997136414
2025-05-26 15:23:08.188,0.303791839966876,0.0416961033707112,0.3454879433971234,0.2873978099027277
2025-05-26 15:23:08.191,0.2756264073125193,0.0312070950245362,0.3068335024292166,0.2539829338454473
2025-05-26 15:23:08.195,0.2450475641755442,0.0296519093561244,0.2746994736587107,0.2253797865561314
2025-05-26 15:23:08.199,0.203362665554231,0.0556991394327711,0.2590618051486863,0.209915985572158
2025-05-26 15:23:08.203,0.1529242206570035,0.0939031597678759,0.2468273806188868,0.2027241559963928
2025-05-26 15:23:08.207,0.1090077976114929,0.1149995576121921,0.224007355449687,0.1922356032584863
2025-05-26 15:23:08.211,0.0821178666294812,0.1158477617482232,0.197965628637654,0.17672128571923
2025-05-26 15:23:08.215,0.0623126743099955,0.1174379540105477,0.1797506286148841,0.1661776277940982
2025-05-26 15:23:08.219,0.0344017746975027,0.1303227692786168,0.1647245443028964,0.164764291516257
2025-05-26 15:23:08.223,0.0038558489353472,0.1429667081358719,0.1468225574294561,0.1613762226453308
2025-05-26 15:23:08.227,-0.0101740724150739,0.1443402982325852,0.1341662262085583,0.1456337206522216
2025-05-26 15:23:08.231,-0.004304912271861,0.1420703234718994,0.1377654116246938,0.1240127804443414
2025-05-26 15:23:08.234,0.0049814246519381,0.1513795561895951,0.156360981298408,0.1088297086960844
2025-05-26 15:23:08.238,0.0050198680595233,0.174234208540874,0.1792540770882633,0.0991942645659051
2025-05-26 15:23:08.242,-0.0010709415960191,0.1996749506700312,0.1986040095935596,0.0857195375387245
2025-05-26 15:23:08.246,-0.0051375786158465,0.2208046322084792,0.2156670541446278,0.067706673590051
2025-05-26 15:23:08.250,-0.0044953589685365,0.2368840069013981,0.232388648516413,0.0533772302074938
2025-05-26 15:23:08.254,-0.0027187991700009,0.2416826215298372,0.2389638229737979,0.0467313889425463
2025-05-26 15:23:08.258,-0.0081468032053116,0.2304454673181128,0.2222986647573578,0.0430968570727782
2025-05-26 15:23:08.262,-0.0289310465146068,0.2160785304003537,0.1871474845613545,0.036581514041783
2025-05-26 15:23:08.266,-0.0636562939598594,0.2156865152837836,0.1520302220299529,0.0267173805111659
2025-05-26 15:23:08.270,-0.1010249996089902,0.2252382466744651,0.1242132478010458,0.0170847345251675
2025-05-26 15:23:08.274,-0.1346104900359616,0.2287039169711595,0.0940934277002702,0.010270848641735
2025-05-26 15:23:08.277,-0.1727278407395628,0.2240011187834873,0.0512732788385557,0.0056101264040751
2025-05-26 15:23:08.281,-0.2238216522103391,0.2187703149462739,-0.0050513364405404,0.0010096231840005
2025-05-26 15:23:08.285,-0.2763218662751636,0.2095887514420402,-0.066733113981342,-0.0033872968100323
2025-05-26 15:23:08.289,-0.3115538790883342,0.1877662984931003,-0.1237875797152116,-0.0045868536762758
2025-05-26 15:23:08.293,-0.3374768172444873,0.15995569138726,-0.177521124949212,-0.000844753303797
2025-05-26 15:23:08.297,-0.3828031675620919,0.141728486486758,-0.2410746801402293,0.0064273629545956
2025-05-26 15:23:08.301,-0.4511556152427645,0.1340152483633001,-0.3171403659178043,0.0155191535135068
2025-05-26 15:23:08.305,-0.5122570445149099,0.1243667444285078,-0.3878902990980138,0.0260528798731616
2025-05-26 15:23:08.309,-0.5466913726090812,0.1083563395978546,-0.4383350319964602,0.039125685655039
2025-05-26 15:23:08.313,-0.5674720913301905,0.0936606968551064,-0.4738113934351464,0.0568629445769959
2025-05-26 15:23:08.316,-0.5902513340781728,0.0853605119927098,-0.5048908210209816,0.0775890993125997
2025-05-26 15:23:08.320,-0.6105277402856217,0.0795833453730881,-0.530944393823146,0.0937467055938594
2025-05-26 15:23:08.324,-0.6168608320869053,0.0686592778040317,-0.5482015531688442,0.1011677997155771
2025-05-26 15:23:08.328,-0.6073233605178423,0.0438154749878564,-0.5635078843927657,0.1059388565081333
2025-05-26 15:23:08.332,-0.5888599867315426,0.0010550761553299,-0.5878049094166801,0.1150041809017812
2025-05-26 15:23:08.336,-0.5708971132673244,-0.0462224876602795,-0.6171195997453028,0.1250142577765227
2025-05-26 15:23:08.340,-0.5582119019916081,-0.0756242836240784,-0.6338361844106797,0.1277826470105036
2025-05-26 15:23:08.344,-0.5431371292500691,-0.0889119942560993,-0.6320491222800468,0.1222610052103992
2025-05-26 15:23:08.348,-0.5123492950114379,-0.1152690420562134,-0.6276183358216322,0.1124515173808889
2025-05-26 15:23:08.352,-0.4693888768863773,-0.1679764603192192,-0.6373653359392293,0.0974434976799717
2025-05-26 15:23:08.356,-0.4377466340679148,-0.2243643839122392,-0.6621110166932085,0.0736589873497819
2025-05-26 15:23:08.359,-0.4310380268974765,-0.2620178905515054,-0.6930559161430481,0.0425061377402948
2025-05-26 15:23:08.363,-0.4362613795192123,-0.2859903030044731,-0.7222516812003686,0.0068983498233881
2025-05-26 15:23:08.367,-0.4381952342131063,-0.3071302143966051,-0.7453254472687187,-0.0316488379851832
2025-05-26 15:23:08.371,-0.4409949469367419,-0.3198910904509845,-0.7608860360285034,-0.0663482853423847
2025-05-26 15:23:08.375,-0.4535158363775259,-0.3149141746222264,-0.7684300096236897,-0.0897002963053511
2025-05-26 15:23:08.379,-0.4734237789227427,-0.2949137225836499,-0.7683375001154322,-0.1093159592623685
2025-05-26 15:23:08.383,-0.4968361580199084,-0.2682933428773812,-0.7651294994914579,-0.1413838893319232
2025-05-26 15:23:08.387,-0.5255288848874125,-0.2403083928717959,-0.7658372763376914,-0.1851364840991912
2025-05-26 15:23:08.391,-0.5566260750178611,-0.2157695079094522,-0.7723955814911329,-0.2227174862664947
2025-05-26 15:23:08.395,-0.5798222018729117,-0.1977494570075815,-0.7775716574318131,-0.2463399159893619
2025-05-26 15:23:08.399,-0.588685024529741,-0.1801589584101633,-0.7688439814792135,-0.2676844040629732
2025-05-26 15:23:08.402,-0.5834019285687413,-0.1540649358192348,-0.737466862914354,-0.2988756306491992
2025-05-26 15:23:08.406,-0.5630558525945798,-0.1233245359401254,-0.6863803870486997,-0.3378545458103747
2025-05-26 15:23:08.410,-0.5261719858150792,-0.1020482422009061,-0.6282202265197958,-0.3742092799938324
2025-05-26 15:23:08.414,-0.4786329291209238,-0.0960825268575389,-0.5747154544730904,-0.4030467259068534
2025-05-26 15:23:08.418,-0.4333234511897151,-0.0973765070870271,-0.530699956761354,-0.4312474015770879
2025-05-26 15:23:08.422,-0.4001165309173201,-0.094931712124042,-0.4950482415160175,-0.4682681780696784
2025-05-26 15:23:08.426,-0.377498758077226,-0.0818217440635847,-0.4593205006075288,-0.5113953463563969
2025-05-26 15:23:08.430,-0.3554791406902237,-0.0554941463590368,-0.4109732855095026,-0.5462990620335475
2025-05-26 15:23:08.434,-0.3283234563940378,-0.0224198979506082,-0.3507433527978654,-0.5640587969787197
2025-05-26 15:23:08.438,-0.3013513722304933,0.0015019126606014,-0.2998494580157561,-0.5724479880127928
2025-05-26 15:23:08.441,-0.2823537832973827,0.0069620336806824,-0.2753917480568521,-0.5866814011962964
2025-05-26 15:23:08.445,-0.2719229594896257,0.0028479170548107,-0.2690750408710035,-0.6106162855370705
2025-05-26 15:23:08.449,-0.2660852397276375,0.002300537124099,-0.2637847010356272,-0.6319578014663779
2025-05-26 15:23:08.453,-0.2618161797761132,0.0074967913398696,-0.2543193868636849,-0.6400961064006276
2025-05-26 15:23:08.457,-0.2545109259740248,0.0158876871913087,-0.2386232372066825,-0.6442123196060381
2025-05-26 15:23:08.461,-0.234710373374833,0.0249860314775168,-0.2097243403196364,-0.6616722851993824
2025-05-26 15:23:08.465,-0.1959439245518654,0.0259995888106827,-0.1699443341621654,-0.6892396575727808
2025-05-26 15:23:08.469,-0.147469726527431,0.0122390499949919,-0.135230674951533,-0.7045757430196693
2025-05-26 15:23:08.473,-0.1091480213563295,-0.0076925125712764,-0.1168405323455351,-0.7002168656177583
2025-05-26 15:23:08.477,-0.0875285268053677,-0.0250496809317084,-0.112578206155551,-0.6939589462562314
2025-05-26 15:23:08.481,-0.0697445315247056,-0.0476727801808375,-0.1174173101252366,-0.699381337747158
2025-05-26 15:23:08.484,-0.048739542816447,-0.0803744781946588,-0.1291140194316215,-0.710256010962808
2025-05-26 15:23:08.488,-0.0375063477627808,-0.1074308288048668,-0.1449371749893805,-0.7221443022131646
2025-05-26 15:23:08.492,-0.0479373837496271,-0.1158759557873952,-0.1638133379614513,-0.7458075300496606
2025-05-26 15:23:08.496,-0.0711417662548958,-0.1155933644195749,-0.1867351291024941,-0.7884965059909684
2025-05-26 15:23:08.500,-0.0903330666168976,-0.1190469962498729,-0.2093800612982143,-0.8402184413409008
2025-05-26 15:23:08.504,-0.1036804927097825,-0.1214991151527556,-0.2251796062976113,-0.8913100975077267
2025-05-26 15:23:08.508,-0.1216940514120513,-0.1143718050501191,-0.2360658549020989,-0.9524905909201586
2025-05-26 15:23:08.512,-0.1441078991524961,-0.100865397835633,-0.2449732954339071,-1.0400078553065195
2025-05-26 15:23:08.516,-0.1565304543460449,-0.0884377483622729,-0.2449682011599762,-1.1390262346119475
2025-05-26 15:23:08.520,-0.1579267974826098,-0.0779564268546663,-0.2358832227949348,-1.200442617317844
2025-05-26 15:23:08.524,-0.1708875591442444,-0.0666320897376255,-0.2375196473465312,-1.1918746343077298
2025-05-26 15:23:08.527,-0.2074207933321705,-0.0527131029387658,-0.2601338947436105,-1.142337403218044
2025-05-26 15:23:08.531,-0.2447618629997249,-0.034593126059176,-0.2793549875397706,-1.1153686453665277
2025-05-26 15:23:08.535,-0.2586726254992281,-0.0144332976906246,-0.2731059216789911,-1.142276513219055
2025-05-26 15:23:08.539,-0.2629241645045485,-0.0015853301836489,-0.2645094931864348,-1.1984923728430834
2025-05-26 15:23:08.543,-0.2854351808712224,-0.0011082381337055,-0.2865434175132784,-1.238029672496352
2025-05-26 15:23:08.547,-0.3172842773104122,-0.0047747962825817,-0.3220590721117592,-1.23317955401225
2025-05-26 15:23:08.551,-0.321844641693428,-0.0080158844554401,-0.3298605246780743,-1.1831048133760929
2025-05-26 15:23:08.555,-0.2918890519755476,-0.0214280414534868,-0.313317091969357,-1.0997042431278303
2025-05-26 15:23:08.559,-0.2610817772789323,-0.0389976968869677,-0.3000794727183694,-0.9992348457331348
2025-05-26 15:23:08.563,-0.2494176439902441,-0.0095399376578143,-0.2589575802131074,-0.9157260682463436
2025-05-26 15:23:08.566,-0.2210267500239426,0.1227659902175982,-0.0982607583839496,-0.9078700008024626
2025-05-26 15:23:08.570,-0.1187226961871717,0.3503298753161941,0.2316071805383674,-1.015134008436291
2025-05-26 15:23:08.574,0.0453131873986031,0.5940555814086735,0.6393687702025332,-1.1954709349942363
2025-05-26 15:23:08.578,0.1475691905557684,0.7514630223459088,0.89903221428223,-1.3440663301996052
2025-05-26 15:23:08.582,0.0605074480168141,0.7462897943246768,0.8067972437073644,-1.395843868597907
2025-05-26 15:23:08.586,-0.1744789184309468,0.5653240583063315,0.3908451412263098,-1.3750346987887134
2025-05-26 15:23:08.590,-0.3513671691602895,0.2731424467488567,-0.078224721076433,-1.3293189108249923
2025-05-26 15:23:08.594,-0.3254522933811049,-0.0198120913260849,-0.3452643833889411,-1.2658295700829043
2025-05-26 15:23:08.598,-0.1706888232537957,-0.2171067455244184,-0.3877955674767784,-1.1749977365654964
2025-05-26 15:23:08.602,-0.0613346738429865,-0.2790951673208272,-0.3404298398792274,-1.0694928781486115
2025-05-26 15:23:08.606,-0.0652505900933951,-0.2338858877910402,-0.2991364766174926,-0.9741199853123867
2025-05-26 15:23:08.609,-0.1157246691059421,-0.1518298417306509,-0.2675545095882665,-0.905176135733735
2025-05-26 15:23:08.613,-0.1326796584608777,-0.0899785607232606,-0.22265821795466,-0.8688192208537449
2025-05-26 15:23:08.617,-0.1024727378467101,-0.0586325391424589,-0.1611052757784123,-0.8610681905604477
2025-05-26 15:23:08.621,-0.0559177199765864,-0.0439413885805852,-0.0998591073656539,-0.8679580387839722
2025-05-26 15:23:08.625,-0.0167745737528755,-0.0410686798790864,-0.0578432524606741,-0.874759495660987
2025-05-26 15:23:08.629,0.0156585375381747,-0.0516289179909671,-0.0359703793021724,-0.8729415647749463
2025-05-26 15:23:08.633,0.0468858011589608,-0.0666187458421739,-0.0197329435531026,-0.8581371596877242
2025-05-26 15:23:08.637,0.0688763595392277,-0.0680927901564475,0.000783570492145,-0.8308038619027509
2025-05-26 15:23:08.641,0.0733549010117633,-0.0449179419492948,0.0284369601502162,-0.7998921408578386
2025-05-26 15:23:08.645,0.0732988100085533,-0.0042615118408254,0.0690372992332558,-0.7748567891851814
2025-05-26 15:23:08.649,0.0895790569743638,0.0319223276385599,0.1215013856562994,-0.7521014780511763
2025-05-26 15:23:08.652,0.1176276877316845,0.0463638960503525,0.163991584803219,-0.719639851787826
2025-05-26 15:23:08.656,0.1301150158062661,0.043031490997047,0.1731465078016265,-0.6756030480823554
2025-05-26 15:23:08.660,0.1158914566300714,0.0384263443156608,0.1543178019204954,-0.6307047202281363
2025-05-26 15:23:08.664,0.0943904276352502,0.0393200228745478,0.133710451460919,-0.5917424180830259
2025-05-26 15:23:08.668,0.084952958419992,0.0386735048774485,0.1236264642249583,-0.5549695709616406
2025-05-26 15:23:08.672,0.0814808232063783,0.0310348794577756,0.1125157035676269,-0.5185235255766185
2025-05-26 15:23:08.676,0.0691637265111294,0.0196766836270561,0.0888404110169901,-0.4885460974375246
2025-05-26 15:23:08.680,0.0534470478367746,0.0060361225902312,0.0594831712809062,-0.4661103990882547
2025-05-26 15:23:08.684,0.0550304596440726,-0.0167571091042684,0.0382733513687862,-0.4393090467536499
2025-05-26 15:23:08.688,0.077216381567001,-0.0511197441089107,0.0260966382618757,-0.3986299299638675
2025-05-26 15:23:08.691,0.0974906404769695,-0.0835788030798102,0.0139118381752795,-0.3531426193201146
2025-05-26 15:23:08.695,0.1007920976111662,-0.0992590771219315,0.0015330212413981,-0.3211968866593574
2025-05-26 15:23:08.699,0.1006165748583101,-0.1018816704697956,-0.0012650948854234,-0.3084437423258545
2025-05-26 15:23:08.703,0.1111800460491838,-0.1057130284244415,0.0054670183244741,-0.3035807356361698
2025-05-26 15:23:08.707,0.1222989670034515,-0.1164936342371461,0.0058053334394416,-0.2940773130547369
2025-05-26 15:23:08.711,0.1217525221456336,-0.1311347797003105,-0.0093822569083395,-0.2782094198030345
2025-05-26 15:23:08.715,0.1166128702629246,-0.1424468903552438,-0.0258340194730404,-0.2617086209437651
2025-05-26 15:23:08.719,0.1127042579731225,-0.1392223644158129,-0.0265181058507696,-0.2483310229377684
2025-05-26 15:23:08.723,0.1002554415852106,-0.117881210100075,-0.0176257679503935,-0.2347356631240743
2025-05-26 15:23:08.727,0.0787141404841992,-0.0915756361293001,-0.0128614951080561,-0.2146211262816165
2025-05-26 15:23:08.731,0.0705516749609051,-0.0743829143371347,-0.0038312388668928,-0.1885965536492751
2025-05-26 15:23:08.734,0.0921138103321983,-0.0655174423890436,0.0265963684243084,-0.1645794201700762
2025-05-26 15:23:08.738,0.1294836844212091,-0.0563670815502003,0.0731166033239342,-0.1454794411828315
2025-05-26 15:23:08.742,0.1580469041984488,-0.0413452827698754,0.1167016218535886,-0.1238223427716784
2025-05-26 15:23:08.746,0.1718399042658297,-0.0207568169263961,0.1510830877363876,-0.0926163546851617
2025-05-26 15:23:08.750,0.1836102370412217,-0.0019777360277614,0.1816325013816803,-0.055818388354669
2025-05-26 15:23:08.754,0.2093684309192393,0.0068781727330245,0.2162466039915877,-0.0213484455617281
2025-05-26 15:23:08.758,0.2591563089191547,0.0083010785872681,0.2674573878174507,0.0187730847266219
2025-05-26 15:23:08.762,0.3304334916539134,0.0111703458884537,0.3416038378252762,0.0957511471284732
2025-05-26 15:23:08.766,0.4092659450176907,0.0155342500920341,0.4248001953637539,0.2389789766483449
2025-05-26 15:23:08.770,0.4882108098648364,0.0132526889753631,0.5014634990649227,0.4368903822830444
2025-05-26 15:23:08.774,0.5746673237619069,0.0017839986507097,0.5764513226087709,0.6292302197801527
2025-05-26 15:23:08.777,0.670050420636671,-0.0144203714663626,0.6556300493385103,0.7502468600397337
2025-05-26 15:23:08.781,0.7560419536775751,-0.0342963411727679,0.7217456126443837,0.7836736891493729
2025-05-26 15:23:08.785,0.81193083058662,-0.0601678994573256,0.7517629312394717,0.7694080153315624
2025-05-26 15:23:08.789,0.8260171663098529,-0.0859620705783467,0.7400550958129251,0.7559440277839005
2025-05-26 15:23:08.793,0.7888800776688645,-0.0964687978842681,0.6924112798383242,0.7568572771775204
2025-05-26 15:23:08.797,0.7056852973742738,-0.0851676012983562,0.6205176961016047,0.7560082398483403
2025-05-26 15:23:08.801,0.6119150876090013,-0.0649317141062825,0.5469833734992768,0.7397516736962315
2025-05-26 15:23:08.805,0.5418479700495088,-0.05294724822295,0.4889007217942782,0.7106999799576295
2025-05-26 15:23:08.809,0.4865256549285229,-0.0510568408659307,0.4354688140028727,0.6764543841700372
2025-05-26 15:23:08.813,0.4145549560894226,-0.0472937084435045,0.3672612475589547,0.6399256493529858
2025-05-26 15:23:08.816,0.3264357391131187,-0.0325575491165735,0.293878189881113,0.6035234609115859
2025-05-26 15:23:08.820,0.2592443102596741,-0.0127653596757756,0.2464789504397635,0.5738443169801368
2025-05-26 15:23:08.824,0.2386114020140617,-0.0048045264707509,0.2338068753719779,0.5560611839368916
2025-05-26 15:23:08.828,0.2442520246144129,-0.017885368339002,0.2263666560777346,0.5460622928878427
2025-05-26 15:23:08.832,0.2317454969680607,-0.0400971560924686,0.1916483406504806,0.534130953000052
2025-05-26 15:23:08.836,0.187714054966774,-0.0489136748989185,0.138800379814505,0.5175325670090034
2025-05-26 15:23:08.840,0.1487145452532824,-0.034465876972602,0.1142486680003994,0.503633221495239
2025-05-26 15:23:08.844,0.1494076712401006,-0.0065887587941545,0.1428189121402037,0.4982835611582778
2025-05-26 15:23:08.848,0.1687721102155107,0.0212033499965175,0.1899754598801558,0.4973160394650333
2025-05-26 15:23:08.852,0.1567083784158863,0.0452972983215018,0.2020056763781269,0.4929951814093289
2025-05-26 15:23:08.856,0.1015725205691935,0.0659945226589832,0.1675670428423613,0.4838915297183075
2025-05-26 15:23:08.859,0.039380031798707,0.0825080583049085,0.1218880896931223,0.4736943089685791
2025-05-26 15:23:08.863,0.0018346280883557,0.1023166687768407,0.104151296429986,0.4624622344931409
2025-05-26 15:23:08.867,-0.0176669132632619,0.1369993297618555,0.1193324160371877,0.4450108894504086
2025-05-26 15:23:08.871,-0.0437813494695965,0.1787207739634641,0.1349394240064489,0.4200851390042877
2025-05-26 15:23:08.875,-0.082860508120275,0.2029420108569845,0.1200815022252545,0.3964386504569564
2025-05-26 15:23:08.879,-0.120194041119117,0.2029430567024419,0.0827490150485082,0.384617735399592
2025-05-26 15:23:08.883,-0.1490522720887074,0.1977677689811692,0.0487154963329131,0.3832262200025418
2025-05-26 15:23:08.887,-0.1816835284360302,0.2017922656558202,0.0201087366350351,0.3785959495237204
2025-05-26 15:23:08.891,-0.2234607140084873,0.2097813050178333,-0.013679409598885,0.3613045848674781
2025-05-26 15:23:08.895,-0.25529042178527,0.2123614371364589,-0.0429289852792401,0.3377853162623446
2025-05-26 15:23:08.899,-0.2552255321744368,0.2076360318762252,-0.0475895009518082,0.3199305263712715
2025-05-26 15:23:08.902,-0.2285330086938607,0.1997172614299656,-0.0288157479416188,0.3093427828487178
2025-05-26 15:23:08.906,-0.2059850273333914,0.1962305481100985,-0.0097544799239229,0.2992271960789427
2025-05-26 15:23:08.910,-0.2101905465481631,0.2023614803498555,-0.0078290669202188,0.2865479243524085
2025-05-26 15:23:08.914,-0.229693156076962,0.2142476220050785,-0.0154455348154556,0.274821635632794
2025-05-26 15:23:08.918,-0.2378834080477934,0.225190145266782,-0.0126932635473698,0.2666433097030284
2025-05-26 15:23:08.922,-0.2307566695221384,0.2350943617347995,0.0043376914241596,0.2589536147403283
2025-05-26 15:23:08.926,-0.2244311544413536,0.2432368357142917,0.0188056804639695,0.247412527284337
2025-05-26 15:23:08.930,-0.2243361646412803,0.2395254048296828,0.0151892393591886,0.2315172680627857
2025-05-26 15:23:08.934,-0.2282439904436072,0.2197731926284428,-0.0084707986656071,0.2123674205284407
2025-05-26 15:23:08.938,-0.2518956804336759,0.2024289301412154,-0.0494667511639832,0.1908647124548368
2025-05-26 15:23:08.941,-0.313357606356341,0.2099132768502853,-0.1034443303972065,0.1719166659602704
2025-05-26 15:23:08.945,-0.3925063337300271,0.2375823118830829,-0.1549240227570715,0.1623017637403179
2025-05-26 15:23:08.949,-0.4418751646152958,0.2583205225221269,-0.1835546430229207,0.160121290325803
2025-05-26 15:23:08.953,-0.4431251785371412,0.2534304733447237,-0.189694706141929,0.1561058987409307
2025-05-26 15:23:08.957,-0.4236286394982498,0.2261693045937867,-0.1974593358726366,0.1483895453297476
2025-05-26 15:23:08.961,-0.4092236974895366,0.1892503774703984,-0.2199733210051481,0.1436953472956761
2025-05-26 15:23:08.965,-0.3874529647313914,0.1504573765156196,-0.2369955892199096,0.1418383600184677
2025-05-26 15:23:08.969,-0.3316901117304964,0.1137246290069138,-0.2179654837460475,0.1339125061204637
2025-05-26 15:23:08.973,-0.2381785706514362,0.0867309461766129,-0.1514476255148393,0.1182267399484077
2025-05-26 15:23:08.977,-0.1243757114140923,0.0760507657672616,-0.0483249467035885,0.1040653630082854
2025-05-26 15:23:08.981,-0.0116475283015148,0.0774863528244344,0.0658388234494112,0.0983275639440104
2025-05-26 15:23:08.984,0.0869384123893443,0.08121863027769,0.1681570415766788,0.0998160447591255
2025-05-26 15:23:08.988,0.1839714930266866,0.0799932472883786,0.2639647392084573,0.1059666730246494
2025-05-26 15:23:08.992,0.3086068558325356,0.0662039369592061,0.374810791669593,0.1151626395753669
2025-05-26 15:23:08.996,0.4594276290701883,0.0352011511177264,0.4946287790503574,0.1233695998893386
2025-05-26 15:23:09.000,0.5998098507943199,-0.0041160980461836,0.595693751595185,0.12622996059692
2025-05-26 15:23:09.004,0.7130290452398462,-0.0371998776762744,0.6758291663957331,0.1226911376097738
2025-05-26 15:23:09.008,0.8112625019581486,-0.0606123534028569,0.7506501473731761,0.1123238280729225
2025-05-26 15:23:09.012,0.8872416620401805,-0.0771152733664949,0.810126387477463,0.0952327526143272
2025-05-26 15:23:09.016,0.9170309295990028,-0.0839501442175999,0.833080784171139,0.0786296570877562
2025-05-26 15:23:09.020,0.9059223779461728,-0.0806963411142497,0.8252260356080771,0.0732767240592779
2025-05-26 15:23:09.024,0.8801138119051612,-0.0755970615533481,0.8045167491149354,0.0768848049071553
2025-05-26 15:23:09.027,0.8515471031193484,-0.0703015329316316,0.7812455689379754,0.0731596635510685
2025-05-26 15:23:09.031,0.8283263623333064,-0.0533397275759965,0.7749866334947554,0.0568384133870704
2025-05-26 15:23:09.035,0.8252263654594193,-0.0219405320819163,0.8032858321025351,0.0455770052599341
2025-05-26 15:23:09.039,0.8329432356193501,0.0064275576793856,0.8393707920118681,0.052676434588115
2025-05-26 15:23:09.043,0.8164386955441213,0.0184219677691991,0.8348606620147104,0.0626850236671491
2025-05-26 15:23:09.047,0.7686045256088738,0.0242310075820104,0.7928355318805339,0.0530760901906464
2025-05-26 15:23:09.051,0.7258778947273468,0.0405364163941392,0.7664143097997307,0.0274604682162914
2025-05-26 15:23:09.055,0.7109560670910372,0.0698313301994964,0.7807873959578696,0.0076157036770464
2025-05-26 15:23:09.059,0.7004935168822011,0.1021413602400977,0.8026348757788613,0.0028354566870087
2025-05-26 15:23:09.063,0.6695825578660137,0.1216514304368319,0.7912339869485575,0.0041590485594656
2025-05-26 15:23:09.066,0.6304866952983397,0.116407181763972,0.746893875697459,0.0011683474062342
2025-05-26 15:23:09.070,0.6044397480406722,0.0995021581695302,0.7039419048353026,-0.0080279552231372
2025-05-26 15:23:09.074,0.5854774843862594,0.1073172902284539,0.692794773229868,-0.018933895496683
2025-05-26 15:23:09.078,0.554825593725099,0.1565197778296624,0.711345370159763,-0.0272901797248947
2025-05-26 15:23:09.082,0.5092222646968285,0.2203829584231636,0.7296052217150587,-0.0358301724958359
2025-05-26 15:23:09.086,0.4619627471167783,0.2638837484573025,0.7258464941597914,-0.0511894362972801
2025-05-26 15:23:09.090,0.4355211262152005,0.278790903371926,0.7143120281635746,-0.0711480986594285
2025-05-26 15:23:09.094,0.4458146327111145,0.2747200949909574,0.7205347262688688,-0.0836085527992605
2025-05-26 15:23:09.098,0.4650757555047879,0.2663293557452847,0.7314051098073123,-0.0830464725904829
2025-05-26 15:23:09.102,0.4315367606495661,0.2750507521280431,0.7065875113259665,-0.0797553225817614
2025-05-26 15:23:09.106,0.3381280271519611,0.3126091096951376,0.6507371353867557,-0.087018722032323
2025-05-26 15:23:09.109,0.2586037599016338,0.3603661745792468,0.6189699330112839,-0.1027567117673493
2025-05-26 15:23:09.113,0.2361238909997954,0.3876719637654053,0.6237958532862291,-0.1109841470991642
2025-05-26 15:23:09.117,0.2180432472365411,0.3880236024692248,0.6060668482181675,-0.1047377298688577
2025-05-26 15:23:09.121,0.1515536993192855,0.3837718580625187,0.5353255558859755,-0.0984890221275382
2025-05-26 15:23:09.125,0.0618770105651109,0.4003005113277708,0.4621775203882068,-0.1086173903376676
2025-05-26 15:23:09.129,-0.0091112113489522,0.441052813424215,0.4319416005613359,-0.1319478220157379
2025-05-26 15:23:09.133,-0.0646953358023964,0.4851494379345428,0.4204541006096818,-0.153950492222802
2025-05-26 15:23:09.137,-0.1228998564243362,0.5116627907761486,0.3887629328214897,-0.1670942605987289
2025-05-26 15:23:09.141,-0.1848602342693522,0.5257176024065706,0.3408573665985277,-0.1727675391861082
2025-05-26 15:23:09.145,-0.2461890564331236,0.5504957427817675,0.3043066848008985,-0.1749247684761182
2025-05-26 15:23:09.149,-0.2977936752188339,0.589259702074111,0.2914660252989918,-0.1776717972152662
2025-05-26 15:23:09.152,-0.3184052458760628,0.6084048840495515,0.2899996366095849,-0.1829020259025096
2025-05-26 15:23:09.156,-0.2969575742653982,0.5756241387019758,0.2786665628648286,-0.1883221847738075
2025-05-26 15:23:09.160,-0.2534919103507547,0.5068857672011765,0.2533938552699664,-0.1918026396818073
2025-05-26 15:23:09.164,-0.2173717938430907,0.4475811782844045,0.2302093828523236,-0.1962193512969612
2025-05-26 15:23:09.168,-0.1979940397667471,0.4111120547930171,0.2131180134297677,-0.2057672878121625
2025-05-26 15:23:09.172,-0.189662873876167,0.3698978327141125,0.1802349572341045,-0.2185641611736128
2025-05-26 15:23:09.176,-0.1863016702980173,0.3076048662872461,0.1213031943772028,-0.2263876094016067
2025-05-26 15:23:09.180,-0.1800866084607651,0.2477928945589284,0.0677062844777283,-0.2244177033691262
2025-05-26 15:23:09.184,-0.1651760394436334,0.2201035034141906,0.0549274623426339,-0.220700749543783
2025-05-26 15:23:09.188,-0.1517088183848697,0.2177149555199537,0.06600613550025,-0.2281885312548474
2025-05-26 15:23:09.191,-0.1559163082515559,0.2074693825008977,0.0515530726069921,-0.2441379205860723
2025-05-26 15:23:09.195,-0.1716741746441474,0.1765519232184081,0.0048777469238539,-0.2505172046188725
2025-05-26 15:23:09.199,-0.1766436466616893,0.1455709546712677,-0.0310726936482654,-0.2421613834450222
2025-05-26 15:23:09.203,-0.168828936062723,0.1323157769263458,-0.0365131608008055,-0.2376845657691026
2025-05-26 15:23:09.207,-0.1678190319718756,0.1268777253736107,-0.0409413082694633,-0.2509098463582428
