Timestamp,GSR_Filtered,PPG_Filtered,FMS,Condition
2025-05-26 15:34:45.782,-6.7535768895475e-05,17.34938113390621,6,MB
2025-05-26 15:34:45.789,-5.951982379402056e-05,18.79962268975273,6,MB
2025-05-26 15:34:45.797,-5.212522730214248e-05,20.474424670996225,6,MB
2025-05-26 15:34:45.805,-4.551700299292748e-05,22.332956989596,6,MB
2025-05-26 15:34:45.813,-3.984369507393829e-05,24.33017945365209,6,MB
2025-05-26 15:34:45.821,-3.523549780094997e-05,26.418357294357502,6,MB
2025-05-26 15:34:45.829,-3.180245985725395e-05,28.548551801260032,6,MB
2025-05-26 15:34:45.836,-2.96327491856894e-05,30.67204907796588,6,MB
2025-05-26 15:34:45.844,-2.879102901650564e-05,32.741695171629424,6,MB
2025-05-26 15:34:45.852,-2.9317044260466925e-05,34.713111517493665,6,MB
2025-05-26 15:34:45.860,-3.1224542982479615e-05,36.54577051093914,6,MB
2025-05-26 15:34:45.868,-3.450065019408619e-05,38.20391682075737,6,MB
2025-05-26 15:34:45.875,-3.910575850806216e-05,39.65732555253536,6,MB
2025-05-26 15:34:45.883,-4.497391293098038e-05,40.88189335210803,6,MB
2025-05-26 15:34:45.891,-5.201359296929755e-05,41.86006283821728,6,MB
2025-05-26 15:34:45.899,-6.010878152667253e-05,42.58108425044637,6,MB
2025-05-26 15:34:45.907,-6.912025617090682e-05,43.04112082289472,6,MB
2025-05-26 15:34:45.914,-7.888710561083886e-05,43.24320612931484,6,MB
2025-05-26 15:34:45.922,-8.922852815312328e-05,43.197062533633805,6,MB
2025-05-26 15:34:45.930,-9.994599515129915e-05,42.91879002245936,6,MB
2025-05-26 15:34:45.938,-0.0001108258576131,42.43043424809321,6,MB
2025-05-26 15:34:45.946,-0.0001216424393864,41.75944176945576,6,MB
2025-05-26 15:34:45.954,-0.0001321616079501,40.938009472848734,6,MB
2025-05-26 15:34:45.961,-0.0001421447764026,40.00233422891351,6,MB
2025-05-26 15:34:45.969,-0.0001513533032019,38.99176823536633,6,MB
2025-05-26 15:34:45.977,-0.0001595533093181,37.94788541730841,6,MB
2025-05-26 15:34:45.985,-0.0001665209571833,36.91346487237656,6,MB
2025-05-26 15:34:45.993,-0.0001720481747084,35.93139876670466,6,MB
2025-05-26 15:34:46.000,-0.0001759486865005,35.04353435928493,6,MB
2025-05-26 15:34:46.008,-0.0001780641169316,34.28946293797125,6,MB
2025-05-26 15:34:46.016,-0.0001782699047561,33.70527229720723,6,MB
2025-05-26 15:34:46.024,-0.0001764807864393,33.322283811913785,6,MB
2025-05-26 15:34:46.032,-0.0001726556093424,33.16579993945329,6,MB
2025-05-26 15:34:46.039,-0.0001668012184877,33.253892837332835,6,MB
2025-05-26 15:34:46.047,-0.0001589751588333,33.596269400104084,6,MB
2025-05-26 15:34:46.055,-0.0001492869724686,34.193252042367256,6,MB
2025-05-26 15:34:46.063,-0.0001378979350193,35.034917616158374,6,MB
2025-05-26 15:34:46.071,-0.0001250191468423,36.100438585246586,6,MB
2025-05-26 15:34:46.079,-0.0001109079624639,37.35767064638722,6,MB
2025-05-26 15:34:46.086,-9.586280457241024e-05,38.76302909219234,6,MB
2025-05-26 15:34:46.094,-8.02164667989485e-05,40.26169211832615,6,MB
2025-05-26 15:34:46.102,-6.432806259364993e-05,41.78816284059576,6,MB
2025-05-26 15:34:46.110,-4.8573825716937646e-05,43.267212964978256,6,MB
2025-05-26 15:34:46.118,-3.3337011056369724e-05,44.61521993217575,6,MB
2025-05-26 15:34:46.125,-1.8997182280700745e-05,45.741896159717,6,MB
2025-05-26 15:34:46.133,-5.919204652913995e-06,46.55239408608518,6,MB
2025-05-26 15:34:46.141,5.5577137097877e-06,46.94975457167671,6,MB
2025-05-26 15:34:46.149,1.513057180941808e-05,46.8376494450164,6,MB
2025-05-26 15:34:46.157,2.2542348855440065e-05,46.1233523277256,6,MB
2025-05-26 15:34:46.164,2.7590635233468327e-05,44.72085615042947,6,MB
2025-05-26 15:34:46.172,3.013477121641357e-05,42.55404187220214,6,MB
2025-05-26 15:34:46.180,3.0101172102070844e-05,39.559791751154144,6,MB
2025-05-26 15:34:46.188,2.748656240009255e-05,35.690932961349475,6,MB
2025-05-26 15:34:46.196,2.2358901897660564e-05,30.918894180752947,6,MB
2025-05-26 15:34:46.204,1.4855863693319474e-05,25.235959573155498,6,MB
2025-05-26 15:34:46.211,5.180818901096964e-06,18.657011697064224,6,MB
2025-05-26 15:34:46.219,-6.40360561392246e-06,11.220667353762591,6,MB
2025-05-26 15:34:46.227,-1.9584202418017343e-05,2.9897279857107817,6,MB
2025-05-26 15:34:46.235,-3.400775565151629e-05,-5.949111600785709,6,MB
2025-05-26 15:34:46.243,-4.929302234555019e-05,-15.486326526810654,6,MB
2025-05-26 15:34:46.250,-6.50434882491366e-05,-25.49139894513381,6,MB
2025-05-26 15:34:46.258,-8.086015793884207e-05,-35.81540081206472,6,MB
2025-05-26 15:34:46.266,-9.63536231209788e-05,-46.29426417769386,6,MB
2025-05-26 15:34:46.274,-0.0001111547496784,-56.752652160089,6,MB
2025-05-26 15:34:46.282,-0.0001249235067314,-67.00831774138061,6,MB
2025-05-26 15:34:46.289,-0.0001373556778713,-76.87681539009252,6,MB
2025-05-26 15:34:46.297,-0.0001481874061316,-86.17641335159664,6,MB
2025-05-26 15:34:46.305,-0.0001571977107189,-94.73304312753643,6,MB
2025-05-26 15:34:46.313,-0.0001642092585198,-102.38511781057495,6,MB
2025-05-26 15:34:46.321,-0.0001690877524935,-108.98805290129228,6,MB
2025-05-26 15:34:46.329,-0.0001717402986563,-114.41833205533632,6,MB
2025-05-26 15:34:46.336,-0.0001721130587607,-118.57697561525468,6,MB
2025-05-26 15:34:46.344,-0.0001701884371491,-121.3922911687486,6,MB
2025-05-26 15:34:46.352,-0.0001659820151108,-122.82181182468472,6,MB
2025-05-26 15:34:46.360,-0.0001595394251358,-122.85335821586804,6,MB
2025-05-26 15:34:46.368,-0.0001509333326835,-121.50519301755148,6,MB
2025-05-26 15:34:46.375,-0.0001402606578564,-118.82527048125402,6,MB
2025-05-26 15:34:46.383,-0.0001276401255017,-114.8896165679456,6,MB
2025-05-26 15:34:46.391,-0.0001132101834427,-109.79990624270684,6,MB
2025-05-26 15:34:46.399,-9.71272785123078e-05,-103.68033204586662,6,MB
2025-05-26 15:34:46.407,-7.956443254888499e-05,-96.6738810893872,6,MB
2025-05-26 15:34:46.414,-6.071001900783979e-05,-88.93815531813328,6,MB
2025-05-26 15:34:46.422,-4.07666085438628e-05,-80.64088170001122,6,MB
2025-05-26 15:34:46.430,-1.9949731557013956e-05,-71.955264752411,6,MB
2025-05-26 15:34:46.438,1.5136005349155497e-06,-63.055333554447344,6,MB
2025-05-26 15:34:46.446,2.3386764084969205e-05,-54.11142947550661,6,MB
2025-05-26 15:34:46.454,4.542590488327701e-05,-45.28596983254741,6,MB
2025-05-26 15:34:46.461,6.738291294992182e-05,-36.72960731389232,6,MB
2025-05-26 15:34:46.469,8.900901225324058e-05,-28.577886151100746,6,MB
2025-05-26 15:34:46.477,0.0001100589159588,-20.948474637060997,6,MB
2025-05-26 15:34:46.485,0.0001302954258573,-13.939030659045695,6,MB
2025-05-26 15:34:46.493,0.0001494943055305,-7.625733405727367,6,MB
2025-05-26 15:34:46.500,0.000167449245482,-2.0624912309253918,6,MB
2025-05-26 15:34:46.508,0.0001839767444266,2.719186357082293,6,MB
2025-05-26 15:34:46.516,0.0001989207187659,6.709684751517176,6,MB
2025-05-26 15:34:46.524,0.0002121566233105,9.920198215098786,6,MB
2025-05-26 15:34:46.532,0.0002235948586164,12.381126465913631,6,MB
2025-05-26 15:34:46.539,0.0002331832767652,14.14003031130262,6,MB
2025-05-26 15:34:46.547,0.0002409086652858,15.25923125465517,6,MB
2025-05-26 15:34:46.555,0.0002467971662837,15.813145276514296,6,MB
2025-05-26 15:34:46.563,0.0002509136639331,15.885443167641174,6,MB
2025-05-26 15:34:46.571,0.0002533602441686,15.566129068032527,6,MB
2025-05-26 15:34:46.579,0.0002542738852314,14.948625499800208,6,MB
2025-05-26 15:34:46.586,0.0002538235538121,14.126947469518608,6,MB
2025-05-26 15:34:46.594,0.0002522068373944,13.19304048340494,6,MB
2025-05-26 15:34:46.602,0.0002496461441812,12.234347918260887,6,MB
2025-05-26 15:34:46.610,0.0002463843857061,11.331662492846268,6,MB
2025-05-26 15:34:46.618,0.0002426799754645,10.557304967955169,6,MB
2025-05-26 15:34:46.625,0.0002388009683418,9.973661048755394,6,MB
2025-05-26 15:34:46.633,0.0002350182415567,9.632095141337707,6,MB
2025-05-26 15:34:46.641,0.0002315977649763,9.572247481674886,6,MB
2025-05-26 15:34:46.649,0.0002287921895167,9.82170954226187,6,MB
2025-05-26 15:34:46.657,0.000226832135135,10.396061839379524,6,MB
2025-05-26 15:34:46.664,0.0002259176317177,11.299248595678378,6,MB
2025-05-26 15:34:46.672,0.0002262101540184,12.524255406518565,6,MB
2025-05-26 15:34:46.680,0.0002278256313719,14.054049314997869,6,MB
2025-05-26 15:34:46.688,0.0002308287365086,15.862735664513371,6,MB
2025-05-26 15:34:46.696,0.0002352286784496,17.916882850819466,6,MB
2025-05-26 15:34:46.704,0.000240976645281,20.176964651344868,6,MB
2025-05-26 15:34:46.711,0.0002479649648117,22.59887011118279,6,MB
2025-05-26 15:34:46.719,0.0002560279757764,25.135432889413725,6,MB
2025-05-26 15:34:46.727,0.0002649445318841,27.737935335945608,6,MB
2025-05-26 15:34:46.735,0.0002744420061711,30.35754715257958,6,MB
2025-05-26 15:34:46.743,0.0002842016452113,32.946664035332,6,MB
2025-05-26 15:34:46.750,0.0002938651538283,35.460117922277405,6,MB
2025-05-26 15:34:46.758,0.0003030424456405,37.8562370992002,6,MB
2025-05-26 15:34:46.766,0.0003113205242743,40.09774116257033,6,MB
2025-05-26 15:34:46.774,0.0003182734396878,42.152462433915744,6,MB
2025-05-26 15:34:46.782,0.0003234732071422,43.99389160855044,6,MB
2025-05-26 15:34:46.789,0.0003265015062559,45.60155097934081,6,MB
2025-05-26 15:34:46.797,0.0003269619071928,46.96120331176237,6,MB
2025-05-26 15:34:46.805,0.0003244923055947,48.06490821070536,6,MB
2025-05-26 15:34:46.813,0.0003187771913188,48.91094051426292,6,MB
2025-05-26 15:34:46.821,0.0003095593324683,49.503586837093046,6,MB
2025-05-26 15:34:46.829,0.0002966504297735,49.85283689115591,6,MB
2025-05-26 15:34:46.836,0.0002799402910712,49.97398571868664,6,MB
2025-05-26 15:34:46.844,0.0002594040951528,49.88716161628391,6,MB
2025-05-26 15:34:46.852,0.0002351073617526,49.61679249085586,6,MB
2025-05-26 15:34:46.860,0.0002072083207837,49.19102089063222,6,MB
2025-05-26 15:34:46.868,0.0001759574709557,48.641075254367415,6,MB
2025-05-26 15:34:46.875,0.0001416942155029,48.00060229455081,6,MB
2025-05-26 15:34:46.883,0.0001048405489475,47.30496314731697,6,MB
2025-05-26 15:34:46.891,6.589186618902785e-05,46.59049422511171,6,MB
2025-05-26 15:34:46.899,2.5405108648832337e-05,45.89373278861877,6,MB
2025-05-26 15:34:46.907,-1.601535942681354e-05,45.25060723709027,6,MB
2025-05-26 15:34:46.914,-5.7733599906441e-05,44.69559305847748,6,MB
2025-05-26 15:34:46.922,-9.909905247735518e-05,44.2608372777573,6,MB
2025-05-26 15:34:46.930,-0.0001394639517158,43.97525703225806,6,MB
2025-05-26 15:34:46.938,-0.0001782005851012,43.86362147019424,6,MB
2025-05-26 15:34:46.946,-0.0002147177959151,43.94563033836538,6,MB
2025-05-26 15:34:46.954,-0.0002484761811512,44.235007162712485,6,MB
2025-05-26 15:34:46.961,-0.0002790014849329,44.73862954586096,6,MB
2025-05-26 15:34:46.969,-0.0003058957295731,45.45572349162664,6,MB
2025-05-26 15:34:46.977,-0.0003288456832898,46.37715248885729,6,MB
2025-05-26 15:34:46.985,-0.0003476283728102,47.484835021723946,6,MB
2025-05-26 15:34:46.993,-0.0003621135089319,48.75132591518943,6,MB
2025-05-26 15:34:47.000,-0.0003722628661631,50.139597199873045,6,MB
2025-05-26 15:34:47.008,-0.0003781268111533,51.603052761422575,6,MB
2025-05-26 15:34:47.016,-0.0003798382964992,53.08580775266842,6,MB
2025-05-26 15:34:47.024,-0.0003776047254553,54.52325848716896,6,MB
2025-05-26 15:34:47.032,-0.0003716981506581,55.84296127919677,6,MB
2025-05-26 15:34:47.040,-0.0003624442987463,56.96582952800334,6,MB
2025-05-26 15:34:47.047,-0.0003502109160324,57.80764745889373,6,MB
2025-05-26 15:34:47.055,-0.0003353959120263,58.28088664759285,6,MB
2025-05-26 15:34:47.063,-0.0003184157418455,58.29679820546527,6,MB
2025-05-26 15:34:47.071,-0.0002996944197075,57.76773984384581,6,MB
2025-05-26 15:34:47.079,-0.000279653498092,56.60968362123566,6,MB
2025-05-26 15:34:47.086,-0.0002587032848514,54.744837739854354,6,MB
2025-05-26 15:34:47.094,-0.0002372355072502,52.10430506466198,6,MB
2025-05-26 15:34:47.102,-0.0002156175692051,48.63069283380495,6,MB
2025-05-26 15:34:47.110,-0.0001941884788459,44.280582978325285,6,MB
2025-05-26 15:34:47.118,-0.0001732564292895,39.026771093788,6,MB
2025-05-26 15:34:47.125,-0.000153097886382,32.860184734627566,6,MB
2025-05-26 15:34:47.133,-0.0001339579000707,25.791398422424077,6,MB
2025-05-26 15:34:47.141,-0.000116051260899,17.851673400036027,6,MB
2025-05-26 15:34:47.149,-9.956409515769142e-05,9.093464296804978,6,MB
2025-05-26 15:34:47.157,-8.46555183364836e-05,-0.4096481542093636,6,MB
2025-05-26 15:34:47.165,-7.145902325164629e-05,-10.563620204470851,6,MB
2025-05-26 15:34:47.172,-6.0083353336516574e-05,-21.25520572743745,6,MB
2025-05-26 15:34:47.180,-5.061269728025343e-05,-32.35379585804631,6,MB
2025-05-26 15:34:47.188,-4.310613385393321e-05,-43.71379950347303,6,MB
2025-05-26 15:34:47.196,-3.759635044923051e-05,-55.17750849577147,6,MB
2025-05-26 15:34:47.204,-3.4087750502110945e-05,-66.5783751771454,6,MB
2025-05-26 15:34:47.211,-3.255414854164904e-05,-77.7446168196804,6,MB
2025-05-26 15:34:47.219,-3.293632224700305e-05,-88.50305079060601,6,MB
2025-05-26 15:34:47.227,-3.513974413151403e-05,-98.68305693628557,6,MB
2025-05-26 15:34:47.235,-3.90328473443247e-05,-108.12055930225064,6,MB
2025-05-26 15:34:47.243,-4.444618730701947e-05,-116.66191797342852,6,MB
2025-05-26 15:34:47.250,-5.117284102413945e-05,-124.16762340151034,6,MB
2025-05-26 15:34:47.258,-5.897033740353835e-05,-130.515689965449,6,MB
2025-05-26 15:34:47.266,-6.756433432445311e-05,-135.60465257186183,6,MB
2025-05-26 15:34:47.274,-7.665415215517709e-05,-139.35607973564345,6,MB
2025-05-26 15:34:47.282,-8.592014078709962e-05,-141.71652867175203,6,MB
2025-05-26 15:34:47.290,-9.503270105991846e-05,-142.6588823338367,6,MB
2025-05-26 15:34:47.297,-0.0001036626075627,-142.18302485407082,6,MB
2025-05-26 15:34:47.305,-0.000111492104893,-140.3158301801729,6,MB
2025-05-26 15:34:47.313,-0.0001182261118789,-137.11045846141928,6,MB
2025-05-26 15:34:47.321,-0.0001236028184636,-132.64497536959917,6,MB
2025-05-26 15:34:47.329,-0.0001274030227564,-127.0203303970215,6,MB
2025-05-26 15:34:47.336,-0.0001294577066885,-120.3577504938768,6,MB
2025-05-26 15:34:47.344,-0.0001296535376421,-112.79562436456276,6,MB
2025-05-26 15:34:47.352,-0.0001279361705838,-104.48596949253552,6,MB
2025-05-26 15:34:47.360,-0.0001243113843113,-95.59058770957267,6,MB
2025-05-26 15:34:47.368,-0.0001188441898278,-86.2770251855442,6,MB
2025-05-26 15:34:47.375,-0.0001116560840139,-76.71445857371913,6,MB
2025-05-26 15:34:47.383,-0.0001029206115973,-67.06963039548287,6,MB
2025-05-26 15:34:47.391,-9.285739131790485e-05,-57.50295350875577,6,MB
2025-05-26 15:34:47.399,-8.172478349466791e-05,-48.16489683490111,6,MB
2025-05-26 15:34:47.407,-6.981141418962482e-05,-39.19275280201586,6,MB
2025-05-26 15:34:47.415,-5.742680503302902e-05,-30.70787177506569,6,MB
2025-05-26 15:34:47.422,-4.489137960042648e-05,-22.81343081546892,6,MB
2025-05-26 15:34:47.430,-3.2526135446091985e-05,-15.59278428189643,6,MB
2025-05-26 15:34:47.438,-2.0642306689953103e-05,-9.108422947447904,6,MB
2025-05-26 15:34:47.446,-9.531407343039596e-06,-3.4015473719914824,6,MB
2025-05-26 15:34:47.454,5.438851454095653e-07,1.5077589067657118,6,MB
2025-05-26 15:34:47.461,9.357522234417972e-06,5.619789446439154,6,MB
2025-05-26 15:34:47.469,1.672611403366745e-05,8.953957798337678,6,MB
2025-05-26 15:34:47.477,2.2512859995470996e-05,11.5470866100229,6,MB
2025-05-26 15:34:47.485,2.662917978896855e-05,13.451317136664386,6,MB
2025-05-26 15:34:47.493,2.9034000284607973e-05,14.731721025806053,6,MB
2025-05-26 15:34:47.500,2.9730827241929605e-05,15.463700706586954,6,MB
2025-05-26 15:34:47.508,2.8762913386357996e-05,15.730266080821655,6,MB
2025-05-26 15:34:47.516,2.6207012367552324e-05,15.619273670725391,6,MB
2025-05-26 15:34:47.524,2.2166343830096817e-05,15.220710196239434,6,MB
2025-05-26 15:34:47.532,1.6763440103862515e-05,14.624096065217492,6,MB
2025-05-26 15:34:47.540,1.0133477416301692e-05,13.916075836203948,6,MB
2025-05-26 15:34:47.547,2.418541193426684e-06,13.178252754895723,6,MB
2025-05-26 15:34:47.555,-6.236911152154989e-06,12.48531338293042,6,MB
2025-05-26 15:34:47.563,-1.5689304708352766e-05,11.903476548355552,6,MB
2025-05-26 15:34:47.571,-2.579798462229088e-05,11.48928876675536,6,MB
2025-05-26 15:34:47.579,-3.642621832734679e-05,11.288776315602124,6,MB
2025-05-26 15:34:47.586,-4.744141961332508e-05,11.336952675174702,6,MB
2025-05-26 15:34:47.594,-5.87148837042392e-05,11.657669425912797,6,MB
2025-05-26 15:34:47.602,-7.01213092533166e-05,12.26378921424454,6,MB
2025-05-26 15:34:47.610,-8.153832476580753e-05,13.157651306752632,6,MB
2025-05-26 15:34:47.618,-9.284613690411304e-05,14.331793721372678,6,MB
2025-05-26 15:34:47.625,-0.0001039272913136,15.769891064539747,6,MB
2025-05-26 15:34:47.633,-0.000114666420178,17.447864060992835,6,MB
2025-05-26 15:34:47.641,-0.000124949794521,19.335115321604675,6,MB
2025-05-26 15:34:47.649,-0.0001346645281944,21.39584607661508,6,MB
2025-05-26 15:34:47.657,-0.0001436973707005,23.590410271483893,6,MB
2025-05-26 15:34:47.665,-0.0001519331286612,25.876665393236934,6,MB
2025-05-26 15:34:47.672,-0.0001592528363229,28.211283442190723,6,MB
2025-05-26 15:34:47.680,-0.0001655318512783,30.55099034411291,6,MB
2025-05-26 15:34:47.688,-0.0001706381101983,32.853707563341075,6,MB
2025-05-26 15:34:47.696,-0.0001744308731646,35.0795754802382,6,MB
2025-05-26 15:34:47.704,-0.0001767604011933,37.19184399001942,6,MB
2025-05-26 15:34:47.711,-0.0001774690772878,39.15762152497567,6,MB
2025-05-26 15:34:47.719,-0.0001763944262335,40.94847907602339,6,MB
2025-05-26 15:34:47.727,-0.000173374304914,42.54091059674506,6,MB
2025-05-26 15:34:47.735,-0.0001682542662449,43.91665525331181,6,MB
2025-05-26 15:34:47.743,-0.0001608967988439,45.06289021900092,6,MB
2025-05-26 15:34:47.750,-0.0001511918672877,45.972305031009725,6,MB
2025-05-26 15:34:47.758,-0.0001390679828502,46.64306990407318,6,MB
2025-05-26 15:34:47.766,-0.0001245029533619,47.07871084664209,6,MB
2025-05-26 15:34:47.774,-0.0001075334751697,47.28790400939842,6,MB
2025-05-26 15:34:47.782,-8.826279600574187e-05,47.28420051520246,6,MB
2025-05-26 15:34:47.790,-6.686576392027623e-05,47.085691222549286,6,MB
2025-05-26 15:34:47.797,-4.359068386187307e-05,46.71461865000047,6,MB
2025-05-26 15:34:47.805,-1.8757558397160488e-05,46.19694085157943,6,MB
2025-05-26 15:34:47.813,7.247475960327081e-06,45.56184960628606,6,MB
2025-05-26 15:34:47.821,3.3981405708382544e-05,44.84124308841994,6,MB
2025-05-26 15:34:47.829,6.09568918154447e-05,44.06915142753012,6,MB
2025-05-26 15:34:47.836,8.765751601247997e-05,43.28111243509076,6,MB
2025-05-26 15:34:47.844,0.0001135550134584,42.51349442162384,6,MB
2025-05-26 15:34:47.852,0.0001381277136945,41.80276355403178,6,MB
2025-05-26 15:34:47.860,0.0001608793390573,41.18469465037381,6,MB
2025-05-26 15:34:47.868,0.0001813572478636,40.69352666350374,6,MB
2025-05-26 15:34:47.875,0.0001991692057487,40.36106730084008,6,MB
2025-05-26 15:34:47.883,0.0002139978471032,40.21575515445021,6,MB
2025-05-26 15:34:47.891,0.0002256121360931,40.28169222040074,6,MB
2025-05-26 15:34:47.899,0.0002338753280889,40.57766457464461,6,MB
2025-05-26 15:34:47.907,0.0002387491445423,41.11617400918807,6,MB
2025-05-26 15:34:47.915,0.0002402940809712,41.90250834316114,6,MB
2025-05-26 15:34:47.922,0.0002386659510027,42.9338826065114,6,MB
2025-05-26 15:34:47.930,0.000234108938726,44.19868703408793,6,MB
2025-05-26 15:34:47.938,0.0002269455984281,45.67588049223033,6,MB
2025-05-26 15:34:47.946,0.0002175643807382,47.33456929226214,6,MB
2025-05-26 15:34:47.954,0.0002064053406022,49.13381105710201,6,MB
2025-05-26 15:34:47.961,0.0001939446979922,51.02268116878063,6,MB
2025-05-26 15:34:47.969,0.0001806789138012,52.94063515785234,6,MB
2025-05-26 15:34:47.977,0.0001671089334906,54.81819409254055,6,MB
2025-05-26 15:34:47.985,0.0001537252209725,56.577971568197,6,MB
2025-05-26 15:34:47.993,0.0001409941149727,58.13605037297177,6,MB
2025-05-26 15:34:48.000,0.0001293458807236,59.403704513789656,6,MB
2025-05-26 15:34:48.008,0.0001191646511245,60.28944835271607,6,MB
2025-05-26 15:34:48.016,0.0001107803181589,60.7013795895391,6,MB
2025-05-26 15:34:48.024,0.0001044623609103,60.549767334216966,6,MB
2025-05-26 15:34:48.032,0.0001004155478984,59.749821269533584,6,MB
2025-05-26 15:34:48.040,9.877740723079236e-05,58.22456372635398,6,MB
2025-05-26 15:34:48.047,9.961733050947568e-05,55.90771424225692,6,MB
2025-05-26 15:34:48.055,0.0001029371834942,52.74648670551415,6,MB
2025-05-26 15:34:48.063,0.0001086733351677,48.70419329873851,6,MB
2025-05-26 15:34:48.071,0.0001167000615866,43.76254782850103,6,MB
2025-05-26 15:34:48.079,0.0001268343027429,37.92356414996766,6,MB
2025-05-26 15:34:48.086,0.0001388417361658,31.21095351062425,6,MB
2025-05-26 15:34:48.094,0.0001524440780042,23.670937692931645,6,MB
2025-05-26 15:34:48.102,0.0001673274319566,15.372412473723534,6,MB
2025-05-26 15:34:48.110,0.000183151399367,6.40641748928219,6,MB
2025-05-26 15:34:48.118,0.0001995585877359,-3.115106799288776,6,MB
2025-05-26 15:34:48.125,0.0002161841468868,-13.061267794893665,6,MB
2025-05-26 15:34:48.133,0.0002326650081051,-23.284840573803294,6,MB
2025-05-26 15:34:48.141,0.0002486485552531,-33.62549750419213,6,MB
2025-05-26 15:34:48.149,0.0002638004929539,-43.91356130896822,6,MB
2025-05-26 15:34:48.157,0.0002778117071848,-53.97417299693129,6,MB
2025-05-26 15:34:48.165,0.0002904039585726,-63.63174769411862,6,MB
2025-05-26 15:34:48.172,0.0003013343173426,-72.71457763710526,6,MB
2025-05-26 15:34:48.180,0.0003103983399122,-81.05943305441177,6,MB
2025-05-26 15:34:48.188,0.0003174320872413,-88.51600877108501,6,MB
2025-05-26 15:34:48.196,0.0003223131597012,-94.95106731783758,6,MB
2025-05-26 15:34:48.204,0.0003249609276332,-100.25213806851612,6,MB
2025-05-26 15:34:48.211,0.0003253360615679,-104.33064618303892,6,MB
2025-05-26 15:34:48.219,0.0003234393701283,-107.12436437254114,6,MB
2025-05-26 15:34:48.227,0.0003193099226955,-108.59910398013368,6,MB
2025-05-26 15:34:48.235,0.0003130224942732,-108.74958863491216,6,MB
2025-05-26 15:34:48.243,0.0003046844647004,-107.59948267578764,6,MB
2025-05-26 15:34:48.250,0.0002944323636958,-105.20057643408752,6,MB
2025-05-26 15:34:48.258,0.0002824282574939,-101.63116004910792,6,MB
2025-05-26 15:34:48.266,0.0002688561369176,-96.9936455397276,6,MB
2025-05-26 15:34:48.274,0.0002539184101492,-91.41152223217507,6,MB
2025-05-26 15:34:48.282,0.0002378325528331,-85.02575235904143,6,MB
2025-05-26 15:34:48.290,0.0002208279415373,-77.99073089741596,6,MB
2025-05-26 15:34:48.297,0.0002031428735312,-70.46994592862274,6,MB
2025-05-26 15:34:48.305,0.000185021722485,-62.63148264635219,6,MB
2025-05-26 15:34:48.313,0.0001667121006536,-54.643515528682,6,MB
2025-05-26 15:34:48.321,0.0001484618329556,-46.66992927324738,6,MB
2025-05-26 15:34:48.329,0.0001305155311222,-38.86620024062013,6,MB
2025-05-26 15:34:48.336,0.000113110599272,-31.375656915738958,6,MB
2025-05-26 15:34:48.344,9.64726044888434e-05,-24.32622099396912,6,MB
2025-05-26 15:34:48.352,8.081009197449881e-05,-17.827710954254115,6,MB
2025-05-26 15:34:48.360,6.630907582372147e-05,-11.969768293623796,6,MB
2025-05-26 15:34:48.368,5.312754162086222e-05,-6.820443887989407,6,MB
2025-05-26 15:34:48.375,4.1390328388176015e-05,-2.425459118457334,6,MB
2025-05-26 15:34:48.383,3.118473548823261e-05,1.1918656990280414,6,MB
2025-05-26 15:34:48.391,2.255716834962152e-05,4.030043683024722,6,MB
2025-05-26 15:34:48.399,1.5511116075644455e-05,6.108261226407934,6,MB
2025-05-26 15:34:48.407,1.000672346067314e-05,7.464688001186722,6,MB
2025-05-26 15:34:48.415,5.96214452549391e-06,8.154332954969897,6,MB
2025-05-26 15:34:48.422,3.256743332393075e-06,8.246532143681272,6,MB
2025-05-26 15:34:48.430,1.7360785885959224e-06,7.822161037898677,6,MB
2025-05-26 15:34:48.438,1.2184967254693769e-06,6.970667500183271,6,MB
2025-05-26 15:34:48.446,1.503052723988488e-06,5.787022043575546,6,MB
2025-05-26 15:34:48.454,2.378369481375313e-06,4.368679414839895,6,MB
2025-05-26 15:34:48.461,3.63195193255574e-06,2.812640240186406,6,MB
2025-05-26 15:34:48.469,5.059414730262269e-06,1.2126937297312663,6,MB
2025-05-26 15:34:48.477,6.4730729127243655e-06,-0.3430873822270973,6,MB
2025-05-26 15:34:48.485,7.709384955143004e-06,-1.7745399788734944,6,MB
2025-05-26 15:34:48.493,8.634825116589932e-06,-3.01124483731522,6,MB
2025-05-26 15:34:48.500,9.149893828611073e-06,-3.993968610843504,6,MB
2025-05-26 15:34:48.508,9.191144797715948e-06,-4.675693924234896,6,MB
2025-05-26 15:34:48.516,8.731298306624782e-06,-5.022231686269607,6,MB
2025-05-26 15:34:48.524,7.777682904193235e-06,-5.012422848070716,6,MB
2025-05-26 15:34:48.532,6.369351037099249e-06,-4.63794898978813,6,MB
2025-05-26 15:34:48.540,4.573222403222195e-06,-3.902781946915273,6,MB
2025-05-26 15:34:48.547,2.479545240115239e-06,-2.822311889910765,6,MB
2025-05-26 15:34:48.555,1.968791593514985e-07,-1.422200613116599,6,MB
2025-05-26 15:34:48.563,-2.1532700298401853e-06,0.2629878827642881,6,MB
2025-05-26 15:34:48.571,-4.44207817237378e-06,2.191324185884941,6,MB
2025-05-26 15:34:48.579,-6.539221416100196e-06,4.315161144085049,6,MB
2025-05-26 15:34:48.586,-8.318795028176667e-06,6.582836716205361,6,MB
2025-05-26 15:34:48.594,-9.66519166826925e-06,8.940378932233717,6,MB
2025-05-26 15:34:48.602,-1.0478720915997213e-05,11.333164102505604,6,MB
2025-05-26 15:34:48.610,-1.0680661911998586e-05,13.70748493734567,6,MB
2025-05-26 15:34:48.618,-1.0217375416250088e-05,16.011991755685468,6,MB
2025-05-26 15:34:48.625,-9.063109546472648e-06,18.198977143197368,6,MB
2025-05-26 15:34:48.633,-7.2212386684215874e-06,20.225481932102607,6,MB
2025-05-26 15:34:48.641,-4.723850352044204e-06,22.05420788875488,6,MB
2025-05-26 15:34:48.649,-1.6297804688969847e-06,23.654229703772977,6,MB
2025-05-26 15:34:48.657,1.978667815699709e-06,25.00150550598419,6,MB
2025-05-26 15:34:48.665,6.000027225061418e-06,26.079190928818484,6,MB
2025-05-26 15:34:48.672,1.0318696682460276e-05,26.877766557549837,6,MB
2025-05-26 15:34:48.680,1.4810412767351556e-05,27.394992248097648,6,MB
2025-05-26 15:34:48.688,1.934787127447437e-05,27.63570427350554,6,MB
2025-05-26 15:34:48.696,2.380620093935033e-05,27.61147254043515,6,MB
2025-05-26 15:34:48.704,2.806800341857219e-05,27.340135318073024,6,MB
2025-05-26 15:34:48.711,3.202771345843189e-05,26.84522819688555,6,MB
2025-05-26 15:34:48.719,3.559510078188683e-05,26.155322565153632,6,MB
2025-05-26 15:34:48.727,3.869782638273054e-05,25.303287023883584,6,MB
2025-05-26 15:34:48.735,4.128306594828084e-05,24.32548314570438,6,MB
2025-05-26 15:34:48.743,4.3318287624926834e-05,23.260905103861056,6,MB
2025-05-26 15:34:48.750,4.479128209649217e-05,22.150271202128607,6,MB
2025-05-26 15:34:48.758,4.570949008709472e-05,21.035074424658497,6,MB
2025-05-26 15:34:48.766,4.6098604097584034e-05,19.956598941308066,6,MB
2025-05-26 15:34:48.774,4.600038622923036e-05,18.95491013570049,6,MB
2025-05-26 15:34:48.782,4.546965406431646e-05,18.06782719181514,6,MB
2025-05-26 15:34:48.790,4.457043057848397e-05,17.329889530130824,6,MB
2025-05-26 15:34:48.797,4.337132267338342e-05,16.771331303393893,6,MB
2025-05-26 15:34:48.805,4.1940280721555005e-05,16.417081556312667,6,MB
2025-05-26 15:34:48.813,4.033898574181958e-05,16.285811281431414,6,MB
2025-05-26 15:34:48.821,3.86171853102076e-05,16.389052188333697,6,MB
2025-05-26 15:34:48.829,3.680732849222388e-05,16.730415251678828,6,MB
2025-05-26 15:34:48.836,3.491983272143402e-05,17.30493971902273,6,MB
2025-05-26 15:34:48.844,3.293927477791236e-05,18.098604950069078,6,MB
2025-05-26 15:34:48.852,3.082175604689077e-05,19.08803794464564,6,MB
2025-05-26 15:34:48.860,2.849364999254432e-05,20.240448442154538,6,MB
2025-05-26 15:34:48.868,2.585187854601003e-05,21.51382083117244,6,MB
2025-05-26 15:34:48.875,2.2765772317208765e-05,22.857387652453717,6,MB
2025-05-26 15:34:48.883,1.9080470940885596e-05,24.212403152526107,6,MB
2025-05-26 15:34:48.891,1.4621753131921556e-05,25.513227178186067,6,MB
2025-05-26 15:34:48.899,9.202152904662504e-06,26.68871981718031,6,MB
2025-05-26 15:34:48.907,2.628182101561151e-06,27.66393580897908,6,MB
2025-05-26 15:34:48.915,-5.291588457851157e-06,28.36209519914808,6,MB
2025-05-26 15:34:48.922,-1.4737932191765104e-05,28.70679342342552,6,MB
2025-05-26 15:34:48.930,-2.5872286972619024e-05,28.624400508243315,6,MB
2025-05-26 15:34:48.938,-3.882846112830216e-05,28.04658596498642,6,MB
2025-05-26 15:34:48.946,-5.370515976698951e-05,26.912893901242164,6,MB
2025-05-26 15:34:48.954,-7.055970698052917e-05,25.173282589463952,6,MB
2025-05-26 15:34:48.961,-8.94033133793077e-05,22.79053496420252,6,MB
2025-05-26 15:34:48.969,-0.0001101982426444,19.742441992016012,6,MB
2025-05-26 15:34:48.977,-0.0001328572076552,16.023660235123074,6,MB
2025-05-26 15:34:48.985,-0.000157245230776,11.647148745652558,6,MB
2025-05-26 15:34:48.993,-0.0001831840465488,6.645099028240891,6,MB
2025-05-26 15:34:49.000,-0.0002104589556348,1.0692852952215588,6,MB
2025-05-26 15:34:49.008,-0.0002388278831002,-5.009219580118845,6,MB
2025-05-26 15:34:49.016,-0.0002680322442316,-11.50099463980939,6,MB
2025-05-26 15:34:49.024,-0.0002978090708952,-18.299894449876945,6,MB
2025-05-26 15:34:49.032,-0.0003279037278004,-25.28532427877276,6,MB
2025-05-26 15:34:49.040,-0.0003580824983093,-32.32511652498533,6,MB
2025-05-26 15:34:49.047,-0.0003881443675249,-39.27892982693641,6,MB
2025-05-26 15:34:49.055,-0.0004179314514307,-46.002066223742055,6,MB
2025-05-26 15:34:49.063,-0.0004473376648457,-52.34957938981463,6,MB
2025-05-26 15:34:49.071,-0.0004763153505525,-58.18052973609263,6,MB
2025-05-26 15:34:49.079,-0.0005048796918546,-63.362231204781786,6,MB
2025-05-26 15:34:49.086,-0.000533110797005,-67.77433068928389,6,MB
2025-05-26 15:34:49.094,-0.0005611533755283,-71.31256457886074,6,MB
2025-05-26 15:34:49.102,-0.0005892139256689,-73.89204789691107,6,MB
2025-05-26 15:34:49.110,-0.0006175553307325,-75.44996935545682,6,MB
2025-05-26 15:34:49.118,-0.0006464887454447,-75.94758945225678,6,MB
2025-05-26 15:34:49.125,-0.0006763626684986,-75.37146720911024,6,MB
2025-05-26 15:34:49.133,-0.0007075491551172,-73.73387275221873,6,MB
2025-05-26 15:34:49.141,-0.0007404272229753,-71.07237598073223,6,MB
2025-05-26 15:34:49.149,-0.0007753636436497,-67.44863434110661,6,MB
2025-05-26 15:34:49.157,-0.0008126914756542,-62.94643359755154,6,MB
2025-05-26 15:34:49.165,-0.0008526868538644,-57.669063035682186,6,MB
2025-05-26 15:34:49.172,-0.0008955446764872,-51.73612960791668,6,MB
2025-05-26 15:34:49.180,-0.0009413539209394,-45.2799333007388,6,MB
2025-05-26 15:34:49.188,-0.000990073400422,-38.44153799312628,6,MB
2025-05-26 15:34:49.196,-0.0010415088827641,-31.36667813015426,6,MB
2025-05-26 15:34:49.204,-0.0010952926387543,-24.20164180144609,6,MB
2025-05-26 15:34:49.211,-0.0011508666163018,-17.08926568836507,6,MB
2025-05-26 15:34:49.219,-0.0012074704824739,-10.165167426373142,6,MB
2025-05-26 15:34:49.227,-0.0012641357224698,-3.554326970554502,6,MB
2025-05-26 15:34:49.235,-0.0013196868650947,2.6318885968724635,6,MB
2025-05-26 15:34:49.243,-0.0013727507399429,8.29818181934615,6,MB
2025-05-26 15:34:49.250,-0.0014217744516647,13.367209014961349,6,MB
2025-05-26 15:34:49.258,-0.00146505246512,17.780859024600833,6,MB
2025-05-26 15:34:49.266,-0.001500762832166,21.50091487488505,6,MB
2025-05-26 15:34:49.274,-0.001527012176565,24.509106836486403,6,MB
2025-05-26 15:34:49.282,-0.0015418886262746,26.806583992432603,6,MB
2025-05-26 15:34:49.290,-0.0015435214826161,28.412848071519203,6,MB
2025-05-26 15:34:49.297,-0.0015301460604143,29.364207603361823,6,MB
2025-05-26 15:34:49.305,-0.0015001718086803,29.711822171356907,6,MB
2025-05-26 15:34:49.313,-0.0014522515025556,29.519415520345163,6,MB
2025-05-26 15:34:49.321,-0.0013853489742246,28.86074243117608,6,MB
2025-05-26 15:34:49.329,-0.0012988025473335,27.81689758281549,6,MB
2025-05-26 15:34:49.336,-0.0011923811064806,26.47355512214174,6,MB
2025-05-26 15:34:49.344,-0.001066329620881,24.918225448156683,6,MB
2025-05-26 15:34:49.352,-0.0009214009861203,23.237610946789367,6,MB
2025-05-26 15:34:49.360,-0.0007588712828461,21.51513530537229,6,MB
2025-05-26 15:34:49.368,-0.0005805360149551,19.82871188165284,6,MB
2025-05-26 15:34:49.375,-0.0003886856132686,18.248805757702957,6,MB
2025-05-26 15:34:49.383,-0.0001860594724271,16.836831989641944,6,MB
2025-05-26 15:34:49.391,2.4221005818781472e-05,15.64391962734216,6,MB
2025-05-26 15:34:49.399,0.0002387385101877,14.710057802718614,6,MB
2025-05-26 15:34:49.407,0.0004538817302152,14.063627047674936,6,MB
2025-05-26 15:34:49.415,0.0006659583437635,13.72130645990756,6,MB
2025-05-26 15:34:49.422,0.0008713132711875,13.68833580914429,6,MB
2025-05-26 15:34:49.430,0.0010664459037967,13.959101544914684,6,MB
2025-05-26 15:34:49.438,0.0012481202288781,14.518007247987937,6,MB
2025-05-26 15:34:49.446,0.0014134625866749,15.34058260501928,6,MB
2025-05-26 15:34:49.454,0.0015600429854603,16.39478063159626,6,MB
2025-05-26 15:34:49.461,0.001685937224726,17.642410670272092,6,MB
2025-05-26 15:34:49.469,0.0017897683408875,19.040654589274247,6,MB
2025-05-26 15:34:49.477,0.0018707269980954,20.543615449978866,6,MB
2025-05-26 15:34:49.485,0.0019285713827598,22.10385145913473,6,MB
2025-05-26 15:34:49.493,0.0019636079365697,23.673852966965317,6,MB
2025-05-26 15:34:49.500,0.0019766548889442,25.20742625193116,6,MB
2025-05-26 15:34:49.508,0.0019689910336027,26.660954452985283,6,MB
2025-05-26 15:34:49.516,0.00194229254602,27.994512874221677,6,MB
2025-05-26 15:34:49.524,0.0018985608716423,29.172822624891964,6,MB
2025-05-26 15:34:49.532,0.001840044834257,30.16603284943375,6,MB
2025-05-26 15:34:49.540,0.0017691601074063,30.950327394017908,6,MB
2025-05-26 15:34:49.547,0.0016884090437204,31.50835647303112,6,MB
2025-05-26 15:34:49.555,0.0016003035883019,31.82949764665284,6,MB
2025-05-26 15:34:49.563,0.0015072936721928,31.909953180032616,6,MB
2025-05-26 15:34:49.571,0.0014117031340668,31.752692670464214,6,MB
2025-05-26 15:34:49.579,0.0013156748478991,31.3672507997915,6,MB
2025-05-26 15:34:49.586,0.0012211263148144,30.76939033873809,6,MB
2025-05-26 15:34:49.594,0.0011297164938988,29.980640279023557,6,MB
2025-05-26 15:34:49.602,0.0010428241138848,29.027718404914932,6,MB
2025-05-26 15:34:49.610,0.0009615371735351,27.941846955367318,6,MB
2025-05-26 15:34:49.618,0.0008866528644431,26.75796948310899,6,MB
2025-05-26 15:34:49.625,0.0008186867787216,25.51387678264382,6,MB
2025-05-26 15:34:49.633,0.0007578900125832,24.24925000255234,6,MB
2025-05-26 15:34:49.641,0.0007042726472056,23.00462990839558,6,MB
2025-05-26 15:34:49.649,0.0006576320745761,21.82032280159019,6,MB
2025-05-26 15:34:49.657,0.0006175847182799,20.73525584745325,6,MB
2025-05-26 15:34:49.665,0.0005835998331931,19.785797476306143,6,MB
2025-05-26 15:34:49.672,0.0005550341951975,19.004561982842063,6,MB
2025-05-26 15:34:49.680,0.0005311665777519,18.419221287881214,6,MB
2025-05-26 15:34:49.688,0.0005112309699395,18.051350818518276,6,MB
2025-05-26 15:34:49.696,0.0004944475589241,17.915340343681716,6,MB
2025-05-26 15:34:49.704,0.0004800506047092,18.01740408396697,6,MB
2025-05-26 15:34:49.711,0.0004673124813716,18.35472719780379,6,MB
2025-05-26 15:34:49.719,0.0004555633409278,18.91478752909665,6,MB
2025-05-26 15:34:49.727,0.0004442060660461,19.674891988704747,6,MB
2025-05-26 15:34:49.735,0.0004327264065155,20.601965855974,6,MB
2025-05-26 15:34:49.743,0.0004206984242109,21.65263038668974,6,MB
2025-05-26 15:34:49.750,0.0004077855739319,22.773599218512583,6,MB
2025-05-26 15:34:49.758,0.000393737904273,23.902417070543915,6,MB
2025-05-26 15:34:49.766,0.0003783859911456,24.96855513324969,6,MB
2025-05-26 15:34:49.774,0.0003616323484773,25.89486644590183,6,MB
2025-05-26 15:34:49.782,0.0003434411836183,26.59939169428951,6,MB
2025-05-26 15:34:49.790,0.0003238274181373,26.99749159403648,6,MB
2025-05-26 15:34:49.797,0.0003028458341083,27.004266842042995,6,MB
2025-05-26 15:34:49.805,0.0002805810487915,26.537211124065823,6,MB
2025-05-26 15:34:49.813,0.0002571388182241,25.519027564032985,6,MB
2025-05-26 15:34:49.821,0.00023263896411,23.880525070016542,6,MB
2025-05-26 15:34:49.829,0.0002072100286934,21.563499097731984,6,MB
2025-05-26 15:34:49.836,0.000180985598542,18.523492250887628,6,MB
2025-05-26 15:34:49.844,0.0001541021070952,14.732324675579644,6,MB
2025-05-26 15:34:49.852,0.0001266978328283,10.180283107318886,6,MB
2025-05-26 15:34:49.860,9.891275885409438e-05,4.87786126633656,6,MB
2025-05-26 15:34:49.868,7.088895300096601e-05,-1.1430465817415427,6,MB
2025-05-26 15:34:49.875,4.2771165508641454e-05,-7.828582609343885,6,MB
2025-05-26 15:34:49.883,1.470742174875438e-05,-15.103057089024333,6,MB
2025-05-26 15:34:49.891,-1.3150504262551807e-05,-22.86981477426348,6,MB
2025-05-26 15:34:49.899,-4.0646749662523705e-05,-31.012848326755925,6,MB
2025-05-26 15:34:49.907,-6.76211270915802e-05,-39.399140970344455,6,MB
2025-05-26 15:34:49.915,-9.3909003350209e-05,-47.88168937512635,6,MB
2025-05-26 15:34:49.922,-0.0001193413974835,-56.30312712539856,6,MB
2025-05-26 15:34:49.930,-0.0001437455061968,-64.49984061925615,6,MB
2025-05-26 15:34:49.938,-0.0001669459364206,-72.30644446697369,6,MB
2025-05-26 15:34:49.946,-0.0001887669418627,-79.56046384482441,6,MB
2025-05-26 15:34:49.954,-0.0002090358990271,-86.10705803149129,6,MB
2025-05-26 15:34:49.961,-0.0002275881078385,-91.80361339187051,6,MB
2025-05-26 15:34:49.969,-0.0002442727930233,-96.52403586778296,6,MB
2025-05-26 15:34:49.977,-0.000258959980063,-100.16258263661328,6,MB
2025-05-26 15:34:49.985,-0.0002715477858423,-102.6370896033362,6,MB
2025-05-26 15:34:49.993,-0.0002819696261068,-103.89147496003127,6,MB
2025-05-26 15:34:50.000,-0.0002902008727541,-103.89742795954822,6,MB
2025-05-26 15:34:50.008,-0.0002962645272744,-102.6552247909388,6,MB
2025-05-26 15:34:50.016,-0.0003002354753417,-100.19364831229808,6,MB
2025-05-26 15:34:50.024,-0.0003022428894622,-96.56902362194778,6,MB
2025-05-26 15:34:50.032,-0.0003024704108517,-91.86341530557874,6,MB
2025-05-26 15:34:50.040,-0.000301153876416,-86.18206310592441,6,MB
2025-05-26 15:34:50.047,-0.0002985765250309,-79.6501593807413,6,MB
2025-05-26 15:34:50.055,-0.0002950617843413,-72.40909300936448,6,MB
2025-05-26 15:34:50.063,-0.0002909638895585,-64.61229969080424,6,MB
2025-05-26 15:34:50.071,-0.0002866567139086,-56.42086751942287,6,MB
2025-05-26 15:34:50.079,-0.0002825212932934,-47.99904934587792,6,MB
2025-05-26 15:34:50.086,-0.0002789326026716,-39.50983006002213,6,MB
2025-05-26 15:34:50.094,-0.0002762461865124,-31.110688152914783,6,MB
2025-05-26 15:34:50.102,-0.0002747852588014,-22.949677499920583,6,MB
2025-05-26 15:34:50.110,-0.0002748288684907,-15.161938151460568,6,MB
2025-05-26 15:34:50.118,-0.0002766016735758,-7.866724981538259,6,MB
2025-05-26 15:34:50.125,-0.0002802657814484,-1.1650212999404124,6,MB
2025-05-26 15:34:50.133,-0.0002859149974263,4.862218073184622,6,MB
2025-05-26 15:34:50.141,-0.0002935716888647,10.155172362492728,6,MB
2025-05-26 15:34:50.149,-0.000303186343809,14.675608905786689,6,MB
2025-05-26 15:34:50.157,-0.0003146398050775,18.40670594370348,6,MB
2025-05-26 15:34:50.165,-0.0003277480931495,21.352282652641836,6,MB
2025-05-26 15:34:50.172,-0.0003422696705073,23.53549082238436,6,MB
2025-05-26 15:34:50.180,-0.0003579149221541,24.99703572217153,6,MB
2025-05-26 15:34:50.188,-0.0003743575234452,25.79300392029722,6,MB
2025-05-26 15:34:50.196,-0.0003912472462161,25.992383050078725,6,MB
2025-05-26 15:34:50.204,-0.0004082236422702,25.674362768341044,6,MB
2025-05-26 15:34:50.211,-0.0004249299645561,24.92550751890299,6,MB
2025-05-26 15:34:50.219,-0.0004410266439515,23.83689033404263,6,MB
2025-05-26 15:34:50.227,-0.0004562036227965,22.50127297118543,6,MB
2025-05-26 15:34:50.235,-0.0004701908653516,21.010411426788345,6,MB
2025-05-26 15:34:50.243,-0.0004827664556128,19.45255757660306,6,MB
2025-05-26 15:34:50.250,-0.0004937618730625,17.91021768860243,6,MB
2025-05-26 15:34:50.258,-0.0005030642787307,16.458217215592043,6,MB
2025-05-26 15:34:50.266,-0.0005106158944161,15.162109014331875,6,MB
2025-05-26 15:34:50.274,-0.0005164107770246,14.076949400609829,6,MB
2025-05-26 15:34:50.282,-0.0005204894601788,13.246453688761292,6,MB
2025-05-26 15:34:50.290,-0.0005229320505964,12.70253052316322,6,MB
2025-05-26 15:34:50.297,-0.0005238504249067,12.465182801291526,6,MB
2025-05-26 15:34:50.305,-0.0005233801731759,12.542752676573066,6,MB
2025-05-26 15:34:50.313,-0.0005216728799438,12.932479313038248,6,MB
2025-05-26 15:34:50.321,-0.0005188892253323,13.62133096464335,6,MB
2025-05-26 15:34:50.329,-0.0005151932343549,14.587067709088348,6,MB
2025-05-26 15:34:50.336,-0.0005107478197355,15.799487834730169,6,MB
2025-05-26 15:34:50.344,-0.0005057115920838,17.221809434719802,6,MB
2025-05-26 15:34:50.352,-0.0005002368032362,18.81213910095776,6,MB
2025-05-26 15:34:50.360,-0.0004944682689975,20.52498155256003,6,MB
2025-05-26 15:34:50.368,-0.0004885431541889,22.312747333317866,6,MB
2025-05-26 15:34:50.376,-0.0004825915271903,24.127220073913392,6,MB
2025-05-26 15:34:50.383,-0.0004767375560017,25.92094991248789,6,MB
2025-05-26 15:34:50.391,-0.0004711011353806,27.648545171364532,6,MB
2025-05-26 15:34:50.399,-0.000465799652996,29.26783998719517,6,MB
2025-05-26 15:34:50.407,-0.0004609495568945,30.740921017223272,6,MB
2025-05-26 15:34:50.415,-0.0004566673879178,32.03500138237096,6,MB
2025-05-26 15:34:50.422,-0.0004530699901313,33.12313450176123,6,MB
2025-05-26 15:34:50.430,-0.0004502736977086,33.98476431613376,6,MB
2025-05-26 15:34:50.438,-0.0004483923916007,34.60611152934509,6,MB
2025-05-26 15:34:50.446,-0.0004475344066173,34.980397908487745,6,MB
2025-05-26 15:34:50.454,-0.0004477983584644,35.10791241758882,6,MB
2025-05-26 15:34:50.461,-0.0004492680680118,34.99592410635398,6,MB
2025-05-26 15:34:50.469,-0.0004520068817615,34.6584473550278,6,MB
2025-05-26 15:34:50.477,-0.0004560517948265,34.115865429416914,6,MB
2025-05-26 15:34:50.485,-0.0004614078476833,33.394418476603526,6,MB
2025-05-26 15:34:50.493,-0.0004680432769033,32.525562245280604,6,MB
2025-05-26 15:34:50.501,-0.0004758858494282,31.54520409750156,6,MB
2025-05-26 15:34:50.508,-0.0004848207014802,30.492823438850387,6,MB
2025-05-26 15:34:50.516,-0.0004946898504775,29.41048466814578,6,MB
2025-05-26 15:34:50.524,-0.0005052933876901,28.341752250451517,6,MB
2025-05-26 15:34:50.532,-0.000516392240456,27.330519627698465,6,MB
2025-05-26 15:34:50.540,-0.0005277123408778,26.41976642885748,6,MB
2025-05-26 15:34:50.547,-0.000538950030378,25.650261793766767,6,MB
2025-05-26 15:34:50.555,-0.0005497785209988,25.059235483453463,6,MB
2025-05-26 15:34:50.563,-0.0005598552027139,24.67904265535664,6,MB
2025-05-26 15:34:50.571,-0.0005688295526422,24.535852517683924,6,MB
2025-05-26 15:34:50.579,-0.000576351409873,24.64839527491167,6,MB
2025-05-26 15:34:50.586,-0.0005820794411236,25.026805527390277,6,MB
2025-05-26 15:34:50.594,-0.0005856896915372,25.671603263319057,6,MB
2025-05-26 15:34:50.602,-0.0005868841309669,26.572855455777564,6,MB
2025-05-26 15:34:50.610,-0.0005853990596972,27.70956174822563,6,MB
2025-05-26 15:34:50.618,-0.0005810131660926,29.049306511203238,6,MB
2025-05-26 15:34:50.626,-0.0005735549594866,30.548216460089705,6,MB
2025-05-26 15:34:50.633,-0.0005629092380148,32.15125788050808,6,MB
2025-05-26 15:34:50.641,-0.0005490222078617,33.792900236414,6,MB
2025-05-26 15:34:50.649,-0.0005319048782021,35.398163552736506,6,MB
2025-05-26 15:34:50.657,-0.0005116344179624,36.88405558924601,6,MB
2025-05-26 15:34:50.665,-0.0004883532418032,38.16139168358266,6,MB
2025-05-26 15:34:50.672,-0.0004622656713315,39.13697558046258,6,MB
2025-05-26 15:34:50.680,-0.0004336321089938,39.71610403279535,6,MB
2025-05-26 15:34:50.688,-0.0004027607879395,39.80534201155619,6,MB
2025-05-26 15:34:50.696,-0.0003699973268681,39.31549963960268,6,MB
2025-05-26 15:34:50.704,-0.0003357125135325,38.164727202078254,6,MB
2025-05-26 15:34:50.711,-0.0003002889273487,36.28163159043971,6,MB
2025-05-26 15:34:50.719,-0.0002641071388248,33.60830716256951,6,MB
2025-05-26 15:34:50.727,-0.0002275322657543,30.10316709861398,6,MB
2025-05-26 15:34:50.735,-0.0001909016362384,25.743458687101626,6,MB
2025-05-26 15:34:50.743,-0.0001545142297599,20.52734824266122,6,MB
2025-05-26 15:34:50.751,-0.0001186224527068,14.475468986505575,6,MB
2025-05-26 15:34:50.758,-8.342665952293566e-05,7.6318383915369665,6,MB
2025-05-26 15:34:50.766,-4.907265961974989e-05,0.06407005186317,6,MB
2025-05-26 15:34:50.774,-1.56522584238401e-05,-8.137171430997517,6,MB
2025-05-26 15:34:50.782,1.6793324322396152e-05,-16.859496604017625,6,MB
2025-05-26 15:34:50.790,4.8267518943082256e-05,-25.970892108081603,6,MB
2025-05-26 15:34:50.797,7.881048509847433e-05,-35.32255836722665,6,MB
2025-05-26 15:34:50.805,0.0001084898504977,-44.75241423149095,6,MB
2025-05-26 15:34:50.813,0.0001373907952875,-54.08916868392421,6,MB
2025-05-26 15:34:50.821,0.0001656061489085,-63.156832842836565,6,MB
2025-05-26 15:34:50.829,0.0001932271085826,-71.7795232944801,6,MB
2025-05-26 15:34:50.836,0.0002203351184055,-79.78639155001858,6,MB
2025-05-26 15:34:50.844,0.0002469953698107,-87.01650513648433,6,MB
2025-05-26 15:34:50.852,0.0002732522780318,-93.3235041671981,6,MB
2025-05-26 15:34:50.860,0.0002991271457016,-98.57986345264908,6,MB
2025-05-26 15:34:50.868,0.0003246180633186,-102.68060412682826,6,MB
2025-05-26 15:34:50.876,0.0003497019434332,-105.54631975362236,6,MB
2025-05-26 15:34:50.883,0.0003743384557129,-107.125408913062,6,MB
2025-05-26 15:34:50.891,0.000398475529169,-107.39543797229358,6,MB
2025-05-26 15:34:50.899,0.0004220560187198,-106.3635924868813,6,MB
2025-05-26 15:34:50.907,0.0004450250978391,-104.06621167275264,6,MB
2025-05-26 15:34:50.915,0.0004673379364373,-100.5674358327492,6,MB
2025-05-26 15:34:50.922,0.0004889672433701,-95.95702980664508,6,MB
2025-05-26 15:34:50.930,0.0005099102724204,-90.34747493413995,6,MB
2025-05-26 15:34:50.938,0.0005301948859485,-83.87044645624624,6,MB
2025-05-26 15:34:50.946,0.0005498842439163,-76.6728118529309,6,MB
2025-05-26 15:34:50.954,0.0005690796719506,-68.91229781322512,6,MB
2025-05-26 15:34:50.961,0.0005879213075344,-60.75297921187244,6,MB
2025-05-26 15:34:50.969,0.0006065862585121,-52.360742814797305,6,MB
2025-05-26 15:34:50.977,0.0006252842190264,-43.89887193940425,6,MB
2025-05-26 15:34:50.985,0.000644250714022,-35.52388667717741,6,MB
2025-05-26 15:34:50.993,0.0006637383182459,-27.381758435928777,6,MB
2025-05-26 15:34:51.001,0.0006840063018325,-19.604598465897308,6,MB
2025-05-26 15:34:51.008,0.0007053092225429,-12.307898719551764,6,MB
2025-05-26 15:34:51.016,0.0007278850346461,-5.588380858299599,6,MB
2025-05-26 15:34:51.024,0.0007519433008443,0.4775136089276429,6,MB
2025-05-26 15:34:51.032,0.0007776540634782,5.834481357574994,6,MB
2025-05-26 15:34:51.040,0.000805137868752,10.448573781326449,6,MB
2025-05-26 15:34:51.047,0.0008344573643475,14.306801538707452,6,MB
2025-05-26 15:34:51.055,0.0008656108166368,17.41617349167686,6,MB
2025-05-26 15:34:51.063,0.0008985278202805,19.80223063877548,6,MB
2025-05-26 15:34:51.071,0.0009330673999172,21.507147007639777,6,MB
2025-05-26 15:34:51.079,0.0009690186302312,22.58747786934664,6,MB
2025-05-26 15:34:51.086,0.0010061038261581,23.11164107247626,6,MB
2025-05-26 15:34:51.094,0.0010439842785941,23.157219859933576,6,MB
2025-05-26 15:34:51.102,0.0010822684320882,22.80817538142498,6,MB
2025-05-26 15:34:51.110,0.0011205223192874,22.15205444224215,6,MB
2025-05-26 15:34:51.118,0.0011582819824219,21.277273056154822,6,MB
2025-05-26 15:34:51.126,0.0011950675253871,20.27054935097504,6,MB
2025-05-26 15:34:51.133,0.0012303983521114,19.214550602849577,6,MB
2025-05-26 15:34:51.141,0.0012638090595721,18.18580898080787,6,MB
2025-05-26 15:34:51.149,0.0012948653693562,17.252949331017845,6,MB
2025-05-26 15:34:51.157,0.0013231794045682,16.475260412722314,6,MB
2025-05-26 15:34:51.165,0.0013484235622718,15.90162882401724,6,MB
2025-05-26 15:34:51.172,0.0013703422199574,15.56984283183343,6,MB
2025-05-26 15:34:51.180,0.0013887605646995,15.506261827583852,6,MB
2025-05-26 15:34:51.188,0.0014035899349261,15.725836507206678,6,MB
2025-05-26 15:34:51.196,0.0014148292033176,16.232455412498823,6,MB
2025-05-26 15:34:51.204,0.0014225619247177,17.019585409520786,6,MB
2025-05-26 15:34:51.211,0.0014269492475506,18.071167205132063,6,MB
2025-05-26 15:34:51.219,0.0014282189102165,19.36272223978831,6,MB
2025-05-26 15:34:51.227,0.0014266509467084,20.86262430222173,6,MB
2025-05-26 15:34:51.235,0.0014225609597336,22.53348797899797,6,MB
2025-05-26 15:34:51.243,0.0014162819678695,24.333626501816173,6,MB
2025-05-26 15:34:51.251,0.0014081458912051,26.21853354741201,6,MB
2025-05-26 15:34:51.258,0.001398465717076,28.14234688097553,6,MB
2025-05-26 15:34:51.266,0.0013875193104546,30.059256168265783,6,MB
2025-05-26 15:34:51.274,0.0013755357268397,31.924822533719915,6,MB
2025-05-26 15:34:51.282,0.0013626847512007,33.69718320920977,6,MB
2025-05-26 15:34:51.290,0.0013490701994615,35.338120589032485,6,MB
2025-05-26 15:34:51.297,0.001334727250501,36.81398088030773,6,MB
2025-05-26 15:34:51.305,0.001319623744676,38.09643304827391,6,MB
2025-05-26 15:34:51.313,0.0013036650681528,39.16306369066505,6,MB
2025-05-26 15:34:51.321,0.0012867020189163,39.99780768179046,6,MB
2025-05-26 15:34:51.329,0.001268540936182,40.59121780988978,6,MB
2025-05-26 15:34:51.336,0.0012489553381516,40.94057915009424,6,MB
2025-05-26 15:34:51.344,0.0012276983223562,41.04987558298244,6,MB
2025-05-26 15:34:51.352,0.0012045150251603,40.92961675072541,6,MB
2025-05-26 15:34:51.360,0.0011791545083201,40.59653395300013,6,MB
2025-05-26 15:34:51.368,0.0011513805378295,40.07315317896454,6,MB
2025-05-26 15:34:51.376,0.0011209808401829,39.38725283870821,6,MB
2025-05-26 15:34:51.383,0.0010877745597877,38.57121300966701,6,MB
2025-05-26 15:34:51.391,0.0010516177944038,37.66126237249189,6,MB
2025-05-26 15:34:51.399,0.0010124072471141,36.69662869310893,6,MB
2025-05-26 15:34:51.407,0.0009700821875274,35.71859890642481,6,MB
2025-05-26 15:34:51.415,0.0009246250266387,34.76949572561683,6,MB
2025-05-26 15:34:51.422,0.000876060840804,33.89157933841417,6,MB
2025-05-26 15:34:51.430,0.000824456129622,33.125885192765,6,MB
2025-05-26 15:34:51.438,0.0007699170012962,32.51101208181949,6,MB
2025-05-26 15:34:51.446,0.0007125868865611,32.08187860204882,6,MB
2025-05-26 15:34:51.454,0.0006526438114756,31.86847040043191,6,MB
2025-05-26 15:34:51.461,0.000590297237097,31.894605212243587,6,MB
2025-05-26 15:34:51.469,0.0005257845071126,32.17674724207584,6,MB
2025-05-26 15:34:51.477,0.0004593669853992,32.72290664819361,6,MB
2025-05-26 15:34:51.485,0.0003913259564082,33.53166342528773,6,MB
2025-05-26 15:34:51.493,0.0003219583047433,34.5913575074098,6,MB
2025-05-26 15:34:51.501,0.0002515719440695,35.879488103771074,6,MB
2025-05-26 15:34:51.508,0.0001804809753078,37.362364830900425,6,MB
2025-05-26 15:34:51.516,0.0001090006079231,38.99505084993298,6,MB
2025-05-26 15:34:51.524,3.744192945333152e-05,40.72163374984002,6,MB
2025-05-26 15:34:51.532,-3.389336833291377e-05,42.47585320846935,6,MB
2025-05-26 15:34:51.540,-0.0001047181922041,44.182105486618056,6,MB
2025-05-26 15:34:51.547,-0.000174765056407,45.75683365688708,6,MB
2025-05-26 15:34:51.555,-0.0002437907568874,47.1102993573279,6,MB
2025-05-26 15:34:51.563,-0.0003115805431943,48.14871713863469,6,MB
2025-05-26 15:34:51.571,-0.0003779515904275,48.77671661861193,6,MB
2025-05-26 15:34:51.579,-0.0004427555540312,48.90008126434981,6,MB
2025-05-26 15:34:51.586,-0.0005058800063027,48.4286963932259,6,MB
2025-05-26 15:34:51.594,-0.0005672486210723,47.2796237082955,6,MB
2025-05-26 15:34:51.602,-0.0006268200705073,45.38020621525086,6,MB
2025-05-26 15:34:51.610,-0.0006845856800482,42.67109659259733,6,MB
2025-05-26 15:34:51.618,-0.0007405659322623,39.10909487541658,6,MB
2025-05-26 15:34:51.626,-0.0007948059333861,34.669678459435964,6,MB
2025-05-26 15:34:51.633,-0.0008473699819986,29.34910957905501,6,MB
2025-05-26 15:34:51.641,-0.0008983354205888,23.16601298379804,6,MB
2025-05-26 15:34:51.649,-0.0009477860118712,16.162329676827422,6,MB
2025-05-26 15:34:51.657,-0.0009958051625106,8.403571106584264,6,MB
2025-05-26 15:34:51.665,-0.0010424694066456,-0.0216784109389539,6,MB
2025-05-26 15:34:51.672,-0.0010878426277369,-9.003035886774219,6,MB
2025-05-26 15:34:51.680,-0.001131971494912,-18.41036512101292,6,MB
2025-05-26 15:34:51.688,-0.001174882499399,-28.096556455678584,6,MB
2025-05-26 15:34:51.696,-0.0012165808268122,-37.90097231709164,6,MB
2025-05-26 15:34:51.704,-0.0012570511441442,-47.65346021062498,6,MB
2025-05-26 15:34:51.711,-0.0012962602458848,-57.17880823489988,6,MB
2025-05-26 15:34:51.719,-0.0013341613796457,-66.30149625663218,6,MB
2025-05-26 15:34:51.727,-0.0013706999309369,-74.85057986243567,6,MB
2025-05-26 15:34:51.735,-0.0014058199955209,-82.66453503870822,6,MB
2025-05-26 15:34:51.743,-0.0014394712503,-89.5958898446274,6,MB
2025-05-26 15:34:51.751,-0.001471615480159,-95.51547536074156,6,MB
2025-05-26 15:34:51.758,-0.0015022321208821,-100.31614171327534,6,MB
2025-05-26 15:34:51.766,-0.0015313222292703,-103.91580536225788,6,MB
2025-05-26 15:34:51.774,-0.0015589104058502,-106.25972008383826,6,MB
2025-05-26 15:34:51.782,-0.0015850443826543,-107.32189484138718,6,MB
2025-05-26 15:34:51.790,-0.0016097922228749,-107.1056154649216,6,MB
2025-05-26 15:34:51.797,-0.0016332373107112,-105.64306205251935,6,MB
2025-05-26 15:34:51.805,-0.001655471499888,-102.99404855731056,6,MB
2025-05-26 15:34:51.813,-0.001676586925459,-99.24394350333634,6,MB
2025-05-26 15:34:51.821,-0.0016966670646048,-94.5008597411666,6,MB
2025-05-26 15:34:51.829,-0.0017157776671325,-88.89222542753492,6,MB
2025-05-26 15:34:51.836,-0.0017339581902548,-82.56086712368484,6,MB
2025-05-26 15:34:51.844,-0.001751214380592,-75.660748530726,6,MB
2025-05-26 15:34:51.852,-0.0017675126271868,-68.35251474304873,6,MB
2025-05-26 15:34:51.860,-0.0017827766217942,-60.79899215524505,6,MB
2025-05-26 15:34:51.868,-0.0017968866910305,-53.16078873760108,6,MB
2025-05-26 15:34:51.876,-0.0018096819386559,-45.59212895738773,6,MB
2025-05-26 15:34:51.883,-0.0018209651096114,-38.23704298636278,6,MB
2025-05-26 15:34:51.891,-0.0018305098951734,-31.226011914819548,6,MB
2025-05-26 15:34:51.899,-0.0018380702368793,-24.67315044262623,6,MB
2025-05-26 15:34:51.907,-0.0018433910428073,-18.673986878907414,6,MB
2025-05-26 15:34:51.915,-0.0018462196129017,-13.303878142536544,6,MB
2025-05-26 15:34:51.922,-0.0018463170088502,-8.617075620131729,6,MB
2025-05-26 15:34:51.930,-0.0018434686254236,-4.646436905916816,6,MB
2025-05-26 15:34:51.938,-0.0018374933272981,-1.40375919743403,6,MB
2025-05-26 15:34:51.946,-0.0018282506776452,1.1193070969717338,6,MB
2025-05-26 15:34:51.954,-0.0018156459634838,2.9498208455803696,6,MB
2025-05-26 15:34:51.961,-0.0017996329050364,4.131657380414009,6,MB
2025-05-26 15:34:51.969,-0.0017802141223755,4.72323860562279,6,MB
2025-05-26 15:34:51.977,-0.0017574395983734,4.79497113636128,6,MB
2025-05-26 15:34:51.985,-0.001731403486101,4.426481738536388,6,MB
2025-05-26 15:34:51.993,-0.0017022396613343,3.7037408172248,6,MB
2025-05-26 15:34:52.001,-0.0016701164463717,2.716163575647312,6,MB
2025-05-26 15:34:52.008,-0.0016352309327171,1.5537748591693283,6,MB
2025-05-26 15:34:52.016,-0.0015978032766025,0.3045177796336671,6,MB
2025-05-26 15:34:52.024,-0.0015580712201347,-0.9482217922357496,6,MB
2025-05-26 15:34:52.032,-0.0015162849339458,-2.127812596505376,6,MB
2025-05-26 15:34:52.040,-0.001472702138734,-3.1662462459405027,6,MB
2025-05-26 15:34:52.047,-0.0014275833847383,-4.005637821160716,6,MB
2025-05-26 15:34:52.055,-0.0013811873582557,-4.599333353270679,6,MB
2025-05-26 15:34:52.063,-0.001333766123743,-4.912612126384339,6,MB
2025-05-26 15:34:52.071,-0.0012855602760602,-4.922984924746233,6,MB
2025-05-26 15:34:52.079,-0.0012367940508267,-4.620101912149845,6,MB
2025-05-26 15:34:52.086,-0.0011876704987422,-4.005295350325159,6,MB
2025-05-26 15:34:52.094,-0.001138366859248,-3.090792470651704,6,MB
2025-05-26 15:34:52.102,-0.0010890302922117,-1.8986422061977797,6,MB
2025-05-26 15:34:52.110,-0.0010397741785321,-0.4594059421512919,6,MB
2025-05-26 15:34:52.118,-0.0009906752714228,1.1893331854923204,6,MB
2025-05-26 15:34:52.126,-0.0009417720095964,3.0045856635571777,6,MB
2025-05-26 15:34:52.133,-0.0008930642475486,4.939638693105115,6,MB
2025-05-26 15:34:52.141,-0.0008445145325149,6.945751815220923,6,MB
2025-05-26 15:34:52.149,-0.0007960509117966,8.973813406431413,6,MB
2025-05-26 15:34:52.157,-0.0007475711266155,10.975911385983204,6,MB
2025-05-26 15:34:52.165,-0.0006989479562119,12.906777664268516,6,MB
2025-05-26 15:34:52.172,-0.0006500354241681,14.72507288647078,6,MB
2025-05-26 15:34:52.180,-0.000600675568867,16.39448552728452,6,MB
2025-05-26 15:34:52.188,-0.0005507055029125,17.88462701011145,6,MB
2025-05-26 15:34:52.196,-0.00049996451953,19.171711918397936,6,MB
2025-05-26 15:34:52.204,-0.0004483010245389,20.239019246540533,6,MB
2025-05-26 15:34:52.211,-0.0003955790810578,21.077136778901195,6,MB
2025-05-26 15:34:52.219,-0.0003416843731286,21.683995937622072,6,MB
2025-05-26 15:34:52.227,-0.0002865294380566,22.06470872513557,6,MB
2025-05-26 15:34:52.235,-0.0002300580727993,22.231221696855847,6,MB
2025-05-26 15:34:52.243,-0.0001722488644768,22.201804289128148,6,MB
2025-05-26 15:34:52.251,-0.000113117819831,22.00039040502061,6,MB
2025-05-26 15:34:52.258,-5.272007466157354e-05,21.655793067048425,6,MB
2025-05-26 15:34:52.266,8.849345889329197e-06,21.20081233646998,6,MB
2025-05-26 15:34:52.274,7.145575925582092e-05,20.6712567303318,6,MB
2025-05-26 15:34:52.282,0.0001349260846117,20.10489819386404,6,MB
2025-05-26 15:34:52.290,0.0001990511193678,19.54038045344942,6,MB
2025-05-26 15:34:52.297,0.0002635887554121,19.016100411653884,6,MB
2025-05-26 15:34:52.305,0.0003282680002622,18.56908224191196,6,MB
2025-05-26 15:34:52.313,0.0003927936528498,18.23386403861348,6,MB
2025-05-26 15:34:52.321,0.0004568515221001,18.04141727334426,6,MB
2025-05-26 15:34:52.329,0.0005201141449331,18.01811985877432,6,MB
2025-05-26 15:34:52.336,0.000582247009685,18.18480426015558,6,MB
2025-05-26 15:34:52.344,0.0006429152943094,18.5559027271978,6,MB
2025-05-26 15:34:52.352,0.0007017910986882,19.138712226407723,6,MB
2025-05-26 15:34:52.360,0.0007585610995976,19.93280189200996,6,MB
2025-05-26 15:34:52.368,0.000812934474747,20.929585621132127,6,MB
2025-05-26 15:34:52.376,0.0008646508231538,22.112081645136254,6,MB
2025-05-26 15:34:52.383,0.0009134876816023,23.454879341972237,6,MB
2025-05-26 15:34:52.391,0.0009592671517125,24.92433105454313,6,MB
2025-05-26 15:34:52.399,0.0010018611391493,26.478983117208895,6,MB
2025-05-26 15:34:52.407,0.0010411947559769,28.07025558196741,6,MB
2025-05-26 15:34:52.415,0.0010772475276126,29.643374247829914,6,MB
2025-05-26 15:34:52.422,0.0011100521692086,31.13855156343592,6,MB
2025-05-26 15:34:52.430,0.0011396908501167,32.49240489579709,6,MB
2025-05-26 15:34:52.438,0.0011662890458975,33.63959171618507,6,MB
2025-05-26 15:34:52.446,0.001190007282338,34.51463170558284,6,MB
2025-05-26 15:34:52.454,0.0012110312899364,35.05387596007401,6,MB
2025-05-26 15:34:52.461,0.0012295612717877,35.19757378481346,6,MB
2025-05-26 15:34:52.469,0.0012458010936609,34.89197847405183,6,MB
2025-05-26 15:34:52.477,0.0012599481988576,34.09142551198719,6,MB
2025-05-26 15:34:52.485,0.0012721849351114,32.76031036051927,6,MB
2025-05-26 15:34:52.493,0.0012826717955627,30.87488900049405,6,MB
2025-05-26 15:34:52.501,0.0012915428751801,28.424823220595577,6,MB
2025-05-26 15:34:52.508,0.0012989036695592,25.414394814176948,6,MB
2025-05-26 15:34:52.516,0.0013048312042202,21.86331876826689,6,MB
2025-05-26 15:34:52.524,0.0013093763627668,17.807095469488054,6,MB
2025-05-26 15:34:52.532,0.0013125681641437,13.296855931841804,6,MB
2025-05-26 15:34:52.540,0.001314419619897,8.398671799207634,6,MB
2025-05-26 15:34:52.547,0.0013149346953882,3.192322793648052,6,MB
2025-05-26 15:34:52.555,0.001314115830632,-2.230462548905104,6,MB
2025-05-26 15:34:52.563,0.0013119714637287,-7.768252789976158,6,MB
2025-05-26 15:34:52.571,0.0013085230236315,-13.312582207338878,6,MB
2025-05-26 15:34:52.579,0.0013038108843889,-18.75095615889852,6,MB
2025-05-26 15:34:52.586,0.0012978988012222,-23.97008852741682,6,MB
2025-05-26 15:34:52.594,0.0012908764170067,-28.85925250860186,6,MB
2025-05-26 15:34:52.602,0.001282859557147,-33.313617590483794,6,MB
2025-05-26 15:34:52.610,0.0012739882063513,-37.23744347808455,6,MB
2025-05-26 15:34:52.618,0.0012644222558434,-40.54700617704614,6,MB
2025-05-26 15:34:52.626,0.0012543352999902,-43.17314224195259,6,MB
2025-05-26 15:34:52.633,0.0012439069182643,-45.06331366620454,6,MB
2025-05-26 15:34:52.641,0.0012333139756906,-46.18311702337799,6,MB
2025-05-26 15:34:52.649,0.0012227215110317,-46.51718498184002,6,MB
2025-05-26 15:34:52.657,0.0012122737786661,-46.06945476118757,6,MB
2025-05-26 15:34:52.665,0.0012020859821232,-44.86280498008006,6,MB
2025-05-26 15:34:52.672,0.0011922371754296,-42.93808820441655,6,MB
2025-05-26 15:34:52.680,0.0011827647045839,-40.352610028607415,6,MB
2025-05-26 15:34:52.688,0.0011736604412355,-37.17812562124699,6,MB
2025-05-26 15:34:52.696,0.0011648689645927,-33.49844053151722,6,MB
2025-05-26 15:34:52.704,0.0011562877794487,-29.40671368594899,6,MB
2025-05-26 15:34:52.711,0.0011477695847067,-25.002566724006517,6,MB
2025-05-26 15:34:52.719,0.0011391265094923,-20.38910524318401,6,MB
2025-05-26 15:34:52.727,0.0011301361295759,-15.669954531587882,6,MB
2025-05-26 15:34:52.735,0.0011205489907084,-10.946405546726396,6,MB
2025-05-26 15:34:52.743,0.0011100973110625,-6.314756979506799,6,MB
2025-05-26 15:34:52.751,0.0010985045166853,-1.8639270138733235,6,MB
2025-05-26 15:34:52.758,0.0010854952818416,2.3266053561462985,6,MB
2025-05-26 15:34:52.766,0.0010708057897053,6.188484129970068,6,MB
2025-05-26 15:34:52.774,0.0010541939656902,9.66575460211736,6,MB
2025-05-26 15:34:52.782,0.0010354494227613,12.71571988401417,6,MB
2025-05-26 15:34:52.790,0.0010144027855751,15.30937296181104,6,MB
2025-05-26 15:34:52.797,0.0009909339781792,17.43141416339668,6,MB
2025-05-26 15:34:52.805,0.0009649790336043,19.079875233277217,6,MB
2025-05-26 15:34:52.813,0.0009365350278099,20.26538118022637,6,MB
2025-05-26 15:34:52.821,0.0009056628236075,21.010089587816807,6,MB
2025-05-26 15:34:52.829,0.0008724874126793,21.3463541048337,6,MB
2025-05-26 15:34:52.836,0.0008371957779408,21.315164311880025,6,MB
2025-05-26 15:34:52.844,0.0008000323737832,20.964418045866072,6,MB
2025-05-26 15:34:52.852,0.0007612925119649,20.347084517768455,6,MB
2025-05-26 15:34:52.860,0.0007213140898516,19.519317159774825,6,MB
2025-05-26 15:34:52.868,0.0006804681585723,18.5385740888044,6,MB
2025-05-26 15:34:52.876,0.000639148801662,17.461801414186663,6,MB
2025-05-26 15:34:52.883,0.0005977627204749,16.343730437554772,6,MB
2025-05-26 15:34:52.891,0.0005567188397473,15.235334236234308,6,MB
2025-05-26 15:34:52.899,0.0005164181709021,14.18248238015637,6,MB
2025-05-26 15:34:52.907,0.0004772441088227,13.224824842453328,6,MB
2025-05-26 15:34:52.915,0.0004395532956855,12.39492779880273,6,MB
2025-05-26 15:34:52.922,0.0004036671643291,11.717675270246689,6,MB
2025-05-26 15:34:52.930,0.0003698642736425,11.209941756696786,6,MB
2025-05-26 15:34:52.938,0.0003383735619329,10.880532428804315,6,MB
2025-05-26 15:34:52.946,0.0003093686480277,10.730379362770163,6,MB
2025-05-26 15:34:52.954,0.0002829632890315,10.752974955339225,6,MB
2025-05-26 15:34:52.961,0.0002592080731778,10.935017256844358,6,MB
2025-05-26 15:34:52.969,0.0002380884093726,11.257236689910672,6,MB
2025-05-26 15:34:52.977,0.0002195238797397,11.695369618608485,6,MB
2025-05-26 15:34:52.985,0.000203369046559,12.221241578889202,6,MB
2025-05-26 15:34:52.993,0.0001894158402467,12.803921692932237,6,MB
2025-05-26 15:34:53.001,0.0001773976735491,13.410909822396675,6,MB
2025-05-26 15:34:53.008,0.0001669954027135,14.009319270046465,6,MB
2025-05-26 15:34:53.016,0.0001578451808321,14.567020173077609,6,MB
2025-05-26 15:34:53.024,0.0001495481239426,15.053711966428232,6,MB
2025-05-26 15:34:53.032,0.0001416815508198,15.441897228098892,6,MB
2025-05-26 15:34:53.040,0.0001338114012129,15.707733638898494,6,MB
2025-05-26 15:34:53.047,0.0001255053282717,15.831745487058022,6,MB
2025-05-26 15:34:53.055,0.0001163459138194,15.799380928117015,6,MB
2025-05-26 15:34:53.063,0.0001059434601459,15.601405898071343,6,MB
2025-05-26 15:34:53.071,9.394786116712378e-05,15.234130026852773,6,MB
2025-05-26 15:34:53.079,8.005913845943157e-05,14.699463998803685,6,MB
2025-05-26 15:34:53.086,6.403631137875773e-05,14.004811489554324,6,MB
2025-05-26 15:34:53.094,4.570432003144319e-05,13.162802057287092,6,MB
2025-05-26 15:34:53.102,2.4958737758165977e-05,12.190874210070255,6,MB
2025-05-26 15:34:53.110,1.7680359351062703e-06,11.11072037039527,6,MB
2025-05-26 15:34:53.118,-2.3826766612767372e-05,9.947607685492184,6,MB
2025-05-26 15:34:53.126,-5.1715121684683775e-05,8.729590655736654,6,MB
2025-05-26 15:34:53.133,-8.172254764867504e-05,7.486633430001754,6,MB
2025-05-26 15:34:53.141,-0.0001136185684401,6.249661388379308,6,MB
2025-05-26 15:34:53.149,-0.0001471266235613,5.049563325314418,6,MB
2025-05-26 15:34:53.157,-0.0001819354493741,3.916167164734324,6,MB
2025-05-26 15:34:53.165,-0.0002177113236172,2.8772136596442794,6,MB
2025-05-26 15:34:53.172,-0.0002541105000761,1.9573538944720608,6,MB
2025-05-26 15:34:53.180,-0.0002907911599647,1.1771975285900664,6,MB
2025-05-26 15:34:53.188,-0.0003274242772095,0.5524394776474267,6,MB
2025-05-26 15:34:53.196,-0.0003637029308724,0.0930929937883343,6,MB
2025-05-26 15:34:53.204,-0.0003993497805066,-0.1971432619887235,6,MB
2025-05-26 15:34:53.211,-0.0004341226079315,-0.3213576987937463,6,MB
2025-05-26 15:34:53.219,-0.0004678179676449,-0.289713398142701,6,MB
2025-05-26 15:34:53.227,-0.0005002730487745,-0.1195294276768453,6,MB
2025-05-26 15:34:53.235,-0.0005313658538864,0.1648614832961226,6,MB
2025-05-26 15:34:53.243,-0.0005610137891364,0.5324911301103037,6,MB
2025-05-26 15:34:53.251,-0.0005891707688277,0.9463759415873964,6,MB
2025-05-26 15:34:53.258,-0.0006158229746454,1.3643779465918917,6,MB
2025-05-26 15:34:53.266,-0.0006409834659158,1.7402975729225898,6,MB
2025-05-26 15:34:53.274,-0.0006646858886588,2.0251806417976934,6,MB
2025-05-26 15:34:53.282,-0.0006869775610827,2.1688129011611665,6,MB
2025-05-26 15:34:53.290,-0.0007079122329904,2.121366312699012,6,MB
2025-05-26 15:34:53.297,-0.0007275428478017,1.8351524293685924,6,MB
2025-05-26 15:34:53.305,-0.0007459146750201,1.2664299855819383,6,MB
2025-05-26 15:34:53.313,-0.0007630592027612,0.3772067283668002,6,MB
2025-05-26 15:34:53.321,-0.0007789891612949,-0.8630299685964647,6,MB
2025-05-26 15:34:53.329,-0.0007936949790332,-2.4757225484552405,6,MB
2025-05-26 15:34:53.336,-0.0008071428613097,-4.4718624105247065,6,MB
2025-05-26 15:34:53.344,-0.0008192745566648,-6.8508861711985904,6,MB
2025-05-26 15:34:53.352,-0.0008300087610266,-9.599910923093658,6,MB
2025-05-26 15:34:53.360,-0.0008392440195699,-12.69336130944852,6,MB
2025-05-26 15:34:53.368,-0.0008468629225156,-16.093028688410346,6,MB
2025-05-26 15:34:53.376,-0.0008527373555207,-19.748586908949235,6,MB
2025-05-26 15:34:53.383,-0.0008567345574968,-23.598570799500948,6,MB
2025-05-26 15:34:53.391,-0.0008587237560715,-27.571803196424028,6,MB
2025-05-26 15:34:53.399,-0.0008585831819664,-31.589235267462072,6,MB
2025-05-26 15:34:53.407,-0.0008562072835087,-35.56614424915175,6,MB
2025-05-26 15:34:53.415,-0.0008515139455656,-39.41461383546315,6,MB
2025-05-26 15:34:53.422,-0.0008444514555928,-43.04620661658474,6,MB
2025-05-26 15:34:53.430,-0.0008350048669372,-46.37472630562845,6,MB
2025-05-26 15:34:53.438,-0.0008232013223724,-49.31896087482147,6,MB
2025-05-26 15:34:53.446,-0.0008091138765882,-51.80529667296222,6,MB
2025-05-26 15:34:53.454,-0.0007928634340727,-53.77009824696452,6,MB
2025-05-26 15:34:53.461,-0.0007746185736189,-55.161758684785056,6,MB
2025-05-26 15:34:53.469,-0.0007545931990401,-55.94234021064087,6,MB
2025-05-26 15:34:53.477,-0.0007330421012344,-56.08874355668645,6,MB
2025-05-26 15:34:53.485,-0.0007102546446078,-55.59336613147035,6,MB
2025-05-26 15:34:53.493,-0.0006865469083438,-54.46423188996183,6,MB
2025-05-26 15:34:53.501,-0.0006622527030802,-52.72459873901634,6,MB
2025-05-26 15:34:53.508,-0.0006377139218202,-50.41207101497681,6,MB
2025-05-26 15:34:53.516,-0.0006132706686302,-47.57726393317018,6,MB
2025-05-26 15:34:53.524,-0.0005892515625412,-44.28208304119522,6,MB
2025-05-26 15:34:53.532,-0.0005659645604184,-40.59769398667329,6,MB
2025-05-26 15:34:53.540,-0.0005436885915346,-36.60226600554317,6,MB
2025-05-26 15:34:53.547,-0.0005226662496068,-32.378576406317464,6,MB
2025-05-26 15:34:53.555,-0.0005030977443172,-28.01156318203989,6,MB
2025-05-26 15:34:53.563,-0.0004851362725157,-23.58590914819261,6,MB
2025-05-26 15:34:53.571,-0.0004688849276351,-19.183734264138483,6,MB
2025-05-26 15:34:53.579,-0.0004543952223013,-14.882463732275296,6,MB
2025-05-26 15:34:53.586,-0.0004416672514911,-10.752928802815664,6,MB
2025-05-26 15:34:53.594,-0.0004306514696979,-6.857745632402291,6,MB
2025-05-26 15:34:53.602,-0.0004212519933638,-3.2500056590934947,6,MB
2025-05-26 15:34:53.610,-0.00041333126764,0.0277007408865605,6,MB
2025-05-26 15:34:53.618,-0.0004067158530833,2.943916690092432,6,MB
2025-05-26 15:34:53.626,-0.0004012029942041,5.4786070588165385,6,MB
2025-05-26 15:34:53.633,-0.0003965675392378,7.623111657671959,6,MB
2025-05-26 15:34:53.641,-0.0003925687219696,9.37978093805187,6,MB
2025-05-26 15:34:53.649,-0.0003889563367823,10.761319209211925,6,MB
2025-05-26 15:34:53.657,-0.0003854759567838,11.789866838373426,6,MB
2025-05-26 15:34:53.665,-0.0003818730324142,12.49585835818079,6,MB
2025-05-26 15:34:53.672,-0.0003778959097257,12.916697829071197,6,MB
2025-05-26 15:34:53.680,-0.0003732979817628,13.095296137185018,6,MB
2025-05-26 15:34:53.688,-0.0003678393137502,13.078517081837878,6,MB
2025-05-26 15:34:53.696,-0.0003612881554775,12.915580048769865,6,MB
2025-05-26 15:34:53.704,-0.0003534227685531,12.656466720261246,6,MB
2025-05-26 15:34:53.711,-0.0003440339505822,12.35037761819129,6,MB
2025-05-26 15:34:53.719,-0.0003329285336837,12.044281337120385,6,MB
2025-05-26 15:34:53.727,-0.0003199339759254,11.781595183691843,6,MB
2025-05-26 15:34:53.735,-0.0003049039680356,11.60103073266706,6,MB
2025-05-26 15:34:53.743,-0.0002877247836747,11.53563172076275,6,MB
2025-05-26 15:34:53.751,-0.0002683219623186,11.612024943353214,6,MB
2025-05-26 15:34:53.758,-0.0002466668574579,11.849897635140932,6,MB
2025-05-26 15:34:53.766,-0.0002227825889556,12.261707456443764,6,MB
2025-05-26 15:34:53.774,-0.0001967489617652,12.85262392971437,6,MB
2025-05-26 15:34:53.782,-0.0001687059228128,13.620693230455428,6,MB
2025-05-26 15:34:53.790,-0.0001388551244752,14.557211868720987,6,MB
2025-05-26 15:34:53.797,-0.0001074591791576,15.647289203542648,6,MB
2025-05-26 15:34:53.805,-7.483827150684751e-05,16.870574070827818,6,MB
2025-05-26 15:34:53.813,-4.136396401218504e-05,18.202117188225383,6,MB
2025-05-26 15:34:53.821,-7.450260447783495e-06,19.613338494947914,6,MB
2025-05-26 15:34:53.829,2.645777318133393e-05,21.073067207174702,6,MB
2025-05-26 15:34:53.837,5.98973293197936e-05,22.548622083726897,6,MB
2025-05-26 15:34:53.844,9.240247159887508e-05,24.006900117735185,6,MB
2025-05-26 15:34:53.852,0.0001235193011391,25.41544347804118,6,MB
2025-05-26 15:34:53.860,0.0001528209127874,26.743456873830212,6,MB
2025-05-26 15:34:53.868,0.0001799214169301,27.96275044205666,6,MB
2025-05-26 15:34:53.876,0.0002044883969708,29.04858657935115,6,MB
2025-05-26 15:34:53.883,0.0002262532985239,29.98041267397308,6,MB
2025-05-26 15:34:53.891,0.0002450193780341,30.74246526532728,6,MB
2025-05-26 15:34:53.899,0.0002606669650773,31.32423461956098,6,MB
2025-05-26 15:34:53.907,0.0002731559136517,31.720781946355785,6,MB
2025-05-26 15:34:53.915,0.0002825252335515,31.93290442401201,6,MB
2025-05-26 15:34:53.922,0.0002888900121774,31.967145823361403,6,MB
2025-05-26 15:34:53.930,0.0002924358734712,31.835652846255027,6,MB
2025-05-26 15:34:53.938,0.0002934113641396,31.555879379412577,6,MB
2025-05-26 15:34:53.946,0.0002921187699251,31.150142795027524,6,MB
2025-05-26 15:34:53.954,0.0002889039140984,30.645038307304816,6,MB
2025-05-26 15:34:53.962,0.0002841454691224,30.07071932457237,6,MB
2025-05-26 15:34:53.969,0.0002782442251235,29.46005381677475,6,MB
2025-05-26 15:34:53.977,0.0002716126217679,28.84766902335981,6,MB
2025-05-26 15:34:53.985,0.0002646647039274,28.26889939919215,6,MB
2025-05-26 15:34:53.993,0.0002578065513904,27.758655541036934,6,MB
2025-05-26 15:34:54.001,0.0002514271745783,27.35023492435872,6,MB
2025-05-26 15:34:54.008,0.0002458898522773,27.074098548588967,6,MB
2025-05-26 15:34:54.016,0.0002415239071317,26.95664094507197,6,MB
2025-05-26 15:34:54.024,0.0002386169681306,27.018984314656937,6,MB
2025-05-26 15:34:54.032,0.0002374078431829,27.275830661363837,6,MB
2025-05-26 15:34:54.040,0.0002380801931957,27.73440846979228,6,MB
2025-05-26 15:34:54.047,0.000240757237421,28.39355250418187,6,MB
2025-05-26 15:34:54.055,0.0002454977241086,29.242956434311203,6,MB
2025-05-26 15:34:54.063,0.0002522933903704,30.26263795830457,6,MB
2025-05-26 15:34:54.071,0.0002610681240396,31.422654641995614,6,MB
2025-05-26 15:34:54.079,0.0002716790137879,32.683105597502355,6,MB
2025-05-26 15:34:54.087,0.0002839194178107,33.994449188574265,6,MB
2025-05-26 15:34:54.094,0.0002975241090764,35.29816004717757,6,MB
2025-05-26 15:34:54.102,0.0003121764800977,36.52773976899957,6,MB
2025-05-26 15:34:54.110,0.0003275177002571,37.61008478537418,6,MB
2025-05-26 15:34:54.118,0.0003431576041137,38.467202272090304,6,MB
2025-05-26 15:34:54.126,0.0003586869754124,39.01825087789056,6,MB
2025-05-26 15:34:54.133,0.0003736908160214,39.18186800453402,6,MB
2025-05-26 15:34:54.141,0.0003877621538454,38.87872994503472,6,MB
2025-05-26 15:34:54.149,0.000400515915816,38.03427610135019,6,MB
2025-05-26 15:34:54.157,0.000411602349938,36.58151456371535,6,MB
2025-05-26 15:34:54.165,0.0004207194395936,34.463814405283,6,MB
2025-05-26 15:34:54.172,0.0004276237397349,31.637581003566584,6,MB
2025-05-26 15:34:54.180,0.0004321390890024,28.074705378236043,6,MB
2025-05-26 15:34:54.188,0.0004341627175712,23.764677669292865,6,MB
2025-05-26 15:34:54.196,0.0004336683799152,18.7162590480334,6,MB
2025-05-26 15:34:54.204,0.00043070629246,12.958615904758616,6,MB
2025-05-26 15:34:54.212,0.0004253998446929,6.541835145632481,6,MB
2025-05-26 15:34:54.219,0.000417939265744,-0.4632404309595023,6,MB
2025-05-26 15:34:54.227,0.0004085726283777,-7.965893062109127,6,MB
2025-05-26 15:34:54.235,0.0003975947094174,-15.857135458450982,6,MB
2025-05-26 15:34:54.243,0.0003853342770705,-24.012018519031425,6,MB
2025-05-26 15:34:54.251,0.0003721403654969,-32.29258788178839,6,MB
2025-05-26 15:34:54.258,0.0003583680821047,-40.551405531489806,6,MB
2025-05-26 15:34:54.266,0.0003443645201568,-48.63552490481175,6,MB
2025-05-26 15:34:54.274,0.0003304554090735,-56.39078432523777,6,MB
2025-05-26 15:34:54.282,0.0003169331592143,-63.66626561253297,6,MB
2025-05-26 15:34:54.290,0.0003040468795513,-70.31875350560311,6,MB
2025-05-26 15:34:54.297,0.0002919947681931,-76.21702790759774,6,MB
2025-05-26 15:34:54.305,0.0002809190699145,-81.24582526666646,6,MB
2025-05-26 15:34:54.313,0.0002709036349916,-85.30931752920532,6,MB
2025-05-26 15:34:54.321,0.0002619740156309,-88.33397645253761,6,MB
2025-05-26 15:34:54.329,0.0002540999677797,-90.27071660822934,6,MB
2025-05-26 15:34:54.337,0.0002472001551381,-91.0962407435118,6,MB
2025-05-26 15:34:54.344,0.000241148769632,-90.81354462491024,6,MB
2025-05-26 15:34:54.352,0.00023578368961,-89.4515732473885,6,MB
2025-05-26 15:34:54.360,0.000230915705138,-87.06405452392185,6,MB
2025-05-26 15:34:54.368,0.0002263382834735,-83.72756855719814,6,MB
2025-05-26 15:34:54.376,0.0002218373638262,-79.5389388364174,6,MB
2025-05-26 15:34:54.383,0.0002172007556769,-74.61205499233519,6,MB
2025-05-26 15:34:54.391,0.000212226821506,-69.07425422824393,6,MB
2025-05-26 15:34:54.399,0.0002067322045531,-63.062399751717855,6,MB
2025-05-26 15:34:54.407,0.0002005584106934,-56.718799373989256,6,MB
2025-05-26 15:34:54.415,0.0001935771034422,-50.187106186384845,6,MB
2025-05-26 15:34:54.422,0.0001856940424987,-43.60833642912272,6,MB
2025-05-26 15:34:54.430,0.0001768516661754,-37.117128125885394,6,MB
2025-05-26 15:34:54.438,0.0001670303508465,-30.838348704978426,6,MB
2025-05-26 15:34:54.446,0.000156248376171,-24.884141671239703,6,MB
2025-05-26 15:34:54.454,0.000144560618978,-19.35148243689131,6,MB
2025-05-26 15:34:54.462,0.0001320560156974,-14.320292608572288,6,MB
2025-05-26 15:34:54.469,0.0001188538623881,-9.852141204163008,6,MB
2025-05-26 15:34:54.477,0.0001050990498909,-5.989541152271763,6,MB
2025-05-26 15:34:54.485,9.09563724776989e-05,-2.755830587983984,6,MB
2025-05-26 15:34:54.493,7.660411401960878e-05,-0.1556113443501632,6,MB
2025-05-26 15:34:54.501,6.222718975494013e-05,1.824298026688118,6,MB
2025-05-26 15:34:54.508,4.8010179096597615e-05,3.213450161747241,6,MB
2025-05-26 15:34:54.516,3.413061545212705e-05,4.055963546553398,6,MB
2025-05-26 15:34:54.524,2.075289981977786e-05,4.408397608975288,6,MB
2025-05-26 15:34:54.532,8.023173867054173e-06,4.337387234615356,6,MB
2025-05-26 15:34:54.540,-3.934574299104423e-06,3.917118480067444,6,MB
2025-05-26 15:34:54.547,-1.5020999217840116e-05,3.2267275806816142,6,MB
2025-05-26 15:34:54.555,-2.5162457423460052e-05,2.347703311929244,6,MB
2025-05-26 15:34:54.563,-3.431078374003229e-05,1.3613685139586702,6,MB
2025-05-26 15:34:54.571,-4.244206238389119e-05,0.3465103246372524,6,MB
2025-05-26 15:34:54.579,-4.955471293327795e-05,-0.6227793644186624,6,MB
2025-05-26 15:34:54.587,-5.566717753336643e-05,-1.4790012168012745,6,MB
2025-05-26 15:34:54.594,-6.081543463183477e-05,-2.1628421542949705,6,MB
2025-05-26 15:34:54.602,-6.505051091952596e-05,-2.6244354986657816,6,MB
2025-05-26 15:34:54.610,-6.843613026042934e-05,-2.824269401095247,6,MB
2025-05-26 15:34:54.618,-7.104662231328311e-05,-2.7337372045468227,6,MB
2025-05-26 15:34:54.626,-7.296519169225247e-05,-2.3353347838077387,6,MB
2025-05-26 15:34:54.633,-7.428259842996348e-05,-1.6225205416648627,6,MB
2025-05-26 15:34:54.641,-7.509621864578346e-05,-0.5992632704127603,6,MB
2025-05-26 15:34:54.649,-7.550935458962131e-05,0.7206887776669106,6,MB
2025-05-26 15:34:54.657,-7.563058133956926e-05,2.3147777625275388,6,MB
2025-05-26 15:34:54.665,-7.557290301682886e-05,4.152800507245472,6,MB
2025-05-26 15:34:54.672,-7.545255892090519e-05,6.198219714529386,6,MB
2025-05-26 15:34:54.680,-7.538742221965267e-05,8.409573749342472,6,MB
2025-05-26 15:34:54.688,-7.54950107346575e-05,10.741937380323206,6,MB
2025-05-26 15:34:54.696,-7.589016902202056e-05,13.148388282330544,6,MB
2025-05-26 15:34:54.704,-7.668251509139026e-05,15.581437897627668,6,MB
2025-05-26 15:34:54.712,-7.797379417781225e-05,17.994390146824294,6,MB
2025-05-26 15:34:54.719,-7.985532342060993e-05,20.3425971517854,6,MB
2025-05-26 15:34:54.727,-8.240570967448839e-05,22.58458724676197,6,MB
2025-05-26 15:34:54.735,-8.568897820155383e-05,24.68304678037091,6,MB
2025-05-26 15:34:54.743,-8.975319854687132e-05,26.60564324243776,6,MB
2025-05-26 15:34:54.751,-9.46296601084004e-05,28.325682823916026,6,MB
2025-05-26 15:34:54.758,-0.0001003326234441,29.82260043491889,6,MB
2025-05-26 15:34:54.766,-0.000106859641881,31.08228433369197,6,MB
2025-05-26 15:34:54.774,-0.0001141924253156,32.097240792523145,6,MB
2025-05-26 15:34:54.782,-0.0001222982160416,32.86660663756618,6,MB
2025-05-26 15:34:54.790,-0.00013113164187,33.39601908820388,6,MB
2025-05-26 15:34:54.797,-0.0001406369703409,33.69735316529368,6,MB
2025-05-26 15:34:54.805,-0.0001507506123584,33.78833714460391,6,MB
2025-05-26 15:34:54.813,-0.0001614036607112,33.69205623711722,6,MB
2025-05-26 15:34:54.821,-0.0001725242448987,33.43635404181181,6,MB
2025-05-26 15:34:54.829,-0.0001840395402544,33.053140521363176,6,MB
2025-05-26 15:34:54.837,-0.0001958773487143,32.57761449291749,6,MB
2025-05-26 15:34:54.844,-0.0002079672353754,32.047408099510896,6,MB
2025-05-26 15:34:54.852,-0.0002202412472644,31.50166061091018,6,MB
2025-05-26 15:34:54.860,-0.0002326342573447,30.980029343781567,6,MB
2025-05-26 15:34:54.868,-0.0002450839757832,30.521646596466635,6,MB
2025-05-26 15:34:54.876,-0.0002575306753275,30.164033316962,6,MB
2025-05-26 15:34:54.883,-0.0002699167034008,29.94198275723287,6,MB
2025-05-26 15:34:54.891,-0.0002821858852704,29.886430541339813,6,MB
2025-05-26 15:34:54.899,-0.0002942829370698,30.02333125254324,6,MB
2025-05-26 15:34:54.907,-0.0003061529965645,30.372565627227317,6,MB
2025-05-26 15:34:54.915,-0.0003177413428667,30.9469064759128,6,MB
2025-05-26 15:34:54.922,-0.0003289933159836,31.751075229047885,6,MB
2025-05-26 15:34:54.930,-0.0003398543776343,32.780924187564274,6,MB
2025-05-26 15:34:54.938,-0.0003502702025077,34.02278179195601,6,MB
2025-05-26 15:34:54.946,-0.0003601866781057,35.45299916791528,6,MB
2025-05-26 15:34:54.954,-0.0003695497246013,37.037735558026135,6,MB
2025-05-26 15:34:54.962,-0.0003783049007188,38.73301776416282,6,MB
2025-05-26 15:34:54.969,-0.0003863968121852,40.48510423743716,6,MB
2025-05-26 15:34:54.977,-0.0003937683769276,42.23117788350005,6,MB
2025-05-26 15:34:54.985,-0.0004003600241117,43.9003830177899,6,MB
2025-05-26 15:34:54.993,-0.0004061089111518,45.415211324641504,6,MB
2025-05-26 15:34:55.001,-0.0004109482366874,46.69322936583746,6,MB
2025-05-26 15:34:55.008,-0.0004148067114698,47.64912647565006,6,MB
2025-05-26 15:34:55.016,-0.0004176082333053,48.19704721111752,6,MB
2025-05-26 15:34:55.024,-0.000419271821446,48.25315745346421,6,MB
2025-05-26 15:34:55.032,-0.0004197119141925,47.73837844285357,6,MB
2025-05-26 15:34:55.040,-0.0004188391961123,46.58120923141745,6,MB
2025-05-26 15:34:55.047,-0.0004165621516354,44.720546086862015,6,MB
2025-05-26 15:34:55.055,-0.0004127895091987,42.10839813155976,6,MB
2025-05-26 15:34:55.063,-0.0004074336456389,38.71239279286471,6,MB
2025-05-26 15:34:55.071,-0.0004004148904711,34.51796319941864,6,MB
2025-05-26 15:34:55.079,-0.0003916665350117,29.53011303936763,6,MB
2025-05-26 15:34:55.087,-0.0003811402303164,23.774662918168,6,MB
2025-05-26 15:34:55.094,-0.0003688113668804,17.298895954073686,6,MB
2025-05-26 15:34:55.102,-0.0003546839963504,10.171538955470206,6,MB
2025-05-26 15:34:55.110,-0.0003387948976584,2.482038442552863,6,MB
2025-05-26 15:34:55.118,-0.0003212164834761,-5.6608828872656485,6,MB
2025-05-26 15:34:55.126,-0.0003020583428458,-14.131375040311031,6,MB
2025-05-26 15:34:55.133,-0.0002814672984678,-22.789271188486968,6,MB
2025-05-26 15:34:55.141,-0.0002596259335194,-31.48348688414568,6,MB
2025-05-26 15:34:55.149,-0.0002367496341525,-40.05590810385505,6,MB
2025-05-26 15:34:55.157,-0.0002130822992734,-48.345644496475934,6,MB
2025-05-26 15:34:55.165,-0.0001888909646776,-56.19350521056085,6,MB
2025-05-26 15:34:55.172,-0.0001644596500374,-63.4465414723506,6,MB
2025-05-26 15:34:55.180,-0.0001400827546255,-69.9624934953487,6,MB
2025-05-26 15:34:55.188,-0.0001160583020888,-75.61397980709559,6,MB
2025-05-26 15:34:55.196,-9.268127822267072e-05,-80.2922747873207,6,MB
2025-05-26 15:34:55.204,-7.023724284914647e-05,-83.91053484217535,6,MB
2025-05-26 15:34:55.212,-4.899634527445899e-05,-86.40635452455653,6,MB
2025-05-26 15:34:55.219,-2.9207823228258836e-05,-87.74356003336133,6,MB
2025-05-26 15:34:55.227,-1.1095006514086975e-05,-87.9131775798634,6,MB
2025-05-26 15:34:55.235,5.1491965407039466e-06,-86.93354658583006,6,MB
2025-05-26 15:34:55.243,1.9366342565153328e-05,-84.84958095293652,6,MB
2025-05-26 15:34:55.251,3.143598068137245e-05,-81.73121409112149,6,MB
2025-05-26 15:34:55.258,4.1278549397394345e-05,-77.6710934998202,6,MB
2025-05-26 15:34:55.266,4.8857484034808975e-05,-72.78161715446755,6,MB
2025-05-26 15:34:55.274,5.4180371094861525e-05,-67.19142573047428,6,MB
2025-05-26 15:34:55.282,5.729902404626893e-05,-61.04148107458534,6,MB
2025-05-26 15:34:55.290,5.830843465589457e-05,-54.48087189977981,6,MB
2025-05-26 15:34:55.297,5.734466257044758e-05,-47.66249232915728,6,MB
2025-05-26 15:34:55.305,5.4581828516737325e-05,-40.73873782069224,6,MB
2025-05-26 15:34:55.313,5.022842550092252e-05,-33.85735658526808,6,MB
2025-05-26 15:34:55.321,4.452313476668581e-05,-27.157583478515708,6,MB
2025-05-26 15:34:55.329,3.773025437517559e-05,-20.7666682607178,6,MB
2025-05-26 15:34:55.337,3.0134768009202173e-05,-14.796891926408575,6,MB
2025-05-26 15:34:55.344,2.20370367079386e-05,-9.343144392673407,6,MB
2025-05-26 15:34:55.352,1.3747100666813616e-05,-4.481115085674337,6,MB
2025-05-26 15:34:55.360,5.578632378205687e-06,-0.2661257282565503,6,MB
2025-05-26 15:34:55.368,-2.1573269788603914e-06,3.2673873008986782,6,MB
2025-05-26 15:34:55.376,-9.158624961313848e-06,6.105754584456161,6,MB
2025-05-26 15:34:55.383,-1.5137984181423328e-05,8.255352104379023,6,MB
2025-05-26 15:34:55.391,-1.982848480980225e-05,9.741326526335303,6,MB
2025-05-26 15:34:55.399,-2.298839399091261e-05,10.605832043539614,6,MB
2025-05-26 15:34:55.407,-2.4405281850374543e-05,10.905855412585154,6,MB
2025-05-26 15:34:55.415,-2.38994337385607e-05,10.710714783360691,6,MB
2025-05-26 15:34:55.422,-2.1326628367014877e-05,10.09932384502683,6,MB
2025-05-26 15:34:55.430,-1.6580412803270296e-05,9.15731566017834,6,MB
2025-05-26 15:34:55.438,-9.59404509437521e-06,7.974120395743517,6,MB
2025-05-26 15:34:55.446,-3.422489644576924e-07,6.640088106974631,6,MB
2025-05-26 15:34:55.454,1.11571850018767e-05,5.243741978883247,6,MB
2025-05-26 15:34:55.462,2.484207973234592e-05,3.869239230920278,6,MB
2025-05-26 15:34:55.469,4.060511383134608e-05,2.594106566264313,6,MB
2025-05-26 15:34:55.477,5.829398371573759e-05,1.4873049837816184,6,MB
2025-05-26 15:34:55.485,7.771281732238331e-05,0.6076654154380846,6,MB
2025-05-26 15:34:55.493,9.862506077999764e-05,0.0027225003008723,6,MB
2025-05-26 15:34:55.501,0.0001207579125045,-0.292040613912645,6,MB
2025-05-26 15:34:55.508,0.0001438082308934,-0.25353770110515,6,MB
2025-05-26 15:34:55.516,0.0001674497082068,0.1289702652567163,6,MB
2025-05-26 15:34:55.524,0.0001913409984216,0.8542932897589179,6,MB
2025-05-26 15:34:55.532,0.0002151344338522,1.910061897475711,6,MB
2025-05-26 15:34:55.540,0.0002384849774443,3.273762562049308,6,MB
2025-05-26 15:34:55.547,0.0002610591102662,4.91400736978315,6,MB
2025-05-26 15:34:55.555,0.0002825433983989,6.791982417966481,6,MB
2025-05-26 15:34:55.563,0.0003026524952581,8.863017900970005,6,MB
2025-05-26 15:34:55.571,0.0003211363270063,11.078223487434231,6,MB
2025-05-26 15:34:55.579,0.0003377862021356,13.386135235866869,6,MB
2025-05-26 15:34:55.587,0.0003524395925191,15.734324662439164,6,MB
2025-05-26 15:34:55.594,0.0003649833549971,18.070926335056377,6,MB
2025-05-26 15:34:55.602,0.0003753552007632,20.34604715320468,6,MB
2025-05-26 15:34:55.610,0.0003835432750087,22.51302789719093,6,MB
2025-05-26 15:34:55.618,0.0003895837815986,24.5295353127536,6,MB
2025-05-26 15:34:55.626,0.0003935566766529,26.358470581311398,6,MB
2025-05-26 15:34:55.633,0.0003955795598633,27.9686871909713,6,MB
2025-05-26 15:34:55.641,0.0003958000116591,29.33551769204025,6,MB
2025-05-26 15:34:55.649,0.0003943867541119,30.44111437282472,6,MB
2025-05-26 15:34:55.657,0.0003915201395263,31.274613373139964,6,MB
2025-05-26 15:34:55.665,0.0003873825591322,31.83213508097054,6,MB
2025-05-26 15:34:55.672,0.0003821493775168,32.11663581853437,6,MB
2025-05-26 15:34:55.680,0.0003759809354196,32.13762686985091,6,MB
2025-05-26 15:34:55.688,0.0003690160632053,31.910776945275146,6,MB
2025-05-26 15:34:55.696,0.0003613674366906,31.45741338506835,6,MB
2025-05-26 15:34:55.704,0.0003531189772557,30.80393598287552,6,MB
2025-05-26 15:34:55.712,0.0003443253425928,29.981155496935237,6,MB
2025-05-26 15:34:55.719,0.0003350133931345,29.02356695501352,6,MB
2025-05-26 15:34:55.727,0.0003251853788561,27.96856598213476,6,MB
2025-05-26 15:34:55.735,0.0003148234862612,26.855614801215847,6,MB
2025-05-26 15:34:55.743,0.0003038953209939,25.725363456929355,6,MB
2025-05-26 15:34:55.751,0.0002923598796694,24.618731331281523,6,MB
2025-05-26 15:34:55.758,0.0002801735857403,23.575954248050703,6,MB
2025-05-26 15:34:55.766,0.0002672960276191,22.63560345180052,6,MB
2025-05-26 15:34:55.774,0.0002536951389282,21.833584502664163,6,MB
2025-05-26 15:34:55.782,0.0002393516856738,21.20212660995987,6,MB
2025-05-26 15:34:55.790,0.0002242630381195,20.7687760440008,6,MB
2025-05-26 15:34:55.797,0.0002084462666403,20.55541087491361,6,MB
2025-05-26 15:34:55.805,0.0001919406076001,20.57729820156849,6,MB
2025-05-26 15:34:55.813,0.0001748093335589,20.842219014625915,6,MB
2025-05-26 15:34:55.821,0.0001571410558689,21.349689594031407,6,MB
2025-05-26 15:34:55.829,0.0001390504748945,22.0903115360518,6,MB
2025-05-26 15:34:55.837,0.0001206785618327,23.04528477728325,6,MB
2025-05-26 15:34:55.844,0.0001021921131132,24.1861189799464,6,MB
2025-05-26 15:34:55.852,8.378256582674295e-05,25.47457805091343,6,MB
2025-05-26 15:34:55.860,6.566389985093142e-05,26.86289013728513,6,MB
2025-05-26 15:34:55.868,4.8069406602989264e-05,28.29425100502393,6,MB
2025-05-26 15:34:55.876,3.124712331478699e-05,29.70364218547617,6,MB
2025-05-26 15:34:55.883,1.5453837731787873e-05,31.01897668715016,6,MB
2025-05-26 15:34:55.891,9.477425468765906e-07,32.16257454115142,6,MB
2025-05-26 15:34:55.899,-1.2019977678389193e-05,33.052958211712465,6,MB
2025-05-26 15:34:55.907,-2.321416243379883e-05,33.60694430495019,6,MB
2025-05-26 15:34:55.915,-3.2424723896054936e-05,33.7419935139873,6,MB
2025-05-26 15:34:55.922,-3.947515714751165e-05,33.37876593157186,6,MB
2025-05-26 15:34:55.930,-4.423002311795016e-05,32.443814439173494,6,MB
2025-05-26 15:34:55.938,-4.660103421038499e-05,30.87233563116325,6,MB
2025-05-26 15:34:55.946,-4.655149321258811e-05,28.61088649550841,6,MB
2025-05-26 15:34:55.954,-4.409894524952317e-05,25.61996669703605,6,MB
2025-05-26 15:34:55.962,-3.93159973637252e-05,21.87636159322448,6,MB
2025-05-26 15:34:55.969,-3.2329340338211106e-05,17.37514073579563,6,MB
2025-05-26 15:34:55.977,-2.3317072759921003e-05,12.131211070737647,6,MB
2025-05-26 15:34:55.985,-1.2504478762110247e-05,6.1803336005504965,6,MB
2025-05-26 15:34:55.993,-1.584495093750309e-07,-0.4204731124649998,6,MB
2025-05-26 15:34:56.001,1.3419234267795036e-05,-7.593199880507123,6,MB
2025-05-26 15:34:56.008,2.789952390573258e-05,-15.239818118512725,6,MB
2025-05-26 15:34:56.016,4.293438443761972e-05,-23.243962657254496,6,MB
2025-05-26 15:34:56.024,5.816548912584689e-05,-31.473304899809435,6,MB
2025-05-26 15:34:56.032,7.32330818593565e-05,-39.78256592587686,6,MB
2025-05-26 15:34:56.040,8.778476817174331e-05,-48.01709080430897,6,MB
2025-05-26 15:34:56.047,0.0001014840042133,-56.01687927167703,6,MB
2025-05-26 15:34:56.055,0.0001140180637599,-63.62094542529694,6,MB
2025-05-26 15:34:56.063,0.0001251052760105,-70.67186136463019,6,MB
2025-05-26 15:34:56.071,0.0001345013416175,-77.02032778608661,6,MB
2025-05-26 15:34:56.079,0.0001420045515501,-82.52960911735578,6,MB
2025-05-26 15:34:56.087,0.0001474597537274,-87.07967227876668,6,MB
2025-05-26 15:34:56.094,0.0001507609368318,-90.57087664150627,6,MB
2025-05-26 15:34:56.102,0.0001518523304036,-92.92707791027571,6,MB
2025-05-26 15:34:56.110,0.0001507279563671,-94.0980298303292,6,MB
2025-05-26 15:34:56.118,0.0001474296106349,-94.06099383128576,6,MB
2025-05-26 15:34:56.126,0.0001420433052932,-92.8214967467778,6,MB
2025-05-26 15:34:56.133,0.0001346942627743,-90.4132091830017,6,MB
2025-05-26 15:34:56.141,0.0001255406236423,-86.8969504378268,6,MB
2025-05-26 15:34:56.149,0.0001147661090298,-82.35885856186836,6,MB
2025-05-26 15:34:56.157,0.0001025719650378,-76.90779474262712,6,MB
2025-05-26 15:34:56.165,8.916859860824698e-05,-70.672078379795,6,MB
2025-05-26 15:34:56.172,7.476736838300558e-05,-63.79567192594352,6,MB
2025-05-26 15:34:56.180,5.957299486808246e-05,-56.43395198083528,6,MB
2025-05-26 15:34:56.188,4.377699315759427e-05,-48.74921472795385,6,MB
2025-05-26 15:34:56.196,2.7552414883606846e-05,-40.90606936078527,6,MB
2025-05-26 15:34:56.204,1.1050038375363745e-05,-33.06687271581548,6,MB
2025-05-26 15:34:56.212,-5.60397493715977e-06,-25.38735221235256,6,MB
2025-05-26 15:34:56.219,-2.230897917230521e-05,-18.01255291462501,6,MB
2025-05-26 15:34:56.227,-3.898929840291875e-05,-11.07322877278258,6,MB
2025-05-26 15:34:56.235,-5.559223973352606e-05,-4.682778692865826,6,MB
2025-05-26 15:34:56.243,-7.208473751526759e-05,1.0651940523911156,6,MB
2025-05-26 15:34:56.251,-8.844881010266285e-05,6.098644467992651,6,MB
2025-05-26 15:34:56.258,-0.000104676113109,10.368140645180013,6,MB
2025-05-26 15:34:56.266,-0.0001207619464689,13.847205429992362,6,MB
2025-05-26 15:34:56.274,-0.000136699111245,16.531963244957563,6,MB
2025-05-26 15:34:56.282,-0.0001524720149553,18.440132194779384,6,MB
2025-05-26 15:34:56.290,-0.0001680513914098,19.60942101720052,6,MB
2025-05-26 15:34:56.297,-0.0001833899339832,20.09540694904536,6,MB
2025-05-26 15:34:56.305,-0.0001984190440921,19.96898378377167,6,MB
2025-05-26 15:34:56.313,-0.000213046782736,19.313479045746995,6,MB
2025-05-26 15:34:56.321,-0.0002271570092447,18.22154516439653,6,MB
2025-05-26 15:34:56.329,-0.0002406096260186,16.79193178312141,6,MB
2025-05-26 15:34:56.337,-0.0002532418331276,15.126244980863689,6,MB
2025-05-26 15:34:56.344,-0.0002648703309642,13.325794420560715,6,MB
2025-05-26 15:34:56.352,-0.0002752944815958,11.488621569023453,6,MB
2025-05-26 15:34:56.360,-0.0002843005147803,9.706791550528166,6,MB
2025-05-26 15:34:56.368,-0.0002916668913084,8.064018377859272,6,MB
2025-05-26 15:34:56.376,-0.0002971708828665,6.633678789162019,6,MB
2025-05-26 15:34:56.383,-0.0003005962982406,5.477254284577741,6,MB
2025-05-26 15:34:56.391,-0.0003017421171304,4.64322479709448,6,MB
2025-05-26 15:34:56.399,-0.0003004316479874,4.166421340028794,6,MB
2025-05-26 15:34:56.407,-0.000296521759277,4.06782952297862,6,MB
2025-05-26 15:34:56.415,-0.0002899117470222,4.354821551729555,6,MB
2025-05-26 15:34:56.422,-0.000280551451379,5.021781693502891,6,MB
2025-05-26 15:34:56.430,-0.000268448269714,6.05107958240851,6,MB
2025-05-26 15:34:56.438,-0.0002536727101719,7.414337452104946,6,MB
2025-05-26 15:34:56.446,-0.0002363621123448,9.073931600769026,6,MB
2025-05-26 15:34:56.454,-0.0002167221798776,10.98466519192072,6,MB
2025-05-26 15:34:56.462,-0.0001950260491699,13.095548830918563,6,MB
2025-05-26 15:34:56.469,-0.0001716107445976,15.351627076469876,6,MB
2025-05-26 15:34:56.477,-0.0001468710115979,17.695792894694545,6,MB
2025-05-26 15:34:56.485,-0.0001212506415815,20.07053770207072,6,MB
2025-05-26 15:34:56.493,-9.52314907700274e-05,22.41959167349809,6,MB
2025-05-26 15:34:56.501,-6.932047091184101e-05,24.689416980093547,6,MB
2025-05-26 15:34:56.508,-4.403489678648529e-05,26.83052513124188,6,MB
2025-05-26 15:34:56.516,-1.988672417246301e-05,28.79859820811004,6,MB
2025-05-26 15:34:56.524,2.633637859607261e-06,30.555402105965808,6,MB
2025-05-26 15:34:56.532,2.3073155794296857e-05,32.069487609682795,6,MB
2025-05-26 15:34:56.540,4.103082977563733e-05,33.31668192497207,6,MB
2025-05-26 15:34:56.547,5.617041894960983e-05,34.280378955714106,6,MB
2025-05-26 15:34:56.555,6.823059917565884e-05,34.951641008321154,6,MB
2025-05-26 15:34:56.563,7.703211073211027e-05,35.32912765420304,6,MB
2025-05-26 15:34:56.571,8.248168138558959e-05,35.41886921489851,6,MB
2025-05-26 15:34:56.579,8.457273573248764e-05,35.23390285501469,6,MB
2025-05-26 15:34:56.587,8.338308965772167e-05,34.793788746306994,6,MB
2025-05-26 15:34:56.594,7.906995998124354e-05,34.124022424655784,6,MB
2025-05-26 15:34:56.602,7.18627046277264e-05,33.25535755804037,6,MB
2025-05-26 15:34:56.610,6.205376361126737e-05,32.22305115056449,6,MB
2025-05-26 15:34:56.618,4.998828469768223e-05,31.066040995286404,6,MB
2025-05-26 15:34:56.626,3.605287995974856e-05,29.826063213609164,6,MB
2025-05-26 15:34:56.633,2.0663899693548945e-05,28.546716214799808,6,MB
2025-05-26 15:34:56.641,4.255567558621963e-06,27.272476571699748,6,MB
2025-05-26 15:34:56.649,-1.273170075672516e-05,26.04767227915592,6,MB
2025-05-26 15:34:56.657,-2.9862495412498774e-05,24.915419716607147,6,MB
2025-05-26 15:34:56.665,-4.671685781578373e-05,23.91653238647848,6,MB
2025-05-26 15:34:56.672,-6.289973078373205e-05,23.088412093686927,6,MB
2025-05-26 15:34:56.680,-7.804919123015316e-05,22.46393655525932,6,MB
2025-05-26 15:34:56.688,-9.184328030193404e-05,22.07036130969169,6,MB
2025-05-26 15:34:56.696,-0.0001040053121722,21.92825800732668,6,MB
2025-05-26 15:34:56.704,-0.0001143076222034,22.050515438408787,6,MB
2025-05-26 15:34:56.712,-0.0001225737853817,22.441433696245053,6,MB
2025-05-26 15:34:56.719,-0.0001286793863042,23.09594535640177,6,MB
2025-05-26 15:34:56.727,-0.0001325514512195,23.999000140048192,6,MB
2025-05-26 15:34:56.735,-0.0001341666635843,25.12515087972911,6,MB
2025-05-26 15:34:56.743,-0.0001335484891525,26.43837839900726,6,MB
2025-05-26 15:34:56.751,-0.0001307633582882,27.892190879281895,6,MB
2025-05-26 15:34:56.758,-0.0001259161066751,29.43002921111435,6,MB
2025-05-26 15:34:56.766,-0.0001191449385001,30.986003592159022,6,MB
2025-05-26 15:34:56.774,-0.0001106162028403,32.48597821745681,6,MB
2025-05-26 15:34:56.782,-0.0001005192427174,33.849010400406975,6,MB
2025-05-26 15:34:56.790,-8.906150325739614e-05,34.98913807517884,6,MB
2025-05-26 15:34:56.797,-7.646399630004434e-05,35.817495700311525,6,MB
2025-05-26 15:34:56.805,-6.295712998052332e-05,36.24472357152382,6,MB
2025-05-26 15:34:56.813,-4.877683936690798e-05,36.18362004350335,6,MB
2025-05-26 15:34:56.821,-3.4160923212867846e-05,35.55197084726132,6,MB
2025-05-26 15:34:56.829,-1.934551735844056e-05,34.27547534481633,6,MB
2025-05-26 15:34:56.837,-4.561694213086558e-06,32.29067700911793,6,MB
2025-05-26 15:34:56.844,9.967777244098302e-06,29.54779549165767,6,MB
2025-05-26 15:34:56.852,2.403146962297323e-05,26.013351154769097,6,MB
2025-05-26 15:34:56.860,3.74321104853246e-05,21.672470632994024,6,MB
2025-05-26 15:34:56.868,4.998916981454829e-05,16.530764439127115,6,MB
2025-05-26 15:34:56.876,6.154123550881082e-05,10.615675232740612,6,MB
2025-05-26 15:34:56.883,7.19481972431234e-05,3.9772082537145024,6,MB
2025-05-26 15:34:56.891,8.109325727951152e-05,-3.312026569412383,6,MB
2025-05-26 15:34:56.899,8.888477770855712e-05,-11.15750866629644,6,MB
2025-05-26 15:34:56.907,9.525795846887936e-05,-19.44425832161408,6,MB
2025-05-26 15:34:56.915,0.000100176320961,-28.039037567678424,6,MB
2025-05-26 15:34:56.922,0.0001036329500776,-36.7932615530076,6,MB
2025-05-26 15:34:56.930,0.0001056514251354,-45.54655054940654,6,MB
2025-05-26 15:34:56.938,0.0001062863497391,-54.13082334204524,6,MB
2025-05-26 15:34:56.946,0.000105623374255,-62.37480637756718,6,MB
2025-05-26 15:34:56.954,0.0001037785944438,-70.10881117988754,6,MB
2025-05-26 15:34:56.962,0.0001008972078138,-77.16961645487373,6,MB
2025-05-26 15:34:56.969,9.715131703271856e-05,-83.40528200065897,6,MB
2025-05-26 15:34:56.977,9.27367885017231e-05,-88.67971968930183,6,MB
2025-05-26 15:34:56.985,8.786910472141788e-05,-92.8768526655607,6,MB
2025-05-26 15:34:56.993,8.277819159180222e-05,-95.904207375062,6,MB
2025-05-26 15:34:57.001,7.770225593935029e-05,-97.69580351734724,6,MB
2025-05-26 15:34:57.008,7.288073338573447e-05,-98.21423355413954,6,MB
2025-05-26 15:34:57.016,6.854652057660579e-05,-97.45185469137998,6,MB
2025-05-26 15:34:57.024,6.491774657165128e-05,-95.43105074945254,6,MB
2025-05-26 15:34:57.032,6.218942145445805e-05,-92.20355734569476,6,MB
2025-05-26 15:34:57.040,6.052537297117112e-05,-87.84887959993152,6,MB
2025-05-26 15:34:57.047,6.0050919919114594e-05,-82.47186546292876,6,MB
2025-05-26 15:34:57.055,6.084671884656093e-05,-76.1995282468075,6,MB
2025-05-26 15:34:57.063,6.29441788647672e-05,-69.17723774016942,6,MB
2025-05-26 15:34:57.071,6.632280227155073e-05,-61.5644194623204,6,MB
2025-05-26 15:34:57.079,7.09097660855256e-05,-53.52991553513411,6,MB
2025-05-26 15:34:57.087,7.658195413951684e-05,-45.24716805824158,6,MB
2025-05-26 15:34:57.094,8.317045041455299e-05,-36.88938682102653,6,MB
2025-05-26 15:34:57.102,9.046726117930736e-05,-28.6248580200148,6,MB
2025-05-26 15:34:57.110,9.823383318592812e-05,-20.612539955779965,6,MB
2025-05-26 15:34:57.118,0.0001062108176352,-12.998076221144895,6,MB
2025-05-26 15:34:57.126,0.000114128473409,-5.910337548148998,6,MB
2025-05-26 15:34:57.133,0.0001217170880169,0.541418782562057,6,MB
2025-05-26 15:34:57.141,0.0001287168337103,6.269707254293857,6,MB
2025-05-26 15:34:57.149,0.0001348865789637,11.21025056014319,6,MB
2025-05-26 15:34:57.157,0.0001400113237281,15.322679724045775,6,MB
2025-05-26 15:34:57.165,0.0001439080944137,18.590507719385617,6,MB
2025-05-26 15:34:57.173,0.00014643030475,21.02040908579587,6,MB
2025-05-26 15:34:57.180,0.000147470743347,22.64085848226703,6,MB
2025-05-26 15:34:57.188,0.000146963451076,23.50019879296665,6,MB
2025-05-26 15:34:57.196,0.0001448847552249,23.664223925180405,6,MB
2025-05-26 15:34:57.204,0.0001412536230889,23.213372528787808,6,MB
2025-05-26 15:34:57.212,0.0001361313448452,22.239636357692344,6,MB
2025-05-26 15:34:57.219,0.0001296204433769,20.843290827103036,6,MB
2025-05-26 15:34:57.227,0.0001218626775323,19.129555544124173,6,MB
2025-05-26 15:34:57.235,0.0001130360338215,17.205289354608936,6,MB
2025-05-26 15:34:57.243,0.0001033506676675,15.17581800811345,6,MB
2025-05-26 15:34:57.251,9.30438598298265e-05,13.141983240491616,6,MB
2025-05-26 15:34:57.258,8.237417288264399e-05,11.19749034420274,6,MB
2025-05-26 15:34:57.266,7.16150632526014e-05,9.426617652159091,6,MB
2025-05-26 15:34:57.274,6.104818084445412e-05,7.902336371538492,6,MB
2025-05-26 15:34:57.282,5.095648716647311e-05,6.684873465687377,6,MB
2025-05-26 15:34:57.290,4.1617203992805786e-05,5.820734386688436,6,MB
2025-05-26 15:34:57.298,3.329453638091197e-05,5.342186970025898,6,MB
2025-05-26 15:34:57.305,2.623214456386241e-05,5.267193228848538,6,MB
2025-05-26 15:34:57.313,2.0645459320200865e-05,5.599762578616601,6,MB
2025-05-26 15:34:57.321,1.6714071416374743e-05,6.330688561108675,6,MB
2025-05-26 15:34:57.329,1.45745032403305e-05,7.43862171965117,6,MB
2025-05-26 15:34:57.337,1.4313675948367585e-05,8.891424121981515,6,MB
2025-05-26 15:34:57.344,1.5963350914475767e-05,10.647746258299428,6,MB
2025-05-26 15:34:57.352,1.949578060717679e-05,12.6587646810034,6,MB
2025-05-26 15:34:57.360,2.482076242201729e-05,14.870018711784512,6,MB
2025-05-26 15:34:57.368,3.178425062807457e-05,17.223286632737757,6,MB
2025-05-26 15:34:57.376,4.016864571630708e-05,19.65844573074128,6,MB
2025-05-26 15:34:57.383,4.969484617946552e-05,22.115266049916418,6,MB
2025-05-26 15:34:57.391,6.0026114171688906e-05,24.535094359179197,6,MB
2025-05-26 15:34:57.399,7.077377271709881e-05,26.862392272497218,6,MB
2025-05-26 15:34:57.407,8.150471745629545e-05,29.046100272814503,6,MB
2025-05-26 15:34:57.415,9.1750688275858e-05,31.040807201211194,6,MB
2025-05-26 15:34:57.423,0.0001010191957898,32.80771222687755,6,MB
2025-05-26 15:34:57.430,0.0001088059142666,34.31537311096097,6,MB
2025-05-26 15:34:57.438,0.00011460822584,35.54024049108866,6,MB
2025-05-26 15:34:57.446,0.0001179394583397,36.46698279994129,6,MB
2025-05-26 15:34:57.454,0.0001183432524539,37.08861023115811,6,MB
2025-05-26 15:34:57.462,0.0001154074513298,37.40640889471408,6,MB
2025-05-26 15:34:57.469,0.0001087769177155,37.42969804098379,6,MB
2025-05-26 15:34:57.477,9.816473138201386e-05,37.17542411094678,6,MB
2025-05-26 15:34:57.485,8.336129458255268e-05,36.66760556613194,6,MB
2025-05-26 15:34:57.493,6.424097515068916e-05,35.93664217330092,6,MB
2025-05-26 15:34:57.501,4.076604609171678e-05,35.01850188695939,6,MB
2025-05-26 15:34:57.508,1.29878355133473e-05,33.9537979071157,6,MB
2025-05-26 15:34:57.516,-1.895482904535882e-05,32.78676809644853,6,MB
2025-05-26 15:34:57.524,-5.483963636214909e-05,31.564168904009843,6,MB
2025-05-26 15:34:57.532,-9.43668943835198e-05,30.334096411905957,6,MB
2025-05-26 15:34:57.540,-0.00013716726325,29.14474819948209,6,MB
2025-05-26 15:34:57.548,-0.0001828106194269,28.04314144858241,6,MB
2025-05-26 15:34:57.555,-0.0002308155486767,27.073805068016263,6,MB
2025-05-26 15:34:57.563,-0.0002806589893577,26.277466501184264,6,MB
2025-05-26 15:34:57.571,-0.0003317855809059,25.68975713901053,6,MB
2025-05-26 15:34:57.579,-0.0003836163210602,25.339963674816666,6,MB
2025-05-26 15:34:57.587,-0.0004355562312376,25.249856046305037,6,MB
2025-05-26 15:34:57.594,-0.0004870008884101,25.4326255206982,6,MB
2025-05-26 15:34:57.602,-0.0005373418741176,25.89196869335477,6,MB
2025-05-26 15:34:57.610,-0.0005859713635902,26.621354403986235,6,MB
2025-05-26 15:34:57.618,-0.000632286191361,27.60351057519936,6,MB
2025-05-26 15:34:57.626,-0.0006756917691293,28.81016653216729,6,MB
2025-05-26 15:34:57.633,-0.0007156061965728,30.202083300393717,6,MB
2025-05-26 15:34:57.641,-0.0007514648105526,31.729399580944545,6,MB
2025-05-26 15:34:57.649,-0.0007827253008349,33.33231450737217,6,MB
2025-05-26 15:34:57.657,-0.0008088734334505,34.94211990179509,6,MB
2025-05-26 15:34:57.665,-0.0008294293949482,36.48258465261495,6,MB
2025-05-26 15:34:57.673,-0.0008439547835083,37.87168220371255,6,MB
2025-05-26 15:34:57.680,-0.0008520602836277,39.02363924128771,6,MB
2025-05-26 15:34:57.688,-0.0008534140408938,39.85126985880243,6,MB
2025-05-26 15:34:57.696,-0.0008477506959521,40.26854524689187,6,MB
2025-05-26 15:34:57.704,-0.0008348809475196,40.19333487143995,6,MB
2025-05-26 15:34:57.712,-0.0008147014017966,39.55024184258583,6,MB
2025-05-26 15:34:57.719,-0.0007872043397803,38.27344348935665,6,MB
2025-05-26 15:34:57.727,-0.0007524869055588,36.30943883087127,6,MB
2025-05-26 15:34:57.735,-0.0007107590989259,33.6195984681756,6,MB
2025-05-26 15:34:57.743,-0.0006623498558711,30.182410154895724,6,MB
2025-05-26 15:34:57.751,-0.0006077104315119,25.995315576880238,6,MB
2025-05-26 15:34:57.758,-0.0005474142734213,21.076041140864483,6,MB
2025-05-26 15:34:57.766,-0.0004821526089674,15.463338051874873,6,MB
2025-05-26 15:34:57.774,-0.0004127251069775,9.21706455449232,6,MB
2025-05-26 15:34:57.782,-0.0003400252579106,2.417565491433673,6,MB
2025-05-26 15:34:57.790,-0.0002650205553918,-4.835669479739909,6,MB
2025-05-26 15:34:57.798,-0.0001887280881893,-12.426058663480504,6,MB
2025-05-26 15:34:57.805,-0.0001121866485025,-20.22265127327084,6,MB
2025-05-26 15:34:57.813,-3.6426827441267935e-05,-28.08344932639312,6,MB
2025-05-26 15:34:57.821,3.755924309876626e-05,-35.85922858671208,6,MB
2025-05-26 15:34:57.829,0.0001088468172699,-43.39773334620176,6,MB
2025-05-26 15:34:57.837,0.0001766045398236,-50.548099431082655,6,MB
2025-05-26 15:34:57.844,0.0002401161244458,-57.16534563258299,6,MB
2025-05-26 15:34:57.852,0.0002987965895862,-63.114766779449965,6,MB
2025-05-26 15:34:57.860,0.0003522023271265,-68.27606245359021,6,MB
2025-05-26 15:34:57.868,0.0004000347316363,-72.54704398986536,6,MB
2025-05-26 15:34:57.876,0.0004421375540202,-75.84677849599505,6,MB
2025-05-26 15:34:57.883,0.0004784885084356,-78.11805132181982,6,MB
2025-05-26 15:34:57.891,0.0005091859592225,-79.32905645314204,6,MB
2025-05-26 15:34:57.899,0.000534431774401,-79.47425616556993,6,MB
2025-05-26 15:34:57.907,0.0005545116421621,-78.57438523273453,6,MB
2025-05-26 15:34:57.915,0.0005697742474044,-76.67560927162205,6,MB
2025-05-26 15:34:57.923,0.0005806106556461,-73.84787972048966,6,MB
2025-05-26 15:34:57.930,0.0005874350723621,-70.18255794540664,6,MB
2025-05-26 15:34:57.938,0.0005906678928008,-65.78940677722171,6,MB
2025-05-26 15:34:57.946,0.0005907216770832,-60.79306842390978,6,MB
2025-05-26 15:34:57.954,0.0005879904034085,-55.32916256260904,6,MB
2025-05-26 15:34:57.962,0.0005828420836413,-49.540147217589954,6,MB
2025-05-26 15:34:57.969,0.0005756145828528,-43.57108782354219,6,MB
2025-05-26 15:34:57.977,0.0005666142785483,-37.56547698565216,6,MB
2025-05-26 15:34:57.985,0.0005561170356262,-31.661239432725907,6,MB
2025-05-26 15:34:57.993,0.0005443708669612,-25.987044238768217,6,MB
2025-05-26 15:34:58.001,0.0005315996021425,-20.659030391136994,6,MB
2025-05-26 15:34:58.008,0.0005180069013591,-15.778033088125712,6,MB
2025-05-26 15:34:58.016,0.0005037800284226,-11.427377633492585,6,MB
2025-05-26 15:34:58.024,0.0004890929332358,-7.67128629878363,6,MB
2025-05-26 15:34:58.032,0.0004741083744302,-4.553921819231554,6,MB
2025-05-26 15:34:58.040,0.0004589789993899,-2.0990699682502623,6,MB
2025-05-26 15:34:58.048,0.0004438474401745,-0.3104435255282513,6,MB
2025-05-26 15:34:58.055,0.0004288455531156,0.8274285681528264,6,MB
2025-05-26 15:34:58.063,0.0004140929484835,1.34777956144372,6,MB
2025-05-26 15:34:58.071,0.0003996949705353,1.2997175447406348,6,MB
2025-05-26 15:34:58.079,0.0003857403287495,0.7459506589658903,6,MB
2025-05-26 15:34:58.087,0.0003722986472105,-0.2397882635808559,6,MB
2025-05-26 15:34:58.094,0.0003594182578814,-1.5755250906249234,6,MB
2025-05-26 15:34:58.102,0.0003471245672314,-3.173940641635673,6,MB
2025-05-26 15:34:58.110,0.0003354192513891,-4.945285017766134,6,MB
2025-05-26 15:34:58.118,0.0003242804080862,-6.800218574492208,6,MB
2025-05-26 15:34:58.126,0.0003136636641743,-8.652494248491323,6,MB
2025-05-26 15:34:58.133,0.0003035041425307,-10.421404646634166,6,MB
2025-05-26 15:34:58.141,0.0002937191462292,-12.033928209131766,6,MB
2025-05-26 15:34:58.149,0.0002842114222121,-13.426521452473615,6,MB
2025-05-26 15:34:58.157,0.000274872909334,-14.546518300501472,6,MB
2025-05-26 15:34:58.165,0.0002655889220058,-15.353112298166936,6,MB
2025-05-26 15:34:58.173,0.0002562427231593,-15.817912522580103,6,MB
2025-05-26 15:34:58.180,0.000246720375935,-15.925078710321795,6,MB
2025-05-26 15:34:58.188,0.0002369156577162,-15.671054980338534,6,MB
2025-05-26 15:34:58.196,0.0002267347228289,-15.063934059059788,6,MB
2025-05-26 15:34:58.204,0.0002161001482225,-14.12249467960526,6,MB
2025-05-26 15:34:58.212,0.0002049540039142,-12.874963484786129,6,MB
2025-05-26 15:34:58.219,0.0001932596592332,-11.357559073116668,6,MB
2025-05-26 15:34:58.227,0.0001810021638582,-9.612879662815123,6,MB
2025-05-26 15:34:58.235,0.00016818721431,-7.688197201005424,6,MB
2025-05-26 15:34:58.243,0.0001548388942376,-5.63371971246315,6,MB
2025-05-26 15:34:58.251,0.000140996509595,-3.5008804604262127,6,MB
2025-05-26 15:34:58.258,0.0001267108995383,-1.340707361508643,6,MB
2025-05-26 15:34:58.266,0.0001120406025998,0.797680597366361,6,MB
2025-05-26 15:34:58.274,9.704821938083176e-05,2.86841106359078,6,MB
2025-05-26 15:34:58.282,8.179724819843675e-05,4.829999911852658,6,MB
2025-05-26 15:34:58.290,6.634958369691015e-05,6.646275500780373,6,MB
2025-05-26 15:34:58.298,5.076376590517587e-05,8.287073353366864,6,MB
2025-05-26 15:34:58.305,3.509395295481757e-05,9.728697629609528,6,MB
2025-05-26 15:34:58.313,1.9389479161405717e-05,10.954153690617474,6,MB
2025-05-26 15:34:58.321,3.694780385888346e-06,11.95316306672595,6,MB
2025-05-26 15:34:58.329,-1.1950553354780145e-05,12.721978062642398,6,MB
2025-05-26 15:34:58.337,-2.751179291751883e-05,13.263017951760665,6,MB
2025-05-26 15:34:58.344,-4.295924658173732e-05,13.584352189120589,6,MB
2025-05-26 15:34:58.352,-5.826857124874951e-05,13.699058333743151,6,MB
2025-05-26 15:34:58.360,-7.342110085060079e-05,13.624483498795533,6,MB
2025-05-26 15:34:58.368,-8.840404011642443e-05,13.381438265982029,6,MB
2025-05-26 15:34:58.376,-0.0001032103735525,12.99335125626075,6,MB
2025-05-26 15:34:58.383,-0.0001178383429447,12.485411098758089,6,MB
2025-05-26 15:34:58.391,-0.0001322903516915,11.883720536306612,6,MB
2025-05-26 15:34:58.399,-0.0001465711948122,11.214484988734911,6,MB
2025-05-26 15:34:58.407,-0.000160685609201,10.503255185032936,6,MB
2025-05-26 15:34:58.415,-0.0001746352632645,9.774240576587292,6,MB
2025-05-26 15:34:58.423,-0.0001884154082188,9.04970724491753,6,MB
2025-05-26 15:34:58.430,-0.0002020114602026,8.349470993068193,6,MB
2025-05-26 15:34:58.438,-0.0002153957711704,7.690493317798492,6,MB
2025-05-26 15:34:58.446,-0.0002285248084934,7.086585042404505,6,MB
2025-05-26 15:34:58.454,-0.0002413369451398,6.548219580070871,6,MB
2025-05-26 15:34:58.462,-0.0002537510873378,6.082455124022777,6,MB
2025-05-26 15:34:58.469,-0.0002656664105672,5.692962550882749,6,MB
2025-05-26 15:34:58.477,-0.0002769634897396,5.380153502108832,6,MB
2025-05-26 15:34:58.485,-0.000287507061769,5.141400995883025,6,MB
2025-05-26 15:34:58.493,-0.0002971505381669,4.971343036384203,6,MB
2025-05-26 15:34:58.501,-0.0003057421958598,4.862258045790661,6,MB
2025-05-26 15:34:58.508,-0.0003131327343191,4.804499560759108,6,MB
2025-05-26 15:34:58.516,-0.0003191836394825,4.786976518277414,6,MB
2025-05-26 15:34:58.524,-0.0003237756063589,4.797664609637096,6,MB
2025-05-26 15:34:58.532,-0.0003268162056619,4.824133609753715,6,MB
2025-05-26 15:34:58.540,-0.0003282460614901,4.854075299744184,6,MB
2025-05-26 15:34:58.548,-0.0003280430123235,4.875816603751073,6,MB
2025-05-26 15:34:58.555,-0.0003262239948409,4.878802866760525,6,MB
2025-05-26 15:34:58.563,-0.0003228446540172,4.854036819258978,6,MB
2025-05-26 15:34:58.571,-0.000317996901421,4.79445972130757,6,MB
2025-05-26 15:34:58.579,-0.0003118047990416,4.695262472741089,6,MB
2025-05-26 15:34:58.587,-0.0003044192328507,4.554116140088309,6,MB
2025-05-26 15:34:58.594,-0.0002960118573275,4.371313403546577,6,MB
2025-05-26 15:34:58.602,-0.0002867687420507,4.149814878832341,6,MB
2025-05-26 15:34:58.610,-0.0002768840489729,3.89519711252632,6,MB
2025-05-26 15:34:58.618,-0.0002665539517607,3.6155022509031527,6,MB
2025-05-26 15:34:58.626,-0.0002559709274797,3.32099286315736,6,MB
2025-05-26 15:34:58.633,-0.0002453185323102,3.023819029171284,6,MB
2025-05-26 15:34:58.641,-0.0002347667950271,2.737608397943313,6,MB
2025-05-26 15:34:58.649,-0.000224468378185,2.476993270544216,6,MB
2025-05-26 15:34:58.657,-0.0002145556338226,2.25709163771591,6,MB
2025-05-26 15:34:58.665,-0.0002051386086752,2.092961300338967,6,MB
2025-05-26 15:34:58.673,-0.0001963039452068,1.9990475522852955,6,MB
2025-05-26 15:34:58.680,-0.0001881145152228,1.9886452974839983,6,MB
2025-05-26 15:34:58.688,-0.0001806095629282,2.073395864852106,6,MB
2025-05-26 15:34:58.696,-0.0001738051580035,2.262837209375788,6,MB
2025-05-26 15:34:58.704,-0.0001676948630934,2.5640237463583078,6,MB
2025-05-26 15:34:58.712,-0.0001622506665221,2.9812289161103287,6,MB
2025-05-26 15:34:58.719,-0.0001574243581154,3.5157399191295484,6,MB
2025-05-26 15:34:58.727,-0.0001531495708693,4.165750125893657,6,MB
2025-05-26 15:34:58.735,-0.0001493446483489,4.92635068564202,6,MB
2025-05-26 15:34:58.743,-0.0001459163529679,5.789619051588542,6,MB
2025-05-26 15:34:58.751,-0.0001427642619996,6.744798685540024,6,MB
2025-05-26 15:34:58.758,-0.0001397855672663,7.778561237552602,6,MB
2025-05-26 15:34:58.766,-0.0001368799296478,8.87534010607679,6,MB
2025-05-26 15:34:58.774,-0.0001339540216728,10.017722519486949,6,MB
2025-05-26 15:34:58.782,-0.0001309253867231,11.186886151801197,6,MB
2025-05-26 15:34:58.790,-0.0001277252519617,12.363065772520986,6,MB
2025-05-26 15:34:58.798,-0.0001242999880478,13.526035484606414,6,MB
2025-05-26 15:34:58.805,-0.0001206110315192,14.65559265242391,6,MB
2025-05-26 15:34:58.813,-0.0001166332485827,15.732030567053078,6,MB
2025-05-26 15:34:58.821,-0.0001123518709807,16.73658812947217,6,MB
2025-05-26 15:34:58.829,-0.0001077582397374,17.651866243161113,6,MB
2025-05-26 15:34:58.837,-0.0001028446478319,18.462202100601253,6,MB
2025-05-26 15:34:58.844,-9.759860623776504e-05,19.153994048020067,6,MB
2025-05-26 15:34:58.852,-9.199690459428222e-05,19.715971168028965,6,MB
2025-05-26 15:34:58.860,-8.599989846177885e-05,20.13940310314647,6,MB
2025-05-26 15:34:58.868,-7.954649197493108e-05,20.418246951611163,6,MB
2025-05-26 15:34:58.876,-7.255027375553707e-05,20.549229320851133,6,MB
2025-05-26 15:34:58.883,-6.489721863382217e-05,20.53186286060059,6,MB
2025-05-26 15:34:58.891,-5.6445301028084525e-05,20.36839785610296,6,MB
2025-05-26 15:34:58.899,-4.7026265392770274e-05,20.063710767284068,6,MB
2025-05-26 15:34:58.907,-3.644964896709536e-05,19.625132953122005,6,MB
2025-05-26 15:34:58.915,-2.450895922800563e-05,19.06222419587441,6,MB
2025-05-26 15:34:58.923,-1.0989711101422003e-05,18.38649699040346,6,MB
2025-05-26 15:34:58.930,4.32111973869929e-06,17.611098833181053,6,MB
2025-05-26 15:34:58.938,2.1624742467465152e-05,16.75046087996222,6,MB
2025-05-26 15:34:58.946,4.10998222471053e-05,15.81992229672157,6,MB
2025-05-26 15:34:58.954,6.289188984574318e-05,14.835340372143657,6,MB
2025-05-26 15:34:58.962,8.710337403479444e-05,13.81269696522996,6,MB
2025-05-26 15:34:58.969,0.0001137846934067,12.767712102594968,6,MB
2025-05-26 15:34:58.977,0.0001429267900798,11.715475489542634,6,MB
2025-05-26 15:34:58.985,0.0001744554410609,10.67010633276809,6,MB
2025-05-26 15:34:58.993,0.0002082276295816,9.6444511751094,6,MB
2025-05-26 15:34:59.001,0.0002440301826765,8.649828410353598,6,MB
2025-05-26 15:34:59.008,0.0002815807968043,7.695826788013462,6,MB
2025-05-26 15:34:59.016,0.0003205314932599,6.790163559878917,6,MB
2025-05-26 15:34:59.024,0.0003604744545636,5.938606006608602,6,MB
2025-05-26 15:34:59.032,0.000400950080865,5.144957976021829,6,MB
2025-05-26 15:34:59.040,0.0004414569877154,4.411110839454037,6,MB
2025-05-26 15:34:59.048,0.0004814635665295,3.7371560081302846,6,MB
2025-05-26 15:34:59.055,0.0005204206582784,3.1215539305118285,6,MB
2025-05-26 15:34:59.063,0.0005577748523724,2.5613524018742213,6,MB
2025-05-26 15:34:59.071,0.0005929819169917,2.052445151727891,6,MB
2025-05-26 15:34:59.079,0.0006255198944572,1.5898601228097888,6,MB
2025-05-26 15:34:59.087,0.0006549014551418,1.168065694257017,6,MB
2025-05-26 15:34:59.094,0.0006806851932937,0.7812823897983716,6,MB
2025-05-26 15:34:59.102,0.0007024856550835,0.4237873869609797,6,MB
2025-05-26 15:34:59.110,0.0007199819807432,0.0901994206318923,6,MB
2025-05-26 15:34:59.118,0.0007329250826676,-0.2242675532787299,6,MB
2025-05-26 15:34:59.126,0.0007411432702447,-0.5235923290934861,6,MB
2025-05-26 15:34:59.133,0.0007445462102288,-0.810784794211024,6,MB
2025-05-26 15:34:59.141,0.0007431271066636,-1.0877813686289626,6,MB
2025-05-26 15:34:59.149,0.0007369629885368,-1.355401984373758,6,MB
2025-05-26 15:34:59.157,0.0007262129997823,-1.6133705928802289,6,MB
2025-05-26 15:34:59.165,0.0007111146143104,-1.8603986640996149,6,MB
2025-05-26 15:34:59.173,0.0006919777718238,-2.0943286498969886,6,MB
2025-05-26 15:34:59.180,0.0006691770487503,-2.312332018196709,6,MB
2025-05-26 15:34:59.188,0.000643142111897,-2.511154301465585,6,MB
2025-05-26 15:34:59.196,0.000614346804166,-2.687397705913977,6,MB
2025-05-26 15:34:59.204,0.0005832972575605,-2.837830241020149,6,MB
2025-05-26 15:34:59.212,0.0005505194335785,-2.9597090795911902,6,MB
2025-05-26 15:34:59.219,0.0005165464805152,-3.051104961049851,6,MB
2025-05-26 15:34:59.227,0.000481906282116,-3.1112139162753,6,MB
2025-05-26 15:34:59.235,0.0004471095563817,-3.1406424348000326,6,MB
2025-05-26 15:34:59.243,0.0004126388487714,-3.14165242807582,6,MB
2025-05-26 15:34:59.251,0.0003789387401298,-3.118352974783948,6,MB
2025-05-26 15:34:59.258,0.0003464075358883,-3.076826871922882,6,MB
2025-05-26 15:34:59.266,0.0003153906092832,-3.025181469180335,6,MB
2025-05-26 15:34:59.274,0.000286175460843,-2.973515150958272,6,MB
2025-05-26 15:34:59.282,0.000258988477134,-2.9337931660485794,6,MB
2025-05-26 15:34:59.290,0.0002339933472221,-2.919629290792667,6,MB
2025-05-26 15:34:59.298,0.0002112911010163,-2.945973024369021,6,MB
2025-05-26 15:34:59.305,0.0001909217322761,-3.0287056014104663,6,MB
2025-05-26 15:34:59.313,0.0001728673477382,-3.184151982000996,6,MB
2025-05-26 15:34:59.321,0.0001570567498676,-3.428520022745169,6,MB
2025-05-26 15:34:59.329,0.0001433713121526,-3.777282091521772,6,MB
2025-05-26 15:34:59.337,0.0001316519217522,-4.244518279982338,6,MB
2025-05-26 15:34:59.344,0.0001217066415051,-4.8422438878277925,6,MB
2025-05-26 15:34:59.352,0.0001133186308072,-5.579746783295746,6,MB
2025-05-26 15:34:59.360,0.0001062538326354,-6.462962359776846,6,MB
2025-05-26 15:34:59.368,0.0001002680118159,-7.493914888135116,6,MB
2025-05-26 15:34:59.376,9.511288967318487e-05,-8.670253910732718,6,MB
2025-05-26 15:34:59.383,9.054130084972396e-05,-9.98491278404883,6,MB
2025-05-26 15:34:59.391,8.631143565731051e-05,-11.425913462377444,6,MB
2025-05-26 15:34:59.399,8.219029494271508e-05,-12.97633711156261,6,MB
2025-05-26 15:34:59.407,7.79564935463438e-05,-14.6144742248222,6,MB
2025-05-26 15:34:59.415,7.340254747385936e-05,-16.314160761681183,6,MB
2025-05-26 15:34:59.423,6.83367992583515e-05,-18.045298737264638,6,MB
2025-05-26 15:34:59.430,6.258517443485046e-05,-19.774551053315,6,MB
2025-05-26 15:34:59.438,5.5992986786498585e-05,-21.466191675676733,6,MB
2025-05-26 15:34:59.446,4.842697423233666e-05,-23.083084071921512,6,MB
2025-05-26 15:34:59.454,3.977762930136782e-05,-24.58775367888156,6,MB
2025-05-26 15:34:59.462,2.996171693539783e-05,-25.9435145758639,6,MB
2025-05-26 15:34:59.469,1.8924709857201364e-05,-27.11560689964785,6,MB
2025-05-26 15:34:59.477,6.642778109137607e-06,-28.07230011964767,6,MB
2025-05-26 15:34:59.485,-6.87602697507712e-06,-28.785918203372663,6,MB
2025-05-26 15:34:59.493,-2.15916738631422e-05,-29.23374588448708,6,MB
2025-05-26 15:34:59.501,-3.743330755049415e-05,-29.398780481649936,6,MB
2025-05-26 15:34:59.508,-5.430172259381568e-05,-29.27030065378574,6,MB
2025-05-26 15:34:59.516,-7.207310229301646e-05,-28.84423166358223,6,MB
2025-05-26 15:34:59.524,-9.06038670269061e-05,-28.123295644885264,6,MB
2025-05-26 15:34:59.532,-0.0001097363897682,-27.11694450450896,6,MB
2025-05-26 15:34:59.540,-0.0001293052843403,-25.84108192775168,6,MB
2025-05-26 15:34:59.548,-0.0001491439535041,-24.317589042828956,6,MB
2025-05-26 15:34:59.555,-0.0001690910998981,-22.57367525673918,6,MB
2025-05-26 15:34:59.563,-0.0001889969427759,-20.641081337855905,6,MB
2025-05-26 15:34:59.571,-0.0002087289217464,-18.55516584762737,6,MB
