Timestamp,ECG_test1_ECGtoHR_LA_RA_CAL,Lead I (LA-RA),Lead II (LL-LA),Lead III (LL-RA),Vx-RL
2025-03-08 13:17:57.839,59.76653696498055,0.0096209781794061,-0.0190148309120644,-0.0093936477195829,0.0140978171114937
2025-03-08 13:17:57.841,59.76653696498055,0.0075881563168689,-0.0162820291082578,-0.0086936672024841,0.0109794617032086
2025-03-08 13:17:57.843,59.76653696498055,0.0058893416948507,-0.0137938073460155,-0.0079042594659538,0.0078354900712875
2025-03-08 13:17:57.845,59.76653696498055,0.0047647633166346,-0.0118972592938513,-0.0071322891596509,0.0046758672022888
2025-03-08 13:17:57.847,59.76653696498055,0.004335280074696,-0.0109362045171204,-0.0066007169601004,0.0016196890656425
2025-03-08 13:17:57.849,59.76653696498055,0.0045480371438574,-0.0111173661775728,-0.0065691208749857,-0.0011203376468912
2025-03-08 13:17:57.851,59.76653696498055,0.0051905102910106,-0.0123592292758249,-0.0071685101648377,-0.0033171302482129
2025-03-08 13:17:57.853,59.76653696498055,0.0059747050580364,-0.0142331717323525,-0.0082582572270082,-0.0048205622320242
2025-03-08 13:17:57.855,59.76653696498055,0.0066302711030187,-0.0160745881112632,-0.0094441069685302,-0.0056104873820997
2025-03-08 13:17:57.857,59.76653696498055,0.0069517685313584,-0.0172378355025494,-0.0102858563569911,-0.0057932506142761
2025-03-08 13:17:57.859,59.76653696498055,0.0068094839772483,-0.0173753978599517,-0.0105657026860875,-0.0055580416527348
2025-03-08 13:17:57.861,59.76653696498055,0.0061717110749169,-0.0166020417620903,-0.0104301188791551,-0.0051374502724542
2025-03-08 13:17:57.863,59.76653696498055,0.0051477706809938,-0.0154579567869631,-0.010309973652196,-0.0047937526873732
2025-03-08 13:17:57.864,59.76653696498055,0.0039929590410954,-0.0146739397025887,-0.0106807675404296,-0.0047808019584482
2025-03-08 13:17:57.866,59.76653696498055,0.0030144259771079,-0.0148298977101609,-0.0118152579471149,-0.005232256895118
2025-03-08 13:17:57.868,59.76653696498055,0.0024048683096947,-0.0160613116687738,-0.0136562289330625,-0.0060445332653964
2025-03-08 13:17:57.870,59.76653696498055,0.0021185101326474,-0.0179770538598964,-0.0158583286951584,-0.0069000283768704
2025-03-08 13:17:57.872,59.76653696498055,0.0018903223249096,-0.0198641384060878,-0.0179736004685959,-0.0074804723064207
2025-03-08 13:17:57.874,59.76653696498055,0.0013952081528568,-0.021083754193458,-0.0196883298518847,-0.0077364105261831
2025-03-08 13:17:57.876,59.76653696498055,0.0004423586213038,-0.021426822467818,-0.0209842470633542,-0.007987078124671
2025-03-08 13:17:57.878,59.76653696498055,-0.000924754047295,-0.0212163658865942,-0.0221409025256563,-0.0087275450301273
2025-03-08 13:17:57.880,59.76653696498055,-0.0024805476660173,-0.0211001556574863,-0.0235804852636621,-0.01027293372812
2025-03-08 13:17:57.882,59.76653696498055,-0.0039618992828123,-0.021651494837603,-0.025613175400298,-0.0125444129974385
2025-03-08 13:17:57.884,59.76653696498055,-0.0051921898913996,-0.0230017603278909,-0.0281937308521759,-0.0151655437097684
2025-03-08 13:17:57.886,59.76653696498055,-0.0061283326038917,-0.0247293084579833,-0.0308574210755881,-0.0177163544716111
2025-03-08 13:17:57.888,59.76653696498055,-0.0068496123903306,-0.0260984898350689,-0.0329478816476798,-0.0198811808617856
2025-03-08 13:17:57.890,59.76653696498055,-0.0075153714723467,-0.026518032915748,-0.0340331832325744,-0.0214294130316793
2025-03-08 13:17:57.892,59.76653696498055,-0.0082962957924199,-0.025924607838909,-0.0342206818913433,-0.0221778493323511
2025-03-08 13:17:57.894,59.76653696498055,-0.0092945711744586,-0.0248401671872438,-0.0341345160148035,-0.0220577592224978
2025-03-08 13:17:57.896,59.76653696498055,-0.0104933877623384,-0.0240705016670068,-0.034563666449723,-0.0212442717269059
2025-03-08 13:17:57.898,59.76653696498055,-0.0117694762179647,-0.0242359093904657,-0.0360051619804822,-0.0202137258973991
2025-03-08 13:17:57.900,59.76653696498055,-0.0129650928630985,-0.0254120852005108,-0.0383769537896179,-0.0196451592618585
2025-03-08 13:17:57.902,59.76653696498055,-0.0139762745698512,-0.0270864769876135,-0.0410625266557332,-0.0201834339981224
2025-03-08 13:17:57.904,59.76653696498055,-0.0147976801066131,-0.0284562519851846,-0.0432537065866986,-0.0221405476178867
2025-03-08 13:17:57.905,59.76653696498055,-0.0154971182724365,-0.0288937164832603,-0.0443906086651827,-0.0252449129859196
2025-03-08 13:17:57.907,59.76653696498055,-0.0161578399639698,-0.0282967855631118,-0.0444543988541999,-0.0285933468844733
2025-03-08 13:17:57.909,59.76653696498055,-0.0168456529517409,-0.0271176826044766,-0.0439631082887271,-0.0309475461573543
2025-03-08 13:17:57.911,59.76653696498055,-0.01760360147059,-0.026080128439189,-0.04368350202755,-0.0313444036755003
2025-03-08 13:17:57.913,59.76653696498055,-0.0184359393376023,-0.0257828261365516,-0.0442185369600605,-0.0297119258780488
2025-03-08 13:17:57.915,59.76653696498055,-0.0192805901527051,-0.0264183407250977,-0.0456987017263227,-0.0270454880033679
2025-03-08 13:17:57.917,59.76653696498055,-0.0200192373995515,-0.0277317465324628,-0.0477507541513374,-0.0249278390602107
2025-03-08 13:17:57.919,59.76653696498055,-0.0205506250574204,-0.0291972973936915,-0.0497476920581955,-0.0246675183683571
2025-03-08 13:17:57.921,59.76653696498055,-0.0208821999443162,-0.0302895874748698,-0.051171556430834,-0.0266434990286711
2025-03-08 13:17:57.923,59.76653696498055,-0.0211621529096307,-0.0307135320222095,-0.051875453356647,-0.0302586446443585
2025-03-08 13:17:57.925,59.76653696498055,-0.0216091472788975,-0.0305112053314093,-0.0521201204454405,-0.0344128966574943
2025-03-08 13:17:57.927,59.76653696498055,-0.0223726081601522,-0.0300212051039482,-0.0523935804980701,-0.0380846866872052
2025-03-08 13:17:57.929,59.76653696498055,-0.0234189544351407,-0.0297099680189229,-0.0531286890734782,-0.0406772410346419
2025-03-08 13:17:57.931,59.76653696498055,-0.0245300820116066,-0.0299465271604555,-0.0544763751685799,-0.0420630381036423
2025-03-08 13:17:57.933,59.76653696498055,-0.0254150545075781,-0.0308372856084968,-0.0562521054900765,-0.0424597885301275
2025-03-08 13:17:57.935,59.76653696498055,-0.0258534665474559,-0.0322186978539056,-0.058071929160934,-0.0422800910275459
2025-03-08 13:17:57.937,59.76653696498055,-0.0257847018202678,-0.0338055216093929,-0.0595899875860123,-0.0419888180026657
2025-03-08 13:17:57.939,59.76653696498055,-0.0253163645041132,-0.0353761136670334,-0.0606922417331986,-0.0419282279978889
2025-03-08 13:17:57.941,59.76653696498055,-0.0246776101301278,-0.0368444025816297,-0.0615217756826677,-0.042128607459535
2025-03-08 13:17:57.943,59.76653696498055,-0.024149183882866,-0.0381666536033255,-0.0623155998631658,-0.0422481166630976
2025-03-08 13:17:57.945,59.76653696498055,-0.023984374643493,-0.0391904455909565,-0.0631745820113378,-0.0417790039745405
2025-03-08 13:17:57.947,59.76653696498055,-0.0243341881247149,-0.0396214280752325,-0.0639553773708383,-0.0404406706760152
2025-03-08 13:17:57.948,59.76653696498055,-0.0252008311733306,-0.0391774390706968,-0.0643780308059392,-0.0384723784916847
2025-03-08 13:17:57.950,59.76653696498055,-0.0264347670771028,-0.0378193357375205,-0.0642538627682737,-0.0365882464961254
2025-03-08 13:17:57.952,59.76653696498055,-0.0277694531963661,-0.0358726333641445,-0.0636418459093594,-0.0356189190235556
2025-03-08 13:17:57.954,59.76653696498055,-0.0288852698923279,-0.0339415725516667,-0.0628266011925495,-0.0360904260338832
2025-03-08 13:17:57.956,59.76653696498055,-0.0295040584275686,-0.0326656356695417,-0.0621694522495052,-0.0380039561082885
2025-03-08 13:17:57.958,59.76653696498055,-0.0295040663422344,-0.0324535749264767,-0.0619573988280004,-0.0408956817438678
2025-03-08 13:17:57.960,59.76653696498055,-0.0290079188144585,-0.0333210237815538,-0.0623286995639819,-0.0440550985738986
2025-03-08 13:17:57.962,59.76653696498055,-0.0283752141194783,-0.0348974144670446,-0.0632723849635842,-0.0467503212056123
2025-03-08 13:17:57.964,59.76653696498055,-0.0280675463255647,-0.036595621244951,-0.0646629233555172,-0.0484239425344968
2025-03-08 13:17:57.966,59.76653696498055,-0.0284350388525499,-0.0378713434504869,-0.0663061374932933,-0.0488734100969106
2025-03-08 13:17:57.968,59.76653696498055,-0.0295371742146158,-0.0384571136353267,-0.067994042441983,-0.0483409922902506
2025-03-08 13:17:57.970,59.76653696498055,-0.0311029062906605,-0.0384563796435429,-0.0695590399254045,-0.0473952609411754
2025-03-08 13:17:57.972,59.76653696498055,-0.0326581873318482,-0.0382370670326297,-0.0708950077550362,-0.0466284305722625
2025-03-08 13:17:57.974,59.76653696498055,-0.0337508020963648,-0.0381714829730147,-0.0719220378634929,-0.0463799433752764
2025-03-08 13:17:57.976,59.76653696498055,-0.0341447795837087,-0.0383864094861502,-0.0725309412750493,-0.0466872040771195
2025-03-08 13:17:57.978,59.76653696498055,-0.0338860866338072,-0.0387070229820607,-0.0725928612402386,-0.047435058893662
2025-03-08 13:17:57.980,59.76653696498055,-0.0332373036123598,-0.0388336505749815,-0.072070705235824,-0.0484793981401682
2025-03-08 13:17:57.982,59.76653696498055,-0.0325512708439223,-0.0385897459142794,-0.0711407672297537,-0.0496109439368934
2025-03-08 13:17:57.984,59.76653696498055,-0.0321452989440404,-0.0380310953453452,-0.0701761441769719,-0.0504998410237002
2025-03-08 13:17:57.986,59.76653696498055,-0.0321969759735215,-0.0373613470306523,-0.069558072298087,-0.0508329547681538
2025-03-08 13:17:57.988,59.76653696498055,-0.0326810683068649,-0.0367757854015018,-0.0694566024015819,-0.0505913604239286
2025-03-08 13:17:57.989,59.76653696498055,-0.0333863987472664,-0.036375085518751,-0.0697612323588827,-0.050168241919109
2025-03-08 13:17:57.991,59.76653696498055,-0.034024606850826,-0.0361818844099938,-0.070206238762345,-0.0501446884062511
2025-03-08 13:17:57.993,59.76653696498055,-0.0343768682942335,-0.0361971731541827,-0.0705737883729775,-0.0508825349925969
2025-03-08 13:17:57.995,59.76653696498055,-0.0343975759298431,-0.0364224016540751,-0.0708197239446257,-0.0522583680159407
2025-03-08 13:17:57.997,59.76653696498055,-0.0342300260788945,-0.0368263954969248,-0.0710561673778342,-0.0537183382384029
2025-03-08 13:17:57.999,59.76653696498055,-0.034135991554635,-0.0372998268393315,-0.0714355636314516,-0.0545915142145914
2025-03-08 13:17:58.001,59.76653696498055,-0.0343700088206931,-0.0376574263811511,-0.072027179860612,-0.054466156218791
2025-03-08 13:17:58.003,59.76653696498055,-0.0350561120235486,-0.0377062629258844,-0.0727621190143967,-0.0534233061368023
2025-03-08 13:17:58.005,59.76653696498055,-0.03613461461641,-0.0373448325654938,-0.0734791906456966,-0.0519964972839728
2025-03-08 13:17:58.007,59.76653696498055,-0.0374054544897687,-0.0366333491868771,-0.0740385465447975,-0.0508713711737666
2025-03-08 13:17:58.009,59.76653696498055,-0.038628665378482,-0.0357825368734384,-0.0744109445414776,-0.0504969378703557
2025-03-08 13:17:58.011,59.76653696498055,-0.0396140316702412,-0.0350500038437124,-0.074663777245764,-0.0508586139110365
2025-03-08 13:17:58.013,59.76653696498055,-0.0402587585024939,-0.0346038764244723,-0.0748623761153331,-0.0515782928676204
2025-03-08 13:17:58.015,59.76653696498055,-0.0405436658046018,-0.0344532062759295,-0.0749966127256537,-0.0522467194852921
2025-03-08 13:17:58.017,59.76653696498055,-0.0405287682031464,-0.0344939442921939,-0.0750224525828346,-0.0526679093034687
2025-03-08 13:17:58.019,59.76653696498055,-0.0403623093953336,-0.0346176263737293,-0.0749796752773088,-0.0528025851166685
2025-03-08 13:17:58.021,59.76653696498055,-0.0402619272929742,-0.0347868316221179,-0.0750484978269502,-0.0525617210005238
2025-03-08 13:17:58.023,59.76653696498055,-0.040428140043616,-0.0350311242210554,-0.0754590025775331,-0.0517679972853043
2025-03-08 13:17:58.025,59.76653696498055,-0.0409260789073667,-0.0353843338748692,-0.0763101505108832,-0.0503656609774331
2025-03-08 13:17:58.027,59.76653696498055,-0.041624995725035,-0.035810730077541,-0.0774354629728854,-0.0486455371295524
2025-03-08 13:17:58.029,59.76653696498055,-0.0422470411180398,-0.0361705386053831,-0.0784173163597653,-0.0472304140270103
2025-03-08 13:17:58.030,59.76653696498055,-0.0424990990228437,-0.0362664272037698,-0.0787652623393641,-0.0467892316362128
2025-03-08 13:17:58.032,59.76653696498055,-0.0422198254122012,-0.0359704352977941,-0.0781899962898613,-0.0476512226889515
2025-03-08 13:17:58.034,59.76653696498055,-0.0414732492418769,-0.0353609977056791,-0.0768339819701308,-0.0495508600457459
2025-03-08 13:17:58.036,59.76653696498055,-0.0405393851626707,-0.0347580327397985,-0.0752971523411019,-0.0516686141633026
2025-03-08 13:17:58.038,59.76653696498055,-0.0397949709244752,-0.0345866687533502,-0.0743813735183378,-0.0529788482221291
2025-03-08 13:17:58.040,59.76653696498055,-0.0395382776809979,-0.0351197870552218,-0.0746577979856868,-0.0527505770176751
2025-03-08 13:17:58.042,59.76653696498055,-0.0398517681780054,-0.0362606580981356,-0.076112158960754,-0.0509618559018613
2025-03-08 13:17:58.044,59.76653696498055,-0.0405801935636764,-0.0375296666513235,-0.0781095923676408,-0.0483991624705056
2025-03-08 13:17:58.046,59.76653696498055,-0.0414354403378145,-0.0382928973180818,-0.079728069299586,-0.0463087732634608
2025-03-08 13:17:58.048,59.76653696498055,-0.0421628898199407,-0.038106590450542,-0.0802692114063481,-0.0456992009136412
2025-03-08 13:17:58.050,59.76653696498055,-0.0426658744401093,-0.0369759205216688,-0.0796415255681498,-0.0467025104520085
2025-03-08 13:17:58.052,59.76653696498055,-0.0430160156594906,-0.0353808561755975,-0.0783966018786817,-0.0484779311602759
2025-03-08 13:17:58.054,59.76653696498055,-0.0433601286704373,-0.0340497071446229,-0.077409565268794,-0.0497751404756397
2025-03-08 13:17:58.056,59.76653696498055,-0.0438008889905437,-0.0335909895916623,-0.0773916074404498,-0.0497548009282585
2025-03-08 13:17:58.058,59.76653696498055,-0.0443247169287703,-0.0341756758077503,-0.0785001210195679,-0.048488008984078
2025-03-08 13:17:58.060,59.76653696498055,-0.0448007965495192,-0.0354490209883377,-0.0802495452828245,-0.0468345821900898
2025-03-08 13:17:58.062,59.76653696498055,-0.0450405349112561,-0.0367295690837553,-0.0817698312374784,-0.0458298198464195
2025-03-08 13:17:58.064,59.76653696498055,-0.0448960575512123,-0.0373840401314825,-0.0822798244384741,-0.0459969990371541
2025-03-08 13:17:58.066,59.76653696498055,-0.0443584818420372,-0.0371638211056005,-0.0815220292043496,-0.047032379593537
2025-03-08 13:17:58.068,59.76653696498055,-0.0435968163287174,-0.0363221740945446,-0.0799187161465255,-0.0480649952734933
2025-03-08 13:17:58.070,59.76653696498055,-0.0428978696182786,-0.035463567230915,-0.0783611620006767,-0.0482975062027242
2025-03-08 13:17:58.072,59.76653696498055,-0.0425322584487689,-0.0352101306843572,-0.077742113691316,-0.0475725273400566
2025-03-08 13:17:58.073,59.76653696498055,-0.0426262262518191,-0.0358473734139114,-0.0784733236385366,-0.0464976519113738
2025-03-08 13:17:58.075,59.76653696498055,-0.0431114895724731,-0.0371301088225743,-0.0802413218173056,-0.0461013733781594
2025-03-08 13:17:58.077,59.76653696498055,-0.0437683525201032,-0.0383779760250953,-0.0821460514618958,-0.0472779887221017
2025-03-08 13:17:58.079,59.76653696498055,-0.0443248720709789,-0.0388448825261209,-0.0831694770407071,-0.0503313286119424
2025-03-08 13:17:58.081,59.76653696498055,-0.044561376677696,-0.0381638570008769,-0.0827249556522519,-0.054798604257021
2025-03-08 13:17:58.083,59.76653696498055,-0.0443869968718152,-0.0365909567543885,-0.0809776751019206,-0.0595843117808644
2025-03-08 13:17:58.085,59.76653696498055,-0.04387313728669,-0.0348872186306093,-0.0787600768502995,-0.0633527342337097
2025-03-08 13:17:58.087,59.76653696498055,-0.0432326683849491,-0.0339095115134334,-0.0771419002508996,-0.0650707437425911
2025-03-08 13:17:58.089,59.76653696498055,-0.0427383972670441,-0.0341574089970002,-0.0768955260260456,-0.0644910633598099
2025-03-08 13:17:58.091,59.76653696498055,-0.0426018482134077,-0.0355303555076544,-0.0781319229170404,-0.0622979899968131
2025-03-08 13:17:58.093,59.76653696498055,-0.0428716591055963,-0.0374061922226121,-0.0802775700060594,-0.0597679124031019
2025-03-08 13:17:58.095,59.76653696498055,-0.0434144302744083,-0.038968414660434,-0.0823825631421679,-0.0581137320626412
2025-03-08 13:17:58.097,59.76653696498055,-0.0439910633119901,-0.0395951556150064,-0.0835859366869233,-0.057916020267479
2025-03-08 13:17:58.099,59.76653696498055,-0.0443817014481198,-0.0391212319600994,-0.0835026507073917,-0.0589649113508887
2025-03-08 13:17:58.101,59.76653696498055,-0.0444900031173096,-0.0378720318030914,-0.0823617517157517,-0.0605323204530428
2025-03-08 13:17:58.103,59.76653696498055,-0.0443748059676911,-0.0364869542495834,-0.0808614764585047,-0.0618282710574727
2025-03-08 13:17:58.105,59.76653696498055,-0.0441958297160646,-0.0356339598428599,-0.0798295052153256,-0.0623394364977963
2025-03-08 13:17:58.107,59.76653696498055,-0.0441042238261188,-0.0357300565809625,-0.0798339954847861,-0.061911651989146
2025-03-08 13:17:58.109,59.76653696498055,-0.044142591460209,-0.0367566824042721,-0.080898988404916,-0.0606697933709654
2025-03-08 13:17:58.111,59.76653696498055,-0.0442236981909829,-0.0382417004322206,-0.0824651126831231,-0.0589435661800202
2025-03-08 13:17:58.113,59.76653696498055,-0.0442101787362578,-0.0394515342152742,-0.0836614265746401,-0.0572421192619361
2025-03-08 13:17:58.114,59.76653696498055,-0.0440330972197961,-0.0397462652841008,-0.0837790756986545,-0.0561874370991935
2025-03-08 13:17:58.116,59.76653696498055,-0.043747184404433,-0.0389288199036116,-0.0826757170433418,-0.0563277537978978
2025-03-08 13:17:58.118,59.76653696498055,-0.0434823680587382,-0.0373803052726437,-0.0808623855526796,-0.0578657563235244
2025-03-08 13:17:58.120,59.76653696498055,-0.0433470934739885,-0.0358812522134779,-0.0792280573454188,-0.0604537328533548
2025-03-08 13:17:58.122,59.76653696498055,-0.0433634108173168,-0.0352094314897151,-0.0785725533839659,-0.0632495617940185
2025-03-08 13:17:58.124,59.76653696498055,-0.0434645853027128,-0.0357445838565265,-0.0792088796797211,-0.0653093457978574
2025-03-08 13:17:58.126,59.76653696498055,-0.0435372609397839,-0.0373000176018522,-0.0808369885613713,-0.0661329230635761
2025-03-08 13:17:58.128,59.76653696498055,-0.0434811036677193,-0.0392497385108488,-0.0827305517570205,-0.065986384859363
2025-03-08 13:17:58.130,59.76653696498055,-0.0432671385210573,-0.0408449961109368,-0.0841118438026246,-0.0657215806343227
2025-03-08 13:17:58.132,59.76653696498055,-0.0429726555374373,-0.0415422777669773,-0.0845146420578902,-0.0661736424203678
2025-03-08 13:17:58.134,59.76653696498055,-0.0427651483530923,-0.041206714471451,-0.0839715711137818,-0.0675631006397838
2025-03-08 13:17:58.136,59.76653696498055,-0.0428271428318464,-0.0401292520447895,-0.0829561026413931,-0.0693543460579017
2025-03-08 13:17:58.138,59.76653696498055,-0.0432525896826486,-0.0388645923767063,-0.0821168892579416,-0.0706759685470782
2025-03-08 13:17:58.140,59.76653696498055,-0.0439713602068868,-0.0379701284720852,-0.0819411953108493,-0.0709705236625826
2025-03-08 13:17:58.142,59.76653696498055,-0.0447527315556,-0.037771074210571,-0.0825235118736758,-0.0703833547472309
2025-03-08 13:17:58.144,59.76653696498055,-0.0453040815828862,-0.0382512573332852,-0.0835550445642361,-0.0696394159532739
2025-03-08 13:17:58.146,59.76653696498055,-0.0454274820124405,-0.0390977941166154,-0.0845249813731066,-0.0695575956252883
2025-03-08 13:17:58.148,59.76653696498055,-0.0451460703133878,-0.0398642464268842,-0.0850100215986746,-0.0705734305766863
2025-03-08 13:17:58.150,59.76653696498055,-0.0447046093369818,-0.0401812081138456,-0.0848855218960785,-0.0725559568105351
2025-03-08 13:17:58.152,59.76653696498055,-0.0444194160308544,-0.0399297314629833,-0.0843488514671929,-0.0749556715723293
2025-03-08 13:17:58.154,59.76653696498055,-0.0444731220498009,-0.0392983042053855,-0.0837711296974267,-0.0771227266671797
2025-03-08 13:17:58.155,59.76653696498055,-0.0448129012397729,-0.038682288709299,-0.0834948928317649,-0.0785844573433693
2025-03-08 13:17:58.157,59.76653696498055,-0.0452337381785186,-0.0384653100577633,-0.083698750577527,-0.079139637650261
2025-03-08 13:17:58.159,59.76653696498055,-0.0455683099053458,-0.0388066917276228,-0.0843747034894654,-0.078757824441862
2025-03-08 13:17:58.161,59.76653696498055,-0.0458159315228826,-0.0395696931414613,-0.0853853261037077,-0.0774185410462003
2025-03-08 13:17:58.163,59.76653696498055,-0.0461079866068558,-0.0404286541423786,-0.0865363418166072,-0.0750950579255627
2025-03-08 13:17:58.165,59.76653696498055,-0.0465554022037817,-0.0410660757975269,-0.0876211786973016,-0.0719705352146636
2025-03-08 13:17:58.167,59.76653696498055,-0.0471152994569477,-0.0413275683127244,-0.0884425680509352,-0.0687027677986815
2025-03-08 13:17:58.169,59.76653696498055,-0.0475833178976076,-0.041260659444034,-0.0888436771438383,-0.0663866410360603
2025-03-08 13:17:58.171,59.76653696498055,-0.0477149730292756,-0.0410474932740778,-0.0887621655748762,-0.0660532566488607
2025-03-08 13:17:58.173,59.76653696498055,-0.0473910666323943,-0.04089343129183,-0.0882841966535,-0.0679801520962501
2025-03-08 13:17:58.175,59.76653696498055,-0.0467179466021597,-0.0409400478043949,-0.0876576926290403,-0.0713398625029561
2025-03-08 13:17:58.177,59.76653696498055,-0.0459949575163769,-0.0412347679572557,-0.0872294232549424,-0.0745103139296675
2025-03-08 13:17:58.179,59.76653696498055,-0.045563213132774,-0.0417402352063615,-0.0873031457428837,-0.0758853917627336
2025-03-08 13:17:58.181,59.76653696498055,-0.0456272989510122,-0.0423491750914433,-0.0879761710991588,-0.0746883167514011
2025-03-08 13:17:58.183,59.76653696498055,-0.0461584441315028,-0.0428940878693856,-0.089052228693706,-0.0713475745006299
2025-03-08 13:17:58.185,59.76653696498055,-0.0469271336516543,-0.0431740183908126,-0.0901008483169715,-0.0672843908142136
2025-03-08 13:17:58.187,59.76653696498055,-0.0476312344726219,-0.0430253663065857,-0.0906562965721692,-0.0642217369830049
2025-03-08 13:17:58.189,59.76653696498055,-0.0480437946760307,-0.0424248780521342,-0.0904683680007105,-0.0633300112896676
2025-03-08 13:17:58.191,59.76653696498055,-0.0481048894142423,-0.0415625274539868,-0.0896671116265808,-0.0646687454209239
2025-03-08 13:17:58.193,59.76653696498055,-0.0479086230435025,-0.0408202762564254,-0.0887285935932859,-0.0672708256937813
2025-03-08 13:17:58.195,59.76653696498055,-0.0475945538977062,-0.0406467781402174,-0.088241025934677,-0.0697933618147418
2025-03-08 13:17:58.197,59.76653696498055,-0.0472223249033148,-0.0413662186174955,-0.0885882370752091,-0.071265214315506
2025-03-08 13:17:58.198,59.76653696498055,-0.0467242380611392,-0.04297334293423,-0.0896972742215426,-0.0714609294871065
2025-03-08 13:17:58.200,59.76653696498055,-0.0459646983607961,-0.0449868529155212,-0.0909512441427054,-0.0707887067247304
2025-03-08 13:17:58.202,59.76653696498055,-0.0448538233461975,-0.0464655619152867,-0.091319077708355,-0.0699239774201455
2025-03-08 13:17:58.204,59.76653696498055,-0.0434420878987366,-0.0462659621580354,-0.0897077420278273,-0.069465950846296
2025-03-08 13:17:58.206,59.76653696498055,-0.0419517000814713,-0.0434982456825544,-0.0854496372360598,-0.0697284391262471
2025-03-08 13:17:58.208,59.76653696498055,-0.0407232548473612,-0.0379923296989713,-0.0787152755420179,-0.0706539067095174
2025-03-08 13:17:58.210,59.76653696498055,-0.0400733499744578,-0.0305284474929712,-0.0706014880449297,-0.0718267764817607
2025-03-08 13:17:58.212,59.76653696498055,-0.0401021997277443,-0.0226655801877511,-0.0627674701403396,-0.0725763865286105
2025-03-08 13:17:58.214,59.76653696498055,-0.0405428124873384,-0.0161849970997337,-0.0567274995006041,-0.0721750801764403
2025-03-08 13:17:58.216,59.76653696498055,-0.0407563124277451,-0.0123805411793833,-0.0531365432074489,-0.0701212599546921
2025-03-08 13:17:58.218,59.76653696498055,-0.0399278867148161,-0.0115536078300155,-0.0514811837896922,-0.0664045054849967
2025-03-08 13:17:58.220,59.76653696498055,-0.0374102895345976,-0.0129927558723253,-0.0504027342368933,-0.0615759316858019
2025-03-08 13:17:58.222,59.76653696498055,-0.0330487751395177,-0.0154429273530707,-0.048491390862634,-0.0565298233765547
2025-03-08 13:17:58.224,59.76653696498055,-0.0273038189873928,-0.0177666628671343,-0.0450701697580291,-0.0521011581021006
2025-03-08 13:17:58.226,59.76653696498055,-0.021104779121308,-0.019387482430383,-0.0404919490249187,-0.0487348878665399
2025-03-08 13:17:58.228,59.76653696498055,-0.0155181850138898,-0.0202885822098872,-0.0358064543287875,-0.0464489110113766
2025-03-08 13:17:58.230,59.76653696498055,-0.0113777410395779,-0.0206879728512339,-0.0320654006856228,-0.0450723695403553
2025-03-08 13:17:58.232,59.76653696498055,-0.0089990991279149,-0.0207181025733299,-0.0297168882124264,-0.0445010272281291
2025-03-08 13:17:58.234,59.76653696498055,-0.0080691125792658,-0.0203308188090142,-0.0283996175997124,-0.0447462435949936
2025-03-08 13:17:58.236,59.76653696498055,-0.0077773491510907,-0.0193980398775729,-0.0271750748919147,-0.0458090665029648
2025-03-08 13:17:58.238,59.76653696498055,-0.007183567959196,-0.0178706196100195,-0.0250538730300466,-0.0475618074844328
2025-03-08 13:17:58.239,59.76653696498055,-0.0056656861158722,-0.0159320113932073,-0.021597382536544,-0.0497377083764831
2025-03-08 13:17:58.241,59.76653696498055,-0.0031904233774265,-0.0141438676916094,-0.0173339756724979,-0.051974338373142
2025-03-08 13:17:58.243,59.76653696498055,-0.0002448231754413,-0.0135082369319887,-0.013752744333099,-0.0538125649167664
2025-03-08 13:17:58.245,59.76653696498055,0.0024890909888922,-0.0152790400758129,-0.0127896329959226,-0.0546771125666887
2025-03-08 13:17:58.247,59.76653696498055,0.0044773422034015,-0.0204295890776032,-0.0159519305134798,-0.0540100411296849
2025-03-08 13:17:58.249,59.76653696498055,0.0055101390399853,-0.028945160403763,-0.0234347047445819,-0.0516424753963641
2025-03-08 13:17:58.251,59.76653696498055,0.0056756665644371,-0.0393663311195835,-0.0336903476498518,-0.0481842349486239
2025-03-08 13:17:58.253,59.76653696498055,0.0051922909060451,-0.0490092617111487,-0.0438166535637045,-0.0450375313454539
2025-03-08 13:17:58.255,59.76653696498055,0.0042018469423389,-0.0549540443665673,-0.0507518798019027,-0.043852611606636
2025-03-08 13:17:58.257,59.76653696498055,0.0026542048904768,-0.055406701402542,-0.052752178493727,-0.0456804617448622
2025-03-08 13:17:58.259,59.76653696498055,0.0003770790233207,-0.0507219343445227,-0.0503445369306694,-0.0503549015328909
2025-03-08 13:17:58.261,59.76653696498055,-0.0027139258878404,-0.0434582939264723,-0.046171901103679,-0.0565181621985723
2025-03-08 13:17:58.263,59.76653696498055,-0.006442774683183,-0.0373302875635983,-0.0437727432716645,-0.0622887605406947
2025-03-08 13:17:58.265,59.76653696498055,-0.0103965852161785,-0.0355466006048389,-0.0459428666144515,-0.0661770626373598
2025-03-08 13:17:58.267,59.76653696498055,-0.0141472510843658,-0.0393702673507871,-0.0535171989933965,-0.0677475154573081
2025-03-08 13:17:58.269,59.76653696498055,-0.017522927887842,-0.0475936221538596,-0.0651162303289974,-0.0677262845346007
2025-03-08 13:17:58.271,59.76653696498055,-0.0207474923866686,-0.0571391217003611,-0.0778862940565998,-0.0675661403170338
2025-03-08 13:17:58.273,59.76653696498055,-0.0243556186429439,-0.0644860353517022,-0.0888413336149699,-0.068709299787038
2025-03-08 13:17:58.275,59.76653696498055,-0.0289294943801508,-0.0672852974496428,-0.0962144711026768,-0.0718860517456798
2025-03-08 13:17:58.277,59.76653696498055,-0.0347966568542322,-0.0654342146799354,-0.1002305504955008,-0.0767719086896137
2025-03-08 13:17:58.279,59.76653696498055,-0.0418386059609248,-0.0610745431367223,-0.1029128278007501,-0.0821727375171994
2025-03-08 13:17:58.280,59.76653696498055,-0.0495029798986236,-0.0574421623905853,-0.1069448207795877,-0.0866410417102746
2025-03-08 13:17:58.282,59.76653696498055,-0.0570091568959078,-0.057097036925384,-0.1141058721159081,-0.0891940763174859
2025-03-08 13:17:58.284,59.76653696498055,-0.0636272547240246,-0.0604861364752527,-0.1241130692809153,-0.0897589019072469
2025-03-08 13:17:58.286,59.76653696498055,-0.0688736266160205,-0.0656881116744653,-0.1345614161198542,-0.0891446087991907
2025-03-08 13:17:58.288,59.76653696498055,-0.0725484453676118,-0.0695148129152804,-0.1420629358219079,-0.0886066667189082
2025-03-08 13:17:58.290,59.76653696498055,-0.0746708311907386,-0.0693360736876375,-0.1440065821123964,-0.089232274074022
2025-03-08 13:17:58.292,59.76653696498055,-0.0754161492001281,-0.0646031887140898,-0.1400190148617298,-0.0913956267581028
2025-03-08 13:17:58.294,59.76653696498055,-0.0750972594827229,-0.0572566976815579,-0.1323536338692559,-0.094506221259636
2025-03-08 13:17:58.296,59.76653696498055,-0.0741505789377396,-0.0508008903850899,-0.1249511458340489,-0.0972165984999659
2025-03-08 13:17:58.298,59.76653696498055,-0.0730754637475513,-0.0484942921206884,-0.1215694322166095,-0.098072559676397
2025-03-08 13:17:58.300,59.76653696498055,-0.0723174012578171,-0.0515727612652387,-0.1238898387087854,-0.0963150461737087
2025-03-08 13:17:58.302,59.76653696498055,-0.0721278684287574,-0.0584626721065848,-0.1305902165314864,-0.0923961066594585
2025-03-08 13:17:58.304,59.76653696498055,-0.0724629355129793,-0.0654703630302673,-0.1379329743134222,-0.0878858970610209
2025-03-08 13:17:58.306,59.76653696498055,-0.0729925544961116,-0.0686528763053485,-0.1416451063221509,-0.0847604631597986
2025-03-08 13:17:58.308,59.76653696498055,-0.0732491877142919,-0.0659124916523383,-0.1391613546422593,-0.0844185617389081
2025-03-08 13:17:58.310,59.76653696498055,-0.07285863810353,-0.0581929699453368,-0.1310512831118477,-0.0869710957599042
2025-03-08 13:17:58.312,59.76653696498055,-0.071746912652017,-0.0490893022341017,-0.1208358897821816,-0.0912025725840176
2025-03-08 13:17:58.314,59.76653696498055,-0.0702362956934816,-0.0430098737576225,-0.1132458442179746,-0.0951986044872908
2025-03-08 13:17:58.316,59.76653696498055,-0.0689747465200801,-0.0428353899725397,-0.1118098111435022,-0.0972806877823148
2025-03-08 13:17:58.318,59.76653696498055,-0.0686705724263346,-0.0483480277783491,-0.117018274725227,-0.0967976095022309
2025-03-08 13:17:58.320,59.76653696498055,-0.0696943587670916,-0.056329367158031,-0.1260234002852032,-0.0944172826437151
2025-03-08 13:17:58.322,59.76653696498055,-0.0717479291814066,-0.0623344500515303,-0.1340820534066462,-0.0917336518717716
2025-03-08 13:17:58.323,59.76653696498055,-0.0738406584764621,-0.063234235177032,-0.1370745676364539,-0.0902875137895856
2025-03-08 13:17:58.325,59.76653696498055,-0.0746686165808369,-0.0591694271539366,-0.1338377175495425,-0.0904607015509991
2025-03-08 13:17:58.327,59.76653696498055,-0.0732481603004386,-0.0538174953751768,-0.1270653293625231,-0.0909027958549007
2025-03-08 13:17:58.329,59.76653696498055,-0.0694658155014924,-0.0527412233860794,-0.1222067124862233,-0.0889658919043411
2025-03-08 13:17:58.331,59.76653696498055,-0.0641741790739913,-0.0606406776839393,-0.1248145302895625,-0.0820388926159847
2025-03-08 13:17:58.333,59.76653696498055,-0.0586342713108932,-0.0789825610612606,-0.13761650583238,-0.06898434103951
2025-03-08 13:17:58.335,59.76653696498055,-0.053454079337827,-0.1052818069307122,-0.1587355596342211,-0.0506457112706253
2025-03-08 13:17:58.337,59.76653696498055,-0.0475591538157294,-0.1342990468525396,-0.1818578739145071,-0.0289388580742008
2025-03-08 13:17:58.339,59.76653696498055,-0.0379034966668853,-0.1602186523249172,-0.198121822109616,-0.0050369532251971
2025-03-08 13:17:58.341,59.76653696498055,-0.0203745210952055,-0.1783145481315887,-0.1986887422318439,0.0221038848520148
2025-03-08 13:17:58.343,59.76653696498055,0.0082926129776768,-0.1850962809273987,-0.1768033408774805,0.0556666927501769
2025-03-08 13:17:58.345,59.76653696498055,0.0484435650475091,-0.1771106909495336,-0.1286667987922778,0.0989968688980861
2025-03-08 13:17:58.347,59.76653696498055,0.0963878200323578,-0.1496268900823504,-0.0532387429293314,0.1526395434758096
2025-03-08 13:17:58.349,59.76653696498055,0.1449889216311353,-0.0966036278267412,0.0483856209324821,0.2121567045190988
2025-03-08 13:17:58.351,59.76653696498055,0.1858849033120218,-0.012440126480377,0.1734451039837992,0.268192396044842
2025-03-08 13:17:58.353,59.76653696498055,0.2123825424491293,0.1053845192456805,0.3177673888938017,0.3088100029419253
2025-03-08 13:17:58.355,59.76653696498055,0.2216351587619852,0.254544623784898,0.4761801098044556,0.3225843206212921
2025-03-08 13:17:58.357,59.76653696498055,0.2150307788611159,0.4283367254477349,0.6433678316148229,0.3006108254111235
2025-03-08 13:17:58.359,59.76653696498055,0.1966732572714956,0.6182169122226403,0.8148904968175756,0.2368117990779265
2025-03-08 13:17:58.361,59.76653696498055,0.1709059857792294,0.816485579636929,0.9873918927177108,0.1276366946349273
2025-03-08 13:17:58.363,59.76653696498055,0.1403624732186831,1.0164672979645877,1.1568300984316622,-0.0270342716891732
2025-03-08 13:17:58.364,59.76653696498055,0.1056354360365135,1.208914253005619,1.314550016225787,-0.2210383149677836
2025-03-08 13:17:58.366,59.76653696498055,0.0664666975591802,1.3767015345405007,1.4431685592273025,-0.4386253690032493
2025-03-08 13:17:58.368,59.76653696498055,0.023182245855393,1.49277846440188,1.5159610373474224,-0.6538828980612753
2025-03-08 13:17:58.370,59.76653696498055,-0.0229887208275567,1.525577901898067,1.5025895081361862,-0.8354181308756228
2025-03-08 13:17:58.372,59.76653696498055,-0.070831916545566,1.4511904551031056,1.38035886559426,-0.9556142665148244
2025-03-08 13:17:58.374,59.76653696498055,-0.1200502853070591,1.2661822435672132,1.146132285243823,-1.000231492209585
2025-03-08 13:17:58.376,59.76653696498055,-0.1708309255180156,0.9934659236598378,0.8226353250371138,-0.973261645895678
2025-03-08 13:17:58.378,59.76653696498055,-0.2220610455706607,0.6772776840880541,0.4552169652916905,-0.8945597852740269
2025-03-08 13:17:58.380,59.76653696498055,-0.2696200224373842,0.3692976711966248,0.0996779753944042,-0.7917472626863185
2025-03-08 13:17:58.382,59.76653696498055,-0.3065431496517253,0.1124865729253238,-0.1940562502305984,-0.690519201283371
2025-03-08 13:17:58.384,59.76653696498055,-0.3257278591768798,-0.0700131722187369,-0.3957407050277478,-0.6076075512867557
2025-03-08 13:17:58.386,59.76653696498055,-0.3238435899444568,-0.176759210019168,-0.500602473712645,-0.5486607199328173
2025-03-08 13:17:58.388,59.76653696498055,-0.3037775340205573,-0.221752703859352,-0.5255299117461817,-0.5105674506194736
2025-03-08 13:17:58.390,59.76653696498055,-0.2736763589032177,-0.2250324467834596,-0.4987084796861688,-0.4858679870381361
2025-03-08 13:17:58.392,59.76653696498055,-0.2430527366876434,-0.20529644606159,-0.4483488569091042,-0.4667120273547174
2025-03-08 13:17:58.394,59.76653696498055,-0.2184909253837267,-0.1767764629328414,-0.3952670626651351,-0.4469823322275422
2025-03-08 13:17:58.396,59.76653696498055,-0.2015150236586338,-0.149281051479827,-0.3507957496953541,-0.4226812224355727
2025-03-08 13:17:58.398,59.76653696498055,-0.1894030999269142,-0.1289923772738767,-0.3183951519726037,-0.3915695988761216
2025-03-08 13:17:58.400,59.76653696498055,-0.1778051671987943,-0.1185224038102862,-0.2963272459924277,-0.3529758993919076
2025-03-08 13:17:58.402,59.76653696498055,-0.1633463731708919,-0.1165126929943603,-0.279858741354951,-0.3079657010827352
2025-03-08 13:17:58.404,59.76653696498055,-0.1450129848730567,-0.1180562493163043,-0.2630689095867982,-0.2594185880324638
2025-03-08 13:17:58.406,59.76653696498055,-0.1241115971414298,-0.1167403892288452,-0.2408516619873053,-0.2114935039534669
2025-03-08 13:17:58.407,59.76653696498055,-0.1032270380047978,-0.1077365656416169,-0.2109632795029994,-0.1684133417573441
2025-03-08 13:17:58.409,59.76653696498055,-0.0848410458467997,-0.0903062420645777,-0.1751469640288533,-0.1330587207414678
2025-03-08 13:17:58.411,59.76653696498055,-0.070296489203146,-0.0682019672401163,-0.138498132837483,-0.1060997037155536
2025-03-08 13:17:58.413,59.76653696498055,-0.0595656184945676,-0.0476490835449434,-0.1072143787178608,-0.0861407900074357
2025-03-08 13:17:58.415,59.76653696498055,-0.0517761678669063,-0.0340580853669547,-0.085833930197591,-0.0707927975175999
2025-03-08 13:17:58.417,59.76653696498055,-0.0459702240269033,-0.0293542651927938,-0.0753241664697788,-0.0580643764097944
2025-03-08 13:17:58.419,59.76653696498055,-0.0415273231462503,-0.0313500397657328,-0.0728770404546689,-0.0472972191132796
2025-03-08 13:17:58.421,59.76653696498055,-0.0380922303642986,-0.0352952197936559,-0.0733871280066071,-0.0391657568072056
2025-03-08 13:17:58.423,59.76653696498055,-0.0352911467926053,-0.0365316113437436,-0.0718224363085391,-0.0348170350729677
2025-03-08 13:17:58.425,59.76653696498055,-0.0326109810668025,-0.0327692654109309,-0.0653799249895817,-0.0346889658925141
2025-03-08 13:17:58.427,59.76653696498055,-0.0295649043300415,-0.0249356226024164,-0.0545002057938987,-0.0377076485722839
2025-03-08 13:17:58.429,59.76653696498055,-0.0259752969406714,-0.0163738436625822,-0.0423488198173122,-0.0413709212108933
2025-03-08 13:17:58.431,59.76653696498055,-0.0221169147787922,-0.0109253121666629,-0.0330419065121204,-0.042732367025616
2025-03-08 13:17:58.433,59.76653696498055,-0.0185853576898011,-0.0108811825083556,-0.0294662201205274,-0.0397689126152441
2025-03-08 13:17:58.435,59.76653696498055,-0.0159508713810102,-0.0158047526033072,-0.0317553042731658,-0.0323933121347751
2025-03-08 13:17:58.437,59.76653696498055,-0.014397790515574,-0.0227764897505773,-0.0371739609398603,-0.0225690118815201
2025-03-08 13:17:58.439,59.76653696498055,-0.0135712710313709,-0.0278871455067697,-0.041458097617697,-0.0134244805603384
2025-03-08 13:17:58.441,59.76653696498055,-0.0127438388572205,-0.0281889932402434,-0.0409325135992529,-0.0077375700167727
2025-03-08 13:17:58.443,59.76653696498055,-0.0112227618167718,-0.0231271360311766,-0.0343495797786411,-0.0065133685377654
2025-03-08 13:17:58.445,59.76653696498055,-0.0087568428581548,-0.0147642750257513,-0.0235208002407657,-0.0084338793401941
2025-03-08 13:17:58.447,59.76653696498055,-0.0056821889985675,-0.0067096656878643,-0.012391537463333,-0.0105757356917485
2025-03-08 13:17:58.448,59.76653696498055,-0.0026991346310655,-0.0022906960624125,-0.0049895138895317,-0.0100611553397242
2025-03-08 13:17:58.450,59.76653696498055,-0.0004109595689838,-0.0028832005250443,-0.0032938437199253,-0.0056561665922716
2025-03-08 13:17:58.452,59.76653696498055,0.001076974098911,-0.0072501886046503,-0.0061728985839064,0.0016862797297367
2025-03-08 13:17:58.454,59.76653696498055,0.0022332797474094,-0.0122274300586242,-0.0099938348691923,0.0096110311544695
2025-03-08 13:17:58.456,59.76653696498055,0.0038138537763808,-0.0143882865114167,-0.0105741177953608,0.0158545548615882
2025-03-08 13:17:58.458,59.76653696498055,0.0064179085720666,-0.0118127821231754,-0.0053945591232087,0.0194841918391213
2025-03-08 13:17:58.460,59.76653696498055,0.0101621698798888,-0.0050569080614656,0.0051055757395967,0.0212515540474724
2025-03-08 13:17:58.462,59.76653696498055,0.0146227670820683,0.0031496036089966,0.0177726841184434,0.0230286830716697
2025-03-08 13:17:58.464,59.76653696498055,0.0190204575492032,0.0093061404954826,0.0283269109876981,0.0267368073244413
2025-03-08 13:17:58.466,59.76653696498055,0.0225420163323407,0.0109249888841659,0.033467317670925,0.0333133767849882
2025-03-08 13:17:58.468,59.76653696498055,0.0246888106729021,0.0077755552361238,0.0324646778537153,0.0421716944405741
2025-03-08 13:17:58.470,59.76653696498055,0.0255315558603557,0.0019436885626522,0.027475555825735,0.0514062416890459
2025-03-08 13:17:58.472,59.76653696498055,0.0257278420666863,-0.0033024016526264,0.0224257512436501,0.0586975202780559
2025-03-08 13:17:58.474,59.76653696498055,0.0262317045232129,-0.0052040989158802,0.0210279158458641,0.0624864286306469
2025-03-08 13:17:58.476,59.76653696498055,0.0278162625914288,-0.0028530830067246,0.0249634892331314,0.0627590320603615
2025-03-08 13:17:58.478,59.76653696498055,0.0306852799505727,0.0024894713366255,0.0331750603610957,0.0609970326821588
2025-03-08 13:17:58.480,59.76653696498055,0.0344084071701862,0.0081851909053763,0.0425939065928954,0.0593902285889063
2025-03-08 13:17:58.482,59.76653696498055,0.0382095090734862,0.0116343574278554,0.0498441744685407,0.0598051140214595
2025-03-08 13:17:58.484,59.76653696498055,0.0414276105162658,0.0115525027664495,0.0529804206864505,0.0630105072647402
2025-03-08 13:17:58.486,59.76653696498055,0.0438806652529354,0.0084836701622577,0.0523646422244045,0.0684457823895539
2025-03-08 13:17:58.488,59.76653696498055,0.0459332206277797,0.0043648330574105,0.050298359862576,0.0745793624425806
2025-03-08 13:17:58.489,59.76653696498055,0.0482541233645564,0.001440828891862,0.0496952577735054,0.0796653801936409
2025-03-08 13:17:58.491,59.76653696498055,0.0514284865123926,0.0011198520450599,0.0525486434053369,0.0825191269657279
2025-03-08 13:17:58.493,59.76653696498055,0.0556471105115265,0.0033406742675173,0.0589880889690302,0.0829446771604658
2025-03-08 13:17:58.495,59.76653696498055,0.0606213616370317,0.0067334083967018,0.0673550735873678,0.0816700556352868
2025-03-08 13:17:58.497,59.76653696498055,0.0657342410533115,0.0094491963744224,0.0751837403613413,0.0799061100047368
2025-03-08 13:17:58.499,59.76653696498055,0.0703267019423173,0.0101985419455567,0.0805255461996869,0.0787938097439578
2025-03-08 13:17:58.501,59.76653696498055,0.0739746888674718,0.0089364983860194,0.0829114889201646,0.078999514463739
2025-03-08 13:17:58.503,59.76653696498055,0.0766299739088718,0.0068399359133948,0.0834702108066738,0.0805999450057006
2025-03-08 13:17:58.505,59.76653696498055,0.078566863021598,0.0056275479729811,0.0841947112608298,0.0832525283652413
2025-03-08 13:17:58.507,59.76653696498055,0.0801858873135019,0.0066215049999433,0.0868076918412569,0.086529054229446
2025-03-08 13:17:58.509,59.76653696498055,0.0818080984397603,0.0100518799860156,0.0918602772166661,0.0902228090610579
2025-03-08 13:17:58.511,59.76653696498055,0.0835697363442317,0.0149543513092622,0.0985243857255808,0.0944590862096702
2025-03-08 13:17:58.513,59.76653696498055,0.0854286524634546,0.0197051152208772,0.1051340650585339,0.0995524878730242
2025-03-08 13:17:58.515,59.76653696498055,0.0872366546432682,0.0229051040210242,0.1101420553492185,0.1056963744620418
2025-03-08 13:17:58.517,59.76653696498055,0.0888444748048554,0.0241296871680297,0.1129744579563303,0.1126817906648025
2025-03-08 13:17:58.519,59.76653696498055,0.0902145120749547,0.0241307192621277,0.114345526588492,0.1198687412899972
2025-03-08 13:17:58.521,59.76653696498055,0.0914970414453488,0.0243964596060801,0.1158937955338749,0.1264807336088703
2025-03-08 13:17:58.523,59.76653696498055,0.0930272281352014,0.026342251410282,0.1193697732307208,0.1320261559965272
2025-03-08 13:17:58.525,59.76653696498055,0.0952326840839618,0.0305838291180183,0.1258168060806417,0.1365488396794132
2025-03-08 13:17:58.527,59.76653696498055,0.0984719567285012,0.0366559979093644,0.13512824671956,0.1405950073448184
2025-03-08 13:17:58.529,59.76653696498055,0.1028542807605271,0.0432846655795994,0.1461392376436256,0.14500074687693
2025-03-08 13:17:58.531,59.76653696498055,0.108129631686445,0.0490442378234392,0.1571741600488044,0.1506211813775013
2025-03-08 13:17:58.532,59.76653696498055,0.1137443513183751,0.0530459424383479,0.1667905835283417,0.1580434884673685
2025-03-08 13:17:58.534,59.76653696498055,0.1190837641712709,0.0553017645545127,0.1743858177087701,0.1673289945170924
2025-03-08 13:17:58.536,59.76653696498055,0.1237945923264008,0.0566142892316864,0.1804091697200499,0.1778974101855882
2025-03-08 13:17:58.538,59.76653696498055,0.1279893809106856,0.058118319887508,0.1861079881087357,0.1886849564958357
2025-03-08 13:17:58.540,59.76653696498055,0.1321728653716643,0.0607511223446012,0.1929242741584732,0.1985970332938351
2025-03-08 13:17:58.542,59.76653696498055,0.1369079553638365,0.0648941666263231,0.2018024075645225,0.2070480974918784
2025-03-08 13:17:58.544,59.76653696498055,0.1424410008972662,0.0703030065789947,0.212744292195244,0.2142311285495872
2025-03-08 13:17:58.546,59.76653696498055,0.148552002231615,0.0763162246992132,0.224868510807343,0.2209146150024429
2025-03-08 13:17:58.548,59.76653696498055,0.1547235440055569,0.0822249755222696,0.2369488025639552,0.2279305165556388
2025-03-08 13:17:58.550,59.76653696498055,0.1604832535706773,0.0876081112922053,0.2480916470448374,0.2357191186659536
2025-03-08 13:17:58.552,59.76653696498055,0.1656775467346359,0.0924579676294059,0.258135795665774,0.2441799035639651
2025-03-08 13:17:58.554,59.76653696498055,0.1705256948969307,0.097059726684502,0.2675857019746065,0.2528526022178206
2025-03-08 13:17:58.556,59.76653696498055,0.1754642038329848,0.1017453066355901,0.2772097899333099,0.261305473493479
2025-03-08 13:17:58.558,59.76653696498055,0.1809047655131569,0.1066925117470202,0.2875975557907747,0.2695044896951806
2025-03-08 13:17:58.560,59.76653696498055,0.1870525452061475,0.1118641567090798,0.298916979518017,0.2778876454804101
2025-03-08 13:17:58.562,59.76653696498055,0.1938659957103687,0.1170708973834562,0.3109371697786217,0.2870242306058831
2025-03-08 13:17:58.564,59.76653696498055,0.2011326363951794,0.1220793012861945,0.323212213451415,0.2970852788709482
2025-03-08 13:17:58.566,59.76653696498055,0.2085741825681835,0.1266913928687438,0.335265850282778,0.3075773748205279
2025-03-08 13:17:58.568,59.76653696498055,0.215917777435872,0.1307738506806569,0.3466919020170888,0.3176183556891858
2025-03-08 13:17:58.570,59.76653696498055,0.2229304438515638,0.1342756189580716,0.3572063357394304,0.3265606771116152
2025-03-08 13:17:58.572,59.76653696498055,0.2294479088323739,0.1372791000230947,0.3667272807940441,0.3344280751549583
2025-03-08 13:17:58.573,59.76653696498055,0.2354165086004108,0.1400555848942926,0.3754723644329429,0.341775483056452
2025-03-08 13:17:58.575,59.76653696498055,0.2409258596045836,0.1430275850888137,0.3839537146334237,0.3490989123812743
2025-03-08 13:17:58.577,59.76653696498055,0.2461814415273891,0.1465923536786596,0.3927740641549612,0.3563212168639334
2025-03-08 13:17:58.579,59.76653696498055,0.2513930693234296,0.1508963809288083,0.4022897182132807,0.3627910430748267
2025-03-08 13:17:58.581,59.76653696498055,0.2566318454469958,0.1557152129009433,0.4123473253139978,0.3677711877526399
2025-03-08 13:17:58.583,59.76653696498055,0.2617605167733339,0.1605175072829135,0.4222782900091699,0.3710102119988618
2025-03-08 13:17:58.585,59.76653696498055,0.2664995522954239,0.1646670361822428,0.4311668533936496,0.3729835666887309
2025-03-08 13:17:58.587,59.76653696498055,0.2705812500178203,0.1676563927389883,0.4382379066147835,0.3746593479712239
2025-03-08 13:17:58.589,59.76653696498055,0.2738774102262607,0.169284034096413,0.4431617071110546,0.3769407484373149
2025-03-08 13:17:58.591,59.76653696498055,0.2764274556101314,0.1697242973571571,0.4461520146854157,0.3801155179208778
2025-03-08 13:17:58.593,59.76653696498055,0.2783828946792701,0.1694712521440255,0.4478544074768612,0.3836390244165833
2025-03-08 13:17:58.595,59.76653696498055,0.279921786196254,0.1691775447599058,0.4490995905491767,0.3863821771554847
2025-03-08 13:17:58.597,59.76653696498055,0.2811677996112311,0.1694502904716641,0.4506183486106196,0.3871857587962637
2025-03-08 13:17:58.599,59.76653696498055,0.2821366937430029,0.1706699158356673,0.4528068670253382,0.3853748257902148
2025-03-08 13:17:58.601,59.76653696498055,0.2827360468039064,0.1728690448753355,0.4556053480218446,0.380957865436399
2025-03-08 13:17:58.603,59.76653696498055,0.2828152002858119,0.1756953573066595,0.4585108128085125,0.3745004670990298
2025-03-08 13:17:58.605,59.76653696498055,0.2822193769944415,0.1784930951523641,0.4607127262218267,0.3668559360942368
2025-03-08 13:17:58.607,59.76653696498055,0.2808159096534068,0.180522116665176,0.4613382792493594,0.3588872921274977
2025-03-08 13:17:58.609,59.76653696498055,0.2785164712895722,0.1812608026406626,0.4597775257218796,0.3511834648723716
2025-03-08 13:17:58.611,59.76653696498055,0.2753228975277268,0.1806574913898652,0.4559806395761068,0.3438124609455037
2025-03-08 13:17:58.613,59.76653696498055,0.2713648622688753,0.1791858635146997,0.4505509753078702,0.3362929753607733
2025-03-08 13:17:58.614,59.76653696498055,0.2668684826697362,0.1776417608516896,0.4445104918991406,0.3278992653100041
2025-03-08 13:17:58.616,59.76653696498055,0.2620439427928216,0.1767414417613818,0.4387856317636332,0.3181350324059478
2025-03-08 13:17:58.618,59.76653696498055,0.2569569484392803,0.1766994677900395,0.4336566622464586,0.3070542198342877
2025-03-08 13:17:58.620,59.76653696498055,0.2514807116473367,0.1770315485309591,0.4285125049852215,0.2952481232266355
2025-03-08 13:17:58.622,59.76653696498055,0.2453747909483052,0.1767520957204431,0.4221271302588167,0.2835706184986834
2025-03-08 13:17:58.624,59.76653696498055,0.2384353125136344,0.174892867095494,0.4133284219861375,0.2727835756820788
2025-03-08 13:17:58.626,59.76653696498055,0.2306045198038204,0.1710245999607302,0.4016293609362898,0.2632569883672036
2025-03-08 13:17:58.628,59.76653696498055,0.2219765100920483,0.1654460161103177,0.3874227661720172,0.2547981697282718
2025-03-08 13:17:58.630,59.76653696498055,0.2127326174911251,0.1589419200402527,0.3716747762914148,0.246674021841152
2025-03-08 13:17:58.632,59.76653696498055,0.2030805116380745,0.1522937458142631,0.3553744949842264,0.2378689093907743
2025-03-08 13:17:58.634,59.76653696498055,0.1932274892007789,0.145841624520103,0.3390693500007319,0.2275183825269967
2025-03-08 13:17:58.636,59.76653696498055,0.1833565246097689,0.139328416293219,0.3226851759100784,0.2153103076712494
2025-03-08 13:17:58.638,59.76653696498055,0.1735702982659635,0.1320967868200064,0.3056673188095339,0.2016138906792751
2025-03-08 13:17:58.640,59.76653696498055,0.1638286154681839,0.1235263565935717,0.2873552045023912,0.1872705085655735
2025-03-08 13:17:58.642,59.76653696498055,0.1539550139114364,0.1134591127808668,0.2674143578573239,0.1731986015464702
2025-03-08 13:17:58.644,59.76653696498055,0.143750008686311,0.1023708251031464,0.2461210636847648,0.1600415341938923
2025-03-08 13:17:58.646,59.76653696498055,0.1331402667928068,0.0912112232430207,0.2243517186587162,0.1480238773650771
2025-03-08 13:17:58.648,59.76653696498055,0.1222405268437399,0.0810159953860637,0.2032567495665176,0.1370475918169447
2025-03-08 13:17:58.650,59.76653696498055,0.1112850346417642,0.0724731756241431,0.1837584362951418,0.1269063859523286
2025-03-08 13:17:58.652,59.76653696498055,0.1005071151259841,0.0656264376865188,0.1661337775128384,0.1174282414791113
2025-03-08 13:17:58.654,59.76653696498055,0.0900692844324462,0.0598589986884645,0.1499285064781279,0.1084565163913856
2025-03-08 13:17:58.656,59.76653696498055,0.0800658009420809,0.0541940650915464,0.1342600880440302,0.0997600076382893
2025-03-08 13:17:58.657,59.76653696498055,0.0705490164412954,0.047777023994194,0.1183262611036076,0.0910286916417409
2025-03-08 13:17:58.659,59.76653696498055,0.0615448174181199,0.0402873356269186,0.1018323723771122,0.0820020751921956
2025-03-08 13:17:58.661,59.76653696498055,0.0530729718121527,0.0320678836856993,0.0851410734946888,0.0726349191652891
2025-03-08 13:17:58.663,59.76653696498055,0.0451884983091846,0.0239238879711356,0.0691126029333067,0.0631730677382929
2025-03-08 13:17:58.665,59.76653696498055,0.038009657378307,0.0167141691565522,0.0547240418270948,0.0540694237900116
2025-03-08 13:17:58.667,59.76653696498055,0.0316751733495623,0.0109440915954475,0.0426194788567495,0.0457657880215864
2025-03-08 13:17:58.669,59.76653696498055,0.026221514290409,0.0065510281358782,0.0327727549416483,0.038484116350238
2025-03-08 13:17:58.671,59.76653696498055,0.0214545484800669,0.0029753116737369,0.0244300712651717,0.0321898955472587
2025-03-08 13:17:58.673,59.76653696498055,0.0169357651614854,-0.0005296840470156,0.0164062908224146,0.0267226382699255
2025-03-08 13:17:58.675,59.76653696498055,0.0121492099971405,-0.0045202782050254,0.007629140101095,0.0219239658461635
2025-03-08 13:17:58.677,59.76653696498055,0.0067749433547928,-0.0091195811375593,-0.0023444308704528,0.0176473132250315
2025-03-08 13:17:58.679,59.76653696498055,0.0008852921424716,-0.0140106364914014,-0.0131251388376983,0.0137105544182451
2025-03-08 13:17:58.681,59.76653696498055,-0.0050861674221001,-0.0186255855592042,-0.0237115488830688,0.0099250637082936
2025-03-08 13:17:58.683,59.76653696498055,-0.0105931140119131,-0.0224211153463133,-0.0330140266892335,0.0062299795134177
2025-03-08 13:17:58.685,59.76653696498055,-0.0152785969565234,-0.0251321617030208,-0.0404105574351499,0.0027997283014884
2025-03-08 13:17:58.687,59.76653696498055,-0.0191427135992937,-0.026903443458889,-0.0460459572884072,-2.9302277920131067e-05
2025-03-08 13:17:58.689,59.76653696498055,-0.022494530219837,-0.0282216021000361,-0.0507159340079706,-0.0020044951860068
2025-03-08 13:17:58.691,59.76653696498055,-0.0257395055748866,-0.0296626805836015,-0.0554019893030473,-0.0032026065339321
2025-03-08 13:17:58.693,59.76653696498055,-0.0291322724349755,-0.0315923952425291,-0.0607244722767273,-0.0040921547815942
2025-03-08 13:17:58.695,59.76653696498055,-0.0326377528667569,-0.033998413855381,-0.0666359727779286,-0.0053289911115597
2025-03-08 13:17:58.697,59.76653696498055,-0.0359818913672568,-0.0365469734308488,-0.0725286723179022,-0.007347078696432
2025-03-08 13:17:58.698,59.76653696498055,-0.0388437152499333,-0.0388097797976321,-0.0776533040431885,-0.0099852502515098
2025-03-08 13:17:58.700,59.76653696498055,-0.0410357840097441,-0.0405138034944632,-0.0815493979886041,-0.0124682092905542
2025-03-08 13:17:58.702,59.76653696498055,-0.0425500424934474,-0.0416775911603132,-0.0842274456375055,-0.0138519812413781
2025-03-08 13:17:58.704,59.76653696498055,-0.0434843036777574,-0.0425761928182261,-0.0860603099853268,-0.0136472229448661
2025-03-08 13:17:58.706,59.76653696498055,-0.0439607905942384,-0.0435674166483183,-0.0875280222398185,-0.0121429991612796
2025-03-08 13:17:58.708,59.76653696498055,-0.0441147278027295,-0.0448823885686499,-0.0889969328771983,-0.0102034913301734
2025-03-08 13:17:58.710,59.76653696498055,-0.0441346611532427,-0.0464961834746508,-0.0906306626439604,-0.0087405165227538
2025-03-08 13:17:58.712,59.76653696498055,-0.0442844596911978,-0.0481325350654087,-0.0924168142874584,-0.0082444196180845
2025-03-08 13:17:58.714,59.76653696498055,-0.0448568803033398,-0.049377109676903,-0.0942338110333841,-0.0086145967988848
2025-03-08 13:17:58.716,59.76653696498055,-0.046062275764114,-0.0498448895912918,-0.0959069879399871,-0.0093158772014203
2025-03-08 13:17:58.718,59.76653696498055,-0.0479058822145635,-0.0493518775770256,-0.0972575839165582,-0.009744904331227
2025-03-08 13:17:58.720,59.76653696498055,-0.050133368629122,-0.0480255441623661,-0.0981587384642046,-0.0095898854136457
2025-03-08 13:17:58.722,59.76653696498055,-0.0523067034027348,-0.0462746429888337,-0.0985811736174196,-0.0089462488495566
2025-03-08 13:17:58.724,59.76653696498055,-0.0539931580277872,-0.0446020641185332,-0.0985950509292348,-0.0081294360438961
2025-03-08 13:17:58.726,59.76653696498055,-0.0549491865196621,-0.0433691697070686,-0.0983181865700734,-0.0074005256090435
2025-03-08 13:17:58.728,59.76653696498055,-0.0551680192410704,-0.0426725854290843,-0.097840436577475,-0.006862720693771
2025-03-08 13:17:58.730,59.76653696498055,-0.054780538800957,-0.0423981538053223,-0.0971785260816896,-0.0065307456636109
2025-03-08 13:17:58.732,59.76653696498055,-0.0539291380285988,-0.0423753067034981,-0.0963042797803875,-0.0063803794588503
2025-03-08 13:17:58.734,59.76653696498055,-0.0527295435037662,-0.0425071848516882,-0.0952365649821596,-0.006300283986415
2025-03-08 13:17:58.736,59.76653696498055,-0.0513216508755451,-0.0428022972726991,-0.094123786359714,-0.0060659225922596
2025-03-08 13:17:58.738,59.76653696498055,-0.0499173956825495,-0.0433118153913773,-0.0932290508772228,-0.0054341307671376
2025-03-08 13:17:58.739,59.76653696498055,-0.0487575129247618,-0.0440359773083178,-0.0927933316354495,-0.0042907086813759
2025-03-08 13:17:58.741,59.76653696498055,-0.0479813877933124,-0.0448716309043017,-0.0928528617055319,-0.0027189233047189
2025-03-08 13:17:58.743,59.76653696498055,-0.0475193377623002,-0.0456294752544275,-0.0931486576348843,-0.0009335188752984
2025-03-08 13:17:58.745,59.76653696498055,-0.0471213279856995,-0.0461065568760232,-0.0932277310926133,0.0008659449031112
2025-03-08 13:17:58.747,59.76653696498055,-0.046510999980596,-0.0461872119909318,-0.0926980598161409,0.0025964499845973
2025-03-08 13:17:58.749,59.76653696498055,-0.0455304486063853,-0.0459343400955667,-0.0914646381615001,0.0042508939727408
2025-03-08 13:17:58.751,59.76653696498055,-0.0441635928050248,-0.0456167680699276,-0.089780211952885,0.0057727039039476
2025-03-08 13:17:58.753,59.76653696498055,-0.042457957694544,-0.0456380984181414,-0.0880959088158445,0.0070215006245733
2025-03-08 13:17:58.755,59.76653696498055,-0.0404466071184352,-0.0463905542856243,-0.0868370157420998,0.0079051566924885
2025-03-08 13:17:58.757,59.76653696498055,-0.0381345546331851,-0.0481034767553343,-0.0862378873715791,0.0085380773699274
2025-03-08 13:17:58.759,59.76653696498055,-0.0355338393722665,-0.0507556507435835,-0.0862893477515056,0.0092317419069568
2025-03-08 13:17:58.761,59.76653696498055,-0.0326982505146323,-0.0540796588711086,-0.0867777686768826,0.0102854900999303
2025-03-08 13:17:58.763,59.76653696498055,-0.0297290187108682,-0.0576364879274977,-0.0873653675833601,0.0117279577407939
2025-03-08 13:17:58.765,59.76653696498055,-0.0267547171592328,-0.0609205810761709,-0.087675160830786,0.0132073972207433
2025-03-08 13:17:58.767,59.76653696498055,-0.0239031547699689,-0.063474229502239,-0.0873772485167203,0.0141337003152575
2025-03-08 13:17:58.769,59.76653696498055,-0.0212788197414267,-0.0649990067890757,-0.0862776924283557,0.0140024819891113
2025-03-08 13:17:58.771,59.76653696498055,-0.0189501994828678,-0.0654315291164355,-0.0843815961607159,0.0126989044469688
2025-03-08 13:17:58.773,59.76653696498055,-0.0169475006502263,-0.0649483279169924,-0.0818956978056026,0.0106017431809812
2025-03-08 13:17:58.775,59.76653696498055,-0.0152714722470448,-0.0639051966202842,-0.0791765397943261,0.0084595052773733
2025-03-08 13:17:58.777,59.76653696498055,-0.0139122122567968,-0.0627503440259213,-0.0766624289036459,0.0071216142592748
2025-03-08 13:17:58.779,59.76653696498055,-0.0128676008891234,-0.0619367011587608,-0.0748041763601969,0.0072092621149822
2025-03-08 13:17:58.781,59.76653696498055,-0.0121393643389573,-0.0618304194147834,-0.0739696597496745,0.0088179646380557
2025-03-08 13:17:58.782,59.76653696498055,-0.0116935307180859,-0.0626183521672421,-0.0743117605576576,0.0114019827618437
2025-03-08 13:17:58.784,59.76653696498055,-0.0114098184729385,-0.0642459382821733,-0.0756556361030847,0.0139662111777115
2025-03-08 13:17:58.786,60.0,-0.0110758969343043,-0.0664224316011495,-0.0774982095675927,0.0155185216959887
2025-03-08 13:17:58.788,60.0,-0.0104610464171029,-0.0687002277536663,-0.0791611569026909,0.0155475427798311
2025-03-08 13:17:58.790,60.0,-0.0094323559482232,-0.0706035783052596,-0.0800358187015135,0.0142533252298435
2025-03-08 13:17:58.792,60.0,-0.0080244805755068,-0.0717784557018172,-0.0798028224511189,0.0124065942866021
2025-03-08 13:17:58.794,60.0,-0.0064089851770578,-0.0721361918217982,-0.0785450648970549,0.0109376150486468
2025-03-08 13:17:58.796,60.0,-0.0047994798523295,-0.0719323399832505,-0.076731709447163,0.0105016238252447
2025-03-08 13:17:58.798,60.0,-0.0033682558616535,-0.0716948773498588,-0.0750630245225482,0.0112469317133372
2025-03-08 13:17:58.800,60.0,-0.0022056456977125,-0.0719768161799982,-0.0741823548801588,0.0128563987221006
2025-03-08 13:17:58.802,60.0,-0.0013042978927531,-0.0730502684487697,-0.0743544610393569,0.0147700856176429
2025-03-08 13:17:58.804,60.0,-0.0005596652312259,-0.0747415453705037,-0.075301107010794,0.0164407809913513
2025-03-08 13:17:58.806,60.0,0.0001938001508312,-0.0765211791588277,-0.0763272771492319,0.0175143910028166
2025-03-08 13:17:58.808,60.0,0.0011065914920565,-0.0777821406696862,-0.0766754490669576,0.0178814265757629
2025-03-08 13:17:58.810,60.0,0.0022379464793718,-0.0781313481491065,-0.0758933033099632,0.0175992043966267
2025-03-08 13:17:58.812,60.0,0.0035261303445096,-0.0775521279248757,-0.0740259009597147,0.0167715382984207
2025-03-08 13:17:58.814,60.0,0.0048093649803468,-0.0763970357137114,-0.071587575831844,0.015530495242518
2025-03-08 13:17:58.816,60.0,0.0058686206180371,-0.0752413908187713,-0.0693726770013616,0.0141595271163939
2025-03-08 13:17:58.818,60.0,0.0064785865096413,-0.0746443811930789,-0.0681657031824152,0.0131796504281311
2025-03-08 13:17:58.820,60.0,0.0064778150635417,-0.07488391412361,-0.0684060092702734,0.0131734604282153
2025-03-08 13:17:58.822,60.0,0.0058511234894093,-0.0757873745379945,-0.0699361629940691,0.0143870275292551
2025-03-08 13:17:58.823,60.0,0.0047746688775634,-0.0767936930605549,-0.0720189378870003,0.0164484498139725
2025-03-08 13:17:58.825,60.0,0.0035737765680506,-0.0772568552820638,-0.0736829941867356,0.0184863359633518
2025-03-08 13:17:58.827,60.0,0.002604302065798,-0.0768087578458173,-0.0742043730127465,0.0195641600220127
2025-03-08 13:17:58.829,60.0,0.0021265448100386,-0.0755400516660526,-0.0734134258252256,0.0191050573620719
2025-03-08 13:17:58.831,60.0,0.0022355444232902,-0.0739046325472005,-0.0716690088035486,0.0170879377757632
2025-03-08 13:17:58.833,60.0,0.0028610747265489,-0.0724556276293562,-0.0695944752784451,0.0140130593858337
2025-03-08 13:17:58.835,60.0,0.0038116936369844,-0.0715988924385198,-0.067787122878823,0.0107147063027604
2025-03-08 13:17:58.837,60.0,0.0048327594096234,-0.0714833010764373,-0.0666504674693639,0.0080891070847334
2025-03-08 13:17:58.839,60.0,0.0056636505657851,-0.0720313672418392,-0.0663676442334587,0.0068205636396901
2025-03-08 13:17:58.841,60.0,0.0060917751232346,-0.073038720036988,-0.0669468742458195,0.0071974764187971
2025-03-08 13:17:58.843,60.0,0.0059979192489553,-0.0742685929859043,-0.0682706048425266,0.0090606738743605
2025-03-08 13:17:58.845,60.0,0.0053789143563973,-0.075509657189689,-0.0701306756899059,0.0118600548168367
2025-03-08 13:17:58.847,60.0,0.0043388771215327,-0.0766028197642459,-0.0722638772175978,0.0147826872969191
2025-03-08 13:17:58.849,60.0,0.003057261575498,-0.0774573340720946,-0.0744000087635854,0.0169581676774892
2025-03-08 13:17:58.851,60.0,0.0017502581988421,-0.078069867874856,-0.0763195476293963,0.0177457319944363
2025-03-08 13:17:58.853,60.0,0.0006344458432108,-0.0785301307159011,-0.0778956245304782,0.0169973506343472
2025-03-08 13:17:58.855,60.0,-0.0001105563091216,-0.0789757073723003,-0.0790862050759453,0.0151125547863154
2025-03-08 13:17:58.857,60.0,-0.000388882922113,-0.0794961317874919,-0.0798849578701074,0.012824619110186
2025-03-08 13:17:58.859,60.0,-0.0002424303963294,-0.0800567442290573,-0.0802991195617351,0.0108679129529304
2025-03-08 13:17:58.861,60.0,0.0001201141707265,-0.0805247871739527,-0.0804046196994929,0.009721502811311
2025-03-08 13:17:58.863,60.0,0.000371184465534,-0.0807980634549733,-0.0804268274110465,0.0095078353436436
2025-03-08 13:17:58.865,60.0,0.0002042107728686,-0.0809354683662983,-0.0807312077043526,0.0100311768709649
2025-03-08 13:17:58.866,60.0,-0.0005015905114815,-0.0811698267016653,-0.081671368994202,0.0109078549804652
2025-03-08 13:17:58.868,60.0,-0.0016057117801783,-0.0817708012733116,-0.0833764665119599,0.011717127875967
2025-03-08 13:17:58.870,60.0,-0.0027863260647787,-0.0828499481410351,-0.0856362293711035,0.0121177792526018
2025-03-08 13:17:58.872,60.0,-0.0037287690106285,-0.0842555603796449,-0.0879842862976651,0.0119234764427776
2025-03-08 13:17:58.874,60.0,-0.0042925974100265,-0.0856413847391755,-0.0899339408201692,0.01112638296783
2025-03-08 13:17:58.876,60.0,-0.0045462204453341,-0.086668965976497,-0.0912151468513434,0.0098450714211324
2025-03-08 13:17:58.878,60.0,-0.0046633288971691,-0.0872168158596498,-0.091880106914486,0.0082469303912047
2025-03-08 13:17:58.880,60.0,-0.0047798341436924,-0.0874625697085932,-0.0922423676969035,0.006545027138564
2025-03-08 13:17:58.882,60.0,-0.0049269859395722,-0.0877718844759917,-0.0926988359154761,0.0050411408154058
2025-03-08 13:17:58.884,60.0,-0.0050749864495713,-0.0884504931943214,-0.0935254467924136,0.0040517220113156
2025-03-08 13:17:58.886,60.0,-0.0052212814849615,-0.089524691861496,-0.0947459421641385,0.0036815468706189
2025-03-08 13:17:58.888,60.0,-0.0054326135657084,-0.0907079812678648,-0.0961405653560333,0.0036642196978871
2025-03-08 13:17:58.890,60.0,-0.0058131699983525,-0.0915729617745449,-0.0973861040305997,0.0034912325775708
2025-03-08 13:17:58.892,60.0,-0.0064433142724446,-0.0918023328893849,-0.0982456211624872,0.0027584457544005
2025-03-08 13:17:58.894,60.0,-0.0073397894607268,-0.091365478560226,-0.0987052437438668,0.0014185366289042
2025-03-08 13:17:58.896,60.0,-0.0084498001926378,-0.0905430097521022,-0.0989927873500516,-0.0002739347151214
2025-03-08 13:17:58.898,60.0,-0.0096701243768071,-0.0898092814373142,-0.0994793848620598,-0.0020134938478006
2025-03-08 13:17:58.900,60.0,-0.010882939903608,-0.0896358258204459,-0.100518746393986,-0.003609988959444
2025-03-08 13:17:58.902,60.0,-0.0119965860992501,-0.0902957425518541,-0.1022923109503492,-0.004957275728902
2025-03-08 13:17:58.904,60.0,-0.0129772124364533,-0.0917397263370524,-0.104716922731355,-0.0059441912206021
2025-03-08 13:17:58.906,60.0,-0.0138623502765374,-0.0935939984293358,-0.1074563343561048,-0.0064644676884573
2025-03-08 13:17:58.907,60.0,-0.0147445384592624,-0.0952967782428968,-0.1100413040633722,-0.0065101151371027
2025-03-08 13:17:58.909,60.0,-0.01571307248347,-0.0963282515919888,-0.1120413131395915,-0.0062371917061736
2025-03-08 13:17:58.911,60.0,-0.0167761325697464,-0.0964247021641882,-0.1132008254688604,-0.0059382234042687
2025-03-08 13:17:58.913,60.0,-0.0178272631973913,-0.0956623267022602,-0.1134895822642446,-0.0059205149531432
2025-03-08 13:17:58.915,60.0,-0.0187011968183436,-0.0943733690961258,-0.1130745598779925,-0.0063447008819018
2025-03-08 13:17:58.917,60.0,-0.0192886515948743,-0.0929621608521231,-0.1122508080025619,-0.0071344924125139
2025-03-08 13:17:58.919,60.0,-0.0196261973045972,-0.0917395589081786,-0.1113657533779777,-0.0080404889455268
2025-03-08 13:17:58.921,60.0,-0.0198887242505129,-0.0908602485586927,-0.1107489716139548,-0.008817091328696
2025-03-08 13:17:58.923,60.0,-0.0202748959749269,-0.0903645435644721,-0.1106394400076834,-0.0093913580138206
2025-03-08 13:17:58.925,60.0,-0.0208606401085397,-0.0902528753276485,-0.1111135175714895,-0.00992318030128
2025-03-08 13:17:58.927,60.0,-0.021541775581426,-0.0905058044753638,-0.1120475838386255,-0.0107051760867642
2025-03-08 13:17:58.929,60.0,-0.0221268052723325,-0.091027105510018,-0.1131539161753151,-0.0119229940196189
2025-03-08 13:17:58.931,60.0,-0.0225070673115168,-0.091588561433804,-0.1140956357154014,-0.0134180590017383
2025-03-08 13:17:58.933,60.0,-0.0227591713461934,-0.0918875154973248,-0.1146466953728737,-0.0146516547808864
2025-03-08 13:17:58.935,60.0,-0.0231001151986334,-0.0917323823950736,-0.114832507686307,-0.014953282829095
2025-03-08 13:17:58.937,60.0,-0.0237395688846941,-0.0912251885350522,-0.1149647690954153,-0.0139371255547513
2025-03-08 13:17:58.939,60.0,-0.0247377405850289,-0.0907641224609196,-0.1155018763265515,-0.0118327204033387
2025-03-08 13:17:58.941,60.0,-0.0259563771875692,-0.0908101572433165,-0.1167665493262812,-0.0094786623069697
2025-03-08 13:17:58.943,60.0,-0.0271269609470932,-0.0915591047507476,-0.1186860821988804,-0.0079269838291526
2025-03-08 13:17:58.945,60.0,-0.0279940957218778,-0.0927565110193743,-0.1207506248229585,-0.0079037229214118
2025-03-08 13:17:58.947,60.0,-0.0284554463067034,-0.0937921979142638,-0.1222476638534959,-0.0094798850164511
2025-03-08 13:17:58.948,60.0,-0.0286247592398531,-0.0940081401702532,-0.1226329205712263,-0.0121102980946643
2025-03-08 13:17:58.950,60.0,-0.0287787544202612,-0.0930285392827618,-0.121807316385568,-0.014937710416611
2025-03-08 13:17:58.952,60.0,-0.029206666983224,-0.0909470108938906,-0.1201537020880429,-0.0171717538469499
2025-03-08 13:17:58.954,60.0,-0.0300494696672475,-0.0883088930817408,-0.1183583885013653,-0.0183846602388799
2025-03-08 13:17:58.956,60.0,-0.0312363407782071,-0.0859117242075224,-0.1171480922884932,-0.0186010070106488
2025-03-08 13:17:58.958,60.0,-0.0325570323097669,-0.0844966506704738,-0.1170537118312317,-0.0181355524376509
2025-03-08 13:17:58.960,60.0,-0.0338042171216666,-0.0844451813733117,-0.118249428880378,-0.0172910844124332
2025-03-08 13:17:58.962,60.0,-0.0348797528060156,-0.0856157600827264,-0.1204955447883319,-0.0161476748370386
2025-03-08 13:17:58.964,60.0,-0.0358119246532671,-0.0874047199212763,-0.123216677969242,-0.0146087536203277
2025-03-08 13:17:58.966,60.0,-0.0367087360866788,-0.0890012420941788,-0.1257100130583346,-0.0126503394891932
2025-03-08 13:17:58.968,60.0,-0.0376980324504196,-0.0897083803200236,-0.1274064491263097,-0.0105429815876875
2025-03-08 13:17:58.970,60.0,-0.0388759508591373,-0.0891939911325555,-0.1280699798265632,-0.008836166694056
2025-03-08 13:17:58.972,60.0,-0.0402586936995705,-0.0875950174040781,-0.1278537504185266,-0.0080937835097067
2025-03-08 13:17:58.974,60.0,-0.0417467385599326,-0.0854532834863085,-0.1272000628390467,-0.0085779960143194
2025-03-08 13:17:58.976,60.0,-0.0431356456207398,-0.0834970520884489,-0.1266327399739056,-0.0101052577359529
2025-03-08 13:17:58.978,60.0,-0.0441927357799615,-0.0823412917903193,-0.1265340712982459,-0.0121265282471869
2025-03-08 13:17:58.980,60.0,-0.0447676114817476,-0.0822416190488531,-0.1270092757122427,-0.0139222409242366
2025-03-08 13:17:58.982,60.0,-0.044869223876526,-0.0830213728135742,-0.1278906433156616,-0.0148175561231786
2025-03-08 13:17:58.984,60.0,-0.0446579995088081,-0.084192379267605,-0.1288504268354948,-0.0144141975212429
2025-03-08 13:17:58.986,60.0,-0.0443565944823428,-0.0851941241265598,-0.1295507680899628,-0.0128063900479788
2025-03-08 13:17:58.988,60.0,-0.0441374419068832,-0.0856346469279799,-0.1297721397260259,-0.0106244666378423
2025-03-08 13:17:58.990,60.0,-0.0440602629287414,-0.0854236299224601,-0.1294839451426597,-0.0087573147107484
2025-03-08 13:17:58.991,60.0,-0.044094028175526,-0.0847511209214034,-0.1288452027836105,-0.0078450794499033
2025-03-08 13:17:58.993,60.0,-0.0441907865012461,-0.083962866635189,-0.1281537082187121,-0.0078980760031085
2025-03-08 13:17:58.995,60.0,-0.0443401689019599,-0.0834216641139612,-0.1277618894968493,-0.0083718137240743
2025-03-08 13:17:58.997,60.0,-0.044564221655033,-0.0833872363057243,-0.1279515158404274,-0.0086618108514487
2025-03-08 13:17:58.999,60.0,-0.0448794873417734,-0.0839004504128099,-0.1287799970244453,-0.0086099414248971
2025-03-08 13:17:59.001,60.0,-0.0452772059753825,-0.0847060719761717,-0.1299833385924031,-0.0086084721775174
2025-03-08 13:17:59.003,60.0,-0.0457337807813146,-0.085309265826918,-0.1310431085940748,-0.009238311522746
2025-03-08 13:17:59.005,60.0,-0.0462264027681921,-0.0852068690795255,-0.1314333351544764,-0.0107481992037288
2025-03-08 13:17:59.007,60.0,-0.0467372508190711,-0.0841859303706099,-0.1309232458044583,-0.0127810386745911
2025-03-08 13:17:59.009,60.0,-0.0472515765099466,-0.0824944060248672,-0.1297460484602729,-0.0145384905809997
2025-03-08 13:17:59.011,60.0,-0.0477514691318357,-0.08076209384733,-0.128513630229604,-0.015238480201771
2025-03-08 13:17:59.013,60.0,-0.0481967499305591,-0.0797111110549283,-0.1279079295755817,-0.0145429149036293
2025-03-08 13:17:59.015,60.0,-0.0485025846709574,-0.0798032798762193,-0.1283059344788532,-0.0127185002299337
2025-03-08 13:17:59.017,60.0,-0.0485532455182208,-0.0809861747290821,-0.1295394915020337,-0.0104950182457541
2025-03-08 13:17:59.019,60.0,-0.0482765058655122,-0.0826672322354692,-0.1309438106426002,-0.0087341787905227
2025-03-08 13:17:59.021,60.0,-0.0477342038261613,-0.0839699718579721,-0.1317042494718154,-0.0080790085655587
2025-03-08 13:17:59.023,60.0,-0.0471393186484693,-0.0841780402535518,-0.1313174339072223,-0.0087308512566595
2025-03-08 13:17:59.025,60.0,-0.0467595455547357,-0.0831223493708912,-0.1298819711438594,-0.0104186979600195
2025-03-08 13:17:59.027,60.0,-0.0467665769844441,-0.0812699937268689,-0.1280366481616489,-0.0125413317944691
2025-03-08 13:17:59.029,60.0,-0.047133044406592,-0.0794642520819999,-0.1265973752000314,-0.014414773406192
2025-03-08 13:17:59.031,60.0,-0.0476390168885885,-0.0784810980054078,-0.1261201948851281,-0.0155221495195539
2025-03-08 13:17:59.032,60.0,-0.0479853340549289,-0.0786497181302125,-0.1266351334478138,-0.0156418803441855
2025-03-08 13:17:59.034,60.0,-0.0479631596826261,-0.0797241313381892,-0.1276873735171673,-0.0147888562677521
2025-03-08 13:17:59.036,60.0,-0.0475981319455361,-0.0810556070808443,-0.1286538227018774,-0.0130501452260736
2025-03-08 13:17:59.038,60.0,-0.0471841342376769,-0.0819587311055495,-0.1291429501496853,-0.0104948894155297
2025-03-08 13:17:59.040,60.0,-0.0471690984404016,-0.0820616611336027,-0.1292308454906565,-0.0072529716108021
2025-03-08 13:17:59.042,60.0,-0.0479386480821643,-0.081454430602649,-0.129393165725737,-0.0036668032935776
2025-03-08 13:17:59.044,60.0,-0.0496072482271352,-0.08058001583909,-0.1301873522692274,-0.0003331580969743
2025-03-08 13:17:59.046,60.0,-0.0519261494440726,-0.0799523057549509,-0.1318785446009284,0.0020583790856286
2025-03-08 13:17:59.048,60.0,-0.0543526172172914,-0.0798604761241977,-0.1342131839525223,0.0030124428735215
2025-03-08 13:17:59.050,60.0,-0.0562393608292629,-0.0802182570356146,-0.1364577096560394,0.0024448632876146
2025-03-08 13:17:59.052,60.0,-0.0570564620739795,-0.0806416918203226,-0.1376982468052686,0.0006785290408025
2025-03-08 13:17:59.054,60.0,-0.0565718350998355,-0.0807113601990801,-0.1372832892632054,-0.0017427679532327
2025-03-08 13:17:59.056,60.0,-0.0549493439117895,-0.0802598417477672,-0.1352092806341611,-0.004242552313442
2025-03-08 13:17:59.058,60.0,-0.0527311438814083,-0.0794981015025879,-0.1322293413676437,-0.0062877549356636
2025-03-08 13:17:59.060,60.0,-0.0506775104870202,-0.0788873051081857,-0.1295649126248977,-0.0074105210373677
2025-03-08 13:17:59.062,60.0,-0.0494983702048458,-0.0788303558964765,-0.1283288242281033,-0.0072978448059011
2025-03-08 13:17:59.064,60.0,-0.0495932025111852,-0.0793858013569287,-0.1289791031243155,-0.0059694090084488
2025-03-08 13:17:59.066,60.0,-0.0509211455102117,-0.080195107926897,-0.1311163538123733,-0.0039111651462829
2025-03-08 13:17:59.068,60.0,-0.053041361787298,-0.0806729640079828,-0.1337144272345727,-0.0019775532952549
2025-03-08 13:17:59.070,60.0,-0.0552845715265121,-0.080345834770991,-0.1356305087229224,-0.0010071297233317
2025-03-08 13:17:59.072,60.0,-0.0569862743600559,-0.0791392035129499,-0.1361255812184782,-0.0013494239056184
2025-03-08 13:17:59.073,60.0,-0.0577057090834247,-0.077447833553828,-0.1351536468779077,-0.0026371096665848
2025-03-08 13:17:59.075,60.0,-0.0573616200530706,-0.0759493226389512,-0.1333110478523907,-0.0039843761429909
2025-03-08 13:17:59.077,60.0,-0.0562440757781856,-0.0752635374789372,-0.1315077193931996,-0.0044899087383566
2025-03-08 13:17:59.079,60.0,-0.0548956612536832,-0.0756383410751128,-0.130534109492868,-0.0037506845611449
2025-03-08 13:17:59.081,60.0,-0.0538878390273941,-0.0768223628337923,-0.1307103100677742,-0.0021191429325624
2025-03-08 13:17:59.083,60.0,-0.0535685882103139,-0.0781906727030365,-0.1317593701244221,-0.0005560664592076
2025-03-08 13:17:59.085,60.0,-0.0539087115365897,-0.0790627040321663,-0.132971525706483,-0.0001153815906222
2025-03-08 13:17:59.087,60.0,-0.0545545796980279,-0.0790431980262862,-0.1335978887051235,-0.0013333218883759
2025-03-08 13:17:59.089,60.0,-0.0550733843395022,-0.078192566283683,-0.1332660623954105,-0.0039122197334829
2025-03-08 13:17:59.091,60.0,-0.0552336138293177,-0.076937231433832,-0.1321709578283728,-0.0069130100170066
2025-03-08 13:17:59.093,60.0,-0.0551284143779123,-0.0758022929615615,-0.1309308207460099,-0.0093032089026406
2025-03-08 13:17:59.095,60.0,-0.0550690307306453,-0.0751460309589807,-0.1302151760012259,-0.0104757026509421
2025-03-08 13:17:59.097,60.0,-0.0553465623157703,-0.0750295059443257,-0.1303761835161147,-0.010452500770729
2025-03-08 13:17:59.099,60.0,-0.0560323830797978,-0.0752402493855241,-0.1312727486533059,-0.0097637400519024
2025-03-08 13:17:59.101,60.0,-0.0569292168779724,-0.0754145426815936,-0.1323438766148424,-0.0091486307021275
2025-03-08 13:17:59.103,60.0,-0.057683673532822,-0.0751933284703069,-0.1328771198358272,-0.0092004149778911
2025-03-08 13:17:59.105,60.0,-0.0579934340803493,-0.0743636260557963,-0.1323571786715902,-0.0100705371728706
2025-03-08 13:17:59.107,60.0,-0.0577942238556313,-0.0729472696295035,-0.1307416126964086,-0.0114170276732324
2025-03-08 13:17:59.109,60.0,-0.0573118399585849,-0.0712040547237147,-0.1285160145978226,-0.012700726908682
2025-03-08 13:17:59.111,60.0,-0.0569408450612218,-0.069539950432123,-0.1264809161754302,-0.0136231830664417
2025-03-08 13:17:59.113,60.0,-0.0570286891449553,-0.0683511560623788,-0.1253799667129729,-0.0143040135836158
2025-03-08 13:17:59.115,60.0,-0.0577099550783059,-0.0678579443042311,-0.1255680217270049,-0.0150307538480687
2025-03-08 13:17:59.116,60.0,-0.0588895658098397,-0.0679834661776677,-0.1268731551298724,-0.0158703864652688
2025-03-08 13:17:59.118,60.0,-0.0603529982111866,-0.0683372643902418,-0.1286903864594676,-0.0165773737624501
2025-03-08 13:17:59.120,60.0,-0.0618971347478566,-0.0683500224677814,-0.1302472817021937,-0.0168873968561252
2025-03-08 13:17:59.122,60.0,-0.0633996392031309,-0.0675290318315078,-0.1309287960962454,-0.0168553287917955
2025-03-08 13:17:59.124,60.0,-0.0648270208958191,-0.0657037078376233,-0.1305308543710164,-0.0168579001930236
2025-03-08 13:17:59.126,60.0,-0.0662203764610797,-0.0631135735120559,-0.1293340762341088,-0.0172438201380933
2025-03-08 13:17:59.128,60.0,-0.067670474939236,-0.0602863561083932,-0.1279569579939625,-0.0179793535278741
2025-03-08 13:17:59.130,60.0,-0.0692634314480303,-0.057782790934118,-0.127046350051219,-0.0186385369503419
2025-03-08 13:17:59.132,60.0,-0.0709992636737598,-0.0559590891481513,-0.1269584812007496,-0.0187375260299358
2025-03-08 13:17:59.134,60.0,-0.0727384501186783,-0.0548766773437319,-0.1276152564884781,-0.0180984361345331
2025-03-08 13:17:59.136,60.0,-0.0742418463441109,-0.0543821769143714,-0.1286241528461136,-0.0169744563772448
2025-03-08 13:17:59.138,60.0,-0.0752973914732376,-0.0542607464839235,-0.1295582680354286,-0.0159440242954802
2025-03-08 13:17:59.140,60.0,-0.0758368727324399,-0.0543317369402628,-0.1301687402148057,-0.0157209689400923
2025-03-08 13:17:59.142,60.0,-0.075946563879768,-0.0544374772194807,-0.1303841721283712,-0.0169461854936794
2025-03-08 13:17:59.144,60.0,-0.0757801515118097,-0.0543945902521531,-0.1301748733331442,-0.0199528269133314
2025-03-08 13:17:59.146,60.0,-0.0754742558104083,-0.0540190761854179,-0.1294934641529543,-0.0245542787491126
2025-03-08 13:17:59.148,60.0,-0.0751406364082691,-0.0532589260889852,-0.1283996952537061,-0.0299723614741215
2025-03-08 13:17:59.150,60.0,-0.0749029654035717,-0.0523367677905422,-0.1272398665131468,-0.0349952256727215
2025-03-08 13:17:59.152,60.0,-0.0748883373707382,-0.0517406920320795,-0.1266291632130853,-0.03835778543055
2025-03-08 13:17:59.154,60.0,-0.0751386102832483,-0.0519762116093861,-0.1271149561190172,-0.0392279037148831
2025-03-08 13:17:59.156,60.0,-0.0755098825954568,-0.0531697544332079,-0.1286797716239241,-0.0375983300051546
2025-03-08 13:17:59.157,60.0,-0.0756688462516148,-0.0547733214557562,-0.1304423026682943,-0.034373105071596
2025-03-08 13:17:59.159,60.0,-0.075232724615051,-0.0556256071699322,-0.1308584671453086,-0.0310419487845012
2025-03-08 13:17:59.161,60.0,-0.0739920628014271,-0.0544295841593557,-0.1284217827654734,-0.0290567726703818
2025-03-08 13:17:59.163,60.0,-0.0720848145120767,-0.0504244091977195,-0.1225093599846605,-0.0292410808491403
2025-03-08 13:17:59.165,60.0,-0.0699958291664205,-0.0438665527144078,-0.1138625186132818,-0.0315657906661412
2025-03-08 13:17:59.167,60.0,-0.068337523208646,-0.0360233791165055,-0.1043610394654764,-0.0353476135035482
2025-03-08 13:17:59.169,60.0,-0.0674997007629129,-0.0286705962648415,-0.0961704345092393,-0.0396194173474533
2025-03-08 13:17:59.171,60.0,-0.0673678913585552,-0.0233661493333902,-0.0907341784586635,-0.0434094723055895
2025-03-08 13:17:59.173,60.0,-0.067303335018978,-0.0208588696788225,-0.0881623427254257,-0.0459069008771217
2025-03-08 13:17:59.175,60.0,-0.0664273022630854,-0.0208780792573138,-0.0873055198197963,-0.0466223860646075
2025-03-08 13:17:59.177,60.0,-0.0640561778143461,-0.022365796548315,-0.0864221129653719,-0.0455240394480269
2025-03-08 13:17:59.179,60.0,-0.0600445431215677,-0.0240308385681606,-0.0840755206237986,-0.0429965512464587
2025-03-08 13:17:59.181,60.0,-0.054876779960127,-0.0249463586312689,-0.0798232778604379,-0.0395839303104689
2025-03-08 13:17:59.183,60.0,-0.0495078093756139,-0.0248695839489782,-0.0743775329005468,-0.0357074363617232
2025-03-08 13:17:59.185,60.0,-0.0450439300740964,-0.0241328256651262,-0.0691768955716303,-0.0315986921723269
2025-03-08 13:17:59.187,60.0,-0.0423551216151685,-0.0232473639750915,-0.0656026256262381,-0.0274770669276727
2025-03-08 13:17:59.189,60.0,-0.0417144460664203,-0.0225278326815285,-0.0642424189520007,-0.0237633882248236
2025-03-08 13:17:59.191,60.0,-0.0426062714400879,-0.0219603559503118,-0.0645667677540193,-0.0210960286502389
2025-03-08 13:17:59.193,60.0,-0.043855844378706,-0.0213285475881973,-0.0651845325038548,-0.0200845759758047
2025-03-08 13:17:59.195,60.0,-0.0441176525009204,-0.020468766647313,-0.0645865598789806,-0.0209442783684747
2025-03-08 13:17:59.197,60.0,-0.0425316518368095,-0.0195103170770462,-0.0620421098478633,-0.0232741669285003
2025-03-08 13:17:59.198,60.0,-0.0391747321888392,-0.0189980664843468,-0.0581729397982066,-0.0261705463914225
2025-03-08 13:17:59.200,60.0,-0.0350031678448878,-0.0198194497919231,-0.0548227589199813,-0.0286110757722239
2025-03-08 13:17:59.202,60.0,-0.0313123574993677,-0.0228840052240658,-0.0541965041226068,-0.0298359405676014
2025-03-08 13:17:59.204,60.0,-0.0290712303760528,-0.0286072923808003,-0.0576786642355469,-0.0295249304821439
2025-03-08 13:17:59.206,60.0,-0.0285397691223215,-0.0364269004835027,-0.0649668111439321,-0.0278093598675758
2025-03-08 13:17:59.208,60.0,-0.0293386943344789,-0.0446841614188512,-0.0740229973486236,-0.0252505042770933
2025-03-08 13:17:59.210,60.0,-0.0308349934637313,-0.0510878011573909,-0.0819229362817047,-0.0227975946286164
2025-03-08 13:17:59.212,60.0,-0.0325514192156201,-0.0536498415437228,-0.0862014024917668,-0.0216210474308885
2025-03-08 13:17:59.214,60.0,-0.034360517465009,-0.0516604955808617,-0.0860211548453235,-0.0227531664483605
2025-03-08 13:17:59.216,60.0,-0.0364020375199233,-0.0461828200680197,-0.0825849994351743,-0.0266315177700454
2025-03-08 13:17:59.218,60.0,-0.0388403696201647,-0.0397631239127439,-0.0786036353986549,-0.0327938791583219
2025-03-08 13:17:59.220,60.0,-0.0416636321048535,-0.035435571108986,-0.0770993450676507,-0.0399543103000398
2025-03-08 13:17:59.222,60.0,-0.0446771803953819,-0.0354436464825728,-0.0801209686964951,-0.0464744559830165
2025-03-08 13:17:59.224,60.0,-0.0476850603827937,-0.0402530276211193,-0.0879382297746982,-0.0510119706933475
2025-03-08 13:17:59.226,60.0,-0.0506973004737816,-0.0483273484628067,-0.0990247906559326,-0.0530434711383649
2025-03-08 13:17:59.228,60.0,-0.0539862710395035,-0.0568085466743803,-0.1107949593808865,-0.0530228315437467
2025-03-08 13:17:59.230,60.0,-0.057951305231021,-0.0628143293028247,-0.1207657761439497,-0.0520968733720171
2025-03-08 13:17:59.232,60.0,-0.062899644088066,-0.0647451074359177,-0.1276448930653132,-0.0515214164610867
2025-03-08 13:17:59.234,60.0,-0.0688905445715317,-0.0629640130886374,-0.131854699113971,-0.0520847001211194
2025-03-08 13:17:59.236,60.0,-0.0757171688625818,-0.0595038255401564,-0.1352211357470126,-0.0538232434919956
2025-03-08 13:17:59.238,60.0,-0.0829926337243542,-0.0569283702358096,-0.1399211451741777,-0.0561419611186142
2025-03-08 13:17:59.240,60.0,-0.0902451930815059,-0.0569235617756564,-0.1471688959245446,-0.0582557587171545
2025-03-08 13:17:59.241,60.0,-0.0969565840783463,-0.059385054057338,-0.1563417790449412,-0.0597155256179991
2025-03-08 13:17:59.243,60.0,-0.1025641076777286,-0.0625349558139508,-0.1650992042344423,-0.0607167804802084
2025-03-08 13:17:59.245,60.0,-0.1065083637744652,-0.064011892771345,-0.1705203971141178,-0.061993447072214
2025-03-08 13:17:59.247,60.0,-0.1083841903141085,-0.0623019371632323,-0.1706862678613902,-0.0643425043195308
2025-03-08 13:17:59.249,60.0,-0.1081519548128381,-0.0576905470315998,-0.1658426420316475,-0.0680535525656784
2025-03-08 13:17:59.251,60.0,-0.1062729781662,-0.0522016833266584,-0.1584748014682698,-0.0725942764429586
2025-03-08 13:17:59.253,60.0,-0.1036392240887931,-0.0485492499992927,-0.1521886138355587,-0.0767685894364704
2025-03-08 13:17:59.255,60.0,-0.1012829714836622,-0.0486587782479674,-0.1499418892351599,-0.0792773847652426
2025-03-08 13:17:59.257,60.0,-0.0999930688184247,-0.0525541725906398,-0.152547380653771,-0.0793752983736269
2025-03-08 13:17:59.259,60.0,-0.1000303804245698,-0.0582194217713123,-0.158249941168495,-0.0772913859124616
2025-03-08 13:17:59.261,60.0,-0.101081322059033,-0.0625446476192041,-0.1636261083670954,-0.0742119480414529
2025-03-08 13:17:59.263,60.0,-0.1024539370447339,-0.0629111751164813,-0.1653652505558196,-0.0717928213301407
2025-03-08 13:17:59.265,60.0,-0.1034030292715856,-0.0586174558494015,-0.162020623211182,-0.0713686153992651
2025-03-08 13:17:59.267,60.0,-0.1034407238141831,-0.0513697474915596,-0.1548106090807124,-0.0732305871070589
2025-03-08 13:17:59.269,60.0,-0.1025297113775056,-0.0444995703396019,-0.1470294191645414,-0.0763933265868245
2025-03-08 13:17:59.271,60.0,-0.1011044610566787,-0.0412504000980762,-0.142354998260599,-0.0790443819637383
2025-03-08 13:17:59.273,60.0,-0.0998981964207903,-0.0430304109080918,-0.1429287440779247,-0.0794828517007249
2025-03-08 13:17:59.275,60.0,-0.0996032085725375,-0.0486078633010402,-0.1482112082507196,-0.0770680058602387
2025-03-08 13:17:59.277,60.0,-0.1004759996772948,-0.0547527734928729,-0.1552289091618024,-0.0726788501464655
2025-03-08 13:17:59.279,60.0,-0.1020748796769747,-0.0580493462251766,-0.1601243614969063,-0.068381930824405
2025-03-08 13:17:59.281,60.0,-0.1033187789626397,-0.0569322190112285,-0.1602511331622122,-0.066336055485101
2025-03-08 13:17:59.282,60.0,-0.1029353861986578,-0.0528136672152427,-0.1557491881867199,-0.0673987769059354
2025-03-08 13:17:59.284,60.0,-0.1001394458296311,-0.049622530090308,-0.1497621102668091,-0.0702433139398699
2025-03-08 13:17:59.286,60.0,-0.0951624408437315,-0.0519491030335278,-0.1471116777853998,-0.0716728173789826
2025-03-08 13:17:59.288,60.0,-0.089214682834665,-0.0627706104708519,-0.1519854267601131,-0.0681238495649388
2025-03-08 13:17:59.290,60.0,-0.0837033132985487,-0.0819581856435457,-0.1656616319279043,-0.057502705012277
2025-03-08 13:17:59.292,60.0,-0.0789852039985114,-0.106311723979785,-0.1852970604816836,-0.0401255273179144
2025-03-08 13:17:59.294,60.0,-0.0733483928047609,-0.1309754410826668,-0.2043239658976266,-0.0179947905577125
2025-03-08 13:17:59.296,60.0,-0.0629727586045488,-0.1512657999458238,-0.2142386900591583,0.0072267677660308
2025-03-08 13:17:59.298,60.0,-0.0431873830343652,-0.1637284911006147,-0.2069160051348093,0.0361042448874536
2025-03-08 13:17:59.300,60.0,-0.0106335848389076,-0.1658061963192547,-0.1764399116397783,0.0715871785494771
2025-03-08 13:17:59.302,60.0,0.0346236379042975,-0.1544859258152111,-0.119862417861814,0.1168968760013346
2025-03-08 13:17:59.304,60.0,0.0881067047856548,-0.1250566753029204,-0.0369500999220411,0.1722027827321153
2025-03-08 13:17:59.306,60.0,0.141725404247112,-0.0711307144407661,0.0705945609638197,0.2321601512003669
2025-03-08 13:17:59.308,60.0,0.1862327217098702,0.0136981216346143,0.1999307150781145,0.2860430207855937
2025-03-08 13:17:59.310,60.0,0.2143167234300731,0.1333046745906257,0.347621270340151,0.3206327476871699
2025-03-08 13:17:59.312,60.0,0.2228442594477336,0.2870382205608012,0.5098823529193994,0.324250639021506
2025-03-08 13:17:59.314,60.0,0.2131601326423495,0.4694472984938475,0.6826073046424717,0.2896522631194137
2025-03-08 13:17:59.316,60.0,0.1894542030671943,0.6716845206713148,0.8611385978462308,0.2144774617256518
2025-03-08 13:17:59.318,60.0,0.156320373060852,0.8831777800724241,1.0394980278533898,0.0999086365794211
2025-03-08 13:17:59.320,60.0,0.116999676221223,1.0916968112505696,1.208696362820608,-0.0503361059897789
2025-03-08 13:17:59.322,60.0,0.0731695861995516,1.2812161669799271,1.3543856291762253,-0.2289124504515154
2025-03-08 13:17:59.323,60.0,0.0259179437582055,1.4295288923333238,1.4554467127540425,-0.4222056918489574
2025-03-08 13:17:59.325,60.0,-0.0233403175400684,1.509265165262765,1.4859247250633545,-0.6091246703978117
2025-03-08 13:17:59.327,60.0,-0.072969230696006,1.494627974030548,1.421658621358611,-0.7643351907965746
2025-03-08 13:17:59.329,60.0,-0.121993245800661,1.372080593772825,1.250087226679678,-0.8658198825332815
2025-03-08 13:17:59.331,60.0,-0.170565346786374,1.1494772612127728,0.9789117938169763,-0.902939089683778
2025-03-08 13:17:59.333,60.0,-0.2191004351436639,0.8578652464209376,0.6387646913557019,-0.8802749548963685
2025-03-08 13:17:59.335,60.0,-0.2663754733864832,0.5438330923077003,0.2774574997009365,-0.8151804375708592
2025-03-08 13:17:59.337,60.0,-0.3080611956837166,0.2553953124149178,-0.0526660017663871,-0.7306937708441119
2025-03-08 13:17:59.339,60.0,-0.3373063655729524,0.0278237405184279,-0.309482742805068,-0.647578735568139
2025-03-08 13:17:59.341,60.0,-0.3477558665359483,-0.124320565539318,-0.4720765490586384,-0.5789030145222673
2025-03-08 13:17:59.343,60.0,-0.3373981605174503,-0.206275340477009,-0.5436736172005563,-0.5286576269104134
2025-03-08 13:17:59.345,60.0,-0.3105403865703415,-0.235419400508429,-0.5459599025087165,-0.4938217203139637
2025-03-08 13:17:59.347,60.0,-0.2762386115717636,-0.2319739207692289,-0.5082126470026311,-0.4680277614117986
2025-03-08 13:17:59.349,60.0,-0.2440275873681288,-0.2126054897726725,-0.4566331910402893,-0.4449214566723938
2025-03-08 13:17:59.351,60.0,-0.2196941222974779,-0.1884385254678734,-0.4081327608989245,-0.42009091204333
2025-03-08 13:17:59.353,60.0,-0.2035911462727804,-0.1660557419209189,-0.3696470005439861,-0.3914214577345462
2025-03-08 13:17:59.355,60.0,-0.1920166311241994,-0.1490570546217961,-0.3410737972852303,-0.3584391851996258
2025-03-08 13:17:59.357,60.0,-0.180222625456371,-0.138685144910635,-0.3189078810660365,-0.3214676532239782
2025-03-08 13:17:59.359,60.0,-0.165055497556733,-0.1336795750447694,-0.298735182440315,-0.2812376748687739
2025-03-08 13:17:59.361,60.0,-0.1460543584877422,-0.1304959787835013,-0.2765504462455647,-0.2390574185628455
2025-03-08 13:17:59.363,60.0,-0.1250290769040817,-0.1246963615004089,-0.2497255465246841,-0.1970834693711014
2025-03-08 13:17:59.365,60.0,-0.1048106185943964,-0.1131628994483561,-0.217973625325028,-0.1580937740519597
2025-03-08 13:17:59.366,60.0,-0.0879087198428288,-0.0958807752068003,-0.1837896015036597,-0.12461745914764
2025-03-08 13:17:59.368,60.0,-0.0755900715861016,-0.0761028989579972,-0.1516930761633325,-0.0979256767874951
2025-03-08 13:17:59.370,60.0,-0.0676442863525629,-0.0586642251244562,-0.1263086162369621,-0.0776226218689159
2025-03-08 13:17:59.372,60.0,-0.0628147627793989,-0.0473795892662792,-0.1101944559115321,-0.0621679881544337
2025-03-08 13:17:59.374,60.0,-0.0595560594378808,-0.0430583371015908,-0.1026144994796448,-0.0499573724897053
2025-03-08 13:17:59.376,60.0,-0.0566534136415051,-0.0432811560292878,-0.0999346716694864,-0.040185268606421
2025-03-08 13:17:59.378,60.0,-0.0534389996051244,-0.0439669125997099,-0.0974060132670297,-0.0329397140746173
2025-03-08 13:17:59.380,60.0,-0.049675873479883,-0.041702269902053,-0.0913782435277826,-0.0285908915601624
2025-03-08 13:17:59.382,60.0,-0.0453567588760612,-0.0354929340689502,-0.0808497921960772,-0.0270033634484012
2025-03-08 13:17:59.384,60.0,-0.0406013230585321,-0.0270802616157693,-0.0676816830385688,-0.027126464962627
2025-03-08 13:17:59.386,60.0,-0.0356680670144936,-0.0198111500726018,-0.0554793145505444,-0.0272207934890886
2025-03-08 13:17:59.388,60.0,-0.0309735701084958,-0.0167565182075584,-0.0477301848455139,-0.0256065315633749
2025-03-08 13:17:59.390,60.0,-0.0269996431633216,-0.0190603338273788,-0.0460600725468691,-0.0215121246739022
2025-03-08 13:17:59.392,60.0,-0.0240703932412076,-0.0253172219131834,-0.0493877097085178,-0.0154947686050363
2025-03-08 13:17:59.394,60.0,-0.0221262807999831,-0.0322447014192102,-0.0543710757647684,-0.0091407332573002
2025-03-08 13:17:59.396,60.0,-0.0206771025926258,-0.0362850905359811,-0.0569622856817841,-0.0042284166680128
2025-03-08 13:17:59.398,60.0,-0.019005908242962,-0.0353370218953037,-0.0543430217265064,-0.0018645772353705
2025-03-08 13:17:59.400,60.0,-0.016517750777464,-0.0297682031778987,-0.0462860445999838,-0.002024129371272
2025-03-08 13:17:59.402,60.0,-0.0130458784566024,-0.0222007978208311,-0.0352467659790773,-0.0035988663671523
2025-03-08 13:17:59.404,60.0,-0.0089743040420537,-0.0161465036561004,-0.0251208964328444,-0.0048334371395055
2025-03-08 13:17:59.406,60.0,-0.0051140504938814,-0.0141620538623075,-0.0192761920842081,-0.0039877013070604
2025-03-08 13:17:59.407,60.0,-0.0023432476917079,-0.0164944188466371,-0.018837753221468,-4.154449893286607e-05
2025-03-08 13:17:59.409,60.0,-0.0011357713332339,-0.0209663938547716,-0.0221022508061795,0.0068253528054294
2025-03-08 13:17:59.411,60.0,-0.001228631563192,-0.0241806834322204,-0.0254093995541626,0.0152472906760242
2025-03-08 13:17:59.413,60.0,-0.0016700081090635,-0.0233743376945356,-0.025044429328223,0.0232466020468131
2025-03-08 13:17:59.415,60.0,-0.001276167504156,-0.0178978893961824,-0.019174139419847,0.029126674957635
2025-03-08 13:17:59.417,60.0,0.0007540294054668,-0.0095358145544171,-0.0087818666780925,0.032244632141168
2025-03-08 13:17:59.419,60.0,0.0044348812766775,-0.001546826146218,0.0028879746017241,0.0332689762289917
2025-03-08 13:17:59.421,60.0,0.0090324999137842,0.003021376480356,0.0120537968982457,0.0337861175445164
2025-03-08 13:17:59.423,60.0,0.0135041526294254,0.0028483860533459,0.0163524602605084,0.0354478017365513
2025-03-08 13:17:59.425,60.0,0.0170655505301659,-0.0010771407335754,0.0159883324787881,0.0390906417110085
2025-03-08 13:17:59.427,60.0,0.0195565249977509,-0.0060706699353342,0.0134857788568907,0.0443091534580576
2025-03-08 13:17:59.429,60.0,0.0214187433509045,-0.0091923751180142,0.0122262931233909,0.0497526757983365
2025-03-08 13:17:59.431,60.0,0.0233464273137251,-0.0087234868000455,0.014622866471253,0.053971432006626
2025-03-08 13:17:59.433,60.0,0.0258558853766232,-0.0049174092702416,0.0209384031070894,0.0562512884368175
2025-03-08 13:17:59.435,60.0,0.0290328987700681,0.0002783040800937,0.0293111308898774,0.056908459556652
2025-03-08 13:17:59.437,60.0,0.0325742504311392,0.0042786723257616,0.0368528518555698,0.056939191021662
2025-03-08 13:17:59.439,60.0,0.0360475409905837,0.0051300324720829,0.0411775036560312,0.0573433882102541
2025-03-08 13:17:59.441,60.0,0.0391802153204014,0.0024146227261962,0.0415947693699357,0.058564998339705
2025-03-08 13:17:59.443,60.0,0.0420132312332281,-0.0025967749290503,0.0394163887766519,0.0603361408885081
2025-03-08 13:17:59.445,60.0,0.0448624008353389,-0.0076131205517531,0.037249213901272,0.0619533196032605
2025-03-08 13:17:59.447,60.0,0.0481316133400615,-0.010486170090463,0.0376453779905509,0.0627969836697305
2025-03-08 13:17:59.449,60.0,0.0520791399352442,-0.0102567174871284,0.0418223582864894,0.0628004054829526
2025-03-08 13:17:59.450,60.0,0.0566506378114563,-0.0075257408424802,0.049124833890632,0.0625963943482136
2025-03-08 13:17:59.452,60.0,0.0614603165033299,-0.0039916478185862,0.0574686066962463,0.0632247209361753
2025-03-08 13:17:59.454,60.0,0.0659341944473344,-0.0014692870605235,0.064464846513438,0.0655491360507842
2025-03-08 13:17:59.456,60.0,0.0695552771985086,-0.0009527704623287,0.068602447010412,0.069759651158055
2025-03-08 13:17:59.458,60.0,0.0721008088420172,-0.002199932581124,0.0699008177077069,0.0752898028404706
2025-03-08 13:17:59.460,60.0,0.0737560776127853,-0.00399639759279,0.069759622646657,0.0811492226985023
2025-03-08 13:17:59.462,60.0,0.0750398384244107,-0.0048860182890048,0.0701537639307804,0.0863783672260816
2025-03-08 13:17:59.464,60.0,0.0765723232790139,-0.0039297036233116,0.0726425645989366,0.0903516538877664
2025-03-08 13:17:59.466,60.0,0.0788011178968467,-0.0010972242993957,0.077703839671074,0.092882677682975
2025-03-08 13:17:59.468,60.0,0.0818127195252579,0.0028459523039084,0.08465861902965,0.0942257668293408
2025-03-08 13:17:59.470,60.0,0.0853044223385684,0.006816070638135,0.0921204413172503,0.0950194003679713
2025-03-08 13:17:59.472,60.0,0.088726235184031,0.0099759836438431,0.0987021683325223,0.09611847652978
2025-03-08 13:17:59.474,60.0,0.0915495653747664,0.012131004984166,0.1036805210515876,0.0982795547065827
2025-03-08 13:17:59.476,60.0,0.0935609962442725,0.0137984152855191,0.1073593634241373,0.1018106938369788
2025-03-08 13:17:59.478,60.0,0.0950292838832651,0.015924421962776,0.1109536589413798,0.1064231986679605
2025-03-08 13:17:59.480,60.0,0.0966224946316747,0.0193753413404523,0.1159977902567578,0.1114503197784134
2025-03-08 13:17:59.482,60.0,0.0990906572617361,0.0244563545832454,0.1235469673047357,0.116326101288356
2025-03-08 13:17:59.484,60.0,0.1028878966572047,0.0307204239707683,0.1336082772551175,0.1209772749074157
2025-03-08 13:17:59.486,60.0,0.1079553751431681,0.0371788271406564,0.1451341600818279,0.1258334503615036
2025-03-08 13:17:59.488,60.0,0.11378083954593,0.042791624127188,0.156572422655346,0.1314937066531677
2025-03-08 13:17:59.490,60.0,0.1196743389583466,0.046960055137724,0.1666343542797719,0.1383732347063638
2025-03-08 13:17:59.491,60.0,0.1250867437906372,0.0497653091745903,0.1748520143643863,0.1465916357560935
2025-03-08 13:17:59.493,60.0,0.129814532641387,0.0518592534403832,0.1816737487025126,0.1560542650210521
2025-03-08 13:17:59.495,60.0,0.1340286490476736,0.0540977610350307,0.1881263739231433,0.1665134880244337
2025-03-08 13:17:59.497,60.0,0.1381506228525413,0.0571278877968109,0.1952784757032433,0.1775447921764177
2025-03-08 13:17:59.499,60.0,0.1426459305336904,0.0611470602331338,0.2037929570286069,0.1885679864095532
2025-03-08 13:17:59.501,60.0,0.147822475448297,0.0659354326622504,0.2137578755791,0.1990071225897035
2025-03-08 13:17:59.503,60.0,0.1537139768167471,0.0710897816310331,0.2248037271273854,0.2084967222481547
2025-03-08 13:17:59.505,60.0,0.1600912445328368,0.0762815343601073,0.2363727487916702,0.2169637037202281
2025-03-08 13:17:59.507,60.0,0.1665887568069482,0.0813895848086544,0.247978312742526,0.2245241466702587
2025-03-08 13:17:59.509,60.0,0.1728850260472984,0.0864685704185465,0.2593535688287024,0.2313072412659619
2025-03-08 13:17:59.511,60.0,0.1788545831122509,0.0916081051135748,0.270462661829952,0.2373964527469981
2025-03-08 13:17:59.513,60.0,0.1846186631958974,0.0967827720009623,0.2814014100452863,0.2429730345149574
2025-03-08 13:17:59.515,60.0,0.1904614092117378,0.1017983821292964,0.2922597674350837,0.2485209511122382
2025-03-08 13:17:59.517,60.0,0.196651998089065,0.1063895866003797,0.3030415620292842,0.2548281431797246
2025-03-08 13:17:59.519,60.0,0.2032819611151696,0.1104106678160097,0.3136926075163135,0.2626731055667303
2025-03-08 13:17:59.521,60.0,0.2102223546774622,0.1139735382503411,0.3241958727578607,0.2723912694559791
2025-03-08 13:17:59.523,60.0,0.2172208237429908,0.1174255729014019,0.3346463777204197,0.2836401740646531
2025-03-08 13:17:59.525,60.0,0.224066421113088,0.1211862089695724,0.3452526124085549,0.2955034270744525
2025-03-08 13:17:59.527,60.0,0.2307132037757762,0.1255446761053199,0.3562578634642698,0.3068309551229258
2025-03-08 13:17:59.529,60.0,0.2372821638136765,0.1305178546883124,0.367800003352374,0.3166388182915259
2025-03-08 13:17:59.531,60.0,0.2439388539876802,0.1358329467824581,0.3797717868974286,0.3244268529150975
2025-03-08 13:17:59.532,60.0,0.2507300478308519,0.1410567541107558,0.391786789351781,0.3303037880934622
2025-03-08 13:17:59.534,60.0,0.2574906025235315,0.1458167360790796,0.4033073272955909,0.3348735548414567
2025-03-08 13:17:59.536,60.0,0.2638739167721405,0.1499810110319155,0.4138549177741798,0.338942910351891
2025-03-08 13:17:59.538,60.0,0.2694758085796647,0.1536724443381498,0.423148244157466,0.3431747257145234
2025-03-08 13:17:59.540,60.0,0.2739905419830583,0.1571083784473067,0.4310989129353242,0.3478124280708365
2025-03-08 13:17:59.542,60.0,0.2773500146229953,0.1603939814750893,0.4377439898718724,0.3525841915325007
2025-03-08 13:17:59.544,60.0,0.2797880519449399,0.1634361962756342,0.4432242432751878,0.3568559782194146
2025-03-08 13:17:59.546,60.0,0.2817586491650587,0.1660472778665908,0.4478059233837514,0.3599877751493948
2025-03-08 13:17:59.548,60.0,0.2837083204003625,0.1681495412094724,0.4518578592738944,0.3616755252143663
2025-03-08 13:17:59.550,60.0,0.2858355684038784,0.1699059610749709,0.4557415284606417,0.3620115123857102
2025-03-08 13:17:59.552,60.0,0.2880077788201233,0.1716545118124141,0.4596622909265951,0.3612250130463448
2025-03-08 13:17:59.554,60.0,0.289880262247355,0.1736778240677777,0.4635580879079549,0.3593798560913877
2025-03-08 13:17:59.556,60.0,0.2911042761192042,0.1759776954600605,0.4670819744571038,0.356320045424862
2025-03-08 13:17:59.558,60.0,0.2914723186865413,0.1782336153648167,0.4697059382088,0.3518567899687091
2025-03-08 13:17:59.560,60.0,0.2909330471691427,0.1799918841406488,0.4709249367545793,0.3459673442365076
2025-03-08 13:17:59.562,60.0,0.2895162846061515,0.1809630565743498,0.4704793479317212,0.3388360670914101
2025-03-08 13:17:59.564,60.0,0.2872593555421295,0.1812260084571351,0.4684853720793857,0.3307488321892072
2025-03-08 13:17:59.566,60.0,0.2841980211309873,0.1811933259144292,0.4653913564700059,0.3219627017092928
2025-03-08 13:17:59.568,60.0,0.2804107763667011,0.181347715108528,0.4617585022456452,0.3126647823485442
2025-03-08 13:17:59.570,60.0,0.2760483334438823,0.1819177617702657,0.4579661073172389,0.303027288106715
2025-03-08 13:17:59.572,60.0,0.2712902480513675,0.182707233118906,0.4539974945856059,0.2932471178334433
2025-03-08 13:17:59.574,60.0,0.2662389384494268,0.1831786651510073,0.4494176183116206,0.2834612667205697
2025-03-08 13:17:59.575,60.0,0.260825037903463,0.1827088935548856,0.4435339474627278,0.273587661227005
2025-03-08 13:17:59.577,60.0,0.2547994937906184,0.1808362767178228,0.435635787819991,0.2632870802656985
2025-03-08 13:17:59.579,60.0,0.2478328734239827,0.1773763172099379,0.4252092092776396,0.2521583715051781
2025-03-08 13:17:59.581,60.0,0.2396812574127341,0.1724163852288436,0.412097662641973,0.2400199103439702
2025-03-08 13:17:59.583,60.0,0.230340960265247,0.1662759928172919,0.3966169744520115,0.2270176248528089
2025-03-08 13:17:59.585,60.0,0.2201072658580475,0.1594774060105664,0.3795846946017276,0.2134847847411649
2025-03-08 13:17:59.587,60.0,0.2094881775106636,0.1526762142100468,0.3621644157974238,0.1997307731205192
2025-03-08 13:17:59.589,60.0,0.1989996868792204,0.1464745977400329,0.3454743100156434,0.1859668219899709
2025-03-08 13:17:59.591,60.0,0.1889401463148753,0.141138177011732,0.3300783500277398,0.1723867118526902
2025-03-08 13:17:59.593,60.0,0.1792594828806699,0.1363799750130073,0.3156394859020871,0.1592568908251493
2025-03-08 13:17:59.595,60.0,0.1695962604038516,0.1314089112098312,0.3010052009490824,0.1468974638370873
2025-03-08 13:17:59.597,60.0,0.1594769687667012,0.1252915973383587,0.2847685967953192,0.1355567299707279
2025-03-08 13:17:59.599,60.0,0.1485850071798024,0.1174457160715405,0.2660307553192252,0.1252505516324807
2025-03-08 13:17:59.601,60.0,0.1369511865051655,0.10796928754466,0.2449205075021462,0.1156613404055571
2025-03-08 13:17:59.603,60.0,0.1249496900113743,0.0976113207590625,0.2225610455951411,0.1062091159937479
2025-03-08 13:17:59.605,60.0,0.1131070879693694,0.0874112531824075,0.2005183773244674,0.0963426161146468
2025-03-08 13:17:59.607,60.0,0.1018564068369643,0.0782094428649915,0.180065887198645,0.0859001813629992
2025-03-08 13:17:59.609,60.0,0.0913931074559608,0.0702748274765346,0.1616679737422014,0.0752375902185285
2025-03-08 13:17:59.611,60.0,0.0817017525858183,0.0632259633657647,0.1449277560824417,0.0649614203675111
2025-03-08 13:17:59.613,60.0,0.0726926826614845,0.0562847070246948,0.1289774311619805,0.0554599730331037
2025-03-08 13:17:59.615,60.0,0.0643176673967566,0.0487393204901687,0.1130570307357765,0.0466088213650175
2025-03-08 13:17:59.616,60.0,0.0565796450010578,0.0403685052041818,0.096948194446004,0.0378631053157885
2025-03-08 13:17:59.618,60.0,0.0494653729522466,0.0315798978902839,0.0810453164758099,0.0286472033020006
2025-03-08 13:17:59.620,60.0,0.0428945861110859,0.023182874520329,0.0660775076395839,0.0187791029074718
2025-03-08 13:17:59.622,60.0,0.0367409635569065,0.0159478575434985,0.0526888694566976,0.0086729843735248
2025-03-08 13:17:59.624,60.0,0.0308963988261828,0.0102287073174941,0.0411251558258182,-0.0008012826543612
2025-03-08 13:17:59.626,60.0,0.0253065005767035,0.0058541366994414,0.0311606882777594,-0.0087125519639204
2025-03-08 13:17:59.628,60.0,0.0199357188282852,0.0023038434243219,0.0222396145867313,-0.0144705617292534
2025-03-08 13:17:59.630,60.0,0.0146970421929694,-0.0009751775454099,0.0137219183404982,-0.0180269679855278
2025-03-08 13:17:59.632,60.0,0.0094317426607812,-0.0042966598635396,0.0051351378757886,-0.0198487115181972
2025-03-08 13:17:59.634,60.0,0.003985510248877,-0.007628162314811,-0.0036425955875993,-0.0207570476944653
2025-03-08 13:17:59.636,60.0,-0.0016749667847704,-0.0106738999480704,-0.0123488088600941,-0.0216974352481976
2025-03-08 13:17:59.638,60.0,-0.007414272074042,-0.0130921139814119,-0.0205063268105442,-0.0234597240212474
2025-03-08 13:17:59.640,60.0,-0.0129935769186077,-0.0147362707687145,-0.0277297870983488,-0.0264151071733736
2025-03-08 13:17:59.642,60.0,-0.0181797691817303,-0.0157914183336637,-0.0339711256023448,-0.0303961929189872
2025-03-08 13:17:59.644,60.0,-0.0228030960934531,-0.0167242479572859,-0.039527280815475,-0.0347965845156592
2025-03-08 13:17:59.646,60.0,-0.026756985157518,-0.0180661796847669,-0.0448231002674478,-0.0388352778688684
2025-03-08 13:17:59.648,60.0,-0.0300091669539319,-0.020141734949605,-0.0501508359609905,-0.041848999260548
2025-03-08 13:17:59.650,60.0,-0.032644992030021,-0.0228893887784589,-0.0555343134731941,-0.0434995461246143
2025-03-08 13:17:59.652,60.0,-0.0348683736525102,-0.025885509697107,-0.0607538146121804,-0.0438581868875754
2025-03-08 13:17:59.654,60.0,-0.0368994602645802,-0.0285765963353823,-0.0654759864715149,-0.0433794212758724
2025-03-08 13:17:59.656,60.0,-0.0388285969900096,-0.030592358439038,-0.0694208839361057,-0.0427765995607805
2025-03-08 13:17:59.657,60.0,-0.0405534500603722,-0.0319489939281359,-0.0725023711601179,-0.0427965203201924
2025-03-08 13:17:59.659,60.0,-0.0418562883967606,-0.0330218156018665,-0.0748780298521128,-0.0439187440359597
2025-03-08 13:17:59.661,60.0,-0.0425615191862734,-0.0343136454219376,-0.0768750891405709,-0.046092165338813
2025-03-08 13:17:59.663,60.0,-0.0426665704476382,-0.0361573980279921,-0.0788238916649392,-0.0486869089117506
2025-03-08 13:17:59.665,60.0,-0.0423746573779785,-0.0385141512478518,-0.0808887304421008,-0.0507710311812736
2025-03-08 13:17:59.667,60.0,-0.0420215360110285,-0.0409755212761593,-0.0829969777074383,-0.0516111856199077
2025-03-08 13:17:59.669,60.0,-0.0419405804568969,-0.0429742019498028,-0.0849147014267883,-0.0510960705334915
2025-03-08 13:17:59.671,60.0,-0.0423362308965729,-0.0440831416631689,-0.0864192901970063,-0.0497857775534302
2025-03-08 13:17:59.673,60.0,-0.0432245462198435,-0.0442189866005764,-0.0874434491056401,-0.0485371544495893
2025-03-08 13:17:59.675,60.0,-0.0444586502363797,-0.0436247008482394,-0.0880832660471252,-0.0479558228943916
2025-03-08 13:17:59.677,60.0,-0.045816474002217,-0.0426574990914986,-0.0884738867469694,-0.0480462965601673
2025-03-08 13:17:59.679,60.0,-0.0471070457720142,-0.0415405320608598,-0.0886474901677552,-0.048293881262321
2025-03-08 13:17:59.681,60.0,-0.0482457267279361,-0.0402561482549489,-0.0885017859721952,-0.0480938425254974
2025-03-08 13:17:59.683,60.0,-0.0492592292546745,-0.038652831458936,-0.08791197032575,-0.0471591567699684
2025-03-08 13:17:59.685,60.0,-0.0502168085043226,-0.0366805588173598,-0.0868972755368104,-0.0455648776040868
2025-03-08 13:17:59.687,60.0,-0.0511338110677402,-0.0345702409719391,-0.0857039588602849,-0.0434535378176534
2025-03-08 13:17:59.689,60.0,-0.0519190097114666,-0.0328072260914122,-0.0847261412533427,-0.0407628591568661
2025-03-08 13:17:59.691,60.0,-0.0524060444487383,-0.0319012619602037,-0.0843072105240935,-0.0372740741076287
2025-03-08 13:17:59.693,60.0,-0.0524439443603617,-0.0321091012293996,-0.0845529483979866,-0.0329098692355134
2025-03-08 13:17:59.695,60.0,-0.0519842412945787,-0.0332885419251955,-0.0852726847290812,-0.0279651526663597
2025-03-08 13:17:59.697,60.0,-0.0511172481269685,-0.0349477805589841,-0.0860649288800755,-0.0230564125880145
2025-03-08 13:17:59.699,60.0,-0.0500393561293996,-0.0364336218491362,-0.0864728768252292,-0.0188477316954676
2025-03-08 13:17:59.700,60.0,-0.0489513449453937,-0.0371753407335961,-0.0861265831465509,-0.0157749625902676
2025-03-08 13:17:59.702,60.0,-0.0479230015450824,-0.0369176029268897,-0.0848405005458034,-0.013933344691572
2025-03-08 13:17:59.704,60.0,-0.0468112427202053,-0.0358564077163444,-0.082667545127408,-0.0131165603207877
2025-03-08 13:17:59.706,60.0,-0.0453163286402703,-0.0345794293947122,-0.0798956513746108,-0.0129076052185399
2025-03-08 13:17:59.708,60.0,-0.0431705786029804,-0.0337954213842431,-0.0769658920133575,-0.0127852549228835
2025-03-08 13:17:59.710,60.0,-0.040346687355462,-0.0339859292758759,-0.0743325073694776,-0.0122631436744383
2025-03-08 13:17:59.712,60.0,-0.037135823983247,-0.0351910874341043,-0.0723268008684453,-0.0110333313472354
2025-03-08 13:17:59.714,60.0,-0.0340122361669757,-0.0370617112573412,-0.0710738355646737,-0.0090443770147927
2025-03-08 13:17:59.716,60.0,-0.0313491053505112,-0.0391234461844779,-0.070472438328652,-0.0064791741070457
2025-03-08 13:17:59.718,60.0,-0.0291859921204331,-0.0410557675200438,-0.0702416450580057,-0.0036578389336008
2025-03-08 13:17:59.720,60.0,-0.0272376336372888,-0.0428027495722987,-0.0700402672438529,-0.0009097670303976
2025-03-08 13:17:59.722,60.0,-0.0251476126229032,-0.0444753508198035,-0.0696228461136767,0.0015481033843564
2025-03-08 13:17:59.724,60.0,-0.022782275246287,-0.0461529514371481,-0.0689351080293755,0.0036717604620367
2025-03-08 13:17:59.726,60.0,-0.0203287147597007,-0.0477470458774485,-0.0680756406964958,0.005531880022441
2025-03-08 13:17:59.728,60.0,-0.0181379698694612,-0.0490287954059525,-0.0671666440683476,0.0071689692905816
2025-03-08 13:17:59.730,60.0,-0.0164683541630495,-0.049790320797829,-0.0662585524799123,0.0084861442544079
2025-03-08 13:17:59.732,60.0,-0.0153366773804845,-0.0500059974902984,-0.0653425510852294,0.0092611507146588
2025-03-08 13:17:59.734,60.0,-0.0145581012292075,-0.0498674492384019,-0.0644254253398405,0.0092654567623774
2025-03-08 13:17:59.736,60.0,-0.0138993215147655,-0.0496712677819067,-0.0635704628020834,0.008450726858821
2025-03-08 13:17:59.738,60.0,-0.0132146933475491,-0.0496478980307376,-0.0628624635189114,0.0071105390119151
2025-03-08 13:17:59.740,60.0,-0.0124813363391254,-0.0498524864278097,-0.0623336935717568,0.0058388993990016
2025-03-08 13:17:59.741,60.0,-0.0117331412033204,-0.0501862048515106,-0.0619192155665042,0.0052081004153478
2025-03-08 13:17:59.743,60.0,-0.0109632314901566,-0.050525117464537,-0.0614882172092625,0.0053835994763254
2025-03-08 13:17:59.745,60.0,-0.0100817213956232,-0.050859055951282,-0.0609406443567112,0.0060210061557077
2025-03-08 13:17:59.747,60.0,-0.0089634115154671,-0.0513345318467642,-0.0602978091106752,0.0065436090607837
2025-03-08 13:17:59.749,60.0,-0.0075405683548101,-0.0521657180539385,-0.0597061508596387,0.0065484947429312
2025-03-08 13:17:59.751,60.0,-0.0058646330258468,-0.0534739599906031,-0.0593384561333106,0.0060121691689202
2025-03-08 13:17:59.753,60.0,-0.0040961957873963,-0.0551672255791672,-0.0592632831322098,0.0051901397025189
2025-03-08 13:17:59.755,60.0,-0.0024333182135948,-0.0569466908443126,-0.0593798694844022,0.0043558255222377
2025-03-08 13:17:59.757,60.0,-0.0010149514194191,-0.0584460339054371,-0.0594608444487748,0.0035962312674693
2025-03-08 13:17:59.759,60.0,0.0001539455266189,-0.0594195072746396,-0.0592654196133523,0.0027971907006415
2025-03-08 13:17:59.761,60.0,0.0012087021525532,-0.0598582661132928,-0.0586494205980112,0.0018156555815878
2025-03-08 13:17:59.763,60.0,0.0023420919546542,-0.0599614847566753,-0.0576192482141688,0.0007147821513403
2025-03-08 13:17:59.765,60.0,0.0036710277959288,-0.0599920630215508,-0.0563208893877544,-0.0001268633860222
2025-03-08 13:17:59.767,60.0,0.0051424467819934,-0.0601281232711876,-0.0549855293623931,-0.0001731207060694
2025-03-08 13:17:59.769,60.0,0.0065499809131632,-0.0604057584263903,-0.0538556290654439,0.000887372173075
2025-03-08 13:17:59.771,60.0,0.00764809534442,-0.0607510593252266,-0.0531028142043229,0.002793052568558
2025-03-08 13:17:59.773,60.0,0.008280835092232,-0.061031863546871,-0.052750877371293,0.0046960178137712
2025-03-08 13:17:59.775,60.0,0.0084489679355122,-0.0610938886856626,-0.0526447684017049,0.0055684177663337
2025-03-08 13:17:59.777,60.0,0.0082918996505691,-0.0608138683978384,-0.0525218151757984,0.0048040627281055
2025-03-08 13:17:59.779,60.0,0.0080061874336781,-0.0601915100943841,-0.0521851678889014,0.0026194043101342
2025-03-08 13:17:59.781,60.0,0.0077491698856209,-0.0594181447883302,-0.0516688189240169,-4.906825080540096e-05
2025-03-08 13:17:59.782,60.0,0.0075792705391503,-0.0588238374144307,-0.0512444096587861,-0.0021248332212744
2025-03-08 13:17:59.784,60.0,0.0074561500079967,-0.0586892092808808,-0.0512329007804125,-0.0030712094520453
2025-03-08 13:17:59.786,60.0,0.007289104236039,-0.0590388683415307,-0.0517496043122447,-0.0032128417419783
2025-03-08 13:17:59.788,60.0,0.0070060802164615,-0.0595775381839531,-0.0525712968758336,-0.0035084442041175
2025-03-08 13:17:59.790,60.0,0.0066063632568501,-0.0598407665145481,-0.0532342408972277,-0.0049607458317181
2025-03-08 13:17:59.792,60.0,0.0061583775590489,-0.0594790608429067,-0.0533205196978632,-0.0080391005557675
2025-03-08 13:17:59.794,60.0,0.0057394574661115,-0.0584896205199761,-0.0527499982790969,-0.0124184154765445
2025-03-08 13:17:59.796,60.0,0.0053693280025391,-0.0572292432254205,-0.0518597492728537,-0.017127091481496
2025-03-08 13:17:59.798,60.0,0.0049979237787806,-0.0561850213762645,-0.0511869304576,-0.020983230756321
2025-03-08 13:17:59.800,60.0,0.0045586208195312,-0.0556585407054867,-0.0510997515227282,-0.0230763489337519
2025-03-08 13:17:59.802,60.0,0.0040448483476218,-0.0555942105804344,-0.0515491926123496,-0.0230852443892897
2025-03-08 13:17:59.804,60.0,0.0035473856581121,-0.0556730045696066,-0.052125448017877,-0.0213586798825705
2025-03-08 13:17:59.806,62.82208588957056,0.0032046003970663,-0.0555826711738386,-0.0523778986211747,-0.0187752487394413
2025-03-08 13:17:59.808,62.82208588957056,0.003078241071846,-0.0552485702038024,-0.052170155748151,-0.0164193646805996
2025-03-08 13:17:59.810,62.82208588957056,0.0030494446382427,-0.0548660748931791,-0.051816455683698,-0.0151698419558338
2025-03-08 13:17:59.812,62.82208588957056,0.0028451491940365,-0.0547435194056463,-0.0518981944820039,-0.0153863668715626
2025-03-08 13:17:59.814,62.82208588957056,0.0022061652150003,-0.0550914584457851,-0.052885116347684,-0.0168597047292197
2025-03-08 13:17:59.816,62.82208588957056,0.0010795168994204,-0.0558974831579478,-0.0548177882023803,-0.0190232081765301
2025-03-08 13:17:59.818,62.82208588957056,-0.0003148118027167,-0.0569421736833808,-0.0572568062247427,-0.02124258688701
2025-03-08 13:17:59.820,62.82208588957056,-0.001604412769342,-0.0579222541956549,-0.0595264864713621,-0.0229910724155232
2025-03-08 13:17:59.822,62.82208588957056,-0.0024998986988102,-0.0586013176120296,-0.0611010345776356,-0.0238931866863195
2025-03-08 13:17:59.824,62.82208588957056,-0.0029828815089426,-0.0589117638932469,-0.0618944624464643,-0.0237698978887362
2025-03-08 13:17:59.825,62.82208588957056,-0.0033033091227112,-0.0589651525351493,-0.062268277513509,-0.0227618507936093
2025-03-08 13:17:59.827,62.82208588957056,-0.0037801988399507,-0.0589730348552248,-0.0627530483974781,-0.02143018034811
2025-03-08 13:17:59.829,62.82208588957056,-0.0045624467462272,-0.0591221227995239,-0.0636843831157886,-0.0206532112974088
2025-03-08 13:17:59.831,62.82208588957056,-0.0055440668341152,-0.0594672235178985,-0.065011102788565,-0.0212629867806683
2025-03-08 13:17:59.833,62.82208588957056,-0.006488560335163,-0.0598938247861129,-0.0663821964038514,-0.0236052828204908
2025-03-08 13:17:59.835,62.82208588957056,-0.0072338147903087,-0.0601733138330885,-0.0674069387244818,-0.0273179663209671
2025-03-08 13:17:59.837,62.82208588957056,-0.007803920811125,-0.0600938532189768,-0.0678975829302877,-0.0314657652593747
2025-03-08 13:17:59.839,62.82208588957056,-0.0083690168434845,-0.0595982928083185,-0.0679671173503785,-0.0349137872772116
2025-03-08 13:17:59.841,62.82208588957056,-0.0091270146447316,-0.0588374360019501,-0.0679642571627851,-0.0367341829801644
2025-03-08 13:17:59.843,62.82208588957056,-0.0102086826263327,-0.0580992749765848,-0.0683077629671601,-0.0365268097106429
2025-03-08 13:17:59.845,62.82208588957056,-0.0116449746176119,-0.0576645484383852,-0.0693093272970443,-0.0345890175670827
2025-03-08 13:17:59.847,62.82208588957056,-0.0133766397139778,-0.0576781988368874,-0.0710546416836413,-0.0318425890139941
2025-03-08 13:17:59.849,62.82208588957056,-0.0152764928181667,-0.0580945117513291,-0.0733708065905277,-0.0294954232008506
2025-03-08 13:17:59.851,62.82208588957056,-0.0171686408232943,-0.0587042820980672,-0.0758727238130554,-0.0286058412587003
2025-03-08 13:17:59.853,62.82208588957056,-0.0188458757774839,-0.0592227966061107,-0.0780684721248936,-0.0297764048339152
2025-03-08 13:17:59.855,62.82208588957056,-0.0201059615619649,-0.0593998512538899,-0.0795056113938836,-0.0330362091412844
2025-03-08 13:17:59.857,62.82208588957056,-0.0208239599633673,-0.0591064267537569,-0.0799301841343248,-0.0378279207677476
2025-03-08 13:17:59.859,62.82208588957056,-0.021032025468321,-0.0583741169223766,-0.079405938664454,-0.0430831400829538
2025-03-08 13:17:59.861,62.82208588957056,-0.0209391653225091,-0.0573931771342238,-0.0783321376121869,-0.0474839178839004
2025-03-08 13:17:59.863,62.82208588957056,-0.0208534478464117,-0.0564724568560568,-0.0773256987623132,-0.049931367132018
2025-03-08 13:17:59.865,62.82208588957056,-0.021046972762229,-0.05594997287417,-0.0769967386125212,-0.0500125137276753
2025-03-08 13:17:59.866,62.82208588957056,-0.0216481635668104,-0.0560672431133562,-0.0777151985707601,-0.04815751195229
2025-03-08 13:17:59.868,62.82208588957056,-0.0226160087453085,-0.0568631601222295,-0.0794789596605292,-0.0453796916929537
2025-03-08 13:17:59.870,62.82208588957056,-0.0237878883474692,-0.0581420471085573,-0.081929725136757,-0.0427937822775638
2025-03-08 13:17:59.872,62.82208588957056,-0.0249619200122873,-0.0595259835397082,-0.0844876921114217,-0.0411956582114799
2025-03-08 13:17:59.874,62.82208588957056,-0.0259829776760335,-0.0605678791623516,-0.0865506442781987,-0.0408523682729501
2025-03-08 13:17:59.876,62.82208588957056,-0.026805303660042,-0.060897468941153,-0.0877025589339674,-0.041530519297003
2025-03-08 13:17:59.878,62.82208588957056,-0.0274983614291741,-0.0603629267067681,-0.0878610733807098,-0.042742713922937
2025-03-08 13:17:59.880,62.82208588957056,-0.028185299844772,-0.0591090318499454,-0.0872941158702722,-0.0440898964621448
2025-03-08 13:17:59.882,62.82208588957056,-0.0289546168988201,-0.0575471080326395,-0.0865015080502942,-0.0454618010912247
2025-03-08 13:17:59.884,62.82208588957056,-0.0298101427302051,-0.0562308734256035,-0.08604079822106,-0.0469238916816003
2025-03-08 13:17:59.886,62.82208588957056,-0.0306888463660262,-0.055687300658384,-0.0863759280307078,-0.0483945399118109
2025-03-08 13:17:59.888,62.82208588957056,-0.0315147032518084,-0.0562350329275879,-0.0877495161169423,-0.0494570722872504
2025-03-08 13:17:59.890,62.82208588957056,-0.0322338631556021,-0.057823593876886,-0.0900572358925946,-0.0495630394893222
2025-03-08 13:17:59.892,62.82208588957056,-0.032812329275264,-0.0599778743715931,-0.0927899814268288,-0.0484819754380965
