Timestamp,GSR_Filtered,PPG_Filtered
2025-03-08 13:17:57.878,-2.143822968291446e-05,-12.223342857956936
2025-03-08 13:17:57.886,-1.4848529911065673e-05,-11.757541869221395
2025-03-08 13:17:57.894,-8.279904156642902e-06,-11.329047741647763
2025-03-08 13:17:57.901,-1.8838903209350917e-06,-10.944619148251098
2025-03-08 13:17:57.909,4.201460690491752e-06,-10.609688162506334
2025-03-08 13:17:57.917,9.860207560836427e-06,-10.328248381702869
2025-03-08 13:17:57.925,1.5005041003218737e-05,-10.102783735339923
2025-03-08 13:17:57.933,1.9581323272991666e-05,-9.934239644441007
2025-03-08 13:17:57.940,2.3568497387462792e-05,-9.82203701176562
2025-03-08 13:17:57.948,2.6978946119029196e-05,-9.764128285762315
2025-03-08 13:17:57.956,2.9854589909755815e-05,-9.757093578483868
2025-03-08 13:17:57.964,3.226168745486309e-05,-9.796273570104837
2025-03-08 13:17:57.972,3.4284414905413594e-05,-9.875934753443056
2025-03-08 13:17:57.980,3.601782536927631e-05,-9.989461520899107
2025-03-08 13:17:57.987,3.75607395320749e-05,-10.12956873159336
2025-03-08 13:17:57.995,3.900903744636067e-05,-10.288527766355278
2025-03-08 13:17:58.003,4.044975018612336e-05,-10.458398714621948
2025-03-08 13:17:58.011,4.195627959861111e-05,-10.631261252130534
2025-03-08 13:17:58.019,4.358497315863993e-05,-10.799436952131424
2025-03-08 13:17:58.026,4.537315238350664e-05,-10.955696199141688
2025-03-08 13:17:58.034,4.733857748729607e-05,-11.093443510154705
2025-03-08 13:17:58.042,4.948025277535329e-05,-11.206875887524202
2025-03-08 13:17:58.050,5.1780425865280576e-05,-11.291109817198857
2025-03-08 13:17:58.058,5.4207589161425997e-05,-11.342273679642815
2025-03-08 13:17:58.065,5.6720245280384124e-05,-11.35756364557624
2025-03-08 13:17:58.073,5.9271148832400304e-05,-11.335262551302257
2025-03-08 13:17:58.081,6.181168813364499e-05,-11.274722731573375
2025-03-08 13:17:58.089,6.42960333967019e-05,-11.176315254811117
2025-03-08 13:17:58.097,6.668467683081546e-05,-11.041349365671314
2025-03-08 13:17:58.105,6.894704781410043e-05,-10.871967096072403
2025-03-08 13:17:58.112,7.106300096317687e-05,-10.671018864251051
2025-03-08 13:17:58.120,7.30231197975164e-05,-10.441926369051961
2025-03-08 13:17:58.128,7.482792599208823e-05,-10.18853916897976
2025-03-08 13:17:58.136,7.648621748479534e-05,-9.914991028186678
2025-03-08 13:17:58.144,7.801286202879773e-05,-9.625561479086937
2025-03-08 13:17:58.151,7.942641992389494e-05,-9.324547191711249
2025-03-08 13:17:58.159,8.074693645117285e-05,-9.016146760492768
2025-03-08 13:17:58.167,8.199413416755005e-05,-8.704361513686068
2025-03-08 13:17:58.175,8.318608464843026e-05,-8.392913986948217
2025-03-08 13:17:58.183,8.433829991765921e-05,-8.085184821796394
2025-03-08 13:17:58.190,8.546309520506061e-05,-7.784168072612134
2025-03-08 13:17:58.198,8.656905158476176e-05,-7.492444243268858
2025-03-08 13:17:58.206,8.766044867830956e-05,-7.212169834054287
2025-03-08 13:17:58.214,8.87366325291295e-05,-6.945081765334603
2025-03-08 13:17:58.222,8.979139572230485e-05,-6.692514749166933
2025-03-08 13:17:58.230,9.08125242968967e-05,-6.455429480500502
2025-03-08 13:17:58.237,9.178168315556264e-05,-6.234449381734314
2025-03-08 13:17:58.245,9.267478078348431e-05,-6.0299035283046285
2025-03-08 13:17:58.253,9.346289736961811e-05,-5.841873298106597
2025-03-08 13:17:58.261,9.411378968694078e-05,-5.6702402388896775
2025-03-08 13:17:58.269,9.459390554258582e-05,-5.514732668530449
2025-03-08 13:17:58.276,9.487075486630503e-05,-5.377098559253271
2025-03-08 13:17:58.284,9.491540657954162e-05,-5.247848297526617
2025-03-08 13:17:58.292,9.470483609896943e-05,-5.126964553855513
2025-03-08 13:17:58.300,9.422386231653034e-05,-5.014383471012877
2025-03-08 13:17:58.308,9.346648490223961e-05,-4.90998269661709
2025-03-08 13:17:58.315,9.243653763457946e-05,-4.813556395753597
2025-03-08 13:17:58.323,9.114768320201609e-05,-4.724779469330332
2025-03-08 13:17:58.331,8.962286630630126e-05,-4.64316423168076
2025-03-08 13:17:58.339,8.789338917890153e-05,-4.56801366240531
2025-03-08 13:17:58.347,8.599776249082975e-05,-4.498375973827466
2025-03-08 13:17:58.355,8.398043715132507e-05,-4.433005557282332
2025-03-08 13:17:58.362,8.189047830807119e-05,-4.370335326956414
2025-03-08 13:17:58.370,7.978021378374683e-05,-4.3084650297355065
2025-03-08 13:17:58.378,7.770386358255345e-05,-4.24516923330786
2025-03-08 13:17:58.386,7.571613777604218e-05,-4.177927492430568
2025-03-08 13:17:58.394,7.387079090918435e-05,-4.103977722459643
2025-03-08 13:17:58.401,7.221914046362221e-05,-4.020392210620148
2025-03-08 13:17:58.409,7.080858112516957e-05,-3.9241741102272862
2025-03-08 13:17:58.417,6.96811465098993e-05,-3.8123708184408436
2025-03-08 13:17:58.425,6.887218310182622e-05,-3.682199428410168
2025-03-08 13:17:58.433,6.840920676572396e-05,-3.531178526611313
2025-03-08 13:17:58.440,6.831100986428465e-05,-3.357259997440676
2025-03-08 13:17:58.448,6.858707651449092e-05,-3.158954200616801
2025-03-08 13:17:58.456,6.923734490553267e-05,-2.9354418953345403
2025-03-08 13:17:58.464,7.025232918003587e-05,-2.6866665928141207
2025-03-08 13:17:58.472,7.161357973706946e-05,-2.4134016256178437
2025-03-08 13:17:58.480,7.329442243613526e-05,-2.117287126963551
2025-03-08 13:17:58.487,7.526088325882e-05,-1.8008333025275889
2025-03-08 13:17:58.495,7.747268945425097e-05,-1.4673878140556313
2025-03-08 13:17:58.503,7.988424295108843e-05,-1.121066714808447
2025-03-08 13:17:58.511,8.244547340860617e-05,-0.7666500934252021
2025-03-08 13:17:58.519,8.510249607075454e-05,-0.40944529080610664
2025-03-08 13:17:58.526,8.77980455434153e-05,-0.0551221472646106
2025-03-08 13:17:58.534,9.047174027578647e-05,0.2904738777745225
2025-03-08 13:17:58.542,9.306032622049939e-05,0.6215237587216015
2025-03-08 13:17:58.550,9.54981043066665e-05,0.9324443699568004
2025-03-08 13:17:58.558,9.771773026043268e-05,1.218097122493253
2025-03-08 13:17:58.565,9.965148755870982e-05,1.4739873690247902
2025-03-08 13:17:58.573,0.00010123301083681209,1.6964463380496702
2025-03-08 13:17:58.581,0.00010239932825403088,1.8827878401961409
2025-03-08 13:17:58.589,0.00010309303399603302,2.031432785284407
2025-03-08 13:17:58.597,0.00010326440028987031,2.1419956413108565
2025-03-08 13:17:58.605,0.00010287326961770187,2.215328327470413
2025-03-08 13:17:58.612,0.00010189060866934606,2.253518619932291
2025-03-08 13:17:58.620,0.00010029964516731218,2.259841907812816
2025-03-08 13:17:58.628,9.809654452034975e-05,2.2386670059078506
2025-03-08 13:17:58.636,9.52906146627838e-05,2.1953186405081477
2025-03-08 13:17:58.644,9.190405399587333e-05,2.135901095375822
2025-03-08 13:17:58.651,8.797127885824117e-05,2.0670892466791244
2025-03-08 13:17:58.659,8.353788340487029e-05,1.9958947328142935
2025-03-08 13:17:58.667,7.865929632959967e-05,1.929416207420874
2025-03-08 13:17:58.675,7.339920582987815e-05,1.8745834394777952
2025-03-08 13:17:58.683,6.782782700460462e-05,1.8379054074228274
2025-03-08 13:17:58.690,6.202008500005642e-05,1.8252324654559766
2025-03-08 13:17:58.698,5.6053783232914005e-05,1.8415421410602064
2025-03-08 13:17:58.706,5.000781950609553e-05,1.8907571709195008
2025-03-08 13:17:58.714,4.396050437407309e-05,1.9756030326352019
2025-03-08 13:17:58.722,3.79880262664408e-05,2.097510538790832
2025-03-08 13:17:58.730,3.216309715426617e-05,2.2565671095884188
2025-03-08 13:17:58.737,2.6553801395738966e-05,2.4515182333911283
2025-03-08 13:17:58.745,2.1222659207156795e-05,2.6798184758195207
2025-03-08 13:17:58.753,1.6225905275584206e-05,2.9377293213107833
2025-03-08 13:17:58.761,1.1612972583195598e-05,3.2204592271834707
2025-03-08 13:17:58.769,7.426161693914747e-06,3.5223396208856035
2025-03-08 13:17:58.776,3.7004666303321964e-06,3.837029238351791
2025-03-08 13:17:58.784,4.635200477895273e-07,4.157738229988323
2025-03-08 13:17:58.792,-2.264387355873461e-06,4.477462877148138
2025-03-08 13:17:58.800,-4.470265460889713e-06,4.789221569606407
2025-03-08 13:17:58.808,-6.148420396429855e-06,5.086282873211545
2025-03-08 13:17:58.815,-7.300552707028568e-06,5.362377031809708
2025-03-08 13:17:58.823,-7.936028044937334e-06,5.611883066128017
2025-03-08 13:17:58.831,-8.072383568587669e-06,5.829984735729109
2025-03-08 13:17:58.839,-7.736094390955555e-06,6.012790009301633
2025-03-08 13:17:58.847,-6.963542419841343e-06,6.157410325623337
2025-03-08 13:17:58.855,-5.8020310520926155e-06,6.261997776509701
2025-03-08 13:17:58.862,-4.310623163851769e-06,6.325740321790108
2025-03-08 13:17:58.870,-2.5605724170187985e-06,6.348817142051066
2025-03-08 13:17:58.878,-6.351568116061518e-07,6.332318117585064
2025-03-08 13:17:58.886,1.3712135006042644e-06,6.278133061179516
2025-03-08 13:17:58.894,3.354666547125875e-06,6.188817613578689
2025-03-08 13:17:58.901,5.204285385654317e-06,6.067443548250784
2025-03-08 13:17:58.909,6.805151784995613e-06,5.917441578168268
2025-03-08 13:17:58.917,8.041817754074694e-06,5.742444604667748
2025-03-08 13:17:58.925,8.801961034747434e-06,5.546138733626188
2025-03-08 13:17:58.933,8.979994611131668e-06,5.332128385818981
2025-03-08 13:17:58.940,8.480471015002512e-06,5.103820558687972
2025-03-08 13:17:58.948,7.221214747581056e-06,4.864331885782764
2025-03-08 13:17:58.956,5.1361818278255195e-06,4.616420715487635
2025-03-08 13:17:58.964,2.1780498605686075e-06,4.362445097844604
2025-03-08 13:17:58.972,-1.6795143118243495e-06,4.1043463960410556
2025-03-08 13:17:58.980,-6.440042123352563e-06,3.8436572556855366
2025-03-08 13:17:58.987,-1.208308424810788e-05,3.5815318660208693
2025-03-08 13:17:58.995,-1.8563807810703395e-05,3.318795807188534
2025-03-08 13:17:59.003,-2.5813404525772385e-05,3.0560122581332014
2025-03-08 13:17:59.011,-3.374023507026539e-05,2.7935608979566724
2025-03-08 13:17:59.019,-4.2231595762483694e-05,2.531725435919235
2025-03-08 13:17:59.026,-5.11560330854858e-05,2.2707853419476614
2025-03-08 13:17:59.034,-6.03662032498022e-05,2.0111070419042143
2025-03-08 13:17:59.042,-6.970232041674933e-05,1.753229640656927
2025-03-08 13:17:59.050,-7.899622158894325e-05,1.4979402096496073
2025-03-08 13:17:59.058,-8.807599841903191e-05,1.2463338918789548
2025-03-08 13:17:59.065,-9.677104130267233e-05,0.9998545826831574
2025-03-08 13:17:59.073,-0.00010491725837602936,0.7603127514779618
2025-03-08 13:17:59.081,-0.00011236220704199507,0.5298780512108121
2025-03-08 13:17:59.089,-0.0001189699094734755,0.31104566074085854
2025-03-08 13:17:59.097,-0.00012462518268903318,0.10657674332395867
2025-03-08 13:17:59.105,-0.00012923735265123047,-0.0805851037660706
2025-03-08 13:17:59.112,-0.00013274321696380125,-0.24741807824924783
2025-03-08 13:17:59.120,-0.00013510909453817992,-0.39094242634975723
2025-03-08 13:17:59.128,-0.00013633180087824443,-0.5083509670625839
2025-03-08 13:17:59.136,-0.0001364384385691675,-0.5971433395178106
2025-03-08 13:17:59.144,-0.00013548498068819415,-0.655256999427536
2025-03-08 13:17:59.151,-0.00013355372719152188,-0.6811879695143788
2025-03-08 13:17:59.159,-0.0001307498170769966,-0.6740947419490724
2025-03-08 13:17:59.167,-0.00012719706839332972,-0.6338795147523449
2025-03-08 13:17:59.175,-0.0001230334690862713,-0.5612420657526936
2025-03-08 13:17:59.183,-0.00011840663067088455,-0.4577029531218139
2025-03-08 13:17:59.190,-0.00011346944518396704,-0.3255942940505865
2025-03-08 13:17:59.198,-0.00010837608008224045,-0.16801801690139356
2025-03-08 13:17:59.206,-0.00010327833473353524,0.011226895073034857
2025-03-08 13:17:59.214,-9.832229005559743e-05,0.20774515044197264
2025-03-08 13:17:59.222,-9.364513782107041e-05,0.4166695816497979
2025-03-08 13:17:59.230,-8.93721010711816e-05,0.632803948827722
2025-03-08 13:17:59.237,-8.561344112225654e-05,0.8507781063162448
2025-03-08 13:17:59.245,-8.246164077078356e-05,1.0652091454121615
2025-03-08 13:17:59.253,-7.998890795341525e-05,1.270862051532596
2025-03-08 13:17:59.261,-7.82451469321648e-05,1.4628036134879279
2025-03-08 13:17:59.269,-7.725651547157622e-05,1.6365437654525132
2025-03-08 13:17:59.276,-7.702464959596353e-05,1.7881591969270376
2025-03-08 13:17:59.284,-7.752660270069908e-05,1.9143949003005736
2025-03-08 13:17:59.292,-7.871551507861494e-05,2.0127403028466624
2025-03-08 13:17:59.300,-8.052200350411723e-05,2.0814777065797996
2025-03-08 13:17:59.308,-8.285623840068142e-05,2.1197018884648675
2025-03-08 13:17:59.315,-8.561065815959868e-05,2.1273108524536295
2025-03-08 13:17:59.323,-8.866325612640385e-05,2.1049688412946947
2025-03-08 13:17:59.331,-9.188136530266248e-05,2.0540437871024135
2025-03-08 13:17:59.339,-9.512585856810192e-05,1.9765223853086993
2025-03-08 13:17:59.347,-9.825567623154036e-05,1.8749068914220341
2025-03-08 13:17:59.355,-0.00010113257958628057,1.7520985266740003
2025-03-08 13:17:59.362,-0.00010362599606744537,1.6112729863645634
2025-03-08 13:17:59.370,-0.00010561776975503596,1.4557539145408434
2025-03-08 13:17:59.378,-0.00010700658521195477,1.288890285526391
2025-03-08 13:17:59.386,-0.00010771181784777485,1.1139433804505627
2025-03-08 13:17:59.394,-0.00010767658126645746,0.9339884580882475
2025-03-08 13:17:59.401,-0.00010686977845772846,0.7518353174851653
2025-03-08 13:17:59.409,-0.00010528701062754913,0.5699707838922548
2025-03-08 13:17:59.417,-0.00010295025259858428,0.3905247868303492
2025-03-08 13:17:59.425,-9.990626614882919e-05,0.215260220854446
2025-03-08 13:17:59.433,-9.622379129017634e-05,0.045585278430471804
2025-03-08 13:17:59.440,-9.198962898970237e-05,-0.11741447916787201
2025-03-08 13:17:59.448,-8.730380564136086e-05,-0.27292829168756755
2025-03-08 13:17:59.456,-8.227408790293643e-05,-0.42036156170862654
2025-03-08 13:17:59.464,-7.70101926632342e-05,-0.5592719805092465
2025-03-08 13:17:59.472,-7.161809896287074e-05,-0.689306197751497
2025-03-08 13:17:59.480,-6.619489199518245e-05,-0.8101425742245617
2025-03-08 13:17:59.487,-6.0824530418016955e-05,-0.9214448712060953
2025-03-08 13:17:59.495,-5.557482856750101e-05,-1.0228306489943857
2025-03-08 13:17:59.503,-5.0495811103216394e-05,-1.1138567655750296
2025-03-08 13:17:59.511,-4.561945657732665e-05,-1.1940228117933296
2025-03-08 13:17:59.519,-4.096071459269912e-05,-1.2627917351435274
2025-03-08 13:17:59.526,-3.6519574343857244e-05,-1.3196254318274558
2025-03-08 13:17:59.534,-3.22839049409838e-05,-1.3640318487228276
2025-03-08 13:17:59.542,-2.8232794513659138e-05,-1.3956192230005147
2025-03-08 13:17:59.550,-2.4340162019405573e-05,-1.414152547874762
2025-03-08 13:17:59.558,-2.0578455074797285e-05,-1.4196072040454866
2025-03-08 13:17:59.565,-1.6922254317056653e-05,-1.4122149276414206
2025-03-08 13:17:59.573,-1.3351592302154957e-05,-1.3924978660492542
2025-03-08 13:17:59.581,-9.85478430840012e-06,-1.3612873509390928
2025-03-08 13:17:59.589,-6.430569884844727e-06,-1.3197251197671835
2025-03-08 13:17:59.597,-3.0893793323613536e-06,-1.2692459537484908
2025-03-08 13:17:59.605,1.4643174367383524e-07,-1.2115419767489828
2025-03-08 13:17:59.612,3.243494815898601e-06,-1.148510086151323
2025-03-08 13:17:59.620,6.159547496012864e-06,-1.0821850875151737
2025-03-08 13:17:59.628,8.846742187455906e-06,-1.0146620215439364
2025-03-08 13:17:59.636,1.1256010159601318e-05,-0.948011863940151
2025-03-08 13:17:59.644,1.3342182259002567e-05,-0.8841952191700804
2025-03-08 13:17:59.651,1.5069393958299025e-05,-0.8249787991641283
2025-03-08 13:17:59.659,1.6416194992847407e-05,-0.7718593665217617
2025-03-08 13:17:59.667,1.7379792334832955e-05,-0.7259994313582959
2025-03-08 13:17:59.675,1.797896681375086e-05,-0.6881783426451203
2025-03-08 13:17:59.683,1.8255370775924975e-05,-0.6587615468490933
2025-03-08 13:17:59.690,1.8273097066256037e-05,-0.6376897474015183
2025-03-08 13:17:59.698,1.8116581143163855e-05,-0.6244885414509617
2025-03-08 13:17:59.706,1.788703001907705e-05,-0.6182978932827696
2025-03-08 13:17:59.714,1.7697646944723074e-05,-0.6179195939094343
2025-03-08 13:17:59.722,1.766795855069461e-05,-0.6218797368248888
2025-03-08 13:17:59.730,1.7917586643606924e-05,-0.6285023104929981
2025-03-08 13:17:59.737,1.8559839212253546e-05,-0.6359893734337454
2025-03-08 13:17:59.745,1.969548931148837e-05,-0.6425030238439449
2025-03-08 13:17:59.753,2.140705520151355e-05,-0.64624454273992
2025-03-08 13:17:59.761,2.3753826440721255e-05,-0.6455266540968779
2025-03-08 13:17:59.769,2.676783483199028e-05,-0.6388357221431145
2025-03-08 13:17:59.776,3.0450935825112188e-05,-0.6248817686313443
2025-03-08 13:17:59.784,3.477311136416404e-05,-0.6026353029690293
2025-03-08 13:17:59.792,3.967203026324664e-05,-0.5713509904606111
2025-03-08 13:17:59.800,4.505384450506097e-05,-0.5305790439232727
2025-03-08 13:17:59.808,5.0795181557334024e-05,-0.4801658531461613
2025-03-08 13:17:59.815,5.674630039553755e-05,-0.4202457409863974
2025-03-08 13:17:59.823,6.273538982013627e-05,-0.35122586146429763
2025-03-08 13:17:59.831,6.85739906156231e-05,-0.2737661696923195
2025-03-08 13:17:59.839,7.406351380164126e-05,-0.18875615350707392
2025-03-08 13:17:59.847,7.900279548032159e-05,-0.09728968980930523
2025-03-08 13:17:59.855,8.3196552449807e-05,-0.0006390393183516708
2025-03-08 13:17:59.862,8.646446329857976e-05,0.09977132568219663
2025-03-08 13:17:59.870,8.865041387105312e-05,0.202390618807555
2025-03-08 13:17:59.878,8.963127663087055e-05,0.30556709024507706
2025-03-08 13:17:59.886,8.932451615426137e-05,0.4075726514574977
2025-03-08 13:17:59.894,8.769396444809284e-05,0.5066266388267219
2025-03-08 13:17:59.901,8.475326844467904e-05,0.6009186179341107
2025-03-08 13:17:59.909,8.056672813095775e-05,0.6886301970031838
2025-03-08 13:17:59.917,7.524747701493822e-05,0.7679559318198111
2025-03-08 13:17:59.925,6.895317922399275e-05,0.8371235559577949
2025-03-08 13:17:59.933,6.187959887147729e-05,0.8944139308872056
2025-03-08 13:17:59.940,5.425250994797491e-05,0.9381812455408668
2025-03-08 13:17:59.948,4.631845662149223e-05,0.9668740734047871
2025-03-08 13:17:59.956,3.833486738513881e-05,0.9790578972728265
2025-03-08 13:17:59.964,3.055999797108741e-05,0.9734396313534258
2025-03-08 13:17:59.972,2.324314724472319e-05,0.9488945123157317
2025-03-08 13:17:59.980,1.661557200507383e-05,0.9044955024287256
2025-03-08 13:17:59.987,1.0882511609990609e-05,0.839545051648109
2025-03-08 13:17:59.995,6.216677747142983e-06,0.7536087001850533
2025-03-08 13:18:00.003,2.7534339199027576e-06,0.6465495729713282
2025-03-08 13:18:00.011,5.877098714374219e-07,0.518562342670583
2025-03-08 13:18:00.019,-2.274661750765422e-07,0.3702047608664977
2025-03-08 13:18:00.026,3.1896531832375115e-07,0.20242444069372
2025-03-08 13:18:00.034,2.197185387334967e-06,0.016578291091386813
2025-03-08 13:18:00.042,5.3385399297391e-06,-0.18555808095917578
2025-03-08 13:18:00.050,9.638402036367791e-06,-0.40179352381588807
2025-03-08 13:18:00.058,1.4959778043325308e-05,-0.6295391541376576
2025-03-08 13:18:00.065,2.1137624494062475e-05,-0.8658422668649817
2025-03-08 13:18:00.073,2.7983890311791616e-05,-1.1074369031024758
2025-03-08 13:18:00.081,3.5293335645685984e-05,-1.3508106068450985
2025-03-08 13:18:00.089,4.285014643624332e-05,-1.5922857920474636
2025-03-08 13:18:00.097,5.043522938978511e-05,-1.8281130418941571
2025-03-08 13:18:00.105,5.783388565035215e-05,-2.0545726728586686
2025-03-08 13:18:00.112,6.484341911045056e-05,-2.2680801197212803
2025-03-08 13:18:00.120,7.128019757206602e-05,-2.4652902244436525
2025-03-08 13:18:00.128,7.698574202956242e-05,-2.643195404340752
2025-03-08 13:18:00.136,8.183152552569047e-05,-2.799212954665123
2025-03-08 13:18:00.144,8.572228248988286e-05,-2.931257378720638
2025-03-08 13:18:00.151,8.859774730738877e-05,-3.0377945582061083
2025-03-08 13:18:00.159,9.04328522652553e-05,-3.117875669879085
2025-03-08 13:18:00.167,9.12365155712282e-05,-3.171149908610174
2025-03-08 13:18:00.175,9.104922781105029e-05,-3.1978561941307118
2025-03-08 13:18:00.183,8.993967748119821e-05,-3.198795046925187
2025-03-08 13:18:00.190,8.800063043898322e-05,-3.175282669740594
2025-03-08 13:18:00.198,8.53442195194856e-05,-3.1290899370957437
2025-03-08 13:18:00.206,8.209675835918229e-05,-3.062369463579383
2025-03-08 13:18:00.214,7.839319326164128e-05,-2.977574191980992
2025-03-08 13:18:00.222,7.437133678013774e-05,-2.8773710236366554
2025-03-08 13:18:00.230,7.016606512375047e-05,-2.7645529256033994
2025-03-08 13:18:00.237,6.590369791056027e-05,-2.6419527240582887
2025-03-08 13:18:00.245,6.169681057771519e-05,-2.5123614724508996
2025-03-08 13:18:00.253,5.7639754240558364e-05,-2.3784539108898084
2025-03-08 13:18:00.261,5.380516420483961e-05,-2.242723144941934
2025-03-08 13:18:00.269,5.024170498994806e-05,-2.107426282350476
2025-03-08 13:18:00.276,4.697321438977871e-05,-1.9745423692288542
2025-03-08 13:18:00.284,4.399929554125344e-05,-1.8457435467180079
2025-03-08 13:18:00.292,4.129730354708974e-05,-1.7223798915892972
2025-03-08 13:18:00.300,3.8825586618362564e-05,-1.6054779073904544
2025-03-08 13:18:00.308,3.652774741853173e-05,-1.495752106153206
2025-03-08 13:18:00.316,3.433759277894961e-05,-1.3936285850095147
2025-03-08 13:18:00.323,3.218437810919622e-05,-1.299278986283174
2025-03-08 13:18:00.331,2.9997949712309555e-05,-1.2126627653470103
2025-03-08 13:18:00.339,2.771343069904802e-05,-1.1335753045700738
2025-03-08 13:18:00.347,2.5275161476085773e-05,-1.0616991227074155
2025-03-08 13:18:00.355,2.2639681792401847e-05,-0.9966552507727254
2025-03-08 13:18:00.362,1.977762392590816e-05,-0.9380517909862391
2025-03-08 13:18:00.370,1.6674473180807155e-05,-0.8855267585386819
2025-03-08 13:18:00.378,1.3330239809739713e-05,-0.8387825395938558
2025-03-08 13:18:00.386,9.75817314168862e-06,-0.797609694137969
2025-03-08 13:18:00.394,5.982731497706084e-06,-0.7618983944725202
2025-03-08 13:18:00.401,2.0370962774496088e-06,-0.7316365107219134
2025-03-08 13:18:00.409,-2.0394266773325515e-06,-0.706894200705351
2025-03-08 13:18:00.417,-6.203765157570655e-06,-0.6877957715113481
2025-03-08 13:18:00.425,-1.0410902093070324e-05,-0.674480472148516
2025-03-08 13:18:00.433,-1.4614985288734042e-05,-0.6670546670408293
2025-03-08 13:18:00.441,-1.8769697378276257e-05,-0.6655384647766689
2025-03-08 13:18:00.448,-2.2827982121197767e-05,-0.6698103034458214
2025-03-08 13:18:00.456,-2.6741296935027575e-05,-0.679553221675034
2025-03-08 13:18:00.464,-3.0458601888270664e-05,-0.6942065893718455
2025-03-08 13:18:00.472,-3.3925336748318295e-05,-0.7129269520973317
2025-03-08 13:18:00.480,-3.708267866267551e-05,-0.7345613667845917
2025-03-08 13:18:00.487,-3.9867376374281164e-05,-0.757636173797454
2025-03-08 13:18:00.495,-4.22124012535984e-05,-0.7803635587505465
2025-03-08 13:18:00.503,-4.4048555950387976e-05,-0.8006675103230717
2025-03-08 13:18:00.511,-4.530706299350008e-05,-0.8162298895560709
2025-03-08 13:18:00.519,-4.592303241554052e-05,-0.8245563130381279
2025-03-08 13:18:00.526,-4.583958577464405e-05,-0.8230604482933498
2025-03-08 13:18:00.534,-4.501230016839897e-05,-0.8091641695657185
2025-03-08 13:18:00.542,-4.341354436846203e-05,-0.7804098883760168
2025-03-08 13:18:00.550,-4.1036236799091815e-05,-0.7345803343615235
2025-03-08 13:18:00.558,-3.789658682892802e-05,-0.6698202051911564
2025-03-08 13:18:00.566,-3.4035486427046776e-05,-0.5847535138355798
2025-03-08 13:18:00.573,-2.951837290816435e-05,-0.4785902067454848
2025-03-08 13:18:00.581,-2.443355616568367e-05,-0.3512157545469703
2025-03-08 13:18:00.589,-1.888917058033711e-05,-0.20325794725475008
2025-03-08 13:18:00.597,-1.3009043142344784e-05,-0.03612604655045683
2025-03-08 13:18:00.605,-6.927838578450759e-06,0.14798129017903783
2025-03-08 13:18:00.612,-7.858477685322735e-07,0.3461013807123571
2025-03-08 13:18:00.620,5.276249192094697e-06,0.5545665873335365
2025-03-08 13:18:00.628,1.1122364646553009e-05,0.769095802228432
2025-03-08 13:18:00.636,1.662550366867206e-05,0.9849154717704544
2025-03-08 13:18:00.644,2.167161163495428e-05,1.1969058731713935
2025-03-08 13:18:00.651,2.6162650788360807e-05,1.3997671994138554
2025-03-08 13:18:00.659,3.0018837406431896e-05,1.588199137966226
2025-03-08 13:18:00.667,3.318001669903233e-05,1.7570870524518356
2025-03-08 13:18:00.675,3.560619278100935e-05,1.9016875815199434
2025-03-08 13:18:00.683,3.72772653943466e-05,2.017806436428687
2025-03-08 13:18:00.691,3.8192053186853165e-05,2.101961395063879
2025-03-08 13:18:00.698,3.836670525116555e-05,2.151523952758112
2025-03-08 13:18:00.706,3.783261848542013e-05,2.164833800422076
2025-03-08 13:18:00.714,3.663398855008348e-05,2.1412812485894617
2025-03-08 13:18:00.722,3.4825127316131006e-05,2.0813538717994855
2025-03-08 13:18:00.730,3.246768039481308e-05,1.9866449628158838
2025-03-08 13:18:00.737,2.9627875347608308e-05,1.8598228053597086
2025-03-08 13:18:00.745,2.6373925266801223e-05,1.7045612459492032
2025-03-08 13:18:00.753,2.277370435572702e-05,1.525433525547262
2025-03-08 13:18:00.761,1.8892802645465227e-05,1.3277727796233794
2025-03-08 13:18:00.769,1.4793056713909453e-05,1.1175039896920889
2025-03-08 13:18:00.776,1.0531642782146569e-05,0.9009534227383486
2025-03-08 13:18:00.784,6.160806673726934e-06,0.6846426703498822
2025-03-08 13:18:00.792,1.728282473899865e-06,0.4750752336618632
2025-03-08 13:18:00.800,-2.7216020880429266e-06,0.27852412979366814
2025-03-08 13:18:00.808,-7.146231600199318e-06,0.10082916168964738
2025-03-08 13:18:00.816,-1.1502630410198162e-05,-0.05278775148862616
2025-03-08 13:18:00.823,-1.57453000288716e-05,-0.1778814696507204
2025-03-08 13:18:00.831,-1.9824273909369648e-05,-0.27091015904439736
2025-03-08 13:18:00.839,-2.3683668859675748e-05,-0.3293243775084044
2025-03-08 13:18:00.847,-2.7260959294792036e-05,-0.3516154903305289
2025-03-08 13:18:00.855,-3.0487134275412307e-05,-0.3373222581852868
2025-03-08 13:18:00.862,-3.328782181004234e-05,-0.28699660153712686
2025-03-08 13:18:00.870,-3.5585382909116794e-05,-0.2021316635270557
2025-03-08 13:18:00.878,-3.730189232842395e-05,-0.08505722834932343
2025-03-08 13:18:00.886,-3.83628369823117e-05,0.06119082070212936
2025-03-08 13:18:00.894,-3.8701279934352745e-05,0.23301910626059852
2025-03-08 13:18:00.901,-3.8262162655820894e-05,0.4264348104873886
2025-03-08 13:18:00.909,-3.700636388598579e-05,0.6372043918731548
2025-03-08 13:18:00.917,-3.491412536719132e-05,0.8610045676409217
2025-03-08 13:18:00.925,-3.19875168260974e-05,1.093558079943626
2025-03-08 13:18:00.933,-2.825174178036643e-05,1.3307481352871542
2025-03-08 13:18:00.941,-2.3755245672424812e-05,1.5687071265630232
2025-03-08 13:18:00.948,-1.8568727973058003e-05,1.8038771869261792
2025-03-08 13:18:00.956,-1.2783243578516643e-05,2.033042145459389
2025-03-08 13:18:00.964,-6.507602429549632e-06,2.2533324159734476
2025-03-08 13:18:00.972,1.3473717051690596e-07,2.4622061189975453
2025-03-08 13:18:00.980,7.009112249821515e-06,2.6574111956752087
2025-03-08 13:18:00.987,1.3973293881465427e-05,2.836934330013941
2025-03-08 13:18:00.995,2.0881203979535095e-05,2.9989430966477677
2025-03-08 13:18:01.003,2.7586614616515383e-05,3.1417278775269932
2025-03-08 13:18:01.011,3.3946750890921e-05,3.263649762517785
2025-03-08 13:18:01.019,3.9825729442002636e-05,3.36309991629052
2025-03-08 13:18:01.026,4.509776991000609e-05,3.4384748291373826
2025-03-08 13:18:01.034,4.965011602978005e-05,3.488170556783658
2025-03-08 13:18:01.042,5.338559706728319e-05,3.510597582173558
2025-03-08 13:18:01.050,5.622474977568502e-05,3.5042163868391345
2025-03-08 13:18:01.058,5.8107408730237865e-05,3.467592283091398
2025-03-08 13:18:01.066,5.8993669911028955e-05,3.399466611573004
2025-03-08 13:18:01.073,5.8864160991225035e-05,3.298840132668549
2025-03-08 13:18:01.081,5.77196249347227e-05,3.1650634140648375
2025-03-08 13:18:01.089,5.5579916735365304e-05,2.9979283121074394
2025-03-08 13:18:01.097,5.248257843326555e-05,2.797754317697164
2025-03-08 13:18:01.105,4.8481170745008144e-05,2.5654636182258264
2025-03-08 13:18:01.112,4.364351431279891e-05,2.302639208427642
2025-03-08 13:18:01.120,3.804995283114145e-05,2.011561217841463
2025-03-08 13:18:01.128,3.1791706383187736e-05,1.695217733484041
2025-03-08 13:18:01.136,2.496934033255622e-05,1.3572876952520383
2025-03-08 13:18:01.144,1.7691335425540137e-05,1.0020948469205266
2025-03-08 13:18:01.151,1.007271050144608e-05,0.6345331682236051
2025-03-08 13:18:01.159,2.2336222367063296e-06,0.2599656327949912
2025-03-08 13:18:01.167,-5.702151834310769e-06,-0.1159005258890996
2025-03-08 13:18:01.175,-1.360894743981002e-05,-0.4871576642690582
2025-03-08 13:18:01.183,-2.136125165819155e-05,-0.8478553307247456
2025-03-08 13:18:01.191,-2.883608682557358e-05,-1.1921655353575522
2025-03-08 13:18:01.198,-3.5915715449154135e-05,-1.5145491909442552
2025-03-08 13:18:01.206,-4.249059121679406e-05,-1.8099171436432018
2025-03-08 13:18:01.214,-4.8462472384661415e-05,-2.0737794458458505
2025-03-08 13:18:01.222,-5.374762400130117e-05,-2.3023770429706296
2025-03-08 13:18:01.230,-5.8280028668997987e-05,-2.4927907999757313
2025-03-08 13:18:01.237,-6.201449437638707e-05,-2.6430237235459697
2025-03-08 13:18:01.245,-6.492950549972076e-05,-2.752053287556925
2025-03-08 13:18:01.253,-6.70296198463136e-05,-2.819851897759049
2025-03-08 13:18:01.261,-6.834717476684833e-05,-2.8473747020997604
2025-03-08 13:18:01.269,-6.894303308354292e-05,-2.836515137641864
2025-03-08 13:18:01.276,-6.890608704839258e-05,-2.790029776943582
2025-03-08 13:18:01.284,-6.83512703137634e-05,-2.711435166836398
2025-03-08 13:18:01.292,-6.741592689049393e-05,-2.6048804078268653
2025-03-08 13:18:01.300,-6.625454823770533e-05,-2.475000166244297
2025-03-08 13:18:01.308,-6.503207753059464e-05,-2.326753603187248
2025-03-08 13:18:01.316,-6.391614221218519e-05,-2.1652553004249153
2025-03-08 13:18:01.323,-6.306867438884612e-05,-1.995604620499175
2025-03-08 13:18:01.331,-6.263740880803493e-05,-1.8227200207297307
2025-03-08 13:18:01.339,-6.274773210239798e-05,-1.6511846278335582
2025-03-08 13:18:01.347,-6.349531816520153e-05,-1.4851088710535914
2025-03-08 13:18:01.355,-6.493993390025014e-05,-1.3280151903926545
2025-03-08 13:18:01.362,-6.710074009067199e-05,-1.1827488294963422
2025-03-08 13:18:01.370,-6.99533450772124e-05,-1.0514175542585757
2025-03-08 13:18:01.378,-7.342879567982916e-05,-0.9353618796968184
2025-03-08 13:18:01.386,-7.74146117344032e-05,-0.8351561063734428
2025-03-08 13:18:01.394,-8.17578892147234e-05,-0.7506392202934198
2025-03-08 13:18:01.401,-8.627041372496314e-05,-0.680973542763525
2025-03-08 13:18:01.409,-9.07356428492473e-05,-0.6247279683439197
2025-03-08 13:18:01.417,-9.491733423321313e-05,-0.5799817344635673
2025-03-08 13:18:01.425,-9.8569518289284e-05,-0.5444439535011313
2025-03-08 13:18:01.433,-0.00010144744214450792,-0.515583624304602
2025-03-08 13:18:01.441,-0.00010331904709523687,-0.49076453032680883
2025-03-08 13:18:01.448,-0.00010397648770154416,-0.46737932313979497
2025-03-08 13:18:01.456,-0.00010324715910237926,-0.44297718080692605
2025-03-08 13:18:01.464,-0.00010100367413051379,-0.4153797245245015
2025-03-08 13:18:01.472,-9.717223529481838e-05,-0.3827803823612741
2025-03-08 13:18:01.480,-9.17389013512024e-05,-0.34382310863337684
2025-03-08 13:18:01.487,-8.47533669662336e-05,-0.29765728872571645
2025-03-08 13:18:01.495,-7.633003192267788e-05,-0.24396674945581298
2025-03-08 13:18:01.503,-6.664628441776602e-05,-0.1829720043061009
2025-03-08 13:18:01.511,-5.593803554757354e-05,-0.11540612996860174
2025-03-08 13:18:01.519,-4.449263052452351e-05,-0.04246593157472428
2025-03-08 13:18:01.526,-3.263934698591724e-05,0.0342587521124295
2025-03-08 13:18:01.534,-2.073778091228349e-05,0.11287368124669367
2025-03-08 13:18:01.542,-9.164516513163289e-06,0.19128196864114586
2025-03-08 13:18:01.550,1.7014239911958802e-06,0.2672934769635329
2025-03-08 13:18:01.558,1.1493755694428795e-05,0.3387360116606122
2025-03-08 13:18:01.566,1.987405080573965e-05,0.4035624316522447
2025-03-08 13:18:01.573,2.654607617384151e-05,0.4599481279696985
2025-03-08 13:18:01.581,3.1268640361072924e-05,0.5063739801794426
2025-03-08 13:18:01.589,3.386632597619933e-05,0.5416908227303435
2025-03-08 13:18:01.597,3.4237609695746605e-05,0.5651625495384038
2025-03-08 13:18:01.605,3.23600249060397e-05,0.5764861729825275
2025-03-08 13:18:01.612,2.8292198831970866e-05,0.5757883720319742
2025-03-08 13:18:01.620,2.2172782398982232e-05,0.5635992710492883
2025-03-08 13:18:01.628,1.4216439214769027e-05,0.5408053490101186
2025-03-08 13:18:01.636,4.707131936301256e-06,0.5085844464133094
2025-03-08 13:18:01.644,-6.01103669627731e-06,0.4683267671306606
2025-03-08 13:18:01.651,-1.754514371054265e-05,0.4215465213538361
2025-03-08 13:18:01.659,-2.9466575774798833e-05,0.36978938975730685
2025-03-08 13:18:01.667,-4.132553383964173e-05,0.3145412828479631
2025-03-08 13:18:01.675,-5.266641854495598e-05,0.2571439021242749
2025-03-08 13:18:01.683,-6.304359294979411e-05,0.198722361764892
2025-03-08 13:18:01.691,-7.20370374666436e-05,0.14012958637812647
2025-03-08 13:18:01.698,-7.926741159892191e-05,0.08191135881696733
2025-03-08 13:18:01.706,-8.4409997612147e-05,0.024294768485100454
2025-03-08 13:18:01.714,-8.720694815108882e-05,-0.032798554494312515
2025-03-08 13:18:01.722,-8.747724092344815e-05,-0.08971457458391004
2025-03-08 13:18:01.730,-8.512379469166377e-05,-0.14700613938166454
2025-03-08 13:18:01.737,-8.013732467061886e-05,-0.20535281783142473
2025-03-08 13:18:01.745,-7.259668798446192e-05,-0.2654661698152227
2025-03-08 13:18:01.753,-6.26656655028302e-05,-0.3279865732840914
2025-03-08 13:18:01.761,-5.058633024759786e-05,-0.39337862881742913
2025-03-08 13:18:01.769,-3.6669349439908064e-05,-0.46183260751531335
2025-03-08 13:18:01.776,-2.1281730697640576e-05,-0.5331793359814583
2025-03-08 13:18:01.784,-4.8326274486603305e-06,-0.6068252918273565
2025-03-08 13:18:01.792,1.2242136542049877e-05,-0.6817135328225645
2025-03-08 13:18:01.800,2.9496154837752022e-05,-0.75631446909083
2025-03-08 13:18:01.808,4.648847230765876e-05,-0.8286485209434739
2025-03-08 13:18:01.816,6.27989044386479e-05,-0.8963405317956565
2025-03-08 13:18:01.823,7.80419954093902e-05,-0.9567035979893105
2025-03-08 13:18:01.831,9.187901470259994e-05,-1.0068479162760815
2025-03-08 13:18:01.839,0.00010402749223086734,-1.0438085059604185
2025-03-08 13:18:01.847,0.00011426794371316744,-1.06468437633324
2025-03-08 13:18:01.855,0.00012244761487255335,-1.0667809737272196
2025-03-08 13:18:01.862,0.00012848124792819157,-1.047747594018713
2025-03-08 13:18:01.870,0.00013234903324585903,-1.0057018705670677
2025-03-08 13:18:01.878,0.0001340920482437292,-0.9393343840019949
2025-03-08 13:18:01.886,0.00013380560254586766,-0.8479877928019915
2025-03-08 13:18:01.894,0.00013163100154364843,-0.731706531448798
2025-03-08 13:18:01.901,0.00012774630766691013,-0.5912549328393731
2025-03-08 13:18:01.909,0.00012235671006033286,-0.42810347091408885
2025-03-08 13:18:01.917,0.00011568508891696682,-0.24438456989308005
2025-03-08 13:18:01.925,0.00010796327023668376,-0.04282099567965623
2025-03-08 13:18:01.933,9.94243363315915e-05,0.17336883157703364
2025-03-08 13:18:01.941,9.029622883641311e-05,0.40058323240285487
2025-03-08 13:18:01.948,8.079676153593459e-05,0.6349612959801654
2025-03-08 13:18:01.956,7.113002890499517e-05,0.872512129231525
2025-03-08 13:18:01.964,6.14840596297218e-05,1.1092429713665461
2025-03-08 13:18:01.972,5.202946346552231e-05,1.3412802742237673
2025-03-08 13:18:01.980,4.2918779366670414e-05,1.564978671398953
2025-03-08 13:18:01.987,3.428624110149185e-05,1.7770138699033302
2025-03-08 13:18:01.995,2.624771169466979e-05,1.9744567826288826
2025-03-08 13:18:02.003,1.8900588492984282e-05,2.154827550581947
2025-03-08 13:18:02.011,1.2323542448345077e-05,2.316129362412397
2025-03-08 13:18:02.019,6.57602554637877e-06,2.4568630701170524
2025-03-08 13:18:02.026,1.6975560154350667e-06,2.5760244559681307
2025-03-08 13:18:02.034,-2.293131396657798e-06,2.673086585295153
2025-03-08 13:18:02.042,-5.398906775860177e-06,2.747969968667297
2025-03-08 13:18:02.050,-7.644805601097235e-06,2.801003271381685
2025-03-08 13:18:02.058,-9.078047104531708e-06,2.83287709479936
2025-03-08 13:18:02.066,-9.767225797070833e-06,2.8445929860357144
2025-03-08 13:18:02.073,-9.800457990241209e-06,2.8374093999799923
2025-03-08 13:18:02.081,-9.282398240490825e-06,2.8127859343164165
2025-03-08 13:18:02.089,-8.33020383840512e-06,2.772326862990292
2025-03-08 13:18:02.097,-7.068668026216962e-06,2.7177248510414724
2025-03-08 13:18:02.105,-5.624827531457984e-06,2.650705742699237
2025-03-08 13:18:02.112,-4.1223732116112885e-06,2.5729754312364013
2025-03-08 13:18:02.120,-2.6761766508009333e-06,2.4861699750625865
2025-03-08 13:18:02.128,-1.3872142429749028e-06,2.391810252037857
2025-03-08 13:18:02.136,-3.381347635063071e-07,2.2912624945938815
2025-03-08 13:18:02.144,4.1032043308484615e-07,2.185706000244821
2025-03-08 13:18:02.151,8.218725725287853e-07,2.0761091689268674
2025-03-08 13:18:02.159,8.861004663570606e-07,1.9632148027245822
2025-03-08 13:18:02.167,6.185750722007096e-07,1.847535345058934
2025-03-08 13:18:02.175,5.966839320789475e-08,1.7293584579556254
2025-03-08 13:18:02.183,-7.279841975283174e-07,1.608763040364186
2025-03-08 13:18:02.191,-1.6633151678240748e-06,1.4856454596930848
2025-03-08 13:18:02.198,-2.6517818157814535e-06,1.3597553766358854
2025-03-08 13:18:02.206,-3.591152145008515e-06,1.2307400749313653
2025-03-08 13:18:02.214,-4.377729005083617e-06,1.098195673573806
2025-03-08 13:18:02.222,-4.912589452133914e-06,0.9617230380727442
2025-03-08 13:18:02.230,-5.107433152681371e-06,0.8209856794511003
2025-03-08 13:18:02.237,-4.889678035446309e-06,0.6757665051695274
2025-03-08 13:18:02.245,-4.206502112301343e-06,0.5260200352022192
2025-03-08 13:18:02.253,-3.0276040337774875e-06,0.3719166761227993
2025-03-08 13:18:02.261,-1.3465394708518157e-06,0.21387588809072738
2025-03-08 13:18:02.269,8.194164623799199e-07,0.052585584856435795
2025-03-08 13:18:02.276,3.4308313136326432e-06,-0.11099415194508425
2025-03-08 13:18:02.284,6.4289498778253175e-06,-0.27564403353611533
2025-03-08 13:18:02.292,9.739547687817329e-06,-0.43991513327352266
2025-03-08 13:18:02.300,1.3277462075467517e-05,-0.6021738892188274
2025-03-08 13:18:02.308,1.6951410795826308e-05,-0.7606602860593328
2025-03-08 13:18:02.316,2.066872263036058e-05,-0.913556000438943
2025-03-08 13:18:02.323,2.433967929741202e-05,-1.0590585303233484
2025-03-08 13:18:02.331,2.7881267783960465e-05,-1.195456833479134
2025-03-08 13:18:02.339,3.122021914143029e-05,-1.3212038227358165
2025-03-08 13:18:02.347,3.429524000310442e-05,-1.4349812298347637
2025-03-08 13:18:02.355,3.7058355135498195e-05,-1.5357528435699834
2025-03-08 13:18:02.362,3.9475330267306705e-05,-1.6228029023987667
2025-03-08 13:18:02.370,4.1525245948960044e-05,-1.695757400149123
2025-03-08 13:18:02.378,4.319938513689232e-05,-1.7545871604632046
2025-03-08 13:18:02.386,4.449961980324407e-05,-1.799592672488387
2025-03-08 13:18:02.394,4.543644797723887e-05,-1.831371789412068
2025-03-08 13:18:02.401,4.602680111991016e-05,-1.8507724114973536
2025-03-08 13:18:02.409,4.629174532819853e-05,-1.8588331466080878
2025-03-08 13:18:02.417,4.625422752575027e-05,-1.856715608640978
2025-03-08 13:18:02.425,4.593704606387565e-05,-1.845632439364932
2025-03-08 13:18:02.433,4.536123368397697e-05,-1.826775312217471
2025-03-08 13:18:02.441,4.454500665819576e-05,-1.8012471157029473
2025-03-08 13:18:02.448,4.3503345540952297e-05,-1.7700022496530332
2025-03-08 13:18:02.456,4.224815656937859e-05,-1.7337985250254417
2025-03-08 13:18:02.464,4.078886840877737e-05,-1.69316354950348
2025-03-08 13:18:02.472,3.913327309409862e-05,-1.6483777117415375
2025-03-08 13:18:02.480,3.728841311509768e-05,-1.599474958057846
2025-03-08 13:18:02.487,3.5261335994884e-05,-1.5462615190398492
2025-03-08 13:18:02.495,3.305958609215977e-05,-1.4883516494391682
2025-03-08 13:18:02.503,3.06913774547948e-05,-1.4252183740462057
2025-03-08 13:18:02.511,2.8165466020051364e-05,-1.356256272654211
2025-03-08 13:18:02.519,2.549078896305247e-05,-1.2808525645686462
2025-03-08 13:18:02.526,2.2675961946376144e-05,-1.1984622170485522
2025-03-08 13:18:02.534,1.9728733845928745e-05,-1.1086825223580663
2025-03-08 13:18:02.542,1.665549964983551e-05,-1.0113225620992012
2025-03-08 13:18:02.550,1.3460959313341563e-05,-0.90646319223141
2025-03-08 13:18:02.558,1.0147972686970627e-05,-0.794503623486114
2025-03-08 13:18:02.566,6.717607935926463e-06,-0.6761913272386026
2025-03-08 13:18:02.573,3.169351047501774e-06,-0.5526328528782305
2025-03-08 13:18:02.581,-4.985389355604151e-07,-0.42528417859893575
2025-03-08 13:18:02.589,-4.288503804921754e-06,-0.2959203969304141
2025-03-08 13:18:02.597,-8.20293739639766e-06,-0.166585799859358
2025-03-08 13:18:02.605,-1.224316031660767e-05,-0.03952669136373011
2025-03-08 13:18:02.612,-1.640808387065986e-05,0.0828895859063305
2025-03-08 13:18:02.620,-2.0692573978862775e-05,0.19826497419703976
2025-03-08 13:18:02.628,-2.5085593213931625e-05,0.30426528761000154
2025-03-08 13:18:02.636,-2.9568263273053866e-05,0.39871367649498696
2025-03-08 13:18:02.644,-3.411202590731481e-05,0.47967765570633064
2025-03-08 13:18:02.652,-3.8677086069874185e-05,0.5455448159804626
2025-03-08 13:18:02.659,-4.3211309431142564e-05,0.5950830923566112
2025-03-08 13:18:02.667,-4.764972579074233e-05,0.6274824745697226
2025-03-08 13:18:02.675,-5.191476242094036e-05,0.6423762248951889
2025-03-08 13:18:02.683,-5.5917297725726844e-05,0.6398409233332069
2025-03-08 13:18:02.691,-5.9558586730111695e-05,0.6203758968187442
2025-03-08 13:18:02.698,-6.273306696981531e-05,0.5848637296480453
2025-03-08 13:18:02.706,-6.533200767185538e-05,0.5345145350256844
2025-03-08 13:18:02.714,-6.724791821709947e-05,0.4707974494105617
2025-03-08 13:18:02.722,-6.837958542189487e-05,0.3953633646798054
2025-03-08 13:18:02.730,-6.863756332351698e-05,0.30996322186630076
2025-03-08 13:18:02.737,-6.794988769972557e-05,0.21636624786823988
2025-03-08 13:18:02.745,-6.626771983561257e-05,0.11628232813894837
2025-03-08 13:18:02.753,-6.357054328657598e-05,0.011292293761581647
2025-03-08 13:18:02.761,-5.9870471945395396e-05,-0.09721070308931619
2025-03-08 13:18:02.769,-5.521521377333572e-05,-0.20806629540562496
2025-03-08 13:18:02.777,-4.968929513196125e-05,-0.3203768878275025
2025-03-08 13:18:02.784,-4.341328495577006e-05,-0.4335217825028997
2025-03-08 13:18:02.792,-3.6540931626207866e-05,-0.5471555510828757
2025-03-08 13:18:02.800,-2.925428622497075e-05,-0.6611915533539093
2025-03-08 13:18:02.808,-2.1757006617661116e-05,-0.7757722029626956
2025-03-08 13:18:02.816,-1.4266127529934387e-05,-0.8912281480775044
2025-03-08 13:18:02.823,-7.0026615023263866e-06,-1.0080289378787401
2025-03-08 13:18:02.831,-1.8147216555582685e-07,-1.1267279671446042
2025-03-08 13:18:02.839,5.999065905484681e-06,-1.247904531334205
2025-03-08 13:18:02.847,1.1367041544366668e-05,-1.3721057001833872
2025-03-08 13:18:02.855,1.578599166996004e-05,-1.4997904595283673
2025-03-08 13:18:02.862,1.9162273172816304e-05,-1.631278221405531
2025-03-08 13:18:02.870,2.1450268965695232e-05,-1.7667034102335315
2025-03-08 13:18:02.878,2.265501337486213e-05,-1.9059774415488058
2025-03-08 13:18:02.886,2.283200223509103e-05,-2.0487590461618486
2025-03-08 13:18:02.894,2.2084147659532507e-05,-2.19443356478099
2025-03-08 13:18:02.902,2.0556031549208908e-05,-2.342101544616787
2025-03-08 13:18:02.909,1.8425798719334155e-05,-2.4905767115117396
2025-03-08 13:18:02.917,1.589520343862142e-05,-2.6383931767147613
2025-03-08 13:18:02.925,1.3178467730160943e-05,-2.7838215740291843
2025-03-08 13:18:02.933,1.0490699200490417e-05,-2.924893708809807
2025-03-08 13:18:02.941,8.036625346589938e-06,-3.059435223584528
2025-03-08 13:18:02.948,6.000330493224092e-06,-3.185105731576974
2025-03-08 13:18:02.956,4.536556319414755e-06,-3.2994458250641094
2025-03-08 13:18:02.964,3.763976143868419e-06,-3.39993031049397
2025-03-08 13:18:02.972,3.760699573448489e-06,-3.484026925176893
2025-03-08 13:18:02.980,4.56212705341878e-06,-3.54925961506923
2025-03-08 13:18:02.987,6.161156996590534e-06,-3.593275177269393
2025-03-08 13:18:02.995,8.510631481354114e-06,-3.6139117015660105
2025-03-08 13:18:03.003,1.1527771523031148e-05,-3.609266823592114
2025-03-08 13:18:03.011,1.5100212825477161e-05,-3.5777633949769814
2025-03-08 13:18:03.019,1.909314726742811e-05,-3.518209861715221
2025-03-08 13:18:03.027,2.3357037746368013e-05,-3.4298524911619
2025-03-08 13:18:03.034,2.773540634998325e-05,-3.3124166459757585
2025-03-08 13:18:03.042,3.207227333472628e-05,-3.166134583174829
2025-03-08 13:18:03.050,3.621892084346216e-05,-2.991757743576173
2025-03-08 13:18:03.058,4.003975708756256e-05,-2.7905521590566322
2025-03-08 13:18:03.066,4.341715686005546e-05,-2.56427640177487
2025-03-08 13:18:03.073,4.6255239567496744e-05,-2.315142384795463
2025-03-08 13:18:03.081,4.848259271322531e-05,-2.0457602424535906
2025-03-08 13:18:03.089,5.005394298523195e-05,-1.7590694043412305
2025-03-08 13:18:03.097,5.095074280292623e-05,-1.4582587566415115
2025-03-08 13:18:03.105,5.11806253366743e-05,-1.1466793968564135
2025-03-08 13:18:03.112,5.077571015191888e-05,-0.8277538966529434
2025-03-08 13:18:03.120,4.9789801809022206e-05,-0.5048861858093666
2025-03-08 13:18:03.128,4.829459268641923e-05,-0.18137616996079714
2025-03-08 13:18:03.136,4.6375047698716236e-05,0.13965699082542415
2025-03-08 13:18:03.144,4.4124209301466295e-05,0.45533938502863547
2025-03-08 13:18:03.152,4.163771476427629e-05,0.7630916401917573
2025-03-08 13:18:03.159,3.90083627920684e-05,1.0606607748017474
2025-03-08 13:18:03.167,3.6321100287357005e-05,1.3461333480504376
2025-03-08 13:18:03.175,3.364881152888321e-05,1.6179297584356453
2025-03-08 13:18:03.183,3.104925803398594e-05,1.8747807308818258
2025-03-08 13:18:03.191,2.856341613191834e-05,2.115688195642655
2025-03-08 13:18:03.198,2.6215295859074912e-05,2.3398737977841906
2025-03-08 13:18:03.206,2.4013137418676087e-05,2.5467190949197853
2025-03-08 13:18:03.214,2.19517222169262e-05,2.7357020412645943
2025-03-08 13:18:03.222,2.0015442381582352e-05,2.9063345861647485
2025-03-08 13:18:03.230,1.8181750277281252e-05,3.0581061270983714
2025-03-08 13:18:03.237,1.6424635435193376e-05,3.190437158157065
2025-03-08 13:18:03.245,1.4717826387936093e-05,3.302646764566873
2025-03-08 13:18:03.253,1.3037477279464186e-05,3.3939366671218334
2025-03-08 13:18:03.261,1.1364169775713883e-05,3.463393376230692
2025-03-08 13:18:03.269,9.684137167974942e-06,3.5100087600205576
2025-03-08 13:18:03.277,7.989696964021065e-06,3.5327180721359674
2025-03-08 13:18:03.284,6.278957979174951e-06,3.5304533336526767
2025-03-08 13:18:03.292,4.554945253762923e-06,3.502209013565671
2025-03-08 13:18:03.300,2.8243567525334824e-06,3.4471162643931876
2025-03-08 13:18:03.308,1.0962175163108768e-06,3.364521566658526
2025-03-08 13:18:03.316,-6.192948706750015e-07,3.2540655079869456
2025-03-08 13:18:03.323,-2.3116379905543708e-06,3.1157575323615676
2025-03-08 13:18:03.331,-3.970211028008121e-06,2.950042785875541
2025-03-08 13:18:03.339,-5.58423213131452e-06,2.7578575909545564
2025-03-08 13:18:03.347,-7.142360066265506e-06,2.5406705440449238
2025-03-08 13:18:03.355,-8.632292150999217e-06,2.3005067222413023
2025-03-08 13:18:03.362,-1.004056275444283e-05,2.03995300771105
2025-03-08 13:18:03.370,-1.1352715742247411e-05,1.76214312690219
2025-03-08 13:18:03.378,-1.2553954897280649e-05,1.4707216913143604
2025-03-08 13:18:03.386,-1.363030090053471e-05,1.169787336862928
2025-03-08 13:18:03.394,-1.457020636574778e-05,0.8638159760919655
2025-03-08 13:18:03.402,-1.5366504540822785e-05,0.5575661567909617
2025-03-08 13:18:03.409,-1.6018495476041568e-05,0.25596949758270787
2025-03-08 13:18:03.417,-1.6533910118190534e-05,-0.035989926500878296
2025-03-08 13:18:03.425,-1.6930450243967556e-05,-0.31340262386492546
2025-03-08 13:18:03.433,-1.7236605051735638e-05,-0.5715620051435417
2025-03-08 13:18:03.441,-1.7491516604696046e-05,-0.8060886137594616
2025-03-08 13:18:03.448,-1.774380222557847e-05,-1.0130450264608453
2025-03-08 13:18:03.456,-1.8049405100274783e-05,-1.1890366550506308
2025-03-08 13:18:03.464,-1.846868340916743e-05,-1.3312944577264048
2025-03-08 13:18:03.472,-1.906302581966562e-05,-1.4377365746371837
2025-03-08 13:18:03.480,-1.989129287665953e-05,-1.5070070468755892
2025-03-08 13:18:03.487,-2.100635225636658e-05,-1.5384909668470588
2025-03-08 13:18:03.495,-2.2451925047345702e-05,-1.5323065503314452
2025-03-08 13:18:03.503,-2.4259901790943412e-05,-1.4892756369626736
2025-03-08 13:18:03.511,-2.6448224552292974e-05,-1.410874955401132
2025-03-08 13:18:03.519,-2.901936842579172e-05,-1.2991710979937374
2025-03-08 13:18:03.527,-3.195940428029571e-05,-1.156742534848169
2025-03-08 13:18:03.534,-3.523760677352544e-05,-0.986592186872177
2025-03-08 13:18:03.542,-3.8806600780003106e-05,-0.792054119294425
2025-03-08 13:18:03.550,-4.260309083364038e-05,-0.5766978614537734
2025-03-08 13:18:03.558,-4.654924380435127e-05,-0.3442337380677142
2025-03-08 13:18:03.566,-5.0554770419284437e-05,-0.09842241616757987
2025-03-08 13:18:03.573,-5.4519689787263235e-05,0.15700839118152277
2025-03-08 13:18:03.581,-5.833768743332677e-05,0.41843750099448457
2025-03-08 13:18:03.589,-6.189991345726699e-05,0.6824120684916012
2025-03-08 13:18:03.597,-6.509903823844633e-05,0.9456962298077107
2025-03-08 13:18:03.605,-6.783340258683836e-05,1.2053059322252684
2025-03-08 13:18:03.612,-7.001114383967009e-05,1.4585300949120588
2025-03-08 13:18:03.620,-7.155420200089382e-05,1.7029390008639607
2025-03-08 13:18:03.628,-7.24020872895269e-05,1.9363814770487864
2025-03-08 13:18:03.636,-7.251523841864254e-05,2.156972920016007
2025-03-08 13:18:03.644,-7.187775316418674e-05,2.363076535289687
2025-03-08 13:18:03.652,-7.04992628911967e-05,2.5532802702596307
2025-03-08 13:18:03.659,-6.841576667918542e-05,2.7263718420100553
2025-03-08 13:18:03.667,-6.568931677373272e-05,2.881314021250648
2025-03-08 13:18:03.675,-6.240651774072249e-05,3.0172219736215538
2025-03-08 13:18:03.683,-5.8675863770731905e-05,3.133344032225365
2025-03-08 13:18:03.691,-5.462401689647538e-05,3.229046835254918
2025-03-08 13:18:03.698,-5.039121992143034e-05,3.3038053597223045
2025-03-08 13:18:03.706,-4.61261033136149e-05,3.357198051049812
2025-03-08 13:18:03.714,-4.1980162341233116e-05,3.3889069987847074
2025-03-08 13:18:03.722,-3.81021622751862e-05,3.3987229253584696
2025-03-08 13:18:03.730,-3.463269778443177e-05,3.3865546068271493
2025-03-08 13:18:03.737,-3.169909880810418e-05,3.3524422020910922
2025-03-08 13:18:03.745,-2.9410842004954104e-05,3.2965738126042434
2025-03-08 13:18:03.753,-2.7855595267062445e-05,3.219304424736624
2025-03-08 13:18:03.761,-2.7095993378178334e-05,3.121176208856604
2025-03-08 13:18:03.769,-2.7167216066574598e-05,3.0029389746699935
2025-03-08 13:18:03.777,-2.8075415567471163e-05,2.8655694235438802
2025-03-08 13:18:03.784,-2.9797019270364733e-05,2.710287707939876
2025-03-08 13:18:03.792,-3.227891380087257e-05,2.538569722055682
2025-03-08 13:18:03.800,-3.5439499559853497e-05,2.3521535274849295
2025-03-08 13:18:03.808,-3.917058881738093e-05,2.153038382877896
2025-03-08 13:18:03.816,-4.3340105410655006e-05,1.9434750065874604
2025-03-08 13:18:03.823,-4.77955294249111e-05,1.7259459530241346
2025-03-08 13:18:03.831,-5.236801552519589e-05,1.5031353189606573
2025-03-08 13:18:03.839,-5.687709856051198e-05,1.2778874116455776
2025-03-08 13:18:03.847,-6.113588455155826e-05,1.0531545083494367
2025-03-08 13:18:03.855,-6.495660926619796e-05,0.8319344173870138
2025-03-08 13:18:03.862,-6.815643056533359e-05,0.6171992016372624
2025-03-08 13:18:03.870,-7.056330507128206e-05,0.41181711300856855
2025-03-08 13:18:03.878,-7.202178519334164e-05,0.2184704520699983
2025-03-08 13:18:03.886,-7.239856006136265e-05,0.03957263851907575
2025-03-08 13:18:03.894,-7.158755455379872e-05,-0.12281181415553757
2025-03-08 13:18:03.902,-6.95143955687337e-05,-0.26704053226165675
2025-03-08 13:18:03.909,-6.61400552460883e-05,-0.3919558786864152
2025-03-08 13:18:03.917,-6.146348827660215e-05,-0.4969333469732923
2025-03-08 13:18:03.925,-5.55230959236478e-05,-0.5819126867473945
2025-03-08 13:18:03.933,-4.839687398026635e-05,-0.6474093888728958
2025-03-08 13:18:03.941,-4.020113639658214e-05,-0.694505011188951
2025-03-08 13:18:03.948,-3.1087751242272534e-05,-0.7248157888946831
2025-03-08 13:18:03.956,-2.1239881132292605e-05,-0.7404399900579982
2025-03-08 13:18:03.964,-1.0866285911726185e-05,-0.7438854839484154
2025-03-08 13:18:03.972,-1.9432043874249366e-07,-0.7379799288228537
2025-03-08 13:18:03.980,1.05381566404785e-05,-0.7257668069657989
2025-03-08 13:18:03.987,2.1091658080414694e-05,-0.7103912015393672
2025-03-08 13:18:03.995,3.123433098753209e-05,-0.6949796997390536
2025-03-08 13:18:04.003,4.075113084155657e-05,-0.682519112141959
2025-03-08 13:18:04.011,4.945238574904595e-05,-0.6757388232424033
2025-03-08 13:18:04.019,5.718124700389888e-05,-0.6770015424127039
2025-03-08 13:18:04.027,6.381960001282647e-05,-0.6882070136656941
2025-03-08 13:18:04.034,6.929212399165273e-05,-0.7107128630116821
2025-03-08 13:18:04.042,7.35683138010706e-05,-0.7452762032025462
2025-03-08 13:18:04.050,7.666240001646078e-05,-0.7920188703767898
2025-03-08 13:18:04.058,7.863121939521886e-05,-0.850418246713193
2025-03-08 13:18:04.066,7.957019489391231e-05,-0.9193245659639008
2025-03-08 13:18:04.073,7.960768023450884e-05,-0.9970044672837061
2025-03-08 13:18:04.081,7.889800700244245e-05,-1.0812094292605479
2025-03-08 13:18:04.089,7.761363934836165e-05,-1.1692666450491043
2025-03-08 13:18:04.097,7.593688175866923e-05,-1.2581889389439567
2025-03-08 13:18:04.105,7.405157760381329e-05,-1.3447995050615678
2025-03-08 13:18:04.112,7.213517010753343e-05,-1.425866584836932
2025-03-08 13:18:04.120,7.0351407039092e-05,-1.4982426958995567
2025-03-08 13:18:04.128,6.884391645270176e-05,-1.5590026852530026
2025-03-08 13:18:04.136,6.773087816073889e-05,-1.6055747222575354
2025-03-08 13:18:04.144,6.710100707960283e-05,-1.6358584062103636
2025-03-08 13:18:04.152,6.701099284970009e-05,-1.6483244823777705
2025-03-08 13:18:04.159,6.748442010294702e-05,-1.6420912753670844
2025-03-08 13:18:04.167,6.851208597373192e-05,-1.6169738727464158
2025-03-08 13:18:04.175,7.0053569886248e-05,-1.5735033022908147
2025-03-08 13:18:04.183,7.20398851605376e-05,-1.5129143823253537
2025-03-08 13:18:04.191,7.437703128760033e-05,-1.4371024970965585
2025-03-08 13:18:04.198,7.695025945033849e-05,-1.3485511568590638
2025-03-08 13:18:04.206,7.962885972557509e-05,-1.2502337441546219
2025-03-08 13:18:04.214,8.227127581846922e-05,-1.1454942243060884
2025-03-08 13:18:04.222,8.47303517118985e-05,-1.0379127128887151
2025-03-08 13:18:04.230,8.685851560993618e-05,-0.9311625604099413
2025-03-08 13:18:04.237,8.851271799317991e-05,-0.828865973819549
2025-03-08 13:18:04.245,8.95589751485003e-05,-0.7344551190838956
2025-03-08 13:18:04.253,8.987642614916059e-05,-0.6510451483531763
2025-03-08 13:18:04.261,8.936086547418853e-05,-0.5813247126228955
2025-03-08 13:18:04.269,8.792774106586842e-05,-0.527468328847043
2025-03-08 13:18:04.277,8.551460838049157e-05,-0.4910735644587305
2025-03-08 13:18:04.284,8.20830188234791e-05,-0.4731244931376918
2025-03-08 13:18:04.292,7.761980554257137e-05,-0.47398138121178124
2025-03-08 13:18:04.300,7.213771425982456e-05,-0.4933951950341763
2025-03-08 13:18:04.308,6.56753134754409e-05,-0.5305443631423015
2025-03-08 13:18:04.316,5.829611040617995e-05,-0.5840903348167464
2025-03-08 13:18:04.323,5.008680782266523e-05,-0.6522478649041994
2025-03-08 13:18:04.331,4.1154684654417896e-05,-0.7328656144511814
2025-03-08 13:18:04.339,3.16241822864026e-05,-0.8235125695842472
2025-03-08 13:18:04.347,2.1632903461115855e-05,-0.9215659313913344
2025-03-08 13:18:04.355,1.132733066527544e-05,-1.0242965040479295
2025-03-08 13:18:04.362,8.586102726949837e-07,-1.12894818566378
2025-03-08 13:18:04.370,-9.62128311826398e-06,-1.232808904617071
2025-03-08 13:18:04.378,-1.9962789138690913e-05,-1.3332711776715374
2025-03-08 13:18:04.386,-3.002134527726389e-05,-1.4278813131106356
2025-03-08 13:18:04.394,-3.965938659784418e-05,-1.51437706262572
2025-03-08 13:18:04.402,-4.874791936527921e-05,-1.5907141820725679
2025-03-08 13:18:04.409,-5.716783905977799e-05,-1.6550828696965434
2025-03-08 13:18:04.417,-6.481112679659319e-05,-1.7059154182088399
2025-03-08 13:18:04.425,-7.158199893357491e-05,-1.7418866679969347
2025-03-08 13:18:04.433,-7.739802506504758e-05,-1.7619090079275046
2025-03-08 13:18:04.441,-8.219119540293348e-05,-1.7651237558118702
2025-03-08 13:18:04.448,-8.590892477816785e-05,-1.7508907715875808
2025-03-08 13:18:04.456,-8.85150049120528e-05,-1.7187781111005962
2025-03-08 13:18:04.464,-8.999051355818805e-05,-1.668553404376021
2025-03-08 13:18:04.472,-9.033463848620138e-05,-1.6001784199220017
2025-03-08 13:18:04.480,-8.956530179041324e-05,-1.5138079405195857
2025-03-08 13:18:04.487,-8.771942344832327e-05,-1.4097936268428617
2025-03-08 13:18:04.495,-8.485267625788325e-05,-1.2886930051603007
2025-03-08 13:18:04.503,-8.103864977392122e-05,-1.1512831237449836
2025-03-08 13:18:04.511,-7.636741338817652e-05,-0.9985778280179102
2025-03-08 13:18:04.519,-7.094351086404092e-05,-0.8318470575328473
2025-03-08 13:18:04.527,-6.488344136725032e-05,-0.6526361176488823
2025-03-08 13:18:04.534,-5.8312719700930735e-05,-0.4627825686808039
2025-03-08 13:18:04.542,-5.1362660592113116e-05,-0.26442823671844845
2025-03-08 13:18:04.550,-4.416706153971159e-05,-0.060023894278575636
2025-03-08 13:18:04.558,-3.685894431453473e-05,0.1476756261089189
2025-03-08 13:18:04.566,-2.9567470780836464e-05,0.35562776552029535
2025-03-08 13:18:04.573,-2.2415097490882566e-05,0.5605314383680501
2025-03-08 13:18:04.581,-1.5514987407938563e-05,0.7588699878757471
2025-03-08 13:18:04.589,-8.968661200123158e-06,0.9469682178096785
2025-03-08 13:18:04.597,-2.8638542252304265e-06,1.1210632271189496
2025-03-08 13:18:04.605,2.7274380020755697e-06,1.2773881575120256
2025-03-08 13:18:04.612,7.750694403755109e-06,1.4122673200066111
2025-03-08 13:18:04.620,1.2170295988825076e-05,1.5222204950756721
2025-03-08 13:18:04.628,1.5970522612540193e-05,1.6040735158834105
2025-03-08 13:18:04.636,1.9155980278728303e-05,1.6550715743147941
2025-03-08 13:18:04.644,2.1751326204955313e-05,1.672991074903641
2025-03-08 13:18:04.652,2.3800198681869272e-05,1.6562453494641338
2025-03-08 13:18:04.659,2.5363343323280796e-05,1.6039791904046208
2025-03-08 13:18:04.667,2.651603147769495e-05,1.5161470268524437
2025-03-08 13:18:04.675,2.7344941657914876e-05,1.3935697197324932
2025-03-08 13:18:04.683,2.794469597618697e-05,1.2379654413439456
2025-03-08 13:18:04.691,2.8414223653451444e-05,1.0519509531579134
2025-03-08 13:18:04.698,2.885308520904978e-05,0.8390107827123982
2025-03-08 13:18:04.706,2.935784563480952e-05,0.6034332649641277
2025-03-08 13:18:04.714,3.0018538036330095e-05,0.3502140608077623
2025-03-08 13:18:04.722,3.0915222636739615e-05,0.08492948288021047
2025-03-08 13:18:04.730,3.211464392310916e-05,-0.18641637007962303
2025-03-08 13:18:04.737,3.366704222120189e-05,-0.45756515327695285
2025-03-08 13:18:04.745,3.560327306989522e-05,-0.7221917102911141
2025-03-08 13:18:04.753,3.793247878717154e-05,-0.9740976965261358
2025-03-08 13:18:04.761,4.064059202578624e-05,-1.207403169427294
2025-03-08 13:18:04.769,4.368991915861925e-05,-1.4167278671520878
2025-03-08 13:18:04.777,4.70199736509538e-05,-1.5973543290501164
2025-03-08 13:18:04.784,5.0549631111445195e-05,-1.74536592243319
2025-03-08 13:18:04.792,5.4180571144736445e-05,-1.8577541768480104
2025-03-08 13:18:04.800,5.7801861317989456e-05,-1.9324914858272413
2025-03-08 13:18:04.808,6.129542893516343e-05,-1.9685670746288308
2025-03-08 13:18:04.816,6.454206209270399e-05,-1.9659859964147557
2025-03-08 13:18:04.823,6.742749602117332e-05,-1.9257326721381731
2025-03-08 13:18:04.831,6.984809991241932e-05,-1.8497020299344404
2025-03-08 13:18:04.839,7.171570777981107e-05,-1.7406025622462422
2025-03-08 13:18:04.847,7.296123375315778e-05,-1.6018365641362577
2025-03-08 13:18:04.855,7.353685179238986e-05,-1.4373634260629635
2025-03-08 13:18:04.862,7.341667492587711e-05,-1.2515521317337983
2025-03-08 13:18:04.870,7.259602355042198e-05,-1.0490290813775551
2025-03-08 13:18:04.878,7.108950996454636e-05,-0.8345270660465022
2025-03-08 13:18:04.886,6.892826032159847e-05,-0.6127407132571124
2025-03-08 13:18:04.894,6.615662039636413e-05,-0.38819306571287254
2025-03-08 13:18:04.902,6.282864972045336e-05,-0.16511719804430236
2025-03-08 13:18:04.909,5.900463486846077e-05,0.05264403126520159
2025-03-08 13:18:04.917,5.474779452503097e-05,0.26171781917551007
2025-03-08 13:18:04.925,5.01213320516645e-05,0.45925939200038973
2025-03-08 13:18:04.933,4.518599552921802e-05,0.6429874549183501
2025-03-08 13:18:04.941,3.99982852305042e-05,0.8111972291704379
2025-03-08 13:18:04.948,3.460938230949809e-05,0.9627519292323634
2025-03-08 13:18:04.956,2.906477578646337e-05,1.0970542368468041
2025-03-08 13:18:04.964,2.3404464157757336e-05,1.21399998933218
2025-03-08 13:18:04.972,1.7663526545162838e-05,1.3139169008804428
2025-03-08 13:18:04.980,1.1872823735560811e-05,1.3974916542407485
2025-03-08 13:18:04.987,6.059625839224003e-06,1.465689104883333
2025-03-08 13:18:04.995,2.4806758670138256e-07,1.5196675938146427
2025-03-08 13:18:05.003,-5.540533680176953e-06,1.5606944333026234
2025-03-08 13:18:05.011,-1.1287357326272706e-05,1.5900654875267324
2025-03-08 13:18:05.019,-1.69755897962542e-05,1.6090324131213973
2025-03-08 13:18:05.027,-2.2589654873483864e-05,1.6187405716115066
2025-03-08 13:18:05.034,-2.811414146355352e-05,1.6201799167051916
2025-03-08 13:18:05.042,-3.353248019150275e-05,1.6141503482478883
2025-03-08 13:18:05.050,-3.8825466112229585e-05,1.6012421687962572
2025-03-08 13:18:05.058,-4.396975295307222e-05,1.5818314296733211
2025-03-08 13:18:05.066,-4.8936461715515634e-05,1.556089154763376
2025-03-08 13:18:05.073,-5.3690054211359796e-05,1.5240027234858982
2025-03-08 13:18:05.081,-5.8187619944157814e-05,1.4854071215934446
2025-03-08 13:18:05.089,-6.237871274348509e-05,1.440023369022751
2025-03-08 13:18:05.097,-6.620585049627527e-05,1.387501236217638
2025-03-08 13:18:05.105,-6.960574986575278e-05,1.3274633746355256
2025-03-08 13:18:05.113,-7.251129654635e-05,1.2595482046782267
2025-03-08 13:18:05.120,-7.485415307801307e-05,1.183449299441902
2025-03-08 13:18:05.128,-7.656780876150536e-05,1.0989495367840298
2025-03-08 13:18:05.136,-7.759081620224467e-05,1.0059489148346974
2025-03-08 13:18:05.144,-7.786996018113777e-05,0.9044855743817114
2025-03-08 13:18:05.152,-7.736316724737643e-05,0.7947501726328631
2025-03-08 13:18:05.159,-7.604205584687259e-05,0.6770942329382181
2025-03-08 13:18:05.167,-7.389409689725685e-05,0.5520333939126061
2025-03-08 13:18:05.175,-7.092437879031917e-05,0.4202465681127387
2025-03-08 13:18:05.183,-6.715696179436306e-05,0.2825719056340064
2025-03-08 13:18:05.191,-6.26357871706819e-05,0.14000019573031752
2025-03-08 13:18:05.198,-5.742508750525123e-05,-0.006333986109799428
2025-03-08 13:18:05.206,-5.160923013465096e-05,-0.15516337787127335
2025-03-08 13:18:05.214,-4.529191667361265e-05,-0.30510157262849746
2025-03-08 13:18:05.222,-3.8594659860293966e-05,-0.45465926364540393
2025-03-08 13:18:05.230,-3.1654465262040285e-05,-0.6022633765796322
2025-03-08 13:18:05.238,-2.4620662144131894e-05,-0.7462790689421017
2025-03-08 13:18:05.245,-1.7650863352823327e-05,-0.8850342888999827
2025-03-08 13:18:05.253,-1.0906100812343508e-05,-1.0168462701494059
2025-03-08 13:18:05.261,-4.545279238109995e-06,-1.1400490604193187
2025-03-08 13:18:05.269,1.2808100993441493e-06,-1.253020993549519
2025-03-08 13:18:05.277,6.4355976346424156e-06,-1.3542109539827027
2025-03-08 13:18:05.284,1.0802599513185205e-05,-1.4421623578524572
2025-03-08 13:18:05.292,1.4290649377108405e-05,-1.5155339746932455
2025-03-08 13:18:05.300,1.6838129407119857e-05,-1.5731170120713105
2025-03-08 13:18:05.308,1.841590419456935e-05,-1.6138482495266886
2025-03-08 13:18:05.316,1.9028763010695504e-05,-1.6368194029960934
2025-03-08 13:18:05.323,1.871526959354361e-05,-1.6412832898925074
2025-03-08 13:18:05.331,1.754599999463505e-05,-1.6266577113397116
2025-03-08 13:18:05.339,1.5620242827370644e-05,-1.592528235714176
2025-03-08 13:18:05.347,1.3061340457869486e-05,-1.5386512238388914
2025-03-08 13:18:05.355,1.001093417533033e-05,-1.4649584551955674
2025-03-08 13:18:05.363,6.622431198035915e-06,-1.3715645815855486
2025-03-08 13:18:05.370,3.0540486153084637e-06,-1.2587783465984674
2025-03-08 13:18:05.378,-5.381930767042285e-07,-1.1271180730453145
2025-03-08 13:18:05.386,-4.007167720646725e-06,-0.9773313553477949
2025-03-08 13:18:05.394,-7.22070740606073e-06,-0.8104182385877285
2025-03-08 13:18:05.402,-1.0066736183936974e-05,-0.6276564847867143
2025-03-08 13:18:05.409,-1.2457199953242231e-05,-0.4306269031438517
2025-03-08 13:18:05.417,-1.4330569441716062e-05,-0.22123623568538747
2025-03-08 13:18:05.425,-1.5652793253796527e-05,-0.0017347985541425004
2025-03-08 13:18:05.433,-1.641670189727975e-05,0.22527400033957037
2025-03-08 13:18:05.441,-1.663997210888259e-05,0.456835027512308
2025-03-08 13:18:05.448,-1.636184256308263e-05,0.6896561409233583
2025-03-08 13:18:05.456,-1.563883659219718e-05,0.9201382753268659
2025-03-08 13:18:05.464,-1.4539801626789462e-05,1.144422313866544
2025-03-08 13:18:05.472,-1.3140619192703705e-05,1.358453415531872
2025-03-08 13:18:05.480,-1.1518970910647324e-05,1.5580625808619786
2025-03-08 13:18:05.488,-9.749554586534119e-06,1.739064241403881
2025-03-08 13:18:05.495,-7.900107336655356e-06,1.8973676051842312
2025-03-08 13:18:05.503,-6.028490107608624e-06,2.0290984529264993
2025-03-08 13:18:05.511,-4.180933504348038e-06,2.130727136225062
2025-03-08 13:18:05.519,-2.3913897340295503e-06,2.19919775056008
2025-03-08 13:18:05.527,-6.818308246555661e-07,2.2320528997529174
2025-03-08 13:18:05.534,9.367075920140999e-07,2.2275481769304744
2025-03-08 13:18:05.542,2.4625347936630752e-06,2.184750492248413
2025-03-08 13:18:05.550,3.90134041389726e-06,2.1036147029726178
2025-03-08 13:18:05.558,5.263998923267957e-06,1.985033661014424
2025-03-08 13:18:05.566,6.564248233540628e-06,1.8308577851341497
2025-03-08 13:18:05.573,7.816317456829573e-06,1.6438815619037743
2025-03-08 13:18:05.581,9.032578210666075e-06,1.427795917062364
2025-03-08 13:18:05.589,1.0221335734871156e-05,1.1871070760740272
2025-03-08 13:18:05.597,1.1384936057137204e-05,0.9270242236166746
2025-03-08 13:18:05.605,1.2518393907193372e-05,0.6533198456514109
2025-03-08 13:18:05.613,1.3608710834388497e-05,0.3721679775280343
2025-03-08 13:18:05.620,1.4634956769262815e-05,0.08996659620357952
2025-03-08 13:18:05.628,1.5569065429896394e-05,-0.18684897150676863
2025-03-08 13:18:05.636,1.6377202636850414e-05,-0.4519945121697729
2025-03-08 13:18:05.644,1.702154741683453e-05,-0.6995202706932744
2025-03-08 13:18:05.652,1.7462356466086727e-05,-0.9239826144604063
2025-03-08 13:18:05.659,1.766020319390912e-05,-1.1205981196336894
2025-03-08 13:18:05.667,1.757826302502211e-05,-1.2853750295345168
2025-03-08 13:18:05.675,1.7184478854457477e-05,-1.4152180209727343
2025-03-08 13:18:05.683,1.6453428443906756e-05,-1.5080033070538854
2025-03-08 13:18:05.691,1.5367752647032582e-05,-1.5626222730546098
2025-03-08 13:18:05.698,1.3919069082146438e-05,-1.5789930481071242
2025-03-08 13:18:05.706,1.2108352371224623e-05,-1.5580406134456088
2025-03-08 13:18:05.714,9.945806035772936e-06,-1.5016471838578025
2025-03-08 13:18:05.722,7.450305812739847e-06,-1.4125756155271492
2025-03-08 13:18:05.730,4.648548188525729e-06,-1.2943694375535273
2025-03-08 13:18:05.738,1.5740426033402906e-06,-1.151233735900771
2025-03-08 13:18:05.745,-1.7339700443852342e-06,-0.9879015171138744
2025-03-08 13:18:05.753,-5.23164677456277e-06,-0.8094903460758411
2025-03-08 13:18:05.761,-8.87169231145813e-06,-0.6213540044552193
2025-03-08 13:18:05.769,-1.2604454521422949e-05,-0.428933679869581
2025-03-08 13:18:05.777,-1.637885642398219e-05,-0.2376128010703815
2025-03-08 13:18:05.784,-2.0143066505457113e-05,-0.05257911954083351
2025-03-08 13:18:05.792,-2.384485320264958e-05,0.12130295085052585
2025-03-08 13:18:05.800,-2.7431624107480244e-05,0.27960733399405924
2025-03-08 13:18:05.808,-3.0850203916209924e-05,0.4184468048687544
2025-03-08 13:18:05.816,-3.404645387397214e-05,0.5345576833821604
2025-03-08 13:18:05.823,-3.696487774064916e-05,0.6253677595565015
2025-03-08 13:18:05.831,-3.954839203716529e-05,0.6890467737402575
2025-03-08 13:18:05.839,-4.173845064442057e-05,0.7245389661318592
2025-03-08 13:18:05.847,-4.3475684224025975e-05,0.7315773634253746
2025-03-08 13:18:05.855,-4.470113328134875e-05,0.7106796312933311
2025-03-08 13:18:05.863,-4.535805416283592e-05,0.6631255199807664
2025-03-08 13:18:05.870,-4.539422075477585e-05,0.5909161784003825
2025-03-08 13:18:05.878,-4.4764646461717145e-05,0.49671590851619213
2025-03-08 13:18:05.886,-4.343465438650044e-05,0.38377727136802053
2025-03-08 13:18:05.894,-4.138317173586838e-05,0.25585083551355015
2025-03-08 13:18:05.902,-3.860603275049831e-05,0.11708127430152451
2025-03-08 13:18:05.909,-3.511900391430334e-05,-0.028108040280571095
2025-03-08 13:18:05.917,-3.096023014895797e-05,-0.17513935300106376
2025-03-08 13:18:05.925,-2.619183116381194e-05,-0.3194107303127955
2025-03-08 13:18:05.933,-2.0900431729449404e-05,-0.4564287538288528
2025-03-08 13:18:05.941,-1.5196477551836539e-05,-0.5819399820805391
2025-03-08 13:18:05.948,-9.212266510479778e-06,-0.6920572202967946
2025-03-08 13:18:05.956,-3.0987114098496938e-06,-0.7833765009403083
2025-03-08 13:18:05.964,2.979058789365272e-06,-0.8530806756880261
2025-03-08 13:18:05.972,8.847067693955285e-06,-0.8990256887087807
2025-03-08 13:18:05.980,1.4328575663878026e-05,-0.9198059746102959
2025-03-08 13:18:05.988,1.9250587159126275e-05,-0.9147960220577653
2025-03-08 13:18:05.995,2.345046436634105e-05,-0.8841659613464695
2025-03-08 13:18:06.003,2.6782319771045382e-05,-0.828870038218161
2025-03-08 13:18:06.011,2.9122887440431118e-05,-0.7506079721872331
2025-03-08 13:18:06.019,3.0376648310734546e-05,-0.6517604003728852
2025-03-08 13:18:06.027,3.048008222334974e-05,-0.5353008076887925
2025-03-08 13:18:06.034,2.9404992185137203e-05,-0.4046874667162774
2025-03-08 13:18:06.042,2.7160860246793857e-05,-0.26373987777768493
2025-03-08 13:18:06.050,2.3796150382942953e-05,-0.11650493904788281
2025-03-08 13:18:06.058,1.939840761197841e-05,0.03288146784571497
2025-03-08 13:18:06.066,1.4092964071028216e-05,0.18033165100218188
2025-03-08 13:18:06.073,8.040087590434793e-06,0.321936395810754
2025-03-08 13:18:06.081,1.4304988701732034e-06,0.4540832108738111
2025-03-08 13:18:06.089,-5.5206849679025286e-06,0.5735581421158252
2025-03-08 13:18:06.097,-1.2581377845051576e-05,0.6776277653380174
2025-03-08 13:18:06.105,-1.9510986377921603e-05,0.7640991429516224
2025-03-08 13:18:06.113,-2.6069472148780512e-05,0.8313568022035231
2025-03-08 13:18:06.120,-3.202653939039568e-05,0.8783770641275962
2025-03-08 13:18:06.128,-3.717047458852552e-05,0.9047212211924321
2025-03-08 13:18:06.136,-4.1316186783272946e-05,0.9105100299647428
2025-03-08 13:18:06.144,-4.4312039846934073e-05,0.8963826774696777
2025-03-08 13:18:06.152,-4.604514303321078e-05,0.8634437551887697
2025-03-08 13:18:06.159,-4.64448704264537e-05,0.8132018340416728
2025-03-08 13:18:06.167,-4.548449816822232e-05,0.7475030205512269
2025-03-08 13:18:06.175,-4.318096968056709e-05,0.6684624637198335
2025-03-08 13:18:06.183,-3.959291763024772e-05,0.5783962636216079
2025-03-08 13:18:06.191,-3.481717483749597e-05,0.47975569270390944
2025-03-08 13:18:06.198,-2.8984071650332835e-05,0.3750651469268671
2025-03-08 13:18:06.206,-2.22518309067019e-05,0.2668648339089832
2025-03-08 13:18:06.214,-1.4800355892959548e-05,0.15765888421069008
2025-03-08 13:18:06.222,-6.824699611700569e-06,0.049869321423706016
2025-03-08 13:18:06.230,1.4714932628525775e-06,-0.05420387726075418
2025-03-08 13:18:06.238,9.882302065089321e-06,-0.1524165720397549
2025-03-08 13:18:06.245,1.8205399876885998e-05,-0.24280819487090935
2025-03-08 13:18:06.253,2.624736666232476e-05,-0.3236236466094573
2025-03-08 13:18:06.261,3.3828420238254685e-05,-0.39332968264462315
2025-03-08 13:18:06.269,4.078658273528827e-05,-0.4506262004650907
2025-03-08 13:18:06.277,4.698128557181317e-05,-0.49445291759499804
2025-03-08 13:18:06.284,5.229636738003724e-05,-0.523991999781373
2025-03-08 13:18:06.292,5.6642384946212124e-05,-0.5386672746499777
2025-03-08 13:18:06.300,5.995816205251337e-05,-0.5381407445825378
2025-03-08 13:18:06.308,6.221153296535508e-05,-0.52230718291078
2025-03-08 13:18:06.316,6.339927496270094e-05,-0.4912876413441707
2025-03-08 13:18:06.323,6.354625773498204e-05,-0.4454226944824603
2025-03-08 13:18:06.331,6.270386508673765e-05,-0.38526618164166737
2025-03-08 13:18:06.339,6.094776633898085e-05,-0.31158006140983635
2025-03-08 13:18:06.347,5.8375131613345394e-05,-0.22533076008154126
2025-03-08 13:18:06.355,5.510139571447847e-05,-0.12768707439051463
2025-03-08 13:18:06.363,5.125667221690128e-05,-0.020019304418483506
2025-03-08 13:18:06.370,4.6981892383343446e-05,0.09610111503156682
2025-03-08 13:18:06.378,4.242470279433507e-05,0.21890259614673752
2025-03-08 13:18:06.386,3.773513919852766e-05,0.34641640455713746
2025-03-08 13:18:06.394,3.3061126138249396e-05,0.47648327761302456
2025-03-08 13:18:06.402,2.8543908828645425e-05,0.6067652635256464
2025-03-08 13:18:06.409,2.431356788353961e-05,0.7347642532888118
2025-03-08 13:18:06.417,2.0484789055030193e-05,0.8578483969184684
2025-03-08 13:18:06.425,1.715306965173601e-05,0.9732871989530918
2025-03-08 13:18:06.433,1.4391548202203767e-05,1.078295604231329
2025-03-08 13:18:06.441,1.2248645178867447e-05,1.1700868426969944
2025-03-08 13:18:06.448,1.0746697821169716e-05,1.245933233918856
2025-03-08 13:18:06.456,9.881750838752977e-06,1.3032335969366158
2025-03-08 13:18:06.464,9.624605691885585e-06,1.33958541242155
2025-03-08 13:18:06.472,9.923122396280593e-06,1.3528594840846326
2025-03-08 13:18:06.480,1.0705635209165994e-05,1.3412745773239936
2025-03-08 13:18:06.488,1.1885236663152307e-05,1.3034693907651134
2025-03-08 13:18:06.495,1.3364629084378088e-05,1.2385692348267168
2025-03-08 13:18:06.503,1.5041227185119638e-05,1.146244925163965
2025-03-08 13:18:06.511,1.681219829727091e-05,1.0267616098610879
2025-03-08 13:18:06.519,1.8579137947252785e-05,0.8810154979196453
2025-03-08 13:18:06.527,2.025209709804884e-05,0.7105567120652906
2025-03-08 13:18:06.534,2.1752712555546818e-05,0.5175967366076408
2025-03-08 13:18:06.542,2.3016263779704552e-05,0.304999175143225
2025-03-08 13:18:06.550,2.3992598317617862e-05,0.07625279370085353
2025-03-08 13:18:06.558,2.4646007474996026e-05,-0.16457386627774867
2025-03-08 13:18:06.566,2.4954243380056402e-05,-0.41289662994917564
2025-03-08 13:18:06.573,2.49069219401035e-05,-0.663698411491554
2025-03-08 13:18:06.581,2.450356495365268e-05,-0.9116297246422205
2025-03-08 13:18:06.589,2.3751520225582403e-05,-1.151125465777942
2025-03-08 13:18:06.597,2.2663971762899478e-05,-1.3765356607390031
2025-03-08 13:18:06.605,2.125821605848944e-05,-1.5822670590311707
2025-03-08 13:18:06.613,1.95543367710538e-05,-1.7629317067289643
2025-03-08 13:18:06.620,1.7574360644526973e-05,-1.9134980043802552
2025-03-08 13:18:06.628,1.534192428275193e-05,-2.0294393171251137
2025-03-08 13:18:06.636,1.2882426495246712e-05,-2.1068749839182654
2025-03-08 13:18:06.644,1.0223586481648907e-05,-2.142698576741724
2025-03-08 13:18:06.652,7.396276231311382e-06,-2.1346884768262093
2025-03-08 13:18:06.659,4.4354498404527945e-06,-2.0815962467046405
2025-03-08 13:18:06.667,1.3809645901817191e-06,-1.9832088734864817
2025-03-08 13:18:06.675,-1.721899071188336e-06,-1.8403817364682715
2025-03-08 13:18:06.683,-4.822346336150216e-06,-1.6550401076658758
2025-03-08 13:18:06.691,-7.864440395655695e-06,-1.4301481116850612
2025-03-08 13:18:06.698,-1.078790131041958e-05,-1.1696453152339923
2025-03-08 13:18:06.706,-1.3529269032692095e-05,-0.8783524302527619
2025-03-08 13:18:06.714,-1.6023377127057053e-05,-0.5618489305590381
2025-03-08 13:18:06.722,-1.820510524135166e-05,-0.22632662839560844
2025-03-08 13:18:06.730,-2.0011400150762818e-05,0.12157564080821565
2025-03-08 13:18:06.738,-2.1383564979900143e-05,0.47495019802875604
2025-03-08 13:18:06.745,-2.2269792532395572e-05,0.8268049542381294
2025-03-08 13:18:06.753,-2.2627849585654888e-05,1.1702472545216276
2025-03-08 13:18:06.761,-2.242773024689373e-05,1.4986604266065322
2025-03-08 13:18:06.769,-2.1654037372208677e-05,1.8058668193361882
2025-03-08 13:18:06.777,-2.0307847188699504e-05,2.086271915318045
2025-03-08 13:18:06.784,-1.8407851403470785e-05,2.3349851402719097
2025-03-08 13:18:06.792,-1.599063132453814e-05,2.5479141931717573
2025-03-08 13:18:06.800,-1.3109988616139888e-05,2.7218310091270776
2025-03-08 13:18:06.808,-9.835333842848986e-06,2.8544087667778193
2025-03-08 13:18:06.816,-6.249214899195564e-06,2.9442305927141956
2025-03-08 13:18:06.823,-2.4441489156013385e-06,2.9907717323976994
2025-03-08 13:18:06.831,1.4810088264910177e-06,2.9943578996215967
2025-03-08 13:18:06.839,5.424890222427418e-06,2.956103255404533
2025-03-08 13:18:06.847,9.287380170411371e-06,2.8778319945460464
2025-03-08 13:18:06.855,1.2973120459634034e-05,2.761987838524604
2025-03-08 13:18:06.863,1.6394610387602566e-05,2.6115358505938686
2025-03-08 13:18:06.870,1.9474821602345694e-05,2.4298608974271394
2025-03-08 13:18:06.878,2.2149291036941008e-05,2.220666772767512
2025-03-08 13:18:06.886,2.43676736689214e-05,1.9878794775879272
2025-03-08 13:18:06.894,2.609473413905174e-05,1.735557454320602
2025-03-08 13:18:06.902,2.7310761349147e-05,1.4678107695441651
2025-03-08 13:18:06.909,2.8011403500249618e-05,1.1887304187388035
2025-03-08 13:18:06.917,2.82069168234733e-05,0.9023281721216573
2025-03-08 13:18:06.925,2.7920802055985487e-05,0.6124867529848013
2025-03-08 13:18:06.933,2.7187805839188326e-05,0.32291967090320367
2025-03-08 13:18:06.941,2.6051311480939306e-05,0.03713972519196169
2025-03-08 13:18:06.948,2.456022085090816e-05,-0.24156497005553912
2025-03-08 13:18:06.956,2.2765511498704892e-05,-0.510148640749407
2025-03-08 13:18:06.964,2.0716719915705818e-05,-0.7658203617527704
2025-03-08 13:18:06.972,1.845863644923e-05,-1.0060525108961038
2025-03-08 13:18:06.980,1.6028497073174708e-05,-1.2285861341394073
2025-03-08 13:18:06.988,1.3453935185290911e-05,-1.431434033114027
2025-03-08 13:18:06.995,1.075191365596907e-05,-1.6128822146133788
2025-03-08 13:18:07.003,7.928772203799122e-06,-1.7714901718608889
2025-03-08 13:18:07.011,4.981389432857444e-06,-1.9060903220672356
2025-03-08 13:18:07.019,1.8993018314613534e-06,-2.0157868219716737
2025-03-08 13:18:07.027,-1.3325066568761545e-06,-2.0999539263360956
2025-03-08 13:18:07.034,-4.730494005881071e-06,-2.1582340292612505
2025-03-08 13:18:07.042,-8.30947162225523e-06,-2.1905355095661103
2025-03-08 13:18:07.050,-1.2079828515326321e-05,-2.1970304665223956
2025-03-08 13:18:07.058,-1.604528427909817e-05,-2.178152369314567
2025-03-08 13:18:07.066,-2.020130341945974e-05,-2.1345935528828623
2025-03-08 13:18:07.073,-2.4534215152791246e-05,-2.0673023826949652
2025-03-08 13:18:07.081,-2.9020992588898386e-05,-1.9774797937724302
2025-03-08 13:18:07.089,-3.36295578402045e-05,-1.8665747967925257
2025-03-08 13:18:07.097,-3.8319407772926215e-05,-1.736278444053468
2025-03-08 13:18:07.105,-4.304232401678555e-05,-1.5885156634561886
2025-03-08 13:18:07.113,-4.77429641767489e-05,-1.4254343006586172
2025-03-08 13:18:07.120,-5.2359227479223844e-05,-1.2493906633273582
2025-03-08 13:18:07.128,-5.6822419126837965e-05,-1.062930850359515
2025-03-08 13:18:07.136,-6.105736580709171e-05,-0.8687671950491529
2025-03-08 13:18:07.144,-6.498272262690689e-05,-0.6697492804633797
2025-03-08 13:18:07.152,-6.851173146168943e-05,-0.46882921838009695
2025-03-08 13:18:07.159,-7.155364157408964e-05,-0.26902122144995927
2025-03-08 13:18:07.167,-7.40159100557957e-05,-0.07335591239468904
2025-03-08 13:18:07.175,-7.580718856785335e-05,0.11516975486321139
2025-03-08 13:18:07.183,-7.68409881029599e-05,0.2936457094801982
2025-03-08 13:18:07.191,-7.703980288372576e-05,0.45930359256678416
2025-03-08 13:18:07.198,-7.633938233607658e-05,0.6095715461555281
2025-03-08 13:18:07.206,-7.469279309743168e-05,0.7421272993469316
2025-03-08 13:18:07.214,-7.207393643876961e-05,0.8549479715615509
2025-03-08 13:18:07.222,-6.848027857436549e-05,0.9463551430238246
2025-03-08 13:18:07.230,-6.393467536887956e-05,1.0150538817201968
2025-03-08 13:18:07.238,-5.848627159322045e-05,1.0601645416425627
2025-03-08 13:18:07.245,-5.2210481659338116e-05,1.0812462548115145
2025-03-08 13:18:07.253,-4.520802212079649e-05,1.0783111384637645
2025-03-08 13:18:07.261,-3.760293563259327e-05,1.0518283450407795
2025-03-08 13:18:07.269,-2.953958259629416e-05,1.002717215950599
2025-03-08 13:18:07.277,-2.1178667214246322e-05,0.9323289835674156
2025-03-08 13:18:07.284,-1.269244985522968e-05,0.8424167251894634
2025-03-08 13:18:07.292,-4.259344278626377e-06,0.7350936297751837
2025-03-08 13:18:07.300,3.941883248889938e-06,0.6127801004297387
2025-03-08 13:18:07.308,1.1738084575112106e-05,0.4781407647127029
2025-03-08 13:18:07.316,1.8967627828727144e-05,0.3340130554230775
2025-03-08 13:18:07.323,2.5485963496619667e-05,0.18332959153235395
2025-03-08 13:18:07.331,3.117058029328266e-05,0.02903706017690553
2025-03-08 13:18:07.339,3.592506421800371e-05,-0.1259853901878778
2025-03-08 13:18:07.347,3.968199965975046e-05,-0.27900513484386363
2025-03-08 13:18:07.355,4.240453208028592e-05,-0.4275094475754889
2025-03-08 13:18:07.363,4.408653610398127e-05,-0.5692705962056241
2025-03-08 13:18:07.370,4.475145349885133e-05,-0.7024004475628348
2025-03-08 13:18:07.378,4.444994364365675e-05,-0.8253928891489098
2025-03-08 13:18:07.386,4.3256534570383524e-05,-0.9371528819525743
2025-03-08 13:18:07.394,4.1265509462780894e-05,-1.0370114061436377
2025-03-08 13:18:07.402,3.85863111786182e-05,-1.1247259347873857
2025-03-08 13:18:07.409,3.533875956994255e-05,-1.2004663908536346
2025-03-08 13:18:07.417,3.16483341701652e-05,-1.2647868555236412
2025-03-08 13:18:07.425,2.7641703452966496e-05,-1.3185836549194545
2025-03-08 13:18:07.433,2.3442627030388214e-05,-1.3630408992557357
2025-03-08 13:18:07.441,1.9168344154020437e-05,-1.39956509583279
2025-03-08 13:18:07.449,1.4926570278398462e-05,-1.4297110805638098
2025-03-08 13:18:07.456,1.081320739245999e-05,-1.4551021474688672
2025-03-08 13:18:07.464,6.910812661397761e-06,-1.4773478055748983
2025-03-08 13:18:07.472,3.2877868949213006e-06,-1.497962952500751
2025-03-08 13:18:07.480,-1.8235169434797929e-09,-1.5182923403771622
2025-03-08 13:18:07.488,-2.918056683938222e-06,-1.539443985785968
2025-03-08 13:18:07.495,-5.434463480622462e-06,-1.5622346570896641
2025-03-08 13:18:07.503,-7.537402056639894e-06,-1.5871498202255276
2025-03-08 13:18:07.511,-9.225327341563639e-06,-1.6143195282655152
2025-03-08 13:18:07.519,-1.05081143390814e-05,-1.643510806011689
2025-03-08 13:18:07.527,-1.1406341703196832e-05,-1.6741362108193751
2025-03-08 13:18:07.534,-1.1950376130554309e-05,-1.7052775238911506
2025-03-08 13:18:07.542,-1.21790747967304e-05,-1.7357229825576732
2025-03-08 13:18:07.550,-1.2137965418207956e-05,-1.7640161014650395
2025-03-08 13:18:07.558,-1.1876847628264708e-05,-1.788513916323
2025-03-08 13:18:07.566,-1.1446859696437301e-05,-1.8074523724221978
2025-03-08 13:18:07.574,-1.0897158038111251e-05,-1.819016528793086
2025-03-08 13:18:07.581,-1.0271456611695938e-05,-1.821413227336721
2025-03-08 13:18:07.589,-9.604755866323725e-06,-1.8129438702499479
2025-03-08 13:18:07.597,-8.920630555971387e-06,-1.7920749587360751
2025-03-08 13:18:07.605,-8.229418130880008e-06,-1.757504080679016
2025-03-08 13:18:07.613,-7.5275554004273295e-06,-1.708219108054272
2025-03-08 13:18:07.620,-6.798176760739994e-06,-1.6435484916770913
2025-03-08 13:18:07.628,-6.012939972603249e-06,-1.5632007383080166
2025-03-08 13:18:07.636,-5.134901800348168e-06,-1.4672914379771722
2025-03-08 13:18:07.644,-4.1221421958083224e-06,-1.3563565820134982
2025-03-08 13:18:07.652,-2.9317592397022853e-06,-1.231351361243931
2025-03-08 13:18:07.659,-1.5238531526720802e-06,-1.093634130170916
2025-03-08 13:18:07.667,1.3481525918139713e-07,-0.9449357349687358
2025-03-08 13:18:07.675,2.06770343788788e-06,-0.7873149104843158
2025-03-08 13:18:07.683,4.286023785271877e-06,-0.6231009484518171
2025-03-08 13:18:07.691,6.787005456470644e-06,-0.4548253256276642
2025-03-08 13:18:07.699,9.552914807066214e-06,-0.28514444871010447
2025-03-08 13:18:07.706,1.2550819139637102e-05,-0.11675610204007474
2025-03-08 13:18:07.714,1.5733015464795097e-05,0.04768745316870873
2025-03-08 13:18:07.722,1.9038006682015804e-05,0.20566650670800926
2025-03-08 13:18:07.730,2.239191401699117e-05,0.354877666611568
2025-03-08 13:18:07.738,2.5710252982258717e-05,0.4933109301376142
2025-03-08 13:18:07.745,2.8900047511525616e-05,0.6193167070204103
2025-03-08 13:18:07.753,3.186229969778925e-05,0.7316596743204689
2025-03-08 13:18:07.761,3.449485744582994e-05,0.82955673058994
2025-03-08 13:18:07.769,3.6695707064260596e-05,0.9126968645691386
2025-03-08 13:18:07.777,3.83666498964239e-05,0.9812414502842194
2025-03-08 13:18:07.784,3.9417226982580476e-05,1.0358043052354884
2025-03-08 13:18:07.792,3.976868286963246e-05,1.077411768769722
2025-03-08 13:18:07.800,3.9357734969040045e-05,1.107444028818639
2025-03-08 13:18:07.808,3.813992675393764e-05,1.127559892265432
2025-03-08 13:18:07.816,3.609237064458885e-05,1.1396080978572427
2025-03-08 13:18:07.824,3.321571966421926e-05,1.1455290516262442
2025-03-08 13:18:07.831,2.9535243930638676e-05,1.1472514691990816
2025-03-08 13:18:07.839,2.5100928468491404e-05,1.1465887940464548
2025-03-08 13:18:07.847,1.9986552324442917e-05,1.1451403985000357
2025-03-08 13:18:07.855,1.4287755111334413e-05,1.14420245630755
2025-03-08 13:18:07.863,8.119145361960087e-06,1.1446930096387578
2025-03-08 13:18:07.870,1.6105547724652677e-06,1.1470951609778017
2025-03-08 13:18:07.878,-5.097407260208391e-06,1.1514215309022577
2025-03-08 13:18:07.886,-1.1858294441993472e-05,1.1572021709521367
2025-03-08 13:18:07.894,-1.852500693144011e-05,1.1634970457655718
2025-03-08 13:18:07.902,-2.4954920506444305e-05,1.1689330474434343
2025-03-08 13:18:07.909,-3.1014636567381663e-05,1.1717643374988378
2025-03-08 13:18:07.917,-3.658403929070654e-05,1.1699537016845911
2025-03-08 13:18:07.925,-4.155941968407154e-05,1.1612716310728082
2025-03-08 13:18:07.933,-4.5855557904050954e-05,1.1434090783335267
2025-03-08 13:18:07.941,-4.940680805089763e-05,1.1140993172916829
2025-03-08 13:18:07.949,-5.216735313138125e-05,1.071244046085092
2025-03-08 13:18:07.956,-5.411085560200916e-05,1.013038769111671
2025-03-08 13:18:07.964,-5.5229717982618565e-05,0.938092505200728
2025-03-08 13:18:07.972,-5.5534112630358755e-05,0.8455369497907569
2025-03-08 13:18:07.980,-5.505086574751002e-05,0.7351203551058666
2025-03-08 13:18:07.988,-5.382220322165381e-05,0.6072816132285984
2025-03-08 13:18:07.995,-5.190430021575222e-05,0.4632003901134761
2025-03-08 13:18:08.003,-4.9365547056090944e-05,0.30481972813052705
2025-03-08 13:18:08.011,-4.628446585521743e-05,0.13483835897017088
2025-03-08 13:18:08.019,-4.27472642363291e-05,-0.043328936692718055
2025-03-08 13:18:08.027,-3.884505744167752e-05,-0.22562324816582574
2025-03-08 13:18:08.034,-3.467082532391772e-05,-0.40744454546140524
2025-03-08 13:18:08.042,-3.0316221486365536e-05,-0.5837830106917388
2025-03-08 13:18:08.050,-2.5868415043893904e-05,-0.74937438005779
2025-03-08 13:18:08.058,-2.1407183233886343e-05,-0.8988736092245143
2025-03-08 13:18:08.066,-1.7002462990242398e-05,-1.0270400667484836
2025-03-08 13:18:08.074,-1.271252501884969e-05,-1.128926710736342
2025-03-08 13:18:08.081,-8.582877606005362e-06,-1.2000653724087769
2025-03-08 13:18:08.089,-4.645951003789729e-06,-1.2366403728956739
2025-03-08 13:18:08.097,-9.215601689092131e-07,-1.2356432074775148
2025-03-08 13:18:08.105,2.581904558915444e-06,-1.1950018819927366
2025-03-08 13:18:08.113,5.865651246725894e-06,-1.113679598637689
2025-03-08 13:18:08.120,8.938151761343357e-06,-0.9917387766810145
2025-03-08 13:18:08.128,1.1812452548501804e-05,-0.8303677763352689
2025-03-08 13:18:08.136,1.4503302594699889e-05,-0.6318691060784036
2025-03-08 13:18:08.144,1.7024279450251525e-05,-0.39960929436768156
2025-03-08 13:18:08.152,1.9385094295920324e-05,-0.13793197706105398
2025-03-08 13:18:08.159,2.15892483593682e-05,0.14796291861642216
2025-03-08 13:18:08.167,2.3632195963652406e-05,0.4521697429027441
2025-03-08 13:18:08.175,2.550014477312074e-05,0.7682521225964635
2025-03-08 13:18:08.183,2.7169592256597454e-05,1.089436054067566
2025-03-08 13:18:08.191,2.860766007210229e-05,1.4088139738450254
2025-03-08 13:18:08.199,2.977324622642227e-05,1.7195522213979344
2025-03-08 13:18:08.206,3.0618969867956316e-05,2.0150942091215303
2025-03-08 13:18:08.214,3.109383695675957e-05,2.2893519065966084
2025-03-08 13:18:08.222,3.1146508452184344e-05,2.5368789084477354
2025-03-08 13:18:08.230,3.072900777171212e-05,2.75301932624707
2025-03-08 13:18:08.238,2.9800662850124536e-05,2.9340279338072306
2025-03-08 13:18:08.245,2.8332041911738856e-05,3.07715829538332
2025-03-08 13:18:08.253,2.630861276156017e-05,3.1807169158087634
2025-03-08 13:18:08.261,2.373383623806686e-05,3.244082694466332
2025-03-08 13:18:08.269,2.0631406600324268e-05,3.26769210274162
2025-03-08 13:18:08.277,1.704639691292952e-05,3.252991530134362
2025-03-08 13:18:08.284,1.3045168133909149e-05,3.2023591647235623
2025-03-08 13:18:08.292,8.714030955235296e-06,3.118999596734767
2025-03-08 13:18:08.300,4.156759962437953e-06,3.00681506350849
2025-03-08 13:18:08.308,-5.088756453933031e-07,2.870257891375136
2025-03-08 13:18:08.316,-5.155370235925913e-06,2.7141692309563394
2025-03-08 13:18:08.324,-9.650317563345856e-06,2.5436096134983637
2025-03-08 13:18:08.331,-1.3861600058095365e-05,2.3636871516203217
2025-03-08 13:18:08.339,-1.7662696760073016e-05,2.1793893353812077
2025-03-08 13:18:08.347,-2.0937866881631884e-05,1.9954243006454522
2025-03-08 13:18:08.355,-2.3586960643422104e-05,1.8160771453119837
2025-03-08 13:18:08.363,-2.5529607045787816e-05,1.645086327669084
2025-03-08 13:18:08.370,-2.6708531888532894e-05,1.485544406756273
2025-03-08 13:18:08.378,-2.7091779049958664e-05,1.3398264061434855
2025-03-08 13:18:08.386,-2.667366516473925e-05,1.2095479483633675
2025-03-08 13:18:08.394,-2.5474404355761914e-05,1.0955540763620961
2025-03-08 13:18:08.402,-2.3538469945431152e-05,0.9979384109416523
2025-03-08 13:18:08.409,-2.0931864823306328e-05,0.9160910458778453
2025-03-08 13:18:08.417,-1.773852584860965e-05,0.8487724078815557
2025-03-08 13:18:08.425,-1.4056102473767264e-05,0.7942092557416841
2025-03-08 13:18:08.433,-9.991347361821664e-06,0.7502081063188296
2025-03-08 13:18:08.441,-5.655347925495507e-06,0.7142806938181343
2025-03-08 13:18:08.449,-1.1588151462699487e-06,0.683775626558567
2025-03-08 13:18:08.456,3.392369250363486e-06,0.6560102291229493
2025-03-08 13:18:08.464,7.901163281159892e-06,0.6283966651603012
2025-03-08 13:18:08.472,1.2282767015515426e-05,0.5985568331218974
2025-03-08 13:18:08.480,1.646726946900041e-05,0.5644212040820918
2025-03-08 13:18:08.488,2.0401411458123524e-05,0.5243076973506904
2025-03-08 13:18:08.495,2.4049355803686613e-05,0.4769778123284569
2025-03-08 13:18:08.503,2.7392387258117028e-05,0.4216684803679582
2025-03-08 13:18:08.511,3.0427527148246832e-05,0.3580993837508656
2025-03-08 13:18:08.519,3.3165153313443136e-05,0.2864567257641675
2025-03-08 13:18:08.527,3.562583838306408e-05,0.20735555119880203
2025-03-08 13:18:08.534,3.783670921185101e-05,0.12178365238671131
2025-03-08 13:18:08.542,3.982766175339993e-05,0.031030816175274083
2025-03-08 13:18:08.550,4.1627751084084826e-05,-0.06339234154945725
2025-03-08 13:18:08.558,4.326203773455656e-05,-0.159841441422002
2025-03-08 13:18:08.566,4.474912035663785e-05,-0.25662674081338727
2025-03-08 13:18:08.574,4.609952464605859e-05,-0.3520984474941461
2025-03-08 13:18:08.581,4.7315051522284415e-05,-0.444724851766739
2025-03-08 13:18:08.589,4.8389116150844904e-05,-0.5331596751601765
2025-03-08 13:18:08.597,4.930803589875175e-05,-0.616295676386771
2025-03-08 13:18:08.605,5.005315221345542e-05,-0.6933023240017868
2025-03-08 13:18:08.613,5.060360119296018e-05,-0.763646206424429
2025-03-08 13:18:08.620,5.093948271323586e-05,-0.8270937582257584
2025-03-08 13:18:08.628,5.104512238082999e-05,-0.8836967828379882
2025-03-08 13:18:08.636,5.0912086187808216e-05,-0.9337620916719688
2025-03-08 13:18:08.644,5.05416171957187e-05,-0.9778073137100022
2025-03-08 13:18:08.652,4.99462298341353e-05,-1.0165055311646454
2025-03-08 13:18:08.659,4.915029723995229e-05,-1.0506218566816807
2025-03-08 13:18:08.667,4.818956145173079e-05,-1.0809453882036963
2025-03-08 13:18:08.675,4.710958062190093e-05,-1.108220165473799
2025-03-08 13:18:08.683,4.596322519418005e-05,-1.133078813690779
2025-03-08 13:18:08.691,4.4807441491907214e-05,-1.15598249975994
2025-03-08 13:18:08.699,4.369957707399436e-05,-1.177170646240022
2025-03-08 13:18:08.706,4.269358391947301e-05,-1.1966235440496689
2025-03-08 13:18:08.714,4.1836395461429964e-05,-1.214040568793893
2025-03-08 13:18:08.722,4.116473373122832e-05,-1.2288361237328862
2025-03-08 13:18:08.730,4.070255460556315e-05,-1.2401546884401085
2025-03-08 13:18:08.738,4.045928559590564e-05,-1.2469054335256544
2025-03-08 13:18:08.745,4.042895342555683e-05,-1.2478157720935972
2025-03-08 13:18:08.753,4.0590239468233365e-05,-1.2415019919090828
2025-03-08 13:18:08.761,4.090744163893346e-05,-1.2265538233809563
2025-03-08 13:18:08.769,4.1332263180569646e-05,-1.2016285622788854
2025-03-08 13:18:08.777,4.180629359244244e-05,-1.1655493212224783
2025-03-08 13:18:08.784,4.2263996263128565e-05,-1.1174012656950338
2025-03-08 13:18:08.792,4.2635974323447925e-05,-1.0566194043493795
2025-03-08 13:18:08.800,4.285226192227139e-05,-0.9830617080221551
2025-03-08 13:18:08.808,4.284540445805735e-05,-0.8970620295448757
2025-03-08 13:18:08.816,4.255316062865194e-05,-0.7994584348909258
2025-03-08 13:18:08.824,4.192075616312946e-05,-0.6915940410966063
2025-03-08 13:18:08.831,4.090269473767214e-05,-0.5752891706490827
2025-03-08 13:18:08.839,3.946416052585702e-05,-0.4527854523674009
2025-03-08 13:18:08.847,3.758204144262113e-05,-0.32666430401976837
2025-03-08 13:18:08.855,3.524558429027395e-05,-0.19974390603695305
2025-03-08 13:18:08.863,3.245667372619972e-05,-0.07496021189359568
2025-03-08 13:18:08.870,2.9229709218388733e-05,0.04476135346792076
2025-03-08 13:18:08.878,2.55910408702146e-05,0.1566361557261839
2025-03-08 13:18:08.886,2.15779270833786e-05,0.25814498390595586
2025-03-08 13:18:08.894,1.72370161695414e-05,0.34714571709266034
2025-03-08 13:18:08.902,1.262244066506486e-05,0.4219654286143345
2025-03-08 13:18:08.909,7.793711882172991e-06,0.48146751475566396
2025-03-08 13:18:08.917,2.8136430740729992e-06,0.5250899834970144
2025-03-08 13:18:08.925,-2.2535245133752343e-06,0.5528528447354966
2025-03-08 13:18:08.933,-7.343729357559982e-06,0.5653344774187635
2025-03-08 13:18:08.941,-1.2394464409324716e-05,0.5636187673181258
2025-03-08 13:18:08.949,-1.734599810124284e-05,0.5492165659433254
2025-03-08 13:18:08.956,-2.2142525747813607e-05,0.5239664838895358
2025-03-08 13:18:08.964,-2.6733320350127427e-05,0.48992109721078103
2025-03-08 13:18:08.972,-3.107392710847105e-05,0.44922524982279893
2025-03-08 13:18:08.980,-3.512741435658862e-05,0.40399325995611535
2025-03-08 13:18:08.988,-3.886565653524646e-05,0.3561915116705822
2025-03-08 13:18:08.995,-4.227058384857295e-05,0.30753220488574307
2025-03-08 13:18:09.003,-4.533529023049682e-05,0.2593830560191392
2025-03-08 13:18:09.011,-4.8064848181977005e-05,0.21269660894277337
2025-03-08 13:18:09.019,-5.047663963622233e-05,0.1679616475555245
2025-03-08 13:18:09.027,-5.2599989700745446e-05,0.12517808530606078
2025-03-08 13:18:09.034,-5.447491728723423e-05,0.08385569666952124
2025-03-08 13:18:09.042,-5.614992703928007e-05,0.04303616970592599
2025-03-08 13:18:09.050,-5.7678947245808544e-05,0.0013371912427221932
2025-03-08 13:18:09.058,-5.911769393525975e-05,-0.04298338922328636
2025-03-08 13:18:09.066,-6.051983752986626e-05,-0.09194584631864076
2025-03-08 13:18:09.074,-6.193335223456658e-05,-0.14775233443024346
2025-03-08 13:18:09.081,-6.339737399669366e-05,-0.21267953094145825
2025-03-08 13:18:09.089,-6.493981346534807e-05,-0.28896389837360303
2025-03-08 13:18:09.097,-6.657588022836611e-05,-0.3786835229996413
2025-03-08 13:18:09.105,-6.830757852283891e-05,-0.4836406277146566
2025-03-08 13:18:09.113,-7.012413589949182e-05,-0.6052489095629433
2025-03-08 13:18:09.120,-7.200322994235286e-05,-0.7444298168096278
2025-03-08 13:18:09.128,-7.391279712026256e-05,-0.901521757581524
2025-03-08 13:18:09.136,-7.581316603685157e-05,-1.0762060193607272
2025-03-08 13:18:09.144,-7.765926905408933e-05,-1.2674528658629385
2025-03-08 13:18:09.152,-7.940272969618925e-05,-1.4734908491550658
2025-03-08 13:18:09.159,-8.099366088183655e-05,-1.6918018157376244
2025-03-08 13:18:09.167,-8.23820395181919e-05,-1.9191433894167602
2025-03-08 13:18:09.175,-8.351858113779944e-05,-2.151599885426132
2025-03-08 13:18:09.183,-8.435514164696689e-05,-2.3846616629002977
2025-03-08 13:18:09.191,-8.484479547145885e-05,-2.6133318766054456
2025-03-08 13:18:09.199,-8.494183215851007e-05,-2.832258469508824
2025-03-08 13:18:09.206,-8.460194105418389e-05,-3.0358880875692273
2025-03-08 13:18:09.214,-8.378281364055155e-05,-3.218637438848453
2025-03-08 13:18:09.222,-8.244531007086074e-05,-3.3750765165109424
2025-03-08 13:18:09.230,-8.055523658660415e-05,-3.5001171333386067
2025-03-08 13:18:09.238,-7.808567765715684e-05,-3.5891994646603216
2025-03-08 13:18:09.245,-7.501972666456554e-05,-3.638468863529282
2025-03-08 13:18:09.253,-7.135336752716455e-05,-3.6449351787782063
2025-03-08 13:18:09.261,-6.709819048330128e-05,-3.6066072194165053
2025-03-08 13:18:09.269,-6.228360266264303e-05,-3.5225958645769024
2025-03-08 13:18:09.277,-5.695823258872505e-05,-3.393180565443296
2025-03-08 13:18:09.284,-5.119030554140611e-05,-3.219835537434986
2025-03-08 13:18:09.292,-4.506684589270293e-05,-3.0052136927588666
2025-03-08 13:18:09.300,-3.869163943144477e-05,-2.7530882089024318
2025-03-08 13:18:09.308,-3.2181987397460814e-05,-2.4682534699255037
2025-03-08 13:18:09.316,-2.566440002258381e-05,-2.156388869056978
2025-03-08 13:18:09.324,-1.926947147433118e-05,-1.8238905496945983
2025-03-08 13:18:09.331,-1.3126226203112081e-05,-1.477677524200918
2025-03-08 13:18:09.339,-7.3562405227937395e-06,-1.124979690149753
2025-03-08 13:18:09.347,-2.067843748363476e-06,-0.7731160116664659
2025-03-08 13:18:09.355,2.649299819198642e-06,-0.4292715060297456
2025-03-08 13:18:09.363,6.72893180223311e-06,-0.10028164261294352
2025-03-08 13:18:09.370,1.0131974622602025e-05,0.2075676866236619
2025-03-08 13:18:09.378,1.284906315635762e-05,0.4887173100271997
2025-03-08 13:18:09.386,1.490158243477148e-05,0.7384829079239101
2025-03-08 13:18:09.394,1.6341023154005468e-05,0.9531694637804443
2025-03-08 13:18:09.402,1.724657722172638e-05,1.130148978951856
2025-03-08 13:18:09.409,1.7721030009667604e-05,1.2679000484848526
2025-03-08 13:18:09.417,1.788512484429448e-05,1.3660094793642508
2025-03-08 13:18:09.425,1.787067368333756e-05,1.4251375647100262
2025-03-08 13:18:09.433,1.781278930546144e-05,1.4469498615779932
2025-03-08 13:18:09.441,1.784171410060505e-05,1.434019342749375
2025-03-08 13:18:09.449,1.8074779717859387e-05,1.3897036107458438
2025-03-08 13:18:09.456,1.8609027296176323e-05,1.3180024872741907
2025-03-08 13:18:09.464,1.9514962915042383e-05,1.2234017318799955
2025-03-08 13:18:09.472,2.0831840132301185e-05,1.1107089030433273
2025-03-08 13:18:09.480,2.2564763251249508e-05,0.9848874530936221
2025-03-08 13:18:09.488,2.468379568201519e-05,0.8508950424802358
2025-03-08 13:18:09.495,2.7125140417704074e-05,0.7135317625721433
2025-03-08 13:18:09.503,2.9794337398314606e-05,0.5773034572824394
2025-03-08 13:18:09.511,3.257129870231067e-05,0.44630461800744387
2025-03-08 13:18:09.519,3.531688052805462e-05,0.32412438662588783
2025-03-08 13:18:09.527,3.7880575960860876e-05,0.21377805039905481
2025-03-08 13:18:09.534,4.0108817830153056e-05,0.11766509190004167
2025-03-08 13:18:09.542,4.1853332349528344e-05,0.03755343924960331
2025-03-08 13:18:09.550,4.2979006078382585e-05,-0.025411852194525412
2025-03-08 13:18:09.558,4.3370820303539064e-05,-0.07067854655249915
2025-03-08 13:18:09.566,4.29395423649902e-05,-0.09823990862677022
2025-03-08 13:18:09.574,4.162601389270562e-05,-0.10857492295973575
2025-03-08 13:18:09.581,3.940401709797714e-05,-0.10258113373857367
2025-03-08 13:18:09.589,3.6281803571592284e-05,-0.08150502967924343
2025-03-08 13:18:09.597,3.230241010619388e-05,-0.04687433188562573
2025-03-08 13:18:09.605,2.754286279043054e-05,-0.000435646749809564
2025-03-08 13:18:09.613,2.2112310790412568e-05,0.05590017099322917
2025-03-08 13:18:09.620,1.6149071134992293e-05,0.12010381669448833
2025-03-08 13:18:09.628,9.81654169703981e-06,0.19006456581986345
2025-03-08 13:18:09.636,3.29797802684355e-06,0.26361968020989157
2025-03-08 13:18:09.644,-3.2097712253782602e-06,0.3385781974585593
2025-03-08 13:18:09.652,-9.503351261281992e-06,0.4127416926402104
2025-03-08 13:18:09.659,-1.538049150906825e-05,0.48392485871003305
2025-03-08 13:18:09.667,-2.064774084045725e-05,0.5499786627303468
2025-03-08 13:18:09.675,-2.512801102993756e-05,0.6088184076763297
2025-03-08 13:18:09.683,-2.8667642170190906e-05,0.6584583056108576
2025-03-08 13:18:09.691,-3.1142736982312865e-05,0.697053220840141
2025-03-08 13:18:09.699,-3.2464503820788115e-05,0.7229471674046082
2025-03-08 13:18:09.706,-3.2583323200902154e-05,0.7347270518431855
2025-03-08 13:18:09.714,-3.149125778085227e-05,0.7312791492702176
2025-03-08 13:18:09.722,-2.922278513758171e-05,0.7118449906166003
2025-03-08 13:18:09.730,-2.5853632916385193e-05,0.6760728070855627
2025-03-08 13:18:09.738,-2.1497713949024128e-05,0.6240604846765898
2025-03-08 13:18:09.745,-1.6302282404932773e-05,0.5563861541987215
2025-03-08 13:18:09.753,-1.0441556527250071e-05,0.47412307161570477
2025-03-08 13:18:09.761,-4.1091743945985e-06,0.37883628779670175
2025-03-08 13:18:09.769,2.4900464016136156e-06,0.27255969569882355
2025-03-08 13:18:09.777,9.148511796765639e-06,0.15775328237096856
2025-03-08 13:18:09.785,1.5663887412473856e-05,0.03724169014315116
2025-03-08 13:18:09.792,2.1846307608148908e-05,-0.08586361288749632
2025-03-08 13:18:09.800,2.7524406620969456e-05,-0.2082552456460775
2025-03-08 13:18:09.808,3.2549943770908466e-05,-0.32652986303820364
2025-03-08 13:18:09.816,3.680091699441424e-05,-0.43729266399101036
2025-03-08 13:18:09.824,4.018317535896761e-05,-0.5372618668393588
2025-03-08 13:18:09.831,4.263064836563166e-05,-0.6233687393221866
2025-03-08 13:18:09.839,4.410440329360743e-05,-0.6928492058200945
2025-03-08 13:18:09.847,4.459081118279837e-05,-0.7433237004546908
2025-03-08 13:18:09.855,4.409913293100457e-05,-0.7728627368706172
2025-03-08 13:18:09.863,4.265882784848753e-05,-0.7800365572489316
2025-03-08 13:18:09.870,4.03168523857954e-05,-0.7639481262529014
2025-03-08 13:18:09.878,3.713516062715419e-05,-0.7242495708375319
2025-03-08 13:18:09.886,3.318853058549994e-05,-0.6611428697435653
2025-03-08 13:18:09.894,2.8562735274018742e-05,-0.5753661296965449
2025-03-08 13:18:09.902,2.3352997108753562e-05,-0.4681671391070576
2025-03-08 13:18:09.910,1.7662633260205726e-05,-0.3412660741552091
2025-03-08 13:18:09.917,1.1601806820803763e-05,-0.19680926765614534
2025-03-08 13:18:09.925,5.286323115846808e-06,-0.03731586602281612
2025-03-08 13:18:09.933,-1.163558158959495e-06,0.13438097409794644
2025-03-08 13:18:09.941,-7.62429018320506e-06,0.31519692601491095
2025-03-08 13:18:09.949,-1.397015482222195e-05,0.5018621917330616
2025-03-08 13:18:09.956,-2.007430021750517e-05,0.6909891036551408
2025-03-08 13:18:09.964,-2.5809720238374657e-05,0.879140836324586
2025-03-08 13:18:09.972,-3.105026261682568e-05,1.0629005111153522
2025-03-08 13:18:09.980,-3.5671799290223056e-05,1.2389399568618886
2025-03-08 13:18:09.988,-3.95537077163732e-05,1.40408728379613
2025-03-08 13:18:09.995,-4.258080832004898e-05,1.5553922598046208
2025-03-08 13:18:10.003,-4.4645879542363675e-05,1.6901882762517593
2025-03-08 13:18:10.011,-4.565281640125827e-05,1.8061494903072302
2025-03-08 13:18:10.019,-4.5520415169153706e-05,1.9013415750782061
2025-03-08 13:18:10.027,-4.418667241109763e-05,1.9742644458916958
2025-03-08 13:18:10.035,-4.1613393546541346e-05,2.023885398216514
2025-03-08 13:18:10.042,-3.779082023465952e-05,2.049661297548507
2025-03-08 13:18:10.050,-3.2741911445147936e-05,2.051548775542258
2025-03-08 13:18:10.058,-2.652585566556321e-05,2.0300017603142866
2025-03-08 13:18:10.066,-1.924036461068503e-05,1.9859560586460123
2025-03-08 13:18:10.074,-1.1022327385859137e-05,1.9208010947769947
2025-03-08 13:18:10.081,-2.0465100531054143e-06,1.8363392994178442
2025-03-08 13:18:10.089,7.477843088901441e-06,1.7347340471035644
2025-03-08 13:18:10.097,1.7312463787089984e-05,1.6184474666869813
2025-03-08 13:18:10.105,2.7197376435943286e-05,1.4901698920700581
2025-03-08 13:18:10.113,3.6859783048422484e-05,1.3527431605066855
2025-03-08 13:18:10.120,4.602415307146639e-05,1.2090803776247
2025-03-08 13:18:10.128,5.442309490432361e-05,1.0620851155905187
2025-03-08 13:18:10.136,6.180852817699147e-05,0.9145732470624247
2025-03-08 13:18:10.144,6.796262026029823e-05,0.7692006905967659
2025-03-08 13:18:10.152,7.270790119338656e-05,0.6284002055743579
2025-03-08 13:18:10.160,7.591594073781392e-05,0.49432999684192874
2025-03-08 13:18:10.167,7.751398492038112e-05,0.36883627167021116
2025-03-08 13:18:10.175,7.748903131440661e-05,0.2534310729781409
2025-03-08 13:18:10.183,7.588897155928631e-05,0.14928576754246994
2025-03-08 13:18:10.191,7.282062032644932e-05,0.05723959131313312
2025-03-08 13:18:10.199,6.844465482696872e-05,-0.02217826013663771
2025-03-08 13:18:10.206,6.296769330085047e-05,-0.08871528476630665
2025-03-08 13:18:10.214,5.663193810765417e-05,-0.14235394926726275
2025-03-08 13:18:10.222,4.970299249312902e-05,-0.1832648386644397
2025-03-08 13:18:10.230,4.245661531120357e-05,-0.21175807703141022
2025-03-08 13:18:10.238,3.516527799993919e-05,-0.2282363302140593
2025-03-08 13:18:10.245,2.808540593385414e-05,-0.2331524009720949
2025-03-08 13:18:10.253,2.144611207534134e-05,-0.22697394602948917
2025-03-08 13:18:10.261,1.5440069106130555e-05,-0.2101572332239735
2025-03-08 13:18:10.269,1.0216932346290914e-05,-0.18313117068181314
2025-03-08 13:18:10.277,5.879460221950931e-06,-0.14629212553117985
2025-03-08 13:18:10.285,2.4822393695279752e-06,-0.10000933639662683
2025-03-08 13:18:10.292,3.2747672952401885e-08,-0.04464002659259582
2025-03-08 13:18:10.300,-1.5056064595259707e-06,0.01944734268132458
2025-03-08 13:18:10.308,-2.2088528808737017e-06,0.09184385199683613
2025-03-08 13:18:10.316,-2.1866029848170376e-06,0.17206762651610952
2025-03-08 13:18:10.324,-1.575315359694806e-06,0.25953113145351275
2025-03-08 13:18:10.331,-5.310146555643453e-07,0.35351153061981394
2025-03-08 13:18:10.339,7.782532974957577e-07,0.4531273651942702
2025-03-08 13:18:10.347,2.1800342078611555e-06,0.5573245493380098
2025-03-08 13:18:10.355,3.5050365443941845e-06,0.6648741488941711
2025-03-08 13:18:10.363,4.594590218242771e-06,0.7743836111074549
2025-03-08 13:18:10.370,5.3079001985259775e-06,0.88432208538334
2025-03-08 13:18:10.378,5.528943252895147e-06,0.9930592956420551
2025-03-08 13:18:10.386,5.172784217989391e-06,1.098916204337074
2025-03-08 13:18:10.394,4.19101692683525e-06,1.200224573077446
2025-03-08 13:18:10.402,2.575970883172189e-06,1.2953915960181706
2025-03-08 13:18:10.410,3.632811895182779e-07,1.3829651578170319
2025-03-08 13:18:10.417,-2.3675782133944514e-06,1.4616950139320588
2025-03-08 13:18:10.425,-5.495125140096991e-06,1.5305853375194218
2025-03-08 13:18:10.433,-8.860248892896308e-06,1.5889346160520188
2025-03-08 13:18:10.441,-1.2273140118142303e-05,1.6363597646770875
2025-03-08 13:18:10.449,-1.5522573173857123e-05,1.6728024696517636
2025-03-08 13:18:10.456,-1.8387146392567965e-05,1.6985170759853585
2025-03-08 13:18:10.464,-2.0647898133727916e-05,1.7140406700637016
2025-03-08 13:18:10.472,-2.210154647375254e-05,1.7201472673002842
2025-03-08 13:18:10.480,-2.2573465282838766e-05,1.7177891014457185
2025-03-08 13:18:10.488,-2.1929447152344123e-05,1.7080288546744
2025-03-08 13:18:10.495,-2.0085361198329884e-05,1.6919672187316181
2025-03-08 13:18:10.503,-1.7014003256373348e-05,1.6706704123071063
2025-03-08 13:18:10.511,-1.2748706355137672e-05,1.6451021948569646
2025-03-08 13:18:10.519,-7.383554098591824e-06,1.616064531465826
2025-03-08 13:18:10.527,-1.0702780939176888e-06,1.5841504192005786
2025-03-08 13:18:10.535,5.9878739455741025e-06,1.5497115425369796
2025-03-08 13:18:10.542,1.3544834225167964e-05,1.5128424503975593
2025-03-08 13:18:10.550,2.1322375644069978e-05,1.4733819042113532
2025-03-08 13:18:10.558,2.9022072375190023e-05,1.4309309941695723
2025-03-08 13:18:10.566,3.633789922151477e-05,1.3848866150228505
2025-03-08 13:18:10.574,4.296885807080046e-05,1.3344879865942472
2025-03-08 13:18:10.581,4.863108930331974e-05,1.2788731473817032
2025-03-08 13:18:10.589,5.30690032852082e-05,1.2171417855625413
2025-03-08 13:18:10.597,5.60650480598106e-05,1.148420434953143
2025-03-08 13:18:10.605,5.744781199245127e-05,1.0719259778350232
2025-03-08 13:18:10.613,5.709824278610405e-05,0.9870235719347409
2025-03-08 13:18:10.620,5.4953845707899314e-05,0.8932755471772967
2025-03-08 13:18:10.628,5.101080314428414e-05,0.7904784715957094
2025-03-08 13:18:10.636,4.53240341330872e-05,0.6786864203052404
2025-03-08 13:18:10.644,3.800528593587661e-05,0.5582194381817108
2025-03-08 13:18:10.652,2.921941817777635e-05,0.4296571959075836
2025-03-08 13:18:10.660,1.9179093771684167e-05,0.2938188234625828
2025-03-08 13:18:10.667,8.138109008098786e-06,0.15173078927995567
2025-03-08 13:18:10.675,-3.6164335897609265e-06,0.004585412078416055
2025-03-08 13:18:10.683,-1.5772955828300397e-05,-0.14630690314113057
2025-03-08 13:18:10.691,-2.8005105544562873e-05,-0.2995683549280354
2025-03-08 13:18:10.699,-3.998216540361838e-05,-0.4538040116363476
2025-03-08 13:18:10.706,-5.137993283673012e-05,-0.6076485552345645
2025-03-08 13:18:10.714,-6.189174634746283e-05,-0.759806869868406
2025-03-08 13:18:10.722,-7.123924227607338e-05,-0.9090864668717064
2025-03-08 13:18:10.730,-7.918234780163195e-05,-1.05442044938391
2025-03-08 13:18:10.738,-8.552797700160066e-05,-1.1948804443046925
2025-03-08 13:18:10.745,-9.013692267747222e-05,-1.3296796044351262
2025-03-08 13:18:10.753,-9.292852808729976e-05,-1.4581663696434743
2025-03-08 13:18:10.761,-9.388285552006834e-05,-1.57981015988336
2025-03-08 13:18:10.769,-9.304021737651789e-05,-1.694180561683168
2025-03-08 13:18:10.777,-9.049808731434968e-05,-1.800921874195073
2025-03-08 13:18:10.785,-8.64055594545374e-05,-1.8997251013999574
2025-03-08 13:18:10.792,-8.095566970588421e-05,-1.9902996005280957
2025-03-08 13:18:10.800,-7.437603044074543e-05,-2.072346606720593
2025-03-08 13:18:10.808,-6.691834549956652e-05,-2.145536742491589
2025-03-08 13:18:10.816,-5.884744173120343e-05,-2.2094933897253295
2025-03-08 13:18:10.824,-5.043045227070539e-05,-2.2637834556922356
2025-03-08 13:18:10.831,-4.192671679744513e-05,-2.307916603935684
2025-03-08 13:18:10.839,-3.357885131484023e-05,-2.341353451869661
2025-03-08 13:18:10.847,-2.560531191456298e-05,-2.363522584652171
2025-03-08 13:18:10.855,-1.8194648019778428e-05,-2.3738455488103316
2025-03-08 13:18:10.863,-1.1501516728721674e-05,-2.371768332657183
2025-03-08 13:18:10.870,-5.644414939319332e-06,-2.356797275117301
2025-03-08 13:18:10.878,-7.049831856733841e-07,-2.328536921636703
2025-03-08 13:18:10.886,3.2713511729132104e-06,-2.2867271091862262
2025-03-08 13:18:10.894,6.2736819005910365e-06,-2.231276549489178
2025-03-08 13:18:10.902,8.323181442945603e-06,-2.162290413859696
2025-03-08 13:18:10.910,9.47015243966205e-06,-2.080089899820498
2025-03-08 13:18:10.917,9.790727452046203e-06,-1.9852224374580367
2025-03-08 13:18:10.925,9.383295330168954e-06,-1.8784619973142367
2025-03-08 13:18:10.933,8.364697833750093e-06,-1.7607997974713345
2025-03-08 13:18:10.941,6.866235621326731e-06,-1.63342647989992
2025-03-08 13:18:10.949,5.029528390644328e-06,-1.4977074529360719
2025-03-08 13:18:10.956,3.002280515154589e-06,-1.355153518806548
2025-03-08 13:18:10.964,9.340096767401134e-07,-1.2073890916174843
2025-03-08 13:18:10.972,-1.0281980473100466e-06,-1.0561202611625218
2025-03-08 13:18:10.980,-2.7438373525323325e-06,-0.9031046974944674
2025-03-08 13:18:10.988,-4.082962211358006e-06,-0.750124966425679
2025-03-08 13:18:10.995,-4.929913600043054e-06,-0.598966292404873
2025-03-08 13:18:11.003,-5.186711954913851e-06,-0.4513992182937248
2025-03-08 13:18:11.011,-4.776026804331489e-06,-0.30916702165669413
2025-03-08 13:18:11.019,-3.6436348946903055e-06,-0.17397719579051008
2025-03-08 13:18:11.027,-1.7602796142678524e-06,-0.047495822860091776
2025-03-08 13:18:11.035,8.771506709890337e-07,0.06865671852353106
2025-03-08 13:18:11.042,4.245198925766665e-06,0.1729105335636244
2025-03-08 13:18:11.050,8.294230475032307e-06,0.26375341655437023
2025-03-08 13:18:11.058,1.2949680191646445e-05,0.33974234970278344
2025-03-08 13:18:11.066,1.8114173129153025e-05,0.39952088206354847
2025-03-08 13:18:11.074,2.367050609472226e-05,0.4418434692781071
2025-03-08 13:18:11.081,2.948544234226488e-05,0.4656071483052406
2025-03-08 13:18:11.089,3.5414231136111224e-05,0.46989007612342026
2025-03-08 13:18:11.097,4.130571911141031e-05,0.45399556731785884
2025-03-08 13:18:11.105,4.7007872183212973e-05,0.4174994201273705
2025-03-08 13:18:11.113,5.237347660093567e-05,0.36029761328332677
2025-03-08 13:18:11.120,5.7265737287208866e-05,0.2826509621860494
2025-03-08 13:18:11.128,6.156344442423207e-05,0.18522310117245314
2025-03-08 13:18:11.136,6.516534723650493e-05,0.0691082435210467
2025-03-08 13:18:11.144,6.79933816649772e-05,-0.06415443476648794
2025-03-08 13:18:11.152,6.999446947268492e-05,-0.2125822690145968
2025-03-08 13:18:11.160,7.11407386355765e-05,-0.37376803104274203
2025-03-08 13:18:11.167,7.142818206060704e-05,-0.544916878727342
2025-03-08 13:18:11.175,7.087394427376646e-05,-0.7229008459377115
2025-03-08 13:18:11.183,6.95125789639196e-05,-0.9043293844951408
2025-03-08 13:18:11.191,6.739172519587188e-05,-1.0856335933343713
2025-03-08 13:18:11.199,6.45676811215171e-05,-1.2631610756271316
2025-03-08 13:18:11.206,6.110131095973153e-05,-1.433277882484815
2025-03-08 13:18:11.214,5.705462912924275e-05,-1.5924737343777915
2025-03-08 13:18:11.222,5.248829160413851e-05,-1.737466632321499
2025-03-08 13:18:11.230,4.746010333977518e-05,-1.865303033266317
2025-03-08 13:18:11.238,4.202452848726458e-05,-1.9734499181017386
2025-03-08 13:18:11.245,3.623307349574617e-05,-2.0598752941503458
2025-03-08 13:18:11.253,3.013531637544397e-05,-2.1231139455077197
2025-03-08 13:18:11.261,2.378030325667592e-05,-2.1623156001682435
2025-03-08 13:18:11.269,1.721804099805601e-05,-2.17727315898962
2025-03-08 13:18:11.277,1.0500860636981748e-05,-2.1684292534174094
2025-03-08 13:18:11.285,3.6844735578233327e-06,-2.1368601648809804
2025-03-08 13:18:11.292,-3.171412818684508e-06,-2.084237016354048
2025-03-08 13:18:11.300,-1.0002985665334849e-05,-2.0127650812707953
2025-03-08 13:18:11.308,-1.6742703667323584e-05,-1.9251029881040538
2025-03-08 13:18:11.316,-2.3320074611808607e-05,-1.8242644839729778
2025-03-08 13:18:11.324,-2.9662726149539785e-05,-1.713506229044528
2025-03-08 13:18:11.331,-3.5697671708971926e-05,-1.596205807191965
2025-03-08 13:18:11.339,-4.135269277468343e-05,-1.4757347352617538
2025-03-08 13:18:11.347,-4.6557777227901133e-05,-1.3553316947092227
2025-03-08 13:18:11.355,-5.124656896077113e-05,-1.2379814385831558
2025-03-08 13:18:11.363,-5.53577961391693e-05,-1.126304781666691
2025-03-08 13:18:11.370,-5.883665414905484e-05,-1.0224647163312444
2025-03-08 13:18:11.378,-6.163612448788883e-05,-0.9280930036506778
2025-03-08 13:18:11.386,-6.371821293384806e-05,-0.8442406084296477
2025-03-08 13:18:11.394,-6.505508970939376e-05,-0.7713541567860172
2025-03-08 13:18:11.402,-6.563011168348972e-05,-0.7092792917190383
2025-03-08 13:18:11.410,-6.543870269101736e-05,-0.6572904774695902
2025-03-08 13:18:11.417,-6.448906364570745e-05,-0.6141455340033246
2025-03-08 13:18:11.425,-6.280268019480063e-05,-0.578162029406568
2025-03-08 13:18:11.433,-6.04145931304166e-05,-0.5473116703940051
2025-03-08 13:18:11.441,-5.737339652033577e-05,-0.5193280534953346
2025-03-08 13:18:11.449,-5.3740931356124104e-05,-0.49182260880192574
2025-03-08 13:18:11.456,-4.959164912278677e-05,-0.46240330629516135
2025-03-08 13:18:11.464,-4.501163059121272e-05,-0.4287906995849057
2025-03-08 13:18:11.472,-4.009726064211552e-05,-0.3889261269813663
2025-03-08 13:18:11.480,-3.495357851140421e-05,-0.3410673369530876
2025-03-08 13:18:11.488,-2.969233627618249e-05,-0.2838674215977569
2025-03-08 13:18:11.495,-2.4429795324121556e-05,-0.21643371083216364
2025-03-08 13:18:11.503,-1.9284279676412207e-05,-0.13836419619965654
2025-03-08 13:18:11.511,-1.4373521281749795e-05,-0.04976010871060591
2025-03-08 13:18:11.519,-9.811888354955498e-06,0.048785555116574696
2025-03-08 13:18:11.527,-5.707637489532666e-06,0.15622253253149732
2025-03-08 13:18:11.535,-2.1603228408314473e-06,0.2710985760628125
2025-03-08 13:18:11.542,7.415557668800184e-07,0.3916321680127308
2025-03-08 13:18:11.550,2.9226306118095974e-06,0.5157984168691757
2025-03-08 13:18:11.558,4.3224653060672526e-06,0.6414232620132964
2025-03-08 13:18:11.566,4.897109751762043e-06,0.7662808126623462
2025-03-08 13:18:11.574,4.620489207830525e-06,0.8881886762669622
2025-03-08 13:18:11.581,3.485718639160621e-06,1.0050964696402496
2025-03-08 13:18:11.589,1.5063940784809347e-06,1.1151633138991468
2025-03-08 13:18:11.597,-1.2821636221466948e-06,1.2168209410265554
2025-03-08 13:18:11.605,-4.8218256279131515e-06,1.30882002384896
2025-03-08 13:18:11.613,-9.03093021649359e-06,1.3902584113112781
2025-03-08 13:18:11.620,-1.3804179261660775e-05,1.4605910325268152
2025-03-08 13:18:11.628,-1.9013439194511128e-05,1.5196222564502133
2025-03-08 13:18:11.636,-2.450967944218308e-05,1.5674823998972796
2025-03-08 13:18:11.644,-3.0126163744849483e-05,1.6045908180422668
2025-03-08 13:18:11.652,-3.5682860718658674e-05,1.6316085548247612
2025-03-08 13:18:11.660,-4.09919099396972e-05,1.6493838580666915
2025-03-08 13:18:11.667,-4.5863905423392366e-05,1.658893975863505
2025-03-08 13:18:11.675,-5.0114741906616784e-05,1.6611865650115771
2025-03-08 13:18:11.683,-5.3572778504776826e-05,1.6573237903842857
2025-03-08 13:18:11.691,-5.608606471419768e-05,1.6483318139485588
2025-03-08 13:18:11.699,-5.7529323151077055e-05,1.6351578993749554
2025-03-08 13:18:11.706,-5.781031548859567e-05,1.6186368222113368
2025-03-08 13:18:11.714,-5.687518180418121e-05,1.5994677002448556
2025-03-08 13:18:11.722,-5.471236433781632e-05,1.5782017677489273
2025-03-08 13:18:11.730,-5.1354792154273956e-05,1.5552410377366264
2025-03-08 13:18:11.738,-4.688009145217508e-05,1.530847255103284
2025-03-08 13:18:11.745,-4.1408686030824326e-05,1.505160061648491
2025-03-08 13:18:11.753,-3.509976029211712e-05,1.4782228850582613
2025-03-08 13:18:11.761,-2.8145171059853906e-05,1.4500147385457343
2025-03-08 13:18:11.769,-2.0761512097813807e-05,1.420485886000568
2025-03-08 13:18:11.777,-1.3180653859877801e-05,1.3895951943821399
2025-03-08 13:18:11.785,-5.639197774392371e-06,1.3573469548558916
2025-03-08 13:18:11.792,1.6326055880268202e-06,1.3238249899239904
2025-03-08 13:18:11.800,8.421834929790642e-06,1.2892219551759356
2025-03-08 13:18:11.808,1.4543089239996111e-05,1.2538618771930858
2025-03-08 13:18:11.816,1.9847233320841243e-05,1.2182141430634263
2025-03-08 13:18:11.824,2.422813563605316e-05,1.182897387971507
2025-03-08 13:18:11.831,2.762697846458884e-05,1.1486720453834354
2025-03-08 13:18:11.839,3.003389021744514e-05,1.11642076440347
2025-03-08 13:18:11.847,3.148684429089246e-05,1.087116487734809
2025-03-08 13:18:11.855,3.206797117672166e-05,1.061778725352655
2025-03-08 13:18:11.863,3.189759118884062e-05,1.0414194222852402
2025-03-08 13:18:11.870,3.1126354282663854e-05,1.0269807331156147
2025-03-08 13:18:11.878,2.9925892796858773e-05,1.0192678800271917
2025-03-08 13:18:11.886,2.8478412153246486e-05,1.0188809747518286
2025-03-08 13:18:11.894,2.6965695264774217e-05,1.026150129703618
2025-03-08 13:18:11.902,2.555806637818412e-05,1.041078301770595
2025-03-08 13:18:11.910,2.4403924492712287e-05,1.0632960758970889
2025-03-08 13:18:11.917,2.3620493518941348e-05,1.0920320206448026
2025-03-08 13:18:11.925,2.3286419852002317e-05,1.1261013892045213
2025-03-08 13:18:11.933,2.3436755156793218e-05,1.1639148801789965
2025-03-08 13:18:11.941,2.406069534643981e-05,1.203508012722987
2025-03-08 13:18:11.949,2.510223535403129e-05,1.2425905135803819
2025-03-08 13:18:11.956,2.64636823544705e-05,1.2786140508507564
2025-03-08 13:18:11.964,2.8011785060930384e-05,1.3088557474902802
2025-03-08 13:18:11.972,2.95861035765708e-05,1.3305142022873497
2025-03-08 13:18:11.980,3.1009145355073024e-05,1.3408142455142746
2025-03-08 13:18:11.988,3.2097694746574514e-05,1.337116348931151
2025-03-08 13:18:11.995,3.267466912822907e-05,1.3170264709240127
2025-03-08 13:18:12.003,3.25807825777328e-05,1.278502116337016
2025-03-08 13:18:12.011,3.1685311497761584e-05,1.2199504962319483
2025-03-08 13:18:12.019,2.989532241655882e-05,1.1403148624929487
2025-03-08 13:18:12.027,2.7162817591108807e-05,1.0391453568211688
