Timestamp,GSR_Filtered,PPG_Filtered,FMSQ
2025-03-08 13:22:07.955,-0.0002080264277737,-8.772681493030532,1
2025-03-08 13:22:07.963,-0.0002189216629923,-8.881632617067877,1
2025-03-08 13:22:07.970,-0.0002273779317831,-9.01574757544206,1
2025-03-08 13:22:07.978,-0.0002332372711065,-9.173406004776083,1
2025-03-08 13:22:07.986,-0.000236407521857,-9.35207919173866,1
2025-03-08 13:22:07.994,-0.0002368642167988,-9.54839055441301,1
2025-03-08 13:22:08.002,-0.0002346504994825,-9.75819556425136,1
2025-03-08 13:22:08.010,-0.0002298749427708,-9.976680130665365,1
2025-03-08 13:22:08.017,-0.0002227072379459,-10.198476232840164,1
2025-03-08 13:22:08.025,-0.0002133718778011,-10.41779316291352,1
2025-03-08 13:22:08.033,-0.0002021401245956,-10.628562160401804,1
2025-03-08 13:22:08.041,-0.0001893206874319,-10.824591518260751,1
2025-03-08 13:22:08.049,-0.0001752495987453,-10.99972850183699,1
2025-03-08 13:22:08.056,-0.0001602797745761,-11.148023740870396,1
2025-03-08 13:22:08.064,-0.0001447706932406,-11.263893235856104,1
2025-03-08 13:22:08.072,-0.000129078558265,-11.342272850783871,1
2025-03-08 13:22:08.080,-0.0001135472375832,-11.378760195683348,1
2025-03-08 13:22:08.088,-9.850019712225424e-05,-11.36973914225402,1
2025-03-08 13:22:08.095,-8.42335760566624e-05,-11.31248283216743,1
2025-03-08 13:22:08.103,-7.101048565841485e-05,-11.20523186937404,1
2025-03-08 13:22:08.111,-5.905655568599049e-05,-11.04724535974138,1
2025-03-08 13:22:08.119,-4.855670290926477e-05,-10.838823499158798,1
2025-03-08 13:22:08.127,-3.965305630475864e-05,-10.581301450665784,1
2025-03-08 13:22:08.135,-3.244394276300558e-05,-10.2770152408903,1
2025-03-08 13:22:08.142,-2.698381537927635e-05,-9.929241307451644,1
2025-03-08 13:22:08.150,-2.3283992653072e-05,-9.542112115978234,1
2025-03-08 13:22:08.158,-2.1314069933915944e-05,-9.120510923805298,1
2025-03-08 13:22:08.166,-2.100386268207487e-05,-8.669949290873825,1
2025-03-08 13:22:08.174,-2.2245744480027635e-05,-8.1964313221182,1
2025-03-08 13:22:08.181,-2.489725914769035e-05,-7.706308862226735,1
2025-03-08 13:22:08.189,-2.878393465533377e-05,-7.206131943721306,1
2025-03-08 13:22:08.197,-3.370231638675468e-05,-6.702498706535311,1
2025-03-08 13:22:08.205,-3.942334098342606e-05,-6.201908762961727,1
2025-03-08 13:22:08.213,-4.569623859675218e-05,-5.7106235869573485,1
2025-03-08 13:22:08.220,-5.2253154299765465e-05,-5.234536983865074,1
2025-03-08 13:22:08.228,-5.881463043604845e-05,-4.779058082388074,1
2025-03-08 13:22:08.236,-6.509601286996745e-05,-4.349008636368862,1
2025-03-08 13:22:08.244,-7.081474744739532e-05,-3.948535791219155,1
2025-03-08 13:22:08.252,-7.56984232500867e-05,-3.5810409233939837,1
2025-03-08 13:22:08.260,-7.949330197539488e-05,-3.249124758719168,1
2025-03-08 13:22:08.267,-8.197296229362908e-05,-2.9545487531401693,1
2025-03-08 13:22:08.275,-8.294661174895969e-05,-2.698212678857416,1
2025-03-08 13:22:08.283,-8.226660317608902e-05,-2.480148461409032,1
2025-03-08 13:22:08.291,-7.983473949595805e-05,-2.2995304907824554,1
2025-03-08 13:22:08.299,-7.560703712854896e-05,-2.154702802418208,1
2025-03-08 13:22:08.306,-6.959671994364279e-05,-2.043223616828902,1
2025-03-08 13:22:08.314,-6.187532119501949e-05,-1.9619276766596805,1
2025-03-08 13:22:08.322,-5.2571875349617066e-05,-1.907006580963032,1
2025-03-08 13:22:08.330,-4.1870273881022507e-05,-1.8741068652117363,1
2025-03-08 13:22:08.338,-3.0004915188337717e-05,-1.8584449215189744,1
2025-03-08 13:22:08.345,-1.725477803947227e-05,-1.8549370415150783,1
2025-03-08 13:22:08.353,-3.936004138911646e-06,-1.858341966075412,1
2025-03-08 13:22:08.361,9.6069538447686e-06,-1.8634124246973909,1
2025-03-08 13:22:08.369,2.3011517195919257e-05,-1.8650513242275384,1
2025-03-08 13:22:08.377,3.590827615807469e-05,-1.8584675755726008,1
2025-03-08 13:22:08.385,4.793303532536263e-05,-1.8393260920704049,1
2025-03-08 13:22:08.392,5.873914898171602e-05,-1.8038863053094232,1
2025-03-08 13:22:08.400,6.800962172247472e-05,-1.749123654079597,1
2025-03-08 13:22:08.408,7.546841334901207e-05,-1.6728289142104655,1
2025-03-08 13:22:08.416,8.089039544605826e-05,-1.5736809307961883,1
2025-03-08 13:22:08.424,8.410947269139021e-05,-1.451289252059861,1
2025-03-08 13:22:08.431,8.502448956397472e-05,-1.3062042975190906,1
2025-03-08 13:22:08.439,8.36026698026836e-05,-1.1398939642694788,1
2025-03-08 13:22:08.447,7.988046984415833e-05,-0.954686916869746,1
2025-03-08 13:22:08.455,7.396186315983365e-05,-0.7536841477142344,1
2025-03-08 13:22:08.463,6.601419812612498e-05,-0.5406416727427998,1
2025-03-08 13:22:08.470,5.626186504901721e-05,-0.3198283953902234,1
2025-03-08 13:22:08.478,4.497805480202008e-05,-0.0958641993229499,1
2025-03-08 13:22:08.486,3.247491618263638e-05,0.1264558078002595,1
2025-03-08 13:22:08.494,1.9092468838489668e-05,0.3423443149786345,1
2025-03-08 13:22:08.502,5.186724989366109e-06,0.547205090389562,1
2025-03-08 13:22:08.510,-8.882410123174714e-06,0.7368093973318262,1
2025-03-08 13:22:08.517,-2.276280900084761e-05,0.907458615621936,1
2025-03-08 13:22:08.525,-3.612072795983674e-05,1.056126673070977,1
2025-03-08 13:22:08.533,-4.864984311799853e-05,1.1805767259953155,1
2025-03-08 13:22:08.541,-6.007842064028361e-05,1.2794476006122335,1
2025-03-08 13:22:08.549,-7.017453903815375e-05,1.3523067356964555,1
2025-03-08 13:22:08.556,-7.87494363124863e-05,1.3996676665507104,1
2025-03-08 13:22:08.564,-8.565913562112485e-05,1.4229713936211943,1
2025-03-08 13:22:08.572,-9.080452996874156e-05,1.4245322475537463,1
2025-03-08 13:22:08.580,-9.41301047129186e-05,1.4074500866811603,1
2025-03-08 13:22:08.588,-9.562146833209656e-05,1.37549184889277,1
2025-03-08 13:22:08.595,-9.53018739380667e-05,1.3329466286163614,1
2025-03-08 13:22:08.603,-9.322796937561893e-05,1.2844595403399526,1
2025-03-08 13:22:08.611,-8.948510106147438e-05,1.2348506152164902,1
2025-03-08 13:22:08.619,-8.41825593043738e-05,1.1889257909410604,1
2025-03-08 13:22:08.627,-7.744912345332299e-05,1.151287626578924,1
2025-03-08 13:22:08.635,-6.942912550363852e-05,1.1261536392753362,1
2025-03-08 13:22:08.642,-6.02790613242812e-05,1.117190068904749,1
2025-03-08 13:22:08.650,-5.01646375634654e-05,1.1273684001005515,1
2025-03-08 13:22:08.658,-3.925810170449207e-05,1.1588511046671293,1
2025-03-08 13:22:08.666,-2.773573111625937e-05,1.2129118336526243,1
2025-03-08 13:22:08.674,-1.5775387397724628e-05,1.2898937309444929,1
2025-03-08 13:22:08.681,-3.554043589313223e-06,1.389207717019069,1
2025-03-08 13:22:08.689,8.754814248699669e-06,1.5093705768033443,1
2025-03-08 13:22:08.697,2.0983979841061057e-05,1.6480805815736852,1
2025-03-08 13:22:08.705,3.297549655202352e-05,1.8023263172862665,1
2025-03-08 13:22:08.713,4.458367840773943e-05,1.968522541371604,1
2025-03-08 13:22:08.720,5.567799607960547e-05,2.1426654127646523,1
2025-03-08 13:22:08.728,6.614566598437401e-05,2.3204984827388118,1
2025-03-08 13:22:08.736,7.589384501075401e-05,2.4976804982204466,1
2025-03-08 13:22:08.744,8.485135752268286e-05,2.6699463886407124,1
2025-03-08 13:22:08.752,9.296984206395932e-05,2.833253741722192,1
2025-03-08 13:22:08.760,0.0001002241617769,2.983908516816761,1
2025-03-08 13:22:08.767,0.0001066119442058,3.118665543059797,1
2025-03-08 13:22:08.775,0.0001121522111783,3.2348013262195456,1
2025-03-08 13:22:08.783,0.0001168831813183,3.3301586651666195,1
2025-03-08 13:22:08.791,0.0001208594207475,3.4031643981869384,1
2025-03-08 13:22:08.799,0.0001241485547475,3.4528231336184048,1
2025-03-08 13:22:08.806,0.0001268277536444,3.478690976128378,1
2025-03-08 13:22:08.814,0.0001289802065747,3.4808339820922383,1
2025-03-08 13:22:08.822,0.0001306917978183,3.45977634433444,1
2025-03-08 13:22:08.830,0.0001320481667818,3.4164431381102363,1
2025-03-08 13:22:08.838,0.000133132246694,3.3521019183281875,1
2025-03-08 13:22:08.845,0.0001340222650177,3.26830663722625,1
2025-03-08 13:22:08.853,0.0001347900989329,3.166846364771985,1
2025-03-08 13:22:08.861,0.0001354998481117,3.049700257684376,1
2025-03-08 13:22:08.869,0.0001362065172646,2.918999244755081,1
2025-03-08 13:22:08.877,0.0001369547686368,2.7769940611291424,1
2025-03-08 13:22:08.885,0.0001377777843429,2.6260286257152923,1
2025-03-08 13:22:08.892,0.0001386963555494,2.468517336446361,1
2025-03-08 13:22:08.900,0.000139718375525,2.3069246577035343,1
2025-03-08 13:22:08.908,0.0001408389311158,2.143745376602689,1
2025-03-08 13:22:08.916,0.0001420411385047,1.981484078486976,1
2025-03-08 13:22:08.924,0.0001432977573059,1.8226326924660992,1
2025-03-08 13:22:08.931,0.0001445734785734,1.6696453364889492,1
2025-03-08 13:22:08.939,0.0001458276676629,1.5249101050749607,1
2025-03-08 13:22:08.947,0.0001470172887031,1.390717857609089,1
2025-03-08 13:22:08.955,0.0001480997471533,1.2692284536475704,1
2025-03-08 13:22:08.963,0.0001490354372639,1.1624352190769165,1
2025-03-08 13:22:08.971,0.0001497898474781,1.072128690307376,1
2025-03-08 13:22:08.978,0.0001503351467108,0.9998608548142808,1
2025-03-08 13:22:08.986,0.0001506512439175,0.9469111742796272,1
2025-03-08 13:22:08.994,0.0001507263784118,0.9142556380261048,1
2025-03-08 13:22:09.002,0.0001505573470792,0.902539954619734,1
2025-03-08 13:22:09.010,0.0001501494843168,0.9120577650591674,1
2025-03-08 13:22:09.017,0.0001495164681803,0.9427344822295264,1
2025-03-08 13:22:09.025,0.000148679956621,0.9941170716026908,1
2025-03-08 13:22:09.033,0.0001476690094115,1.0653698401190477,1
2025-03-08 13:22:09.041,0.0001465192493534,1.1552761479860938,1
2025-03-08 13:22:09.049,0.0001452717479811,1.2622459426701564,1
2025-03-08 13:22:09.056,0.0001439716641214,1.3843291447599235,1
2025-03-08 13:22:09.064,0.0001426667071105,1.5192351592005,1
2025-03-08 13:22:09.072,0.0001414055354459,1.6643590755852506,1
2025-03-08 13:22:09.080,0.0001402362249824,1.8168153746375453,1
2025-03-08 13:22:09.088,0.0001392049264506,1.973480093692011,1
2025-03-08 13:22:09.096,0.0001383547675766,2.1310423544885837,1
2025-03-08 13:22:09.103,0.0001377249655793,2.286065876427525,1
2025-03-08 13:22:09.111,0.0001373500501519,2.4350605741967994,1
2025-03-08 13:22:09.119,0.000137259080327,2.574563599428511,1
2025-03-08 13:22:09.127,0.0001374747582965,2.701228305663196,1
2025-03-08 13:22:09.135,0.0001380123771963,2.8119187004707134,1
2025-03-08 13:22:09.142,0.0001388785767857,2.903806111070843,1
2025-03-08 13:22:09.150,0.0001400699176034,2.974464124879097,1
2025-03-08 13:22:09.158,0.0001415713189493,3.021957437730812,1
2025-03-08 13:22:09.166,0.0001433544373839,3.044920084322001,1
2025-03-08 13:22:09.174,0.0001453760889163,3.042618650331048,1
2025-03-08 13:22:09.181,0.000147576838384,3.014996471317876,1
2025-03-08 13:22:09.189,0.0001498798926556,2.962695495712897,1
2025-03-08 13:22:09.197,0.0001521904393608,2.887053404050022,1
2025-03-08 13:22:09.205,0.0001543955693383,2.7900746994456056,1
2025-03-08 13:22:09.213,0.0001563649086517,2.674375764825076,1
2025-03-08 13:22:09.221,0.0001579520649574,2.543105248248557,1
2025-03-08 13:22:09.228,0.0001589969636842,2.399842493898075,1
2025-03-08 13:22:09.236,0.0001593291127221,2.2484779745880803,1
2025-03-08 13:22:09.244,0.0001587717913126,2.0930806987066632,1
2025-03-08 13:22:09.252,0.000157147111116,1.9377582813232488,1
2025-03-08 13:22:09.260,0.00015428184687,1.7865157421591022,1
2025-03-08 13:22:09.267,0.0001500138827967,1.6431191118715285,1
2025-03-08 13:22:09.275,0.0001441990713396,1.5109696059031736,1
2025-03-08 13:22:09.283,0.0001367182554721,1.3929934910996946,1
2025-03-08 13:22:09.291,0.0001274841673606,1.2915518681261071,1
2025-03-08 13:22:09.299,0.0001164478872242,1.2083734831259334,1
2025-03-08 13:22:09.306,0.0001036045293725,1.144512444186699,1
2025-03-08 13:22:09.314,8.899781996783551e-05,1.10033144688246,1
2025-03-08 13:22:09.322,7.27232450814516e-05,1.0755099102928465,1
2025-03-08 13:22:09.330,5.492947972108828e-05,1.069075385121478,1
2025-03-08 13:22:09.338,3.581785977277276e-05,1.079455791109876,1
2025-03-08 13:22:09.346,1.563972967350111e-05,1.1045495091628563,1
2025-03-08 13:22:09.353,-5.30841116771597e-06,1.1418100898346355,1
2025-03-08 13:22:09.361,-2.6691931737726418e-05,1.1883422992940271,1
2025-03-08 13:22:09.369,-4.8147106364031953e-05,1.2410063337651926,1
2025-03-08 13:22:09.377,-6.929187242388571e-05,1.2965272119112663,1
2025-03-08 13:22:09.385,-8.973788095358977e-05,1.351606528887555,1
2025-03-08 13:22:09.392,-0.0001091033055904,1.403033872567072,1
2025-03-08 13:22:09.400,-0.0001270258231483,1.447795232636258,1
2025-03-08 13:22:09.408,-0.0001431751834903,1.483175675863756,1
2025-03-08 13:22:09.416,-0.0001572648247988,1.5068534453694702,1
2025-03-08 13:22:09.424,-0.000169062039736,1.5169825239195842,1
2025-03-08 13:22:09.431,-0.0001783962500457,1.5122606511451735,1
2025-03-08 13:22:09.439,-0.0001851650102915,1.491979871305628,1
2025-03-08 13:22:09.447,-0.000189337457153,1.4560569676015416,1
2025-03-08 13:22:09.455,-0.0001909550614879,1.4050416468852052,1
2025-03-08 13:22:09.463,-0.000190129701439,1.34010108859151,1
2025-03-08 13:22:09.471,-0.0001870392080484,1.262980451235752,1
2025-03-08 13:22:09.478,-0.0001819206158601,1.175940092069682,1
2025-03-08 13:22:09.486,-0.0001750613932851,1.0816715169833433,1
2025-03-08 13:22:09.494,-0.0001667889555981,0.9831953283435676,1
2025-03-08 13:22:09.502,-0.0001574587988594,0.8837455569727252,1
2025-03-08 13:22:09.510,-0.0001474416599217,0.7866456333695275,1
2025-03-08 13:22:09.517,-0.0001371102170052,0.6951817751247181,1
2025-03-08 13:22:09.525,-0.0001268259620245,0.6124796833947903,1
2025-03-08 13:22:09.533,-0.0001169269281808,0.5413901436667361,1
2025-03-08 13:22:09.541,-0.0001077168971991,0.4843884582451436,1
2025-03-08 13:22:09.549,-9.945655516487e-05,0.4434916804964971,1
2025-03-08 13:22:09.556,-9.235686506387006e-05,0.4201964708530257,1
2025-03-08 13:22:09.564,-8.657472672957227e-05,0.4154391469361104,1
2025-03-08 13:22:09.572,-8.221084116089148e-05,0.4295782393255948,1
2025-03-08 13:22:09.580,-7.930961451102674e-05,0.4623986653657498,1
2025-03-08 13:22:09.588,-7.786092687090239e-05,0.5131355663018562,1
2025-03-08 13:22:09.596,-7.780361789158219e-05,0.5805149852324886,1
2025-03-08 13:22:09.603,-7.903055645001373e-05,0.6628079520385911,1
2025-03-08 13:22:09.611,-8.139512962712838e-05,0.7578942206101443,1
2025-03-08 13:22:09.619,-8.471890476024914e-05,0.8633318745599189,1
2025-03-08 13:22:09.627,-8.880011292016988e-05,0.9764292501217976,1
2025-03-08 13:22:09.635,-9.342250946106692e-05,1.0943160669850018,1
2025-03-08 13:22:09.642,-9.836413023070332e-05,1.2140112449472538,1
2025-03-08 13:22:09.650,-0.0001034055168368,1.332485548257459,1
2025-03-08 13:22:09.658,-0.0001083371185232,1.4467178781087355,1
2025-03-08 13:22:09.666,-0.0001129657179292,1.553744679143737,1
2025-03-08 13:22:09.674,-0.0001171198012668,1.6507025060455525,1
2025-03-08 13:22:09.681,-0.0001206537977987,1.7348642886844967,1
2025-03-08 13:22:09.689,-0.0001234511063615,1.8036702192823064,1
2025-03-08 13:22:09.697,-0.0001254258628916,1.8547544461459564,1
2025-03-08 13:22:09.705,-0.0001265234918779,1.8859688855832464,1
2025-03-08 13:22:09.713,-0.0001267201931731,1.8954054537329064,1
2025-03-08 13:22:09.721,-0.0001260215950955,1.881417876710108,1
2025-03-08 13:22:09.728,-0.0001244608208334,1.842643971231881,1
2025-03-08 13:22:09.736,-0.0001220961667427,1.7780289180833626,1
2025-03-08 13:22:09.744,-0.0001190085039846,1.6868496062210097,1
2025-03-08 13:22:09.752,-0.0001152984178925,1.5687396430705762,1
2025-03-08 13:22:09.760,-0.0001110830167703,1.4237141491198555,1
2025-03-08 13:22:09.767,-0.0001064923019913,1.252193026276697,1
2025-03-08 13:22:09.775,-0.0001016650194464,1.0550210518444885,1
2025-03-08 13:22:09.783,-9.67440065853162e-05,0.8334829403765858,1
2025-03-08 13:22:09.791,-9.187117395433812e-05,0.5893114618755444,1
2025-03-08 13:22:09.799,-8.718236535708079e-05,0.3246868208951317,1
2025-03-08 13:22:09.806,-8.280239024494476e-05,0.04222578351268,1
2025-03-08 13:22:09.814,-7.884051223622415e-05,-0.2550405368144958,1
2025-03-08 13:22:09.822,-7.5386631773814e-05,-0.5637008036007788,1
2025-03-08 13:22:09.830,-7.250834305006456e-05,-0.8800095034605058,1
2025-03-08 13:22:09.838,-7.024898686506475e-05,-1.1999443847855622,1
2025-03-08 13:22:09.846,-6.86267651500853e-05,-1.5192742723733157,1
2025-03-08 13:22:09.853,-6.76349307103741e-05,-1.833635824220466,1
2025-03-08 13:22:09.861,-6.724301830065225e-05,-2.138617454556281,1
2025-03-08 13:22:09.869,-6.739904118531714e-05,-2.429848382579958,1
2025-03-08 13:22:09.877,-6.803254137920206e-05,-2.703090582989061,1
2025-03-08 13:22:09.885,-6.90583521470376e-05,-2.9543313141458736,1
2025-03-08 13:22:09.892,-7.038090822895214e-05,-3.179873878298606,1
2025-03-08 13:22:09.900,-7.189892268754485e-05,-3.376424314259632,1
2025-03-08 13:22:09.908,-7.351023916254774e-05,-3.5411718207446823,1
2025-03-08 13:22:09.916,-7.511666451119857e-05,-3.671860841201631,1
2025-03-08 13:22:09.924,-7.662858908247461e-05,-3.766852891138212,1
2025-03-08 13:22:09.931,-7.796920995047275e-05,-3.8251763615105263,1
2025-03-08 13:22:09.939,-7.907818600885432e-05,-3.8465626793190704,1
2025-03-08 13:22:09.947,-7.991457256447522e-05,-3.831467355928648,1
2025-03-08 13:22:09.955,-8.04589065906921e-05,-3.7810746274259928,1
2025-03-08 13:22:09.963,-8.071434169624615e-05,-3.697284623040589,1
2025-03-08 13:22:09.971,-8.07067636708203e-05,-3.5826823209340524,1
2025-03-08 13:22:09.978,-8.048385265662938e-05,-3.440487987151469,1
2025-03-08 13:22:09.986,-8.01130959617745e-05,-3.274489344150055,1
2025-03-08 13:22:09.994,-7.967879557778124e-05,-3.088956358047734,1
2025-03-08 13:22:10.002,-7.927815578746188e-05,-2.8885402281762373,1
2025-03-08 13:22:10.010,-7.901657793222208e-05,-2.678158860204446,1
2025-03-08 13:22:10.017,-7.900233041421419e-05,-2.462871760449996,1
2025-03-08 13:22:10.025,-7.934080118724287e-05,-2.2477478698471542,1
2025-03-08 13:22:10.033,-8.012857608585623e-05,-2.037730334426233,1
2025-03-08 13:22:10.041,-8.144761801504453e-05,-1.8375025571515484,1
2025-03-08 13:22:10.049,-8.3359846253512e-05,-1.6513600602171423,1
2025-03-08 13:22:10.056,-8.590242081556213e-05,-1.4830926723473126,1
2025-03-08 13:22:10.064,-8.908400198819946e-05,-1.335881315594981,1
2025-03-08 13:22:10.072,-9.288216733918606e-05,-1.212213193489753,1
2025-03-08 13:22:10.080,-9.72420528839633e-05,-1.1138184966336115,1
2025-03-08 13:22:10.088,-0.0001020761906464,-1.0416308892830204,1
2025-03-08 13:22:10.096,-0.0001072654668501,-0.9957730877166292,1
2025-03-08 13:22:10.103,-0.0001126611111564,-0.9755678619079288,1
2025-03-08 13:22:10.111,-0.0001180876260398,-0.9795738506526622,1
2025-03-08 13:22:10.119,-0.0001233465659013,-1.0056447221337006,1
2025-03-08 13:22:10.127,-0.0001282210753924,-1.0510094641896943,1
2025-03-08 13:22:10.135,-0.0001324810950577,-1.1123709666416852,1
2025-03-08 13:22:10.142,-0.0001358891394246,-1.1860195681053205,1
2025-03-08 13:22:10.150,-0.000138206547996,-1.2679578777795697,1
2025-03-08 13:22:10.158,-0.0001392001034794,-1.3540329352621574,1
2025-03-08 13:22:10.166,-0.0001386489045244,-1.440071620134499,1
2025-03-08 13:22:10.174,-0.000136351373096,-1.5220151512737723,1
2025-03-08 13:22:10.181,-0.0001321322688257,-1.5960485158959767,1
2025-03-08 13:22:10.189,-0.0001258495659028,-1.6587207476390209,1
2025-03-08 13:22:10.197,-0.0001174010031452,-1.7070521543670478,1
2025-03-08 13:22:10.205,-0.0001067300352075,-1.7386249085338372,1
2025-03-08 13:22:10.213,-9.38308203385592e-05,-1.751653875997125,1
2025-03-08 13:22:10.221,-7.875182902558992e-05,-1.7450351745257058,1
2025-03-08 13:22:10.228,-6.159767547699727e-05,-1.7183707021068653,1
2025-03-08 13:22:10.236,-4.252884918673228e-05,-1.6719677233942225,1
2025-03-08 13:22:10.244,-2.1759135608144695e-05,-1.606813508741459,1
2025-03-08 13:22:10.252,4.493479063168069e-07,-1.5245259446687287,1
2025-03-08 13:22:10.260,2.379341624564117e-05,-1.4272819462789352,1
2025-03-08 13:22:10.267,4.793812117652229e-05,-1.317726377639007,1
2025-03-08 13:22:10.275,7.252765947696729e-05,-1.1988650008042183,1
2025-03-08 13:22:10.283,9.719729510454324e-05,-1.073945692337965,1
2025-03-08 13:22:10.291,0.0001215856070018,-0.9463327393070486,1
2025-03-08 13:22:10.299,0.0001453463411849,-0.8193794024916238,1
2025-03-08 13:22:10.306,0.0001681591795493,-0.6963040712551917,1
2025-03-08 13:22:10.314,0.0001897388372056,-0.5800752108910654,1
2025-03-08 13:22:10.322,0.0002098420522956,-0.4733099192161194,1
2025-03-08 13:22:10.330,0.0002282722082423,-0.3781902813552301,1
2025-03-08 13:22:10.338,0.000244881500544,-0.2964008683452902,1
2025-03-08 13:22:10.346,0.0002595707143992,-0.2290897022657384,1
2025-03-08 13:22:10.353,0.0002722868106265,-0.1768538494938727,1
2025-03-08 13:22:10.361,0.0002830186231717,-0.1397495530711233,1
2025-03-08 13:22:10.369,0.0002917910506751,-0.1173255359171132,1
2025-03-08 13:22:10.377,0.0002986581767595,-0.1086768753180772,1
2025-03-08 13:22:10.385,0.0003036957794752,-0.1125157547913935,1
2025-03-08 13:22:10.392,0.0003069936910855,-0.1272545326945177,1
2025-03-08 13:22:10.400,0.0003086484471952,-0.1510960054817241,1
2025-03-08 13:22:10.408,0.0003087566218234,-0.1821255383694325,1
2025-03-08 13:22:10.416,0.0003074091856022,-0.218399901272586,1
2025-03-08 13:22:10.424,0.0003046871514106,-0.2580281552964716,1
2025-03-08 13:22:10.431,0.0003006586892785,-0.2992407191906248,1
2025-03-08 13:22:10.439,0.0002953778042932,-0.3404437163464689,1
2025-03-08 13:22:10.447,0.0002888845815586,-0.3802567672827761,1
2025-03-08 13:22:10.455,0.0002812069149546,-0.4175334711852166,1
2025-03-08 13:22:10.463,0.0002723635553512,-0.4513648594082228,1
2025-03-08 13:22:10.471,0.0002623682426198,-0.4810670726630338,1
2025-03-08 13:22:10.478,0.0002512346274887,-0.5061553894624528,1
2025-03-08 13:22:10.486,0.0002389816468615,-0.5263074892416356,1
2025-03-08 13:22:10.494,0.0002256389919848,-0.5413194343112222,1
2025-03-08 13:22:10.502,0.00021125230464,-0.5510582641892726,1
2025-03-08 13:22:10.510,0.0001958877535247,-0.555415285115945,1
2025-03-08 13:22:10.517,0.0001796356817216,-0.5542640865178923,1
2025-03-08 13:22:10.525,0.00016261307647,-0.5474270086311825,1
2025-03-08 13:22:10.533,0.0001449646934469,-0.5346532096858889,1
2025-03-08 13:22:10.541,0.0001268627661727,-0.5156106416975736,1
2025-03-08 13:22:10.549,0.0001085053348766,-0.489893176981713,1
2025-03-08 13:22:10.556,9.011331282283718e-05,-0.4570429052994625,1
2025-03-08 13:22:10.564,7.192644698247886e-05,-0.416586345578035,1
2025-03-08 13:22:10.572,5.419832362981958e-05,-0.3680821044859888,1
2025-03-08 13:22:10.580,3.71905418555161e-05,-0.311176486632263,1
2025-03-08 13:22:10.588,2.116615520597768e-05,-0.2456628217157037,1
2025-03-08 13:22:10.596,6.382482806236022e-06,-0.1715398922430346,1
2025-03-08 13:22:10.603,-6.916570595227463e-06,-0.0890648450432243,1
2025-03-08 13:22:10.611,-1.850848109418118e-05,0.0012036717506592,1
2025-03-08 13:22:10.619,-2.82001007771114e-05,0.0983757449788267,1
2025-03-08 13:22:10.627,-3.5835408062980086e-05,0.2012165211151783,1
2025-03-08 13:22:10.635,-4.130274082203761e-05,0.3081503100016609,1
2025-03-08 13:22:10.642,-4.4541223401768905e-05,0.4172830751071151,1
2025-03-08 13:22:10.650,-4.5546059142989375e-05,0.5264428545148112,1
2025-03-08 13:22:10.658,-4.437231410802563e-05,0.6332366866540473,1
2025-03-08 13:22:10.666,-4.113678777198061e-05,0.7351217979858414,1
2025-03-08 13:22:10.674,-3.601758069231803e-05,0.829488184850155,1
2025-03-08 13:22:10.681,-2.9251052863667675e-05,0.913749299149134,1
2025-03-08 13:22:10.689,-2.112601942615448e-05,0.985437311125954,1
2025-03-08 13:22:10.697,-1.1975227023907988e-05,1.042299336662281,1
2025-03-08 13:22:10.705,-2.1643669952066483e-06,1.0823910395092884,1
2025-03-08 13:22:10.713,7.920906192067078e-06,1.1041641158162354,1
2025-03-08 13:22:10.721,1.788928854495264e-05,1.106544319478323,1
2025-03-08 13:22:10.728,2.7358661602983757e-05,1.088996890200619,1
2025-03-08 13:22:10.736,3.597056588660476e-05,1.0515765160485169,1
2025-03-08 13:22:10.744,4.340344472690602e-05,0.994959322946898,1
2025-03-08 13:22:10.752,4.938389277808825e-05,0.9204548572215911,1
2025-03-08 13:22:10.760,5.369532853141051e-05,0.8299966189993121,1
2025-03-08 13:22:10.767,5.618375288805071e-05,0.726110393524814,1
2025-03-08 13:22:10.775,5.676050200020726e-05,0.6118603720974819,1
2025-03-08 13:22:10.783,5.540209977163991e-05,0.4907738068112203,1
2025-03-08 13:22:10.791,5.214744919866482e-05,0.3667456704603358,1
2025-03-08 13:22:10.799,4.709269120100293e-05,0.2439254887891523,1
2025-03-08 13:22:10.806,4.038412714521559e-05,0.1265891942638188,1
2025-03-08 13:22:10.814,3.220965700593831e-05,0.0189995401601765,1
2025-03-08 13:22:10.822,2.278923121868276e-05,-0.0747406882482849,1
2025-03-08 13:22:10.830,1.2364849708689304e-05,-0.1508377562472423,1
2025-03-08 13:22:10.838,1.1906571660553912e-06,-0.2059528650824332,1
2025-03-08 13:22:10.846,-1.047634247343303e-05,-0.2373389380664987,1
2025-03-08 13:22:10.853,-2.2384517880032974e-05,-0.2429622427772097,1
2025-03-08 13:22:10.861,-3.4294500883128906e-05,-0.2216029370903913,1
2025-03-08 13:22:10.869,-4.5984622951969054e-05,-0.1729291392630587,1
2025-03-08 13:22:10.877,-5.725494853977489e-05,-0.0975400079227177,1
2025-03-08 13:22:10.885,-6.793007196048376e-05,0.0030254525186625,1
2025-03-08 13:22:10.892,-7.78608921179021e-05,0.1263156433368254,1
2025-03-08 13:22:10.900,-8.692557093767545e-05,0.2690297906642257,1
2025-03-08 13:22:10.908,-9.502984239276609e-05,0.4271159218393214,1
2025-03-08 13:22:10.916,-0.0001021067818128,0.5959001375000411,1
2025-03-08 13:22:10.924,-0.0001081160827342,0.77024244298832,1
2025-03-08 13:22:10.931,-0.0001130428487589,0.9447131811948956,1
2025-03-08 13:22:10.939,-0.0001168959064012,1.1137831851440452,1
2025-03-08 13:22:10.947,-0.0001197056682424,1.272020157703505,1
2025-03-08 13:22:10.955,-0.0001215216029755,1.4142834873021202,1
2025-03-08 13:22:10.963,-0.0001224093903983,1.535909719793791,1
2025-03-08 13:22:10.971,-0.0001224478537374,1.6328812288439143,1
2025-03-08 13:22:10.978,-0.0001217257693385,1.7019712606481792,1
2025-03-08 13:22:10.986,-0.0001203386553944,1.7408594617514417,1
2025-03-08 13:22:10.994,-0.0001183856377972,1.748213199331634,1
2025-03-08 13:22:11.002,-0.0001159664832721,1.7237313985372722,1
2025-03-08 13:22:11.010,-0.0001131788786027,1.6681491827029171,1
2025-03-08 13:22:11.017,-0.0001101160209298,1.5832032335618842,1
2025-03-08 13:22:11.025,-0.0001068645686858,1.4715594145309825,1
2025-03-08 13:22:11.033,-0.0001035029865859,1.3367057517479324,1
2025-03-08 13:22:11.041,-0.0001001003019752,1.1828152849371611,1
2025-03-08 13:22:11.049,-9.671527441855994e-05,1.0145845316302775,1
2025-03-08 13:22:11.056,-9.339596625534406e-05,0.8370543061712094,1
2025-03-08 13:22:11.064,-9.017968937944226e-05,0.6554203530913,1
2025-03-08 13:22:11.072,-8.709329304887186e-05,0.4748416520569007,1
2025-03-08 13:22:11.080,-8.41537492977959e-05,0.300254303500306,1
2025-03-08 13:22:11.088,-8.136898659709151e-05,0.1361986086544869,1
2025-03-08 13:22:11.096,-7.87389187875982e-05,-0.013333664404193,1
2025-03-08 13:22:11.103,-7.625661489516748e-05,-0.1450257516666832,1
2025-03-08 13:22:11.111,-7.390955606069972e-05,-0.2563311908266254,1
2025-03-08 13:22:11.119,-7.168092825435471e-05,-0.3455344113339075,1
2025-03-08 13:22:11.127,-6.955090342090721e-05,-0.4117746214798419,1
2025-03-08 13:22:11.135,-6.7497866924726e-05,-0.4550326498325251,1
2025-03-08 13:22:11.142,-6.549955531648994e-05,-0.4760821119746676,1
2025-03-08 13:22:11.150,-6.35340752175518e-05,-0.4764079870402773,1
2025-03-08 13:22:11.158,-6.158078121107141e-05,-0.4580973233685146,1
2025-03-08 13:22:11.166,-5.962099776192097e-05,-0.4237082443792297,1
2025-03-08 13:22:11.174,-5.7638577109004864e-05,-0.3761245682004391,1
2025-03-08 13:22:11.181,-5.56202915677783e-05,-0.3184040603426374,1
2025-03-08 13:22:11.189,-5.355606456961796e-05,-0.2536285123165707,1
2025-03-08 13:22:11.197,-5.14390499109397e-05,-0.1847634460145256,1
2025-03-08 13:22:11.205,-4.92655729918469e-05,-0.1145343217218554,1
2025-03-08 13:22:11.213,-4.703495123420256e-05,-0.0453247781348346,1
2025-03-08 13:22:11.221,-4.4749213361605125e-05,0.020899200173098,1
2025-03-08 13:22:11.228,-4.241273881110285e-05,0.0826370471883062,1
2025-03-08 13:22:11.236,-4.003183926951941e-05,0.1388728954139153,1
2025-03-08 13:22:11.244,-3.761430425062055e-05,0.1890675291456746,1
2025-03-08 13:22:11.252,-3.5168931836243854e-05,0.2331255185429093,1
2025-03-08 13:22:11.260,-3.270506429158931e-05,0.2713411334562108,1
2025-03-08 13:22:11.267,-3.023214633726563e-05,0.304327459836213,1
2025-03-08 13:22:11.275,-2.7759321527455312e-05,0.3329336965041622,1
2025-03-08 13:22:11.283,-2.529507955360876e-05,0.3581558971911326,1
2025-03-08 13:22:11.291,-2.284696447170669e-05,0.3810464488198416,1
2025-03-08 13:22:11.299,-2.0421350937251108e-05,0.4026273568913336,1
2025-03-08 13:22:11.307,-1.80232926161686e-05,0.4238119608512024,1
2025-03-08 13:22:11.314,-1.5656444102216756e-05,0.4453390428706854,1
2025-03-08 13:22:11.322,-1.3323054982026432e-05,0.4677224411532573,1
2025-03-08 13:22:11.330,-1.1024032206373847e-05,0.4912182653992704,1
2025-03-08 13:22:11.338,-8.759064698711698e-06,0.5158106887641026,1
2025-03-08 13:22:11.346,-6.526802197333506e-06,0.5412161263809151,1
2025-03-08 13:22:11.353,-4.325078714491487e-06,0.5669044868014038,1
2025-03-08 13:22:11.361,-2.151169724808436e-06,0.5921351878619645,1
2025-03-08 13:22:11.369,-2.071279745076941e-09,0.6160048460617129,1
2025-03-08 13:22:11.377,2.125211308095804e-06,0.6375030402718688,1
2025-03-08 13:22:11.385,4.233377755476458e-06,0.6555723424514538,1
2025-03-08 13:22:11.392,6.324562444986128e-06,0.6691688871869291,1
2025-03-08 13:22:11.400,8.40009124992005e-06,0.6773200746666407,1
2025-03-08 13:22:11.408,1.04602765169195e-05,0.6791765068554051,1
2025-03-08 13:22:11.416,1.2504259973001682e-05,0.6740558769118313,1
2025-03-08 13:22:11.424,1.452991181060159e-05,0.6614772015155604,1
2025-03-08 13:22:11.432,1.6533792405289855e-05,0.6411844453626842,1
2025-03-08 13:22:11.439,1.851118106600751e-05,0.613159189094941,1
2025-03-08 13:22:11.447,2.045617394357148e-05,0.5776225059687874,1
2025-03-08 13:22:11.455,2.236185077370453e-05,0.5350266268672281,1
2025-03-08 13:22:11.463,2.4220507557634253e-05,0.4860372908103831,1
2025-03-08 13:22:11.471,2.6023949646306617e-05,0.4315079107817841,1
2025-03-08 13:22:11.478,2.776383706163358e-05,0.3724468487349384,1
2025-03-08 13:22:11.486,2.9432071335948225e-05,0.3099792077624084,1
2025-03-08 13:22:11.494,3.1021210761923e-05,0.2453046340718115,1
2025-03-08 13:22:11.502,3.2524898808046574e-05,0.1796526974976476,1
2025-03-08 13:22:11.510,3.3938288661210426e-05,0.1142375034067028,1
2025-03-08 13:22:11.517,3.525844550067611e-05,0.0502132861231408,1
2025-03-08 13:22:11.525,3.648470727691252e-05,-0.0113671671970009,1
2025-03-08 13:22:11.533,3.761898454863528e-05,-0.0695893405780574,1
2025-03-08 13:22:11.541,3.866598039577091e-05,-0.1237071300373829,1
2025-03-08 13:22:11.549,3.9633312634373005e-05,-0.1731644614262081,1
2025-03-08 13:22:11.557,4.053152255209526e-05,-0.2176067668590633,1
2025-03-08 13:22:11.564,4.137395717667285e-05,-0.2568810706530321,1
2025-03-08 13:22:11.572,4.217651567457567e-05,-0.2910239610137069,1
2025-03-08 13:22:11.580,4.2957254811264674e-05,-0.3202374023431131,1
2025-03-08 13:22:11.588,4.373585341338091e-05,-0.3448531554896046,1
2025-03-08 13:22:11.596,4.4532941346479167e-05,-0.365287473770621,1
2025-03-08 13:22:11.603,4.536930451354697e-05,-0.381988654417518,1
2025-03-08 13:22:11.611,4.62649836086609e-05,-0.3953808467224921,1
2025-03-08 13:22:11.619,4.723829061358426e-05,-0.4058081414821044,1
2025-03-08 13:22:11.627,4.830477306173492e-05,-0.4134832987799927,1
2025-03-08 13:22:11.635,4.9476161650552304e-05,-0.4184454508601901,1
2025-03-08 13:22:11.642,5.075934158237542e-05,-0.420530717104894,1
2025-03-08 13:22:11.650,5.2155391773093673e-05,-0.4193588975240739,1
2025-03-08 13:22:11.658,5.36587385105522e-05,-0.4143383149410386,1
2025-03-08 13:22:11.666,5.525647101244948e-05,-0.4046895374502484,1
2025-03-08 13:22:11.674,5.692786539859881e-05,-0.389487249596202,1
2025-03-08 13:22:11.682,5.864416067150808e-05,-0.3677180947722997,1
2025-03-08 13:22:11.689,6.036862526635942e-05,-0.3383510302418804,1
2025-03-08 13:22:11.697,6.205694553095009e-05,-0.300415751635032,1
2025-03-08 13:22:11.705,6.365795815397754e-05,-0.2530841496326918,1
2025-03-08 13:22:11.713,6.511473719351046e-05,-0.1957495973202677,1
2025-03-08 13:22:11.721,6.636603318233465e-05,-0.1280991122341123,1
2025-03-08 13:22:11.728,6.734804712135754e-05,-0.0501740216995709,1
2025-03-08 13:22:11.736,6.799650643757154e-05,0.0375844171822434,1
2025-03-08 13:22:11.744,6.824899369956701e-05,0.1343070372262948,1
2025-03-08 13:22:11.752,6.804746266253182e-05,0.2386880208552164,1
2025-03-08 13:22:11.760,6.734086074528989e-05,0.3489960313511237,1
2025-03-08 13:22:11.767,6.60877630735303e-05,0.4631049394589607,1
2025-03-08 13:22:11.775,6.425891154283802e-05,0.5785430363818271,1
2025-03-08 13:22:11.783,6.183954375995414e-05,0.6925588728053478,1
2025-03-08 13:22:11.791,5.883139198817975e-05,0.80220120458488,1
2025-03-08 13:22:11.799,5.525423207622008e-05,0.904409976757432,1
2025-03-08 13:22:11.807,5.1146867422148833e-05,0.9961148541912508,1
2025-03-08 13:22:11.814,4.656744382156431e-05,1.0743375154800858,1
2025-03-08 13:22:11.822,4.15930079137723e-05,1.1362937663502728,1
2025-03-08 13:22:11.830,3.63182450160669e-05,1.1794915027137745,1
2025-03-08 13:22:11.838,3.085336133867663e-05,1.2018206711988162,1
2025-03-08 13:22:11.846,2.532111056134732e-05,1.2016316472035613,1
2025-03-08 13:22:11.853,1.9853004912414582e-05,1.1777988803464334,1
2025-03-08 13:22:11.861,1.4584795323594244e-05,1.1297672357981985,1
2025-03-08 13:22:11.869,9.65135275445418e-06,1.0575791671366994,1
2025-03-08 13:22:11.877,5.181131930803995e-06,0.9618816616468157,1
2025-03-08 13:22:11.885,1.2904478099152384e-06,0.84391276161644,1
2025-03-08 13:22:11.892,-1.9221578561108995e-06,0.7054683345270341,1
2025-03-08 13:22:11.900,-4.381139538441019e-06,0.5488505846194238,1
2025-03-08 13:22:11.908,-6.038405206250886e-06,0.3768005143760796,1
2025-03-08 13:22:11.916,-6.876637408946508e-06,0.1924171181665569,1
2025-03-08 13:22:11.924,-6.911136910311321e-06,-0.0009334914867016,1
2025-03-08 13:22:11.932,-6.18994407632639e-06,-0.1997155485993832,1
2025-03-08 13:22:11.939,-4.792153051525753e-06,-0.4003240538303527,1
2025-03-08 13:22:11.947,-2.82451981684785e-06,-0.599184457095133,1
2025-03-08 13:22:11.955,-4.1662633751923537e-07,-0.7928479646747132,1
2025-03-08 13:22:11.963,2.2850380812928533e-06,-0.97807903268622,1
2025-03-08 13:22:11.971,5.123684519360967e-06,-1.151931988715471,1
2025-03-08 13:22:11.978,7.939138629657702e-06,-1.3118142973911555,1
2025-03-08 13:22:11.986,1.0574709420490726e-05,-1.4555347328028616,1
2025-03-08 13:22:11.994,1.2883699694497932e-05,-1.5813355854460367,1
2025-03-08 13:22:12.002,1.4735288999131863e-05,-1.6879089342968243,1
2025-03-08 13:22:12.010,1.6019567021839367e-05,-1.7743978665679965,1
2025-03-08 13:22:12.017,1.665154431678376e-05,-1.8403842446301324,1
2025-03-08 13:22:12.025,1.657401684589929e-05,-1.8858651367395032,1
2025-03-08 13:22:12.033,1.5759210007870156e-05,-1.9112203124485116,1
2025-03-08 13:22:12.041,1.4209175746913872e-05,-1.917173258578108,1
2025-03-08 13:22:12.049,1.1954962276541954e-05,-1.9047480311879277,1
2025-03-08 13:22:12.057,9.054619361061304e-06,-1.875223971443544,1
2025-03-08 13:22:12.064,5.590142521687093e-06,-1.830089927977896,1
2025-03-08 13:22:12.072,1.6634966077720008e-06,-1.77099919141745,1
2025-03-08 13:22:12.080,-2.608107422355454e-06,-1.6997259034116654,1
2025-03-08 13:22:12.088,-7.097479234859061e-06,-1.6181232977666995,1
2025-03-08 13:22:12.096,-1.167303094680056e-05,-1.5280838065193598,1
2025-03-08 13:22:12.103,-1.6204425112020272e-05,-1.4315008526746624,1
2025-03-08 13:22:12.111,-2.056802444842455e-05,-1.330232076443107,1
2025-03-08 13:22:12.119,-2.465187050400519e-05,-1.226063809555113,1
2025-03-08 13:22:12.127,-2.8359927355483377e-05,-1.1206768074022944,1
2025-03-08 13:22:12.135,-3.1615373744753124e-05,-1.0156135347398578,1
2025-03-08 13:22:12.142,-3.436282450620751e-05,-0.9122476271920786,1
2025-03-08 13:22:12.150,-3.656948389539416e-05,-0.8117564641037063,1
2025-03-08 13:22:12.158,-3.822533008767181e-05,-0.7150980392162257,1
2025-03-08 13:22:12.166,-3.934247608574465e-05,-0.6229934652975898,1
2025-03-08 13:22:12.174,-3.9953859742103446e-05,-0.5359164723478629,1
2025-03-08 13:22:12.182,-4.0111406361329605e-05,-0.45409114636646,1
2025-03-08 13:22:12.189,-3.988379240002668e-05,-0.3774989094796213,1
2025-03-08 13:22:12.197,-3.935392113274507e-05,-0.3058953738614554,1
2025-03-08 13:22:12.205,-3.861620217891774e-05,-0.2388372284702649,1
2025-03-08 13:22:12.213,-3.777370780755278e-05,-0.1757187614464498,1
2025-03-08 13:22:12.221,-3.693526115918714e-05,-0.1158170113579772,1
2025-03-08 13:22:12.228,-3.6212495993732974e-05,-0.0583439147578541,1
2025-03-08 13:22:12.236,-3.571691513323308e-05,-0.0025032185713874,1
2025-03-08 13:22:12.244,-3.555696603361814e-05,0.0524506025876631,1
2025-03-08 13:22:12.252,-3.583514724997833e-05,0.1071545984716652,1
2025-03-08 13:22:12.260,-3.664515905239207e-05,0.162084193595976,1
2025-03-08 13:22:12.267,-3.806911493626894e-05,0.2175081112301804,1
2025-03-08 13:22:12.275,-4.0174837830096505e-05,0.273454638433744,1
2025-03-08 13:22:12.283,-4.301327477745068e-05,0.3296920077019417,1
2025-03-08 13:22:12.291,-4.6616075897135984e-05,0.3857248950545868,1
2025-03-08 13:22:12.299,-5.099339647669671e-05,0.4408080142358778,1
2025-03-08 13:22:12.307,-5.613199398092602e-05,0.4939765995682663,1
2025-03-08 13:22:12.314,-6.199370334064774e-05,0.5440923215140137,1
2025-03-08 13:22:12.322,-6.85143828988545e-05,0.5899019878471337,1
2025-03-08 13:22:12.330,-7.560342865082824e-05,0.6301053644168458,1
2025-03-08 13:22:12.338,-8.314395485148454e-05,0.663427699249886,1
2025-03-08 13:22:12.346,-9.099373377604946e-05,0.6886921220682148,1
2025-03-08 13:22:12.353,-9.898697573522286e-05,0.7048870597118264,1
2025-03-08 13:22:12.361,-0.0001069370119673,0.7112241693145914,1
2025-03-08 13:22:12.369,-0.0001146399176845,0.7071830256053022,1
2025-03-08 13:22:12.377,-0.0001218790806179,0.6925398471989419,1
2025-03-08 13:22:12.385,-0.0001284306825566,0.6673788095341493,1
2025-03-08 13:22:12.392,-0.000134070018642,0.6320858418319562,1
2025-03-08 13:22:12.400,-0.0001385785330138,0.5873261111786229,1
2025-03-08 13:22:12.408,-0.0001417514015744,0.5340075472183942,1
2025-03-08 13:22:12.416,-0.0001434054452729,0.4732336748211003,1
2025-03-08 13:22:12.424,-0.0001433871127699,0.4062496455992172,1
2025-03-08 13:22:12.432,-0.0001415802322053,0.3343856578083525,1
2025-03-08 13:22:12.439,-0.0001379132007135,0.2590019093074038,1
2025-03-08 13:22:12.447,-0.0001323652599918,0.1814388411607008,1
2025-03-08 13:22:12.455,-0.0001249714991874,0.1029757301544387,1
2025-03-08 13:22:12.463,-0.0001158262349509,0.0247997424750384,1
2025-03-08 13:22:12.471,-0.0001050844446842,-0.0520135325396803,1
2025-03-08 13:22:12.478,-9.296097427879664e-05,-0.1265081687178053,1
2025-03-08 13:22:12.486,-7.972730687420955e-05,-0.1978457294159258,1
2025-03-08 13:22:12.494,-6.570576454876933e-05,-0.2652947670313331,1
2025-03-08 13:22:12.502,-5.126111974297305e-05,-0.3282144623629054,1
2025-03-08 13:22:12.510,-3.6789716094874e-05,-0.3860350961830551,1
2025-03-08 13:22:12.517,-2.270633678838595e-05,-0.4382379800771277,1
2025-03-08 13:22:12.525,-9.42920908277268e-06,-0.4843371715631605,1
2025-03-08 13:22:12.533,2.636307922518525e-06,-0.523864834642045,1
2025-03-08 13:22:12.541,1.311464585782299e-05,-0.5563615564866541,1
2025-03-08 13:22:12.549,2.1676710487105937e-05,-0.5813723548387094,1
2025-03-08 13:22:12.557,2.8055386594330677e-05,-0.5984485526416868,1
2025-03-08 13:22:12.564,3.2058928874354885e-05,-0.6071551887911495,1
2025-03-08 13:22:12.572,3.358140443707927e-05,-0.6070832022510652,1
2025-03-08 13:22:12.580,3.26095138798631e-05,-0.5978652890122899,1
2025-03-08 13:22:12.588,2.922531221997728e-05,-0.5791940933931802,1
2025-03-08 13:22:12.596,2.3604577909902797e-05,-0.5508412517552091,1
2025-03-08 13:22:12.603,1.6010823360307537e-05,-0.5126757501195807,1
2025-03-08 13:22:12.611,6.785171103760785e-06,-0.4646800862962709,1
2025-03-08 13:22:12.619,-3.667468668980813e-06,-0.4069628480393073,1
2025-03-08 13:22:12.627,-1.4895269105047706e-05,-0.3397665387109514,1
2025-03-08 13:22:12.635,-2.641854534315769e-05,-0.2634698038810203,1
2025-03-08 13:22:12.642,-3.774997539092945e-05,-0.1785836305958217,1
2025-03-08 13:22:12.650,-4.841487459282775e-05,-0.0857415862533105,1
2025-03-08 13:22:12.658,-5.797042495863338e-05,0.0143153023602945,1
2025-03-08 13:22:12.666,-6.602286457111721e-05,0.1207579145843323,1
2025-03-08 13:22:12.674,-7.224182714477554e-05,0.2326911028348143,1
2025-03-08 13:22:12.682,-7.637125591720234e-05,0.3491766419453852,1
2025-03-08 13:22:12.689,-7.823656015100064e-05,0.4692551645993225,1
2025-03-08 13:22:12.697,-7.774789923765671e-05,0.5919653240676839,1
2025-03-08 13:22:12.705,-7.489964918532059e-05,0.7163587575406176,1
2025-03-08 13:22:12.713,-6.976624914662992e-05,0.8415098986386634,1
2025-03-08 13:22:12.721,-6.249478392478776e-05,0.9665202388136368,1
2025-03-08 13:22:12.728,-5.329484286239762e-05,1.090517198468357,1
2025-03-08 13:22:12.736,-4.242636691980269e-05,1.212648287365422,1
2025-03-08 13:22:12.744,-3.018630521844841e-05,1.332071674200027,1
2025-03-08 13:22:12.752,-1.6894928925185557e-05,1.4479446238087146,1
2025-03-08 13:22:12.760,-2.882593685583856e-06,1.5594114819787563,1
2025-03-08 13:22:12.767,1.1522394277796465e-05,1.6655929817836688,1
2025-03-08 13:22:12.775,2.600435111375571e-05,1.7655786054572602,1
2025-03-08 13:22:12.783,4.0268987349162845e-05,1.85842355986286,1
2025-03-08 13:22:12.791,5.405032186494564e-05,1.94315161467773,1
2025-03-08 13:22:12.799,6.711579017662584e-05,2.018764621013696,1
2025-03-08 13:22:12.807,7.92696319825639e-05,2.084258995583796,1
2025-03-08 13:22:12.814,9.035463125541332e-05,2.1386488575422704,1
2025-03-08 13:22:12.822,0.0001002522735813,2.18099489400632,1
2025-03-08 13:22:12.830,0.0001088814144511,2.210437469703148,1
2025-03-08 13:22:12.838,0.0001161956209653,2.2262320480322013,1
2025-03-08 13:22:12.846,0.0001221794342241,2.227784699059548,1
2025-03-08 13:22:12.853,0.0001268438761746,2.2146853510963616,1
2025-03-08 13:22:12.861,0.000130221580177,2.1867364877399216,1
2025-03-08 13:22:12.869,0.0001323619469874,2.143975178924029,1
2025-03-08 13:22:12.877,0.0001333266966051,2.086686640450853,1
2025-03-08 13:22:12.885,0.000133186090859,2.015407929890264,1
2025-03-08 13:22:12.892,0.0001320159692144,1.9309209065513877,1
2025-03-08 13:22:12.900,0.0001298956225586,1.8342342083463772,1
2025-03-08 13:22:12.908,0.0001269064547222,1.7265547106418522,1
2025-03-08 13:22:12.916,0.000123131339704,1.6092496828655305,1
2025-03-08 13:22:12.924,0.0001186545549938,1.4838015678597882,1
2025-03-08 13:22:12.932,0.0001135621498359,1.351757882112469,1
2025-03-08 13:22:12.939,0.0001079425914461,1.2146790904376403,1
2025-03-08 13:22:12.947,0.0001018875231876,1.0740874046897126,1
2025-03-08 13:22:12.955,9.549246739794875e-05,0.9314193023115556,1
2025-03-08 13:22:12.963,8.885731251759884e-05,0.787984207714524,1
2025-03-08 13:22:12.971,8.208643967140494e-05,0.6449312959459595,1
2025-03-08 13:22:12.978,7.528836785043963e-05,0.5032258287072602,1
2025-03-08 13:22:12.986,6.857482894213997e-05,0.3636358695825691,1
2025-03-08 13:22:12.994,6.205922333316938e-05,0.2267296857513782,1
2025-03-08 13:22:13.002,5.585445260129957e-05,0.0928836497524862,1
2025-03-08 13:22:13.010,5.007017653922097e-05,-0.0376999864090372,1
2025-03-08 13:22:13.017,4.480959574131717e-05,-0.1649664695594491,1
2025-03-08 13:22:13.025,4.016591630202042e-05,-0.2889744724883979,1
2025-03-08 13:22:13.033,3.621870767536359e-05,-0.4098563328754342,1
2025-03-08 13:22:13.041,3.303041449903226e-05,-0.5277747352892598,1
2025-03-08 13:22:13.049,3.064331610656968e-05,-0.6428783174218721,1
2025-03-08 13:22:13.057,2.9077220511766812e-05,-0.755258961903464,1
2025-03-08 13:22:13.064,2.8328119302377975e-05,-0.8649136750823332,1
2025-03-08 13:22:13.072,2.836793862325893e-05,-0.97171388759159,1
2025-03-08 13:22:13.080,2.9145437450235076e-05,-1.07538469795171,1
2025-03-08 13:22:13.088,3.05882313209025e-05,-1.1754960171885187,1
2025-03-08 13:22:13.096,3.2605833165239346e-05,-1.2714667946955174,1
2025-03-08 13:22:13.103,3.509350664075876e-05,-1.36258257745846,1
2025-03-08 13:22:13.111,3.7936659824895375e-05,-1.448025655525683,1
2025-03-08 13:22:13.119,4.101549105879135e-05,-1.526916059337526,1
2025-03-08 13:22:13.127,4.420962102234893e-05,-1.5983607817820598,1
2025-03-08 13:22:13.135,4.740248319631708e-05,-1.6615078808163062,1
2025-03-08 13:22:13.142,5.048528717845078e-05,-1.7156016530076754,1
2025-03-08 13:22:13.150,5.336041250792916e-05,-1.7600349136979014,1
2025-03-08 13:22:13.158,5.594413315972383e-05,-1.7943946020915875,1
2025-03-08 13:22:13.166,5.816861335374898e-05,-1.818497430681252,1
2025-03-08 13:22:13.174,5.998315266942242e-05,-1.8324130560339955,1
2025-03-08 13:22:13.182,6.135469179401962e-05,-1.8364731734044617,1
2025-03-08 13:22:13.189,6.226761893526334e-05,-1.83126593686264,1
2025-03-08 13:22:13.197,6.272294060242216e-05,-1.81761609550178,1
2025-03-08 13:22:13.205,6.273689893292025e-05,-1.7965521461887612,1
2025-03-08 13:22:13.213,6.233913103832472e-05,-1.769262580410041,1
2025-03-08 13:22:13.221,6.157047416175681e-05,-1.7370439061255636,1
2025-03-08 13:22:13.228,6.048052411811896e-05,-1.7012435262990235,1
2025-03-08 13:22:13.236,5.912505398066136e-05,-1.6632007373580695,1
2025-03-08 13:22:13.244,5.756339581457356e-05,-1.6241890699005412,1
2025-03-08 13:22:13.252,5.58558810232168e-05,-1.58536294132688,1
2025-03-08 13:22:13.260,5.40614251705073e-05,-1.5477111524464866,1
2025-03-08 13:22:13.267,5.223533157641431e-05,-1.5120191834971473,1
2025-03-08 13:22:13.275,5.042737513014992e-05,-1.4788415959834182,1
2025-03-08 13:22:13.283,4.868021416471497e-05,-1.448485204138872,1
2025-03-08 13:22:13.291,4.702816437012224e-05,-1.4210031168624868,1
2025-03-08 13:22:13.299,4.5496355011162224e-05,-1.3961993164198925,1
2025-03-08 13:22:13.307,4.410027451220406e-05,-1.3736431477702078,1
2025-03-08 13:22:13.314,4.284570006185047e-05,-1.3526929217006944,1
2025-03-08 13:22:13.322,4.172899449527089e-05,-1.3325277415250023,1
2025-03-08 13:22:13.330,4.073774349381735e-05,-1.3121865926464509,1
2025-03-08 13:22:13.338,3.985169721120529e-05,-1.2906136374722814,1
2025-03-08 13:22:13.346,3.9043972862581705e-05,-1.2667085029245115,1
2025-03-08 13:22:13.353,3.8282468635038345e-05,-1.239380126743558,1
2025-03-08 13:22:13.361,3.753143451174474e-05,-1.207602460572203,1
2025-03-08 13:22:13.369,3.6753142250720553e-05,-1.1704700526648797,1
2025-03-08 13:22:13.377,3.590959482286015e-05,-1.1272513022798052,1
2025-03-08 13:22:13.385,3.496421509359954e-05,-1.077437038824664,1
2025-03-08 13:22:13.392,3.388345443600481e-05,-1.0207820629134543,1
2025-03-08 13:22:13.400,3.263826430516332e-05,-0.9573374055573768,1
2025-03-08 13:22:13.408,3.1205377606508e-05,-0.8874713125691696,1
2025-03-08 13:22:13.416,2.956835197955787e-05,-0.8118773313578945,1
2025-03-08 13:22:13.424,2.7718333916884748e-05,-0.7315683493667112,1
2025-03-08 13:22:13.432,2.565451095960165e-05,-0.6478559895535757,1
2025-03-08 13:22:13.439,2.3384229050167025e-05,-0.5623153930353126,1
2025-03-08 13:22:13.447,2.092276344666396e-05,-0.476736099001528,1
2025-03-08 13:22:13.455,1.829274433624766e-05,-0.3930604506217796,1
2025-03-08 13:22:13.463,1.5523252305626157e-05,-0.3133116842280511,1
2025-03-08 13:22:13.471,1.2648613950600416e-05,-0.2395145514145084,1
2025-03-08 13:22:13.478,9.706943885468617e-06,-0.1736119191127517,1
2025-03-08 13:22:13.486,6.7384959251463845e-06,-0.1173812263281992,1
2025-03-08 13:22:13.494,3.783902862530504e-06,-0.0723548933086813,1
2025-03-08 13:22:13.502,8.824005821158708e-07,-0.0397487471388234,1
2025-03-08 13:22:13.510,-1.9298522989475943e-06,-0.0204022424268036,1
2025-03-08 13:22:13.517,-4.621234085846608e-06,-0.0147337370262433,1
2025-03-08 13:22:13.525,-7.165763528204035e-06,-0.0227133683592962,1
2025-03-08 13:22:13.533,-9.543715617491734e-06,-0.0438552130835371,1
2025-03-08 13:22:13.541,-1.174165727635781e-05,-0.0772294522892618,1
2025-03-08 13:22:13.549,-1.3751896977625126e-05,-0.1214942589924954,1
2025-03-08 13:22:13.557,-1.5571450233412283e-05,-0.1749461304225725,1
2025-03-08 13:22:13.564,-1.7200702953242065e-05,-0.2355864618631061,1
2025-03-08 13:22:13.572,-1.8641981380145222e-05,-0.3012013549818617,1
2025-03-08 13:22:13.580,-1.98982229666995e-05,-0.3694510154443644,1
2025-03-08 13:22:13.588,-2.09719090923748e-05,-0.4379646521773522,1
2025-03-08 13:22:13.596,-2.1864379165932856e-05,-0.5044365586273849,1
2025-03-08 13:22:13.603,-2.257559970783051e-05,-0.5667190362158765,1
2025-03-08 13:22:13.611,-2.3104413255526036e-05,-0.622908004051334,1
2025-03-08 13:22:13.619,-2.344924223206905e-05,-0.6714175110068707,1
2025-03-08 13:22:13.627,-2.360917414037763e-05,-0.7110399015294702,1
2025-03-08 13:22:13.635,-2.3585308446587545e-05,-0.740989051475744,1
2025-03-08 13:22:13.643,-2.338220408692887e-05,-0.7609248468589392,1
2025-03-08 13:22:13.650,-2.300923298426406e-05,-0.7709578891124296,1
2025-03-08 13:22:13.658,-2.2481630515044235e-05,-0.7716342428241877,1
2025-03-08 13:22:13.666,-2.182106047560312e-05,-0.7639008727390562,1
2025-03-08 13:22:13.674,-2.105559205705768e-05,-0.7490532333143404,1
2025-03-08 13:22:13.682,-2.0219094154580336e-05,-0.7286672671178576,1
2025-03-08 13:22:13.689,-1.935013869157381e-05,-0.7045188198034823,1
2025-03-08 13:22:13.697,-1.8490543808645376e-05,-0.6784941504472887,1
2025-03-08 13:22:13.705,-1.7683691599513705e-05,-0.6524957440298804,1
2025-03-08 13:22:13.713,-1.6972744858347615e-05,-0.6283479421917807,1
2025-03-08 13:22:13.721,-1.6398873396253315e-05,-0.6077069336913109,1
2025-03-08 13:22:13.728,-1.599958515890465e-05,-0.5919793579620831,1
2025-03-08 13:22:13.736,-1.580724122920951e-05,-0.5822531956547649,1
2025-03-08 13:22:13.744,-1.5847817363179987e-05,-0.5792438179913608,1
2025-03-08 13:22:13.752,-1.6139958447783964e-05,-0.5832571376105471,1
2025-03-08 13:22:13.760,-1.6694356574730595e-05,-0.594170844038779,1
2025-03-08 13:22:13.768,-1.751346860532516e-05,-0.6114337971772261,1
2025-03-08 13:22:13.775,-1.859157539586025e-05,-0.6340828497409191,1
2025-03-08 13:22:13.783,-1.9915172428861254e-05,-0.6607757103115094,1
2025-03-08 13:22:13.791,-2.1463670560475905e-05,-0.6898379593019693,1
2025-03-08 13:22:13.799,-2.3210376005019197e-05,-0.7193219885731466,1
2025-03-08 13:22:13.807,-2.5123710550702915e-05,-0.7470754292852908,1
2025-03-08 13:22:13.814,-2.7168626323625357e-05,-0.7708165216480677,1
2025-03-08 13:22:13.822,-2.9308164160039357e-05,-0.788213819110489,1
2025-03-08 13:22:13.830,-3.150510077175164e-05,-0.7969675760114764,1
2025-03-08 13:22:13.838,-3.3723627358830056e-05,-0.7948901347348286,1
2025-03-08 13:22:13.846,-3.5931001107292845e-05,-0.7799826217879926,1
2025-03-08 13:22:13.853,-3.809911108805645e-05,-0.7505053095097136,1
2025-03-08 13:22:13.861,-4.020590144092062e-05,-0.705039130391052,1
2025-03-08 13:22:13.869,-4.223659738943127e-05,-0.6425360686266319,1
2025-03-08 13:22:13.877,-4.418468360306573e-05,-0.5623565136499191,1
2025-03-08 13:22:13.885,-4.605258971876504e-05,-0.4642921456412135,1
2025-03-08 13:22:13.893,-4.785204446541328e-05,-0.3485735216805635,1
2025-03-08 13:22:13.900,-4.960406779866164e-05,-0.2158622165488951,1
2025-03-08 13:22:13.908,-5.133857972062244e-05,-0.0672281024215598,1
2025-03-08 13:22:13.916,-5.309361496476989e-05,0.0958869259458889,1
2025-03-08 13:22:13.924,-5.49141443602779e-05,0.2717168158963385,1
2025-03-08 13:22:13.932,-5.685051628637528e-05,0.4582283061063684,1
2025-03-08 13:22:13.939,-5.895654495828568e-05,0.6531840769918483,1
2025-03-08 13:22:13.947,-6.128728605734796e-05,0.854209036520343,1
2025-03-08 13:22:13.955,-6.389655406623832e-05,1.0588567044399604,1
2025-03-08 13:22:13.963,-6.683424916733316e-05,1.2646728906103235,1
2025-03-08 13:22:13.971,-7.014357422041674e-05,1.4692542679494982,1
2025-03-08 13:22:13.978,-7.385823361907525e-05,1.6702999647412358,1
2025-03-08 13:22:13.986,-7.799971516416671e-05,1.8656548816354888,1
2025-03-08 13:22:13.994,-8.257476290528502e-05,2.0533440181557583,1
2025-03-08 13:22:14.002,-8.757315261487938e-05,2.2315976325464315,1
2025-03-08 13:22:14.010,-9.296588163939108e-05,2.398867537686024,1
2025-03-08 13:22:14.018,-9.870388084854138e-05,2.553835246822888,1
2025-03-08 13:22:14.025,-0.000104717347906,2.6954130204700584,1
2025-03-08 13:22:14.033,-0.0001109157878692,2.8227391194769926,1
2025-03-08 13:22:14.041,-0.000117188829106,2.935168721977321,1
2025-03-08 13:22:14.049,-0.0001234078597967,3.032261995681231,1
2025-03-08 13:22:14.057,-0.0001294285031744,3.113770724599234,1
2025-03-08 13:22:14.064,-0.0001350939186886,3.179624683115971,1
2025-03-08 13:22:14.072,-0.0001402388822246,3.229918662154246,1
2025-03-08 13:22:14.080,-0.0001446945623926,3.264900724950178,1
2025-03-08 13:22:14.088,-0.0001482938729551,3.28496194686861,1
2025-03-08 13:22:14.096,-0.0001508772451464,3.290627608329016,1
2025-03-08 13:22:14.103,-0.0001522986296019,3.2825495803095466,1
2025-03-08 13:22:14.111,-0.0001524315076204,3.261499470664824,1
2025-03-08 13:22:14.119,-0.0001511746674199,3.228361980419798,1
2025-03-08 13:22:14.127,-0.0001484574847927,3.18412784555562,1
2025-03-08 13:22:14.135,-0.0001442444409756,3.1298857081801077,1
2025-03-08 13:22:14.143,-0.0001385386153441,3.0668122699243527,1
2025-03-08 13:22:14.150,-0.0001313839082101,2.996160128958868,1
2025-03-08 13:22:14.158,-0.0001228657807746,2.9192427914502845,1
2025-03-08 13:22:14.166,-0.0001131103459511,2.8374164837009177,1
2025-03-08 13:22:14.174,-0.0001022817056955,2.7520585784647005,1
2025-03-08 13:22:14.182,-9.057750743811316e-05,2.6645426882591154,1
2025-03-08 13:22:14.189,-7.822278340292653e-05,2.5762107605901168,1
2025-03-08 13:22:14.197,-6.54622405447684e-05,2.488342816991626,1
2025-03-08 13:22:14.205,-5.2551283378894215e-05,2.40212528720297,1
2025-03-08 13:22:14.213,-3.974617264169761e-05,2.318619178799491,1
2025-03-08 13:22:14.221,-2.7293836298924396e-05,2.23872957009821,1
2025-03-08 13:22:14.228,-1.5421929533252328e-05,2.1631780995645618,1
2025-03-08 13:22:14.236,-4.329761437097148e-06,2.092480223349414,1
2025-03-08 13:22:14.244,5.819332806291407e-06,2.026928991934432,1
2025-03-08 13:22:14.252,1.4903672512973567e-05,1.96658692372952,1
2025-03-08 13:22:14.260,2.2846563469387453e-05,1.911287207100899,1
2025-03-08 13:22:14.268,2.961701430612201e-05,1.8606449480645777,1
2025-03-08 13:22:14.275,3.5227756670416306e-05,1.8140785346827677,1
2025-03-08 13:22:14.283,3.973072188453266e-05,1.7708404722134303,1
2025-03-08 13:22:14.291,4.3210375792630176e-05,1.7300563307267176,1
2025-03-08 13:22:14.299,4.577553659634148e-05,1.6907698167111809,1
2025-03-08 13:22:14.307,4.755044867813194e-05,1.651991500763614,1
2025-03-08 13:22:14.314,4.866590907039932e-05,1.6127484552176208,1
2025-03-08 13:22:14.322,4.9251131303177085e-05,1.5721320028323753,1
2025-03-08 13:22:14.330,4.942684269329129e-05,1.5293409445760051,1
2025-03-08 13:22:14.338,4.929993312880235e-05,1.4837179890385752,1
2025-03-08 13:22:14.346,4.8959837364855e-05,1.4347776018208132,1
2025-03-08 13:22:14.353,4.847669822231269e-05,1.382224083316013,1
2025-03-08 13:22:14.361,4.790119542285248e-05,1.3259593265113316,1
2025-03-08 13:22:14.369,4.726577555523965e-05,1.2660803646019818,1
2025-03-08 13:22:14.377,4.658694488996474e-05,1.2028674486531674,1
2025-03-08 13:22:14.385,4.586829718075452e-05,1.1367639480696023,1
2025-03-08 13:22:14.393,4.510399835053969e-05,1.0683497889564924,1
2025-03-08 13:22:14.400,4.4282484662934325e-05,0.9983103937625551,1
2025-03-08 13:22:14.408,4.339012462773473e-05,0.9274031358699732,1
2025-03-08 13:22:14.416,4.241456878405142e-05,0.8564231799037563,1
2025-03-08 13:22:14.424,4.1347512280627134e-05,0.7861702783567793,1
2025-03-08 13:22:14.432,4.018664580593765e-05,0.7174176965107264,1
2025-03-08 13:22:14.439,3.8936656304251845e-05,0.6508840080836873,1
2025-03-08 13:22:14.447,3.7609236040626496e-05,0.5872081062889473,1
2025-03-08 13:22:14.455,3.62221539520615e-05,0.5269274578949443,1
2025-03-08 13:22:14.463,3.4797532068389326e-05,0.4704594226381609,1
2025-03-08 13:22:14.471,3.335954755174324e-05,0.4180853822453264,1
2025-03-08 13:22:14.478,3.193183525365324e-05,0.369937474560451,1
2025-03-08 13:22:14.486,3.053487370375583e-05,0.3259878954104339,1
2025-03-08 13:22:14.494,2.918358600601996e-05,0.2860409780198297,1
2025-03-08 13:22:14.502,2.7885301061247585e-05,0.2497285273982229,1
2025-03-08 13:22:14.510,2.663814867646581e-05,0.2165091035736364,1
2025-03-08 13:22:14.518,2.5429929853282896e-05,0.1856720509273524,1
2025-03-08 13:22:14.525,2.423749885779811e-05,0.1563470287442359,1
2025-03-08 13:22:14.533,2.3026695289365243e-05,0.1275196133577784,1
2025-03-08 13:22:14.541,2.1752862114311026e-05,0.0980532429753397,1
2025-03-08 13:22:14.549,2.0361977615293016e-05,0.0667173993649792,1
2025-03-08 13:22:14.557,1.8792415386024272e-05,0.0322215034386876,1
2025-03-08 13:22:14.564,1.697732707881077e-05,-0.0067464164149951,1
2025-03-08 13:22:14.572,1.4847618045430696e-05,-0.0514776013196902,1
2025-03-08 13:22:14.580,1.2335457009002784e-05,-0.1031985991198925,1
2025-03-08 13:22:14.588,9.37822841761618e-06,-0.1630272677060232,1
2025-03-08 13:22:14.596,5.922801337465341e-06,-0.2319306254935405,1
2025-03-08 13:22:14.603,1.9299530212444443e-06,-0.3106863882602566,1
2025-03-08 13:22:14.611,-2.6212498224606886e-06,-0.3998498734217403,1
2025-03-08 13:22:14.619,-7.729341870838769e-06,-0.4997276834829237,1
2025-03-08 13:22:14.627,-1.3366880790182924e-05,-0.6103592196267495,1
2025-03-08 13:22:14.635,-1.947767973172002e-05,-0.7315066640824682,1
2025-03-08 13:22:14.643,-2.5975133613001815e-05,-0.8626536580046513,1
2025-03-08 13:22:14.650,-3.274188397441065e-05,-1.0030125373383576,1
2025-03-08 13:22:14.658,-3.963097570805437e-05,-1.151539700827391,1
2025-03-08 13:22:14.666,-4.646853935398092e-05,-1.3069584764941269,1
2025-03-08 13:22:14.674,-5.3057934087958095e-05,-1.4677887114018506,1
2025-03-08 13:22:14.682,-5.918523298188428e-05,-1.6323822112425683,1
2025-03-08 13:22:14.689,-6.462590206866302e-05,-1.7989630773648873,1
2025-03-08 13:22:14.697,-6.915247642377256e-05,-1.9656719082143568,1
2025-03-08 13:22:14.705,-7.254294861304646e-05,-2.1306127344081944,1
2025-03-08 13:22:14.713,-7.458948194630016e-05,-2.2919014370599187,1
2025-03-08 13:22:14.721,-7.51069928583464e-05,-2.447714268104844,1
2025-03-08 13:22:14.728,-7.394113952470122e-05,-2.5963349750204183,1
2025-03-08 13:22:14.736,-7.097529587808431e-05,-2.736198965318693,1
2025-03-08 13:22:14.744,-6.613616023683781e-05,-2.865932962464836,1
2025-03-08 13:22:14.752,-5.939773515838691e-05,-2.984388726331281,1
2025-03-08 13:22:14.760,-5.078351702706645e-05,-3.0906696395581936,1
2025-03-08 13:22:14.768,-4.036684708288389e-05,-3.1841492776288742,1
2025-03-08 13:22:14.775,-2.8269488475331568e-05,-3.2644814545068828,1
2025-03-08 13:22:14.783,-1.4658581919179224e-05,-3.3316016348421287,1
2025-03-08 13:22:14.791,2.578279920143848e-07,-3.385719999295251,1
2025-03-08 13:22:14.799,1.6236510254350713e-05,-3.427306817160546,1
2025-03-08 13:22:14.807,3.300584057014451e-05,-3.457071098774786,1
2025-03-08 13:22:14.814,5.0273483735971816e-05,-3.475933748633845,1
2025-03-08 13:22:14.822,6.773470288414745e-05,-3.484996597698805,1
2025-03-08 13:22:14.830,8.5080931843891e-05,-3.485508740630761,1
2025-03-08 13:22:14.838,0.0001020081916103,-3.4788315300116257,1
2025-03-08 13:22:14.846,0.0001182249698461,-3.4664033915139107,1
2025-03-08 13:22:14.853,0.000133459297299,-3.4497053474821198,1
2025-03-08 13:22:14.861,0.0001474648891968,-3.4302278114926,1
2025-03-08 13:22:14.869,0.0001600263149189,-3.409438888573691,1
2025-03-08 13:22:14.877,0.0001709631885284,-3.3887541281100098,1
2025-03-08 13:22:14.885,0.0001801333574818,-3.3695074642731915,1
2025-03-08 13:22:14.893,0.0001874350547917,-3.3529229653945145,1
2025-03-08 13:22:14.900,0.0001928079961997,-3.3400870091463126,1
2025-03-08 13:22:14.908,0.0001962334368858,-3.331920604440183,1
2025-03-08 13:22:14.916,0.0001977332316211,-3.329151787203865,1
2025-03-08 13:22:14.924,0.0001973679593479,-3.332288313191579,1
2025-03-08 13:22:14.932,0.000195234177921,-3.3415912323343524,1
2025-03-08 13:22:14.939,0.0001914608692174,-3.3570503155623443,1
2025-03-08 13:22:14.947,0.0001862051230739,-3.3783626653574625,1
2025-03-08 13:22:14.955,0.0001796471028937,-3.404916124659992,1
2025-03-08 13:22:14.963,0.0001719843596421,-3.435779264489448,1
2025-03-08 13:22:14.971,0.0001634256282663,-3.4696997538436785,1
2025-03-08 13:22:14.978,0.0001541843275909,-3.505112788858152,1
2025-03-08 13:22:14.986,0.0001444720439523,-3.540160990537311,1
2025-03-08 13:22:14.994,0.0001344922863083,-3.572726791041002,1
2025-03-08 13:22:15.002,0.0001244347698638,-3.6004778400793707,1
2025-03-08 13:22:15.010,0.0001144704392485,-3.620925393116148,1
2025-03-08 13:22:15.018,0.0001047473927593,-3.631494999913026,1
2025-03-08 13:22:15.025,9.538781961540595e-05,-3.629608097751496,1
2025-03-08 13:22:15.033,8.648601419781423e-05,-3.612772338593148,1
2025-03-08 13:22:15.041,7.810748616843032e-05,-3.578677678010054,1
2025-03-08 13:22:15.049,7.028914425659414e-05,-3.525294491734816,1
2025-03-08 13:22:15.057,6.304049512457616e-05,-3.450969350960973,1
2025-03-08 13:22:15.064,5.634576759909074e-05,-3.354513669975024,1
2025-03-08 13:22:15.072,5.016684696152408e-05,-3.235280312172353,1
2025-03-08 13:22:15.080,4.444688400114e-05,-3.093223447928686,1
2025-03-08 13:22:15.088,3.911442905899879e-05,-2.928937514490146,1
2025-03-08 13:22:15.096,3.408793209810573e-05,-2.7436720179573677,1
2025-03-08 13:22:15.103,2.9280445602223893e-05,-2.5393200922629653,1
2025-03-08 13:22:15.111,2.4604367442850323e-05,-2.318380106839316,1
2025-03-08 13:22:15.119,1.9976065338299417e-05,-2.0838910810782214,1
2025-03-08 13:22:15.127,1.5320232729183146e-05,-1.8393440949521729,1
2025-03-08 13:22:15.135,1.0573837389799272e-05,-1.5885731670474466,1
2025-03-08 13:22:15.143,5.689538487192776e-06,-1.3356301186866792,1
2025-03-08 13:22:15.150,6.384647204116145e-07,-1.084648707977831,1
2025-03-08 13:22:15.158,-4.5877347177499145e-06,-0.839703785662604,1
2025-03-08 13:22:15.166,-9.975633631984018e-06,-0.6046714010096952,1
2025-03-08 13:22:15.174,-1.5489611494104308e-05,-0.3830956840811174,1
2025-03-08 13:22:15.182,-2.1072296206375163e-05,-0.1780679663024973,1
2025-03-08 13:22:15.189,-2.66458631316752e-05,0.0078770052824044,1
2025-03-08 13:22:15.197,-3.211416125621368e-05,0.1728437231842334,1
2025-03-08 13:22:15.205,-3.736561190089539e-05,0.3156343950749404,1
2025-03-08 13:22:15.213,-4.227680030034982e-05,0.4357812965492064,1
2025-03-08 13:22:15.221,-4.671665620206476e-05,0.5335522263530317,1
2025-03-08 13:22:15.228,-5.055109706944942e-05,0.6099294664508936,1
2025-03-08 13:22:15.236,-5.36479872587573e-05,0.6665637819967395,1
2025-03-08 13:22:15.244,-5.5882249519070605e-05,0.7057060320645339,1
2025-03-08 13:22:15.252,-5.714095224144997e-05,0.7301198461508036,1
2025-03-08 13:22:15.260,-5.7328188004391e-05,0.7429794969161082,1
2025-03-08 13:22:15.268,-5.6369557084323206e-05,0.7477575134667458,1
2025-03-08 13:22:15.275,-5.421607464866363e-05,0.7481066968877986,1
2025-03-08 13:22:15.283,-5.0847333175456384e-05,0.7477410206376449,1
2025-03-08 13:22:15.291,-4.627377297096795e-05,0.7503194670103052,1
2025-03-08 13:22:15.299,-4.05379440256276e-05,0.7593362488265132,1
2025-03-08 13:22:15.307,-3.37146821621352e-05,0.7780201885341507,1
2025-03-08 13:22:15.314,-2.591017149736745e-05,0.8092453573193674,1
2025-03-08 13:22:15.322,-1.7259923328321727e-05,0.8554544679793683,1
2025-03-08 13:22:15.330,-7.925767940452974e-06,0.9185959928356682,1
2025-03-08 13:22:15.338,1.907972244412288e-06,1.000075549944753,1
2025-03-08 13:22:15.346,1.2038895211861287e-05,1.1007217657984838,1
2025-03-08 13:22:15.353,2.2251259763628787e-05,1.2207665725770722,1
2025-03-08 13:22:15.361,3.232084506127584e-05,1.35983972003414,1
2025-03-08 13:22:15.369,4.201983134779895e-05,1.5169771608021143,1
2025-03-08 13:22:15.377,5.112170499908681e-05,1.6906428851796815,1
2025-03-08 13:22:15.385,5.940621991830375e-05,1.878763714464183,1
2025-03-08 13:22:15.393,6.666441428935945e-05,2.0787764834867635,1
2025-03-08 13:22:15.400,7.270363727759369e-05,2.2876869266806192,1
2025-03-08 13:22:15.408,7.735250460454545e-05,2.5021394080586368,1
2025-03-08 13:22:15.416,8.04656658299785e-05,2.7184963951503414,1
2025-03-08 13:22:15.424,8.192823368631125e-05,2.932926274289067,1
2025-03-08 13:22:15.432,8.165971242582977e-05,3.1414977567342537,1
2025-03-08 13:22:15.439,7.961726819466612e-05,3.340278760764508,1
2025-03-08 13:22:15.447,7.579819833537512e-05,3.525437311644236,1
2025-03-08 13:22:15.455,7.024147138776897e-05,3.6933417217067626,1
2025-03-08 13:22:15.463,6.302822516551424e-05,3.840657139165368,1
2025-03-08 13:22:15.471,5.428112810242048e-05,3.964435521628015,1
2025-03-08 13:22:15.478,4.416253053730204e-05,4.062196217508987,1
2025-03-08 13:22:15.486,3.2871359067450114e-05,4.131994624305151,1
2025-03-08 13:22:15.494,2.0638739652454385e-05,4.172476818341895,1
2025-03-08 13:22:15.502,7.722374579008936e-06,4.182918584301481,1
2025-03-08 13:22:15.510,-5.600254911323849e-06,4.16324787116229,1
2025-03-08 13:22:15.518,-1.9039733036117048e-05,4.1140503106617485,1
2025-03-08 13:22:15.525,-3.230340188600502e-05,4.036557998844197,1
2025-03-08 13:22:15.533,-4.510460504160525e-05,3.932622214291852,1
2025-03-08 13:22:15.541,-5.717207460461432e-05,3.8046711046487967,1
2025-03-08 13:22:15.549,-6.825897910569845e-05,3.65565362242652,1
2025-03-08 13:22:15.557,-7.815115976138323e-05,3.4889711650089485,1
2025-03-08 13:22:15.564,-8.667417582865894e-05,3.308398518401977,1
2025-03-08 13:22:15.572,-9.369890814298025e-05,3.117995860819972,1
2025-03-08 13:22:15.580,-9.914557764226428e-05,2.922013772988929,1
2025-03-08 13:22:15.588,-0.000102986095886,2.72479342375642,1
2025-03-08 13:22:15.596,-0.0001052446964087,2.530664324057914,1
2025-03-08 13:22:15.603,-0.0001059968358843,2.343842224920736,1
2025-03-08 13:22:15.611,-0.0001053664048473,2.168329829620132,1
2025-03-08 13:22:15.619,-0.0001035213234075,2.007822963711516,1
2025-03-08 13:22:15.627,-0.0001006676205058,1.8656246899568305,1
2025-03-08 13:22:15.635,-9.704214116831517e-05,1.7445695809320951,1
2025-03-08 13:22:15.643,-9.290410649359524e-05,1.6469599963316637,1
2025-03-08 13:22:15.650,-8.852582858032093e-05,1.5745157829317586,1
2025-03-08 13:22:15.658,-8.418291177966235e-05,1.5283383473512422,1
2025-03-08 13:22:15.666,-8.014424438411793e-05,1.508889567595428,1
2025-03-08 13:22:15.674,-7.666203384327609e-05,1.5159855353498728,1
2025-03-08 13:22:15.682,-7.396211172056544e-05,1.5488046913036804,1
2025-03-08 13:22:15.689,-7.223476541440342e-05,1.6059095691164045,1
2025-03-08 13:22:15.697,-7.162644052679768e-05,1.6852811328534805,1
2025-03-08 13:22:15.705,-7.223276229116342e-05,1.7843645906568832,1
2025-03-08 13:22:15.713,-7.409338605560788e-05,1.9001255757860005,1
2025-03-08 13:22:15.721,-7.718914776947012e-05,2.0291156559222454,1
2025-03-08 13:22:15.728,-8.144183229769137e-05,2.1675461971542886,1
2025-03-08 13:22:15.736,-8.671666760035217e-05,2.3113696082584214,1
2025-03-08 13:22:15.744,-9.282747182443228e-05,2.456366882622247,1
2025-03-08 13:22:15.752,-9.95442571527307e-05,2.598240131031781,1
2025-03-08 13:22:15.760,-0.0001066029857292,2.732708487095733,1
2025-03-08 13:22:15.768,-0.0001137170470298,2.8556054263037787,1
2025-03-08 13:22:15.775,-0.0001205899198606,2.96297523788121,1
2025-03-08 13:22:15.783,-0.0001269284439607,3.0511661817691693,1
2025-03-08 13:22:15.791,-0.0001324561337295,3.116917780254692,1
2025-03-08 13:22:15.799,-0.0001369259508961,3.15743973591391,1
2025-03-08 13:22:15.807,-0.0001401318936623,3.1704801186318265,1
2025-03-08 13:22:15.814,-0.0001419187169962,3.1543807073984578,1
2025-03-08 13:22:15.822,-0.000142189142057,3.108117699011646,1
2025-03-08 13:22:15.830,-0.0001409080522068,3.0313264043120025,1
2025-03-08 13:22:15.838,-0.0001381033715171,2.924309038664939,1
2025-03-08 13:22:15.846,-0.000133863543263,2.78802526117662,1
2025-03-08 13:22:15.853,-0.0001283317535702,2.6240656990661613,1
2025-03-08 13:22:15.861,-0.0001216972700958,2.4346092779111164,1
2025-03-08 13:22:15.869,-0.0001141844718271,2.2223657374250068,1
2025-03-08 13:22:15.877,-0.0001060403056659,1.9905052246862935,1
2025-03-08 13:22:15.885,-9.752099173851184e-05,1.7425773020718904,1
2025-03-08 13:22:15.893,-8.887881072671966e-05,1.4824220600100846,1
2025-03-08 13:22:15.900,-8.034976479720084e-05,1.2140762545166326,1
2025-03-08 13:22:15.908,-7.214282406988289e-05,0.9416774681010106,1
2025-03-08 13:22:15.916,-6.443134297013109e-05,0.6693692030462528,1
2025-03-08 13:22:15.924,-5.734704001891653e-05,0.4012095597785187,1
2025-03-08 13:22:15.932,-5.097669825563726e-05,0.1410857549876504,1
2025-03-08 13:22:15.939,-4.536152286592701e-05,-0.1073637577962801,1
2025-03-08 13:22:15.947,-4.049895138670811e-05,-0.3408183268291383,1
2025-03-08 13:22:15.955,-3.634665524847022e-05,-0.5563345582880811,1
2025-03-08 13:22:15.963,-3.28284427008756e-05,-0.7513958707317947,1
2025-03-08 13:22:15.971,-2.9841724415229508e-05,-0.92395214833129,1
2025-03-08 13:22:15.979,-2.7266137691239703e-05,-1.0724496966085857,1
2025-03-08 13:22:15.986,-2.4972857300488115e-05,-1.1958517911609434,1
2025-03-08 13:22:15.994,-2.2834047192885035e-05,-1.293650094876818,1
2025-03-08 13:22:16.002,-2.073184105069508e-05,-1.365867134215156,1
2025-03-08 13:22:16.010,-1.856622222408217e-05,-1.4130499149456932,1
2025-03-08 13:22:16.018,-1.6261236536880234e-05,-1.4362546695685543,1
2025-03-08 13:22:16.025,-1.376912092417983e-05,-1.4370227004776477,1
2025-03-08 13:22:16.033,-1.1072152046417367e-05,-1.417347336669362,1
2025-03-08 13:22:16.041,-8.182262054077193e-06,-1.3796321616070737,1
2025-03-08 13:22:16.049,-5.138655362406695e-06,-1.3266408825369005,1
2025-03-08 13:22:16.057,-2.0037407252622158e-06,-1.2614394679129668,1
2025-03-08 13:22:16.064,1.1423104371074924e-06,-1.187331440105403,1
2025-03-08 13:22:16.072,4.208079560827824e-06,-1.1077874358747803,1
2025-03-08 13:22:16.080,7.098141201135747e-06,-1.02637030937618,1
2025-03-08 13:22:16.088,9.72056910504365e-06,-0.9466571435085068,1
2025-03-08 13:22:16.096,1.199414938641861e-05,-0.8721595682430323,1
2025-03-08 13:22:16.104,1.3854724584679898e-05,-0.8062437864741674,1
2025-03-08 13:22:16.111,1.5260167971620892e-05,-0.7520517087521299,1
2025-03-08 13:22:16.119,1.6193619778277266e-05,-0.7124246204217942,1
2025-03-08 13:22:16.127,1.6664771013590743e-05,-0.6898308578934916,1
2025-03-08 13:22:16.135,1.67091401135729e-05,-0.6862990489905744,1
2025-03-08 13:22:16.143,1.6385446360878472e-05,-0.7033585541239544,1
2025-03-08 13:22:16.150,1.5771337122472945e-05,-0.7419888003754259,1
2025-03-08 13:22:16.158,1.4957867263138294e-05,-0.8025792018693171,1
2025-03-08 13:22:16.166,1.4043244556119388e-05,-0.8849012907282068,1
2025-03-08 13:22:16.174,1.3126418219739096e-05,-0.988094540348452,1
2025-03-08 13:22:16.182,1.2301074263779757e-05,-1.110667151767594,1
2025-03-08 13:22:16.189,1.165051194069617e-05,-1.2505127983813316,1
2025-03-08 13:22:16.197,1.1243736449694758e-05,-1.404943980217589,1
2025-03-08 13:22:16.205,1.1132943574061065e-05,-1.5707422168406555,1
2025-03-08 13:22:16.213,1.1352417239508649e-05,-1.7442248023798732,1
2025-03-08 13:22:16.221,1.191873903991522e-05,-1.921327266325528,1
2025-03-08 13:22:16.229,1.2832136424444565e-05,-2.097700057914061,1
2025-03-08 13:22:16.236,1.4078754213202215e-05,-2.268817344384735,1
2025-03-08 13:22:16.244,1.5633587380229553e-05,-2.4300952358530488,1
2025-03-08 13:22:16.252,1.7463762651158926e-05,-2.577016270436354,1
2025-03-08 13:22:16.260,1.9531839511879982e-05,-2.7052566463418493,1
2025-03-08 13:22:16.268,2.1798839052788413e-05,-2.810812484856412,1
2025-03-08 13:22:16.275,2.422678691134176e-05,-2.890121343133552,1
2025-03-08 13:22:16.283,2.678065012346429e-05,-2.940175254948122,1
2025-03-08 13:22:16.291,2.9429641929576663e-05,-2.958621749009644,1
2025-03-08 13:22:16.299,3.214794855695857e-05,-2.9438495660189217,1
2025-03-08 13:22:16.307,3.4914973638036024e-05,-2.8950561514437925,1
2025-03-08 13:22:16.314,3.771518480735864e-05,-2.8122944220792827,1
2025-03-08 13:22:16.322,4.053760657175736e-05,-2.696496775935981,1
2025-03-08 13:22:16.330,4.337498109058504e-05,-2.5494748327275105,1
2025-03-08 13:22:16.338,4.622263787010869e-05,-2.373893963971331,1
2025-03-08 13:22:16.346,4.9077160963362144e-05,-2.173222312037084,1
2025-03-08 13:22:16.354,5.1934993564388906e-05,-1.951654720032861,1
2025-03-08 13:22:16.361,5.479115343573557e-05,-1.714012804407698,1
2025-03-08 13:22:16.369,5.763822433587534e-05,-1.4656232883488634,1
2025-03-08 13:22:16.377,6.046572577780461e-05,-1.2121776416911014,1
2025-03-08 13:22:16.385,6.325987116309081e-05,-0.9595769824243696,1
2025-03-08 13:22:16.393,6.600365158953275e-05,-0.713767008884489,1
2025-03-08 13:22:16.400,6.867715488213586e-05,-0.4805683699807613,1
2025-03-08 13:22:16.408,7.125803458916164e-05,-0.2655082752901315,1
2025-03-08 13:22:16.416,7.372206037859361e-05,-0.0736592538755432,1
2025-03-08 13:22:16.424,7.604369900939205e-05,0.0905092235543655,1
2025-03-08 13:22:16.432,7.819669152666358e-05,0.2232610259783074,1
2025-03-08 13:22:16.439,8.01546069599744e-05,0.3217010468699042,1
2025-03-08 13:22:16.447,8.189136512684424e-05,0.3838567262649192,1
2025-03-08 13:22:16.455,8.338173082360425e-05,0.4087309146893958,1
2025-03-08 13:22:16.463,8.460178852084534e-05,0.3963247181464151,1
2025-03-08 13:22:16.471,8.552941060278107e-05,0.3476300868064255,1
2025-03-08 13:22:16.479,8.614473326350954e-05,0.2645929579163724,1
2025-03-08 13:22:16.486,8.643065258914627e-05,0.1500486921840756,1
2025-03-08 13:22:16.494,8.637334942042414e-05,0.0076323325823902,1
2025-03-08 13:22:16.502,8.596284571636002e-05,-0.1583331368230923,1
2025-03-08 13:22:16.510,8.519358782397585e-05,-0.3429668396746619,1
2025-03-08 13:22:16.518,8.406504386822976e-05,-0.5409742796195248,1
2025-03-08 13:22:16.525,8.25822940239052e-05,-0.7468014694183739,1
2025-03-08 13:22:16.533,8.075658435518503e-05,-0.9547943627838708,1
2025-03-08 13:22:16.541,7.860580784708817e-05,-1.1593589348505835,1
2025-03-08 13:22:16.549,7.615487081918688e-05,-1.3551172495720658,1
2025-03-08 13:22:16.557,7.343589966966459e-05,-1.5370549547662813,1
2025-03-08 13:22:16.564,7.048824233637473e-05,-1.7006558795368916,1
2025-03-08 13:22:16.572,6.735822137356098e-05,-1.842019788192464,1
2025-03-08 13:22:16.580,6.40986014025921e-05,-1.9579598687857496,1
2025-03-08 13:22:16.588,6.076774304029996e-05,-2.0460771883700555,1
2025-03-08 13:22:16.596,5.7428428225874905e-05,-2.104810106857782,1
2025-03-08 13:22:16.604,5.4146357981437767e-05,-2.133457476377417,1
2025-03-08 13:22:16.611,5.098834270927816e-05,-2.132175327900253,1
2025-03-08 13:22:16.619,4.802022663899947e-05,-2.101947623769779,1
2025-03-08 13:22:16.627,4.530461131624684e-05,-2.044532495828637,1
2025-03-08 13:22:16.635,4.289846724575535e-05,-1.962386158423844,1
2025-03-08 13:22:16.643,4.085074700601316e-05,-1.858567353307315,1
2025-03-08 13:22:16.650,3.920013627221631e-05,-1.7366257299371548,1
2025-03-08 13:22:16.658,3.79731000701536e-05,-1.6004779857136493,1
2025-03-08 13:22:16.666,3.718239741887244e-05,-1.4542758943365874,1
2025-03-08 13:22:16.674,3.682623742429297e-05,-1.3022705474088396,1
2025-03-08 13:22:16.682,3.688821210361938e-05,-1.1486772274602404,1
2025-03-08 13:22:16.689,3.7338053508367287e-05,-0.997545309502535,1
2025-03-08 13:22:16.697,3.813315049608551e-05,-0.8526374323672584,1
2025-03-08 13:22:16.705,3.922067291020053e-05,-0.7173218686922981,1
2025-03-08 13:22:16.713,4.054011340611838e-05,-0.5944815421183859,1
2025-03-08 13:22:16.721,4.202605750187413e-05,-0.486442498404931,1
2025-03-08 13:22:16.729,4.361100892689547e-05,-0.3949238587041395,1
2025-03-08 13:22:16.736,4.522811917249149e-05,-0.3210104070940089,1
2025-03-08 13:22:16.744,4.681369456046691e-05,-0.2651480370352229,1
2025-03-08 13:22:16.752,4.830938005868e-05,-0.2271613512505855,1
2025-03-08 13:22:16.760,4.9663945474454576e-05,-0.2062918250757719,1
2025-03-08 13:22:16.768,5.083462563519884e-05,-0.2012541518486353,1
2025-03-08 13:22:16.775,5.17879909212649e-05,-0.2103077333855834,1
2025-03-08 13:22:16.783,5.250034737583577e-05,-0.2313397917581528,1
2025-03-08 13:22:16.791,5.295768603939078e-05,-0.2619562775902583,1
2025-03-08 13:22:16.799,5.315521873417379e-05,-0.2995766369381601,1
2025-03-08 13:22:16.807,5.3096551978904446e-05,-0.3415285655444214,1
2025-03-08 13:22:16.814,5.2792561890106e-05,-0.3851391115872947,1
2025-03-08 13:22:16.822,5.226004078062531e-05,-0.4278188647301236,1
2025-03-08 13:22:16.830,5.1520190755e-05,-0.4671364624682678,1
2025-03-08 13:22:16.838,5.059704106844866e-05,-0.5008812256763234,1
2025-03-08 13:22:16.846,4.9515864576620856e-05,-0.5271123814812289,1
2025-03-08 13:22:16.854,4.830166452978948e-05,-0.5441940292036682,1
2025-03-08 13:22:16.861,4.697779657489344e-05,-0.5508157416592528,1
2025-03-08 13:22:16.869,4.556478247013911e-05,-0.5459994448160298,1
2025-03-08 13:22:16.877,4.407936205824874e-05,-0.529093935695471,1
2025-03-08 13:22:16.885,4.253381886477411e-05,-0.4997590140590574,1
2025-03-08 13:22:16.893,4.0935602668287976e-05,-0.4579416507025313,1
2025-03-08 13:22:16.900,3.9287259906517815e-05,-0.4038468505153556,1
2025-03-08 13:22:16.908,3.758667020393123e-05,-0.3379058847534379,1
2025-03-08 13:22:16.916,3.582757498583664e-05,-0.2607443917246668,1
2025-03-08 13:22:16.924,3.400037241916053e-05,-0.1731525275202654,1
2025-03-08 13:22:16.932,3.2093142109154765e-05,-0.0760589421764869,1
2025-03-08 13:22:16.939,3.009285338156595e-05,0.0294900948859897,1
2025-03-08 13:22:16.947,2.7986702864816207e-05,0.1423455676775443,1
2025-03-08 13:22:16.955,2.576352070364453e-05,0.2612642167036267,1
2025-03-08 13:22:16.963,2.341518030178312e-05,0.3849108079493638,1
2025-03-08 13:22:16.971,2.093794418996746e-05,0.5118548327544263,1
2025-03-08 13:22:16.979,1.8333678591299565e-05,0.6405628499436182,1
2025-03-08 13:22:16.986,1.5610871608321303e-05,0.7693882131300164,1
2025-03-08 13:22:16.994,1.278539473349266e-05,0.8965603910338202,1
2025-03-08 13:22:17.002,9.880954577409988e-06,1.0201764274555851,1
2025-03-08 13:22:17.010,6.929191242354872e-06,1.138197246247863,1
2025-03-08 13:22:17.018,3.969391496457735e-06,1.2484514470118824,1
2025-03-08 13:22:17.025,1.0477986026146551e-06,1.3486489435669375,1
2025-03-08 13:22:17.033,-1.7834839782087327e-06,1.4364062791434062,1
2025-03-08 13:22:17.041,-4.467981145389535e-06,1.5092847417863695,1
2025-03-08 13:22:17.049,-6.946695662579452e-06,1.5648415478523734,1
2025-03-08 13:22:17.057,-9.160269580579733e-06,1.6006934187023814,1
2025-03-08 13:22:17.064,-1.1051391206091843e-05,1.614590915754153,1
2025-03-08 13:22:17.072,-1.256736494350921e-05,1.6045010033657534,1
2025-03-08 13:22:17.080,-1.3662746812294376e-05,1.568694559204892,1
2025-03-08 13:22:17.088,-1.4301936447573878e-05,1.5058350106585447,1
2025-03-08 13:22:17.096,-1.4461607683624286e-05,1.415063972412935,1
2025-03-08 13:22:17.104,-1.4132855131740152e-05,1.2960796880099992,1
2025-03-08 13:22:17.111,-1.3322934173808856e-05,1.1492042063473114,1
2025-03-08 13:22:17.119,-1.205647709201884e-05,0.9754355144561956,1
2025-03-08 13:22:17.127,-1.0376079114120108e-05,0.7764812682607273,1
2025-03-08 13:22:17.135,-8.342165288887892e-06,0.554771296049374,1
2025-03-08 13:22:17.143,-6.03207244770248e-06,0.3134466952060203,1
2025-03-08 13:22:17.150,-3.538309969269971e-06,0.0563241124364432,1
2025-03-08 13:22:17.158,-9.659983183460667e-07,-0.2121653016562842,1
2025-03-08 13:22:17.166,1.570475211122703e-06,-0.4870617538720702,1
2025-03-08 13:22:17.174,3.951499311042289e-06,-0.7629858777629098,1
2025-03-08 13:22:17.182,6.0568477725753465e-06,-1.034268287540117,1
2025-03-08 13:22:17.189,7.770672798197918e-06,-1.2950958335861174,1
2025-03-08 13:22:17.197,8.98665040057756e-06,-1.539669849077541,1
2025-03-08 13:22:17.205,9.612997454208283e-06,-1.7623709496167732,1
2025-03-08 13:22:17.213,9.577036995303735e-06,-1.9579244714161244,1
2025-03-08 13:22:17.221,8.828962588949825e-06,-2.1215604376472323,1
2025-03-08 13:22:17.229,7.344468439869192e-06,-2.2491620347648564,1
2025-03-08 13:22:17.236,5.1259924708285055e-06,-2.337396951662779,1
2025-03-08 13:22:17.244,2.202461172832e-06,-2.3838265618004737,1
2025-03-08 13:22:17.252,-1.372409150736411e-06,-2.386988777073116,1
2025-03-08 13:22:17.260,-5.523060749873024e-06,-2.346451424251565,1
2025-03-08 13:22:17.268,-1.0156022128274022e-05,-2.2628341294398955,1
2025-03-08 13:22:17.275,-1.5164534993579056e-05,-2.137797875152339,1
2025-03-08 13:22:17.283,-2.0433631939650798e-05,-1.9740025549332656,1
2025-03-08 13:22:17.291,-2.584545463374448e-05,-1.7750339445304308,1
2025-03-08 13:22:17.299,-3.12846142282003e-05,-1.5453025089088677,1
2025-03-08 13:22:17.307,-3.664336578069276e-05,-1.2899173586704824,1
2025-03-08 13:22:17.314,-4.182632039073576e-05,-1.0145394517648132,1
2025-03-08 13:22:17.322,-4.67544000028241e-05,-0.7252187975753387,1
2025-03-08 13:22:17.330,-5.1367774180052495e-05,-0.4282209425827933,1
2025-03-08 13:22:17.338,-5.562759178677443e-05,-0.1298483747572464,1
2025-03-08 13:22:17.346,-5.9516410136844914e-05,0.1637373458075596,1
2025-03-08 13:22:17.354,-6.303731738075049e-05,0.4466869515710766,1
2025-03-08 13:22:17.361,-6.621183642805696e-05,0.7136227741394954,1
2025-03-08 13:22:17.369,-6.907678792823133e-05,0.9597808454966312,1
2025-03-08 13:22:17.377,-7.168037162860473e-05,1.1811312141896544,1
2025-03-08 13:22:17.385,-7.407778772076468e-05,1.3744726079509078,1
2025-03-08 13:22:17.393,-7.632673973686837e-05,1.53749841756951,1
2025-03-08 13:22:17.400,-7.848312492989474e-05,1.6688319476183384,1
2025-03-08 13:22:17.408,-8.059714974785125e-05,1.7680299710676024,1
2025-03-08 13:22:17.416,-8.27100455830888e-05,1.8355548136122373,1
2025-03-08 13:22:17.424,-8.485150748122892e-05,1.8727164324097156,1
2025-03-08 13:22:17.432,-8.703791179137584e-05,1.8815871782768545,1
2025-03-08 13:22:17.439,-8.927129177897328e-05,1.8648930723396555,1
2025-03-08 13:22:17.447,-9.153900143102048e-05,1.8258864247643192,1
2025-03-08 13:22:17.455,-9.381399972069146e-05,1.7682054155524494,1
2025-03-08 13:22:17.463,-9.60557253594054e-05,1.695726787312238,1
2025-03-08 13:22:17.471,-9.821157279576286e-05,1.6124180133800352,1
2025-03-08 13:22:17.479,-0.0001002189910791,1.5221951639894618,1
2025-03-08 13:22:17.486,-0.0001020081928175,1.428792192913741,1
2025-03-08 13:22:17.494,-0.000103505403041,1.3356465423918054,1
2025-03-08 13:22:17.502,-0.0001046365351539,1.2458048854650026,1
2025-03-08 13:22:17.510,-0.0001053311564977,1.1618515828220168,1
2025-03-08 13:22:17.518,-0.0001055265726901,1.0858611234664255,1
2025-03-08 13:22:17.525,-0.0001051718111643,1.0193745388939952,1
2025-03-08 13:22:17.533,-0.0001042312370636,0.9633986086457124,1
2025-03-08 13:22:17.541,-0.000102687499338,0.9184256686626264,1
2025-03-08 13:22:17.549,-0.0001005434933753,0.8844710295069877,1
2025-03-08 13:22:17.557,-9.78230645384631e-05,0.8611244332009454,1
2025-03-08 13:22:17.564,-9.45702771445793e-05,0.8476116414660828,1
2025-03-08 13:22:17.572,-9.084721838626882e-05,0.8428621600175435,1
2025-03-08 13:22:17.580,-8.673046926546559e-05,0.8455792519266732,1
2025-03-08 13:22:17.588,-8.230653017458907e-05,0.8543087478995868,1
2025-03-08 13:22:17.596,-7.766660795944175e-05,0.8675036775007259,1
2025-03-08 13:22:17.604,-7.290122765609525e-05,0.883582369234935,1
2025-03-08 13:22:17.611,-6.809512408473689e-05,0.9009783453974736,1
2025-03-08 13:22:17.619,-6.332281794106163e-05,0.9181810254539648,1
2025-03-08 13:22:17.627,-5.864520300881805e-05,0.9337669197327008,1
2025-03-08 13:22:17.635,-5.410735708519537e-05,0.9464216248760008,1
2025-03-08 13:22:17.643,-4.9737633424918e-05,0.9549535067759252,1
2025-03-08 13:22:17.650,-4.554792997005396e-05,0.9583004524278224,1
2025-03-08 13:22:17.658,-4.153494253255267e-05,0.9555314599127442,1
2025-03-08 13:22:17.666,-3.768222239271256e-05,0.945845085650829,1
2025-03-08 13:22:17.674,-3.3962931644920015e-05,0.9285668559391091,1
2025-03-08 13:22:17.682,-3.034322809873155e-05,0.9031476624698532,1
2025-03-08 13:22:17.689,-2.6786159868010527e-05,0.8691649024077729,1
2025-03-08 13:22:17.697,-2.325583225621326e-05,0.8263277158841877,1
2025-03-08 13:22:17.705,-1.972150522256411e-05,0.7744871568304255,1
2025-03-08 13:22:17.713,-1.6161259153505865e-05,0.713651551692411,1
2025-03-08 13:22:17.721,-1.2564933910185826e-05,0.644006693942153,1
2025-03-08 13:22:17.729,-8.936141801788231e-06,0.5659399205714865,1
2025-03-08 13:22:17.736,-5.293230305208217e-06,0.4800665450779161,1
2025-03-08 13:22:17.744,-1.6691355390011368e-06,0.3872566056621802,1
2025-03-08 13:22:17.752,1.889846786724824e-06,0.2886594575904623,1
2025-03-08 13:22:17.760,5.3262443979877615e-06,0.1857234316080136,1
2025-03-08 13:22:17.768,8.57433658294494e-06,0.0802076391859388,1
2025-03-08 13:22:17.775,1.1563591670077467e-05,-0.0258169252193449,1
2025-03-08 13:22:17.783,1.4222397325503211e-05,-0.1299795202579722,1
2025-03-08 13:22:17.791,1.648188763248443e-05,-0.2296369965347848,1
2025-03-08 13:22:17.799,1.8279656164044952e-05,-0.3219174958560675,1
2025-03-08 13:22:17.807,1.956310808363422e-05,-0.4037806797143538,1
2025-03-08 13:22:17.814,2.029219246612328e-05,-0.4720935641874621,1
2025-03-08 13:22:17.822,2.0441292385947752e-05,-0.5237199353582528,1
2025-03-08 13:22:17.830,2.0000121255843923e-05,-0.5556202957563433,1
2025-03-08 13:22:17.838,1.8973556468456227e-05,-0.5649584303377059,1
2025-03-08 13:22:17.846,1.7380423681571194e-05,-0.5492100490241856,1
2025-03-08 13:22:17.854,1.525132338820571e-05,-0.5062686126380522,1
2025-03-08 13:22:17.861,1.262566380777156e-05,-0.4345434071463167,1
2025-03-08 13:22:17.869,9.548128887083453e-06,-0.3330451954769778,1
2025-03-08 13:22:17.877,6.064865766200546e-06,-0.2014553142649705,1
2025-03-08 13:22:17.885,2.2197211042599963e-06,-0.0401748374605658,1
2025-03-08 13:22:17.893,-1.9491125755000058e-06,0.1496486690882024,1
2025-03-08 13:22:17.900,-6.411671458165129e-06,0.3661182951796577,1
2025-03-08 13:22:17.908,-1.1147685707271327e-05,0.6066093239697995,1
2025-03-08 13:22:17.916,-1.6146712076700607e-05,0.8678146693138422,1
2025-03-08 13:22:17.924,-2.1406879787069905e-05,1.1458128091731632,1
2025-03-08 13:22:17.932,-2.693238845144977e-05,1.4361559933450103,1
2025-03-08 13:22:17.939,-3.273006055016833e-05,1.7339758021590927,1
2025-03-08 13:22:17.947,-3.880534688995856e-05,2.034102564414638,1
2025-03-08 13:22:17.955,-4.515820642810193e-05,2.331194718159371,1
2025-03-08 13:22:17.963,-5.177925365274013e-05,2.619873918444697,1
2025-03-08 13:22:17.971,-5.864651103393856e-05,2.89486155679716,1
2025-03-08 13:22:17.979,-6.572303240212845e-05,3.1511123537541565,1
2025-03-08 13:22:17.986,-7.29555792866411e-05,3.3839408212674824,1
2025-03-08 13:22:17.994,-8.027443878292537e-05,3.58913667428079,1
2025-03-08 13:22:18.002,-8.759437286166093e-05,3.7630657065502606,1
2025-03-08 13:22:18.010,-9.481659795101656e-05,3.9027532312207103,1
2025-03-08 13:22:18.018,-0.0001018316340052,4.00594790359182,1
2025-03-08 13:22:18.025,-0.0001085228487411,4.071164557803146,1
2025-03-08 13:22:18.033,-0.0001147705340898,4.097705552042795,1
2025-03-08 13:22:18.041,-0.000120456351555,4.08566096733562,1
2025-03-08 13:22:18.049,-0.0001254679692514,4.035888774759339,1
2025-03-08 13:22:18.057,-0.0001297037124586,3.949976710577332,1
2025-03-08 13:22:18.064,-0.000133077060159,3.830188033481515,1
2025-03-08 13:22:18.072,-0.0001355208080578,3.679393570955154,1
2025-03-08 13:22:18.080,-0.0001369906736988,3.5009925162026887,1
2025-03-08 13:22:18.088,-0.0001374680798194,3.2988243635325656,1
2025-03-08 13:22:18.096,-0.0001369618644724,3.0770742307870766,1
2025-03-08 13:22:18.104,-0.0001355087395094,2.8401736704375518,1
2025-03-08 13:22:18.111,-0.00013317242195,2.592698956874216,1
2025-03-08 13:22:18.119,-0.0001300414571706,2.339268772814118,1
2025-03-08 13:22:18.127,-0.0001262258251041,2.084443198007234,1
2025-03-08 13:22:18.135,-0.0001218524823404,1.8326259119138395,1
2025-03-08 13:22:18.143,-0.0001170600528253,1.587971538665795,1
2025-03-08 13:22:18.150,-0.0001119929349648,1.354300067590035,1
2025-03-08 13:22:18.158,-0.0001067951421431,1.1350202574583654,1
2025-03-08 13:22:18.166,-0.0001016042275738,0.9330638616708522,1
2025-03-08 13:22:18.174,-9.65456377236108e-05,0.7508323814850877,1
2025-03-08 13:22:18.182,-9.172777860904015e-05,0.5901578514323175,1
2025-03-08 13:22:18.189,-8.723798451637358e-05,0.4522788687790195,1
2025-03-08 13:22:18.197,-8.313948327905981e-05,0.337832681434398,1
2025-03-08 13:22:18.205,-7.946939014741219e-05,0.2468636398066644,1
2025-03-08 13:22:18.213,-7.62377497297186e-05,0.1788477105809143,1
2025-03-08 13:22:18.221,-7.342765924177701e-05,0.1327320802351894,1
2025-03-08 13:22:18.229,-7.099649926631917e-05,0.1069882000083425,1
2025-03-08 13:22:18.236,-6.887824682661146e-05,0.0996760121505172,1
2025-03-08 13:22:18.244,-6.69867653910296e-05,0.1085166225591828,1
2025-03-08 13:22:18.252,-6.521989045841292e-05,0.1309704088860063,1
2025-03-08 13:22:18.260,-6.346409056549162e-05,0.1643175108826431,1
2025-03-08 13:22:18.268,-6.1599497258966e-05,0.2057378389158107,1
2025-03-08 13:22:18.275,-5.95051398461442e-05,0.2523881171522029,1
2025-03-08 13:22:18.283,-5.706424394364543e-05,0.3014739820299836,1
2025-03-08 13:22:18.291,-5.4169433056385845e-05,0.3503157040874909,1
2025-03-08 13:22:18.299,-5.072762337671348e-05,0.3964066141821153,1
2025-03-08 13:22:18.307,-4.666434855899002e-05,0.4374637310561277,1
2025-03-08 13:22:18.314,-4.1927215411557976e-05,0.4714703706483139,1
2025-03-08 13:22:18.322,-3.64881996842667e-05,0.4967106663230582,1
2025-03-08 13:22:18.330,-3.0344566705114496e-05,0.5117959684559318,1
2025-03-08 13:22:18.338,-2.351834097585987e-05,0.5156830590592497,1
2025-03-08 13:22:18.346,-1.6054415145906576e-05,0.5076840498226275,1
2025-03-08 13:22:18.354,-8.01753120228917e-06,0.4874677650948211,1
2025-03-08 13:22:18.361,5.115516933802121e-07,0.4550523801932511,1
2025-03-08 13:22:18.369,9.440371292809684e-06,0.4107891242626237,1
2025-03-08 13:22:18.377,1.8669251468303327e-05,0.3553369908661883,1
2025-03-08 13:22:18.385,2.8095701584314825e-05,0.2896286342627062,1
2025-03-08 13:22:18.393,3.761850832828306e-05,0.214827945688105,1
2025-03-08 13:22:18.400,4.714135126659741e-05,0.1322801617455018,1
2025-03-08 13:22:18.408,5.6575822176286274e-05,0.0434557075539419,1
2025-03-08 13:22:18.416,6.584377508936429e-05,-0.05011072090261,1
2025-03-08 13:22:18.424,7.487897749383244e-05,-0.1468841006988187,1
2025-03-08 13:22:18.432,8.362807203998261e-05,-0.2453941619515585,1
2025-03-08 13:22:18.440,9.205089145351668e-05,-0.3442996226652623,1
2025-03-08 13:22:18.447,0.0001001201964885,-0.4424495591315509,1
2025-03-08 13:22:18.455,0.0001078209272707,-0.5389398983821898,1
2025-03-08 13:22:18.463,0.0001151490721594,-0.6331630628823174,1
2025-03-08 13:22:18.471,0.0001221102654119,-0.7248488775082226,1
2025-03-08 13:22:18.479,0.0001287182258239,-0.814094970920272,1
2025-03-08 13:22:18.486,0.0001349931436698,-0.901385079597793,1
2025-03-08 13:22:18.494,0.0001409601134032,-0.9875939001154228,1
2025-03-08 13:22:18.502,0.0001466476955291,-1.0739774257586931,1
2025-03-08 13:22:18.510,0.0001520866737664,-1.162148027196842,1
2025-03-08 13:22:18.518,0.0001573090540837,-1.2540338772832431,1
2025-03-08 13:22:18.525,0.0001623473314441,-1.3518226792792714,1
2025-03-08 13:22:18.533,0.0001672340291534,-1.457890057708445,1
2025-03-08 13:22:18.541,0.0001720014955759,-1.5747134418709825,1
2025-03-08 13:22:18.549,0.0001766819245739,-1.7047728381562155,1
2025-03-08 13:22:18.557,0.0001813075501975,-1.850440555982839,1
2025-03-08 13:22:18.565,0.0001859109536095,-2.0138627062592964,1
2025-03-08 13:22:18.572,0.0001905254115899,-2.196836085907804,1
2025-03-08 13:22:18.580,0.0001951852116515,-2.4006848283379343,1
2025-03-08 13:22:18.588,0.0001999258591242,-2.6261418550207485,1
2025-03-08 13:22:18.596,0.0002047841066162,-2.8732406252087963,1
2025-03-08 13:22:18.604,0.0002097977460062,-3.1412228816955365,1
2025-03-08 13:22:18.611,0.0002150051172986,-3.428467986115072,1
2025-03-08 13:22:18.619,0.0002204443068892,-3.73244900783982,1
2025-03-08 13:22:18.627,0.0002261520294572,-4.0497199770297225,1
2025-03-08 13:22:18.635,0.0002321622120835,-4.375937654311832,1
2025-03-08 13:22:18.643,0.0002385043254308,-4.705919845261072,1
2025-03-08 13:22:18.650,0.0002452015339025,-5.033740754923328,1
2025-03-08 13:22:18.658,0.0002522687635531,-5.352862210714456,1
2025-03-08 13:22:18.666,0.0002597108119879,-5.656297866996781,1
2025-03-08 13:22:18.674,0.0002675206473957,-5.936805831763556,1
2025-03-08 13:22:18.682,0.0002756780630125,-6.187103615947474,1
2025-03-08 13:22:18.690,0.0002841488659738,-6.4000979879088655,1
2025-03-08 13:22:18.697,0.0002928847749333,-6.569121300698583,1
2025-03-08 13:22:18.705,0.0003018241574882,-6.68816521032482,1
2025-03-08 13:22:18.713,0.0003108936444273,-6.752102456403905,1
2025-03-08 13:22:18.721,0.0003200105389101,-6.756887545898232,1
2025-03-08 13:22:18.729,0.0003290858444743,-6.699727764769534,1
2025-03-08 13:22:18.736,0.0003380276921761,-6.57921692938977,1
2025-03-08 13:22:18.744,0.0003467449425067,-6.395425653533561,1
2025-03-08 13:22:18.752,0.0003551507508044,-6.149943600997526,1
2025-03-08 13:22:18.760,0.0003631659053844,-5.845871147301883,1
2025-03-08 13:22:18.768,0.0003707217732556,-5.487759993024745,1
2025-03-08 13:22:18.775,0.0003777627184088,-5.081504446064313,1
2025-03-08 13:22:18.783,0.000384247891567,-4.634187202762631,1
2025-03-08 13:22:18.791,0.0003901523272895,-4.153885393771024,1
2025-03-08 13:22:18.799,0.0003954673237278,-3.649444319737979,1
2025-03-08 13:22:18.807,0.000400200119795,-3.1302276078489477,1
2025-03-08 13:22:18.815,0.000404372913614,-2.605853422694798,1
2025-03-08 13:22:18.822,0.0004080212634868,-2.085926834282553,1
2025-03-08 13:22:18.830,0.0004111918662833,-1.579778464273744,1
2025-03-08 13:22:18.838,0.0004139396435955,-1.0962190900794304,1
2025-03-08 13:22:18.846,0.0004163240322149,-0.6433189947471086,1
2025-03-08 13:22:18.854,0.0004184043974761,-0.2282195495589059,1
2025-03-08 13:22:18.861,0.0004202345528284,0.143017115350661,1
2025-03-08 13:22:18.869,0.0004218564538683,0.4655163489313854,1
2025-03-08 13:22:18.877,0.0004232932277636,0.7356550694286657,1
2025-03-08 13:22:18.885,0.0004245417950347,0.9510815745996096,1
2025-03-08 13:22:18.893,0.0004255654369178,1.110692746261983,1
2025-03-08 13:22:18.900,0.0004262867530864,1.2145719494592155,1
2025-03-08 13:22:18.908,0.0004265815282731,1.2638923344820494,1
2025-03-08 13:22:18.916,0.000426274058322,1.26079141617869,1
2025-03-08 13:22:18.924,0.0004251344603255,1.208223707963442,1
2025-03-08 13:22:18.932,0.0004228784213633,1.1097988038442517,1
2025-03-08 13:22:18.940,0.0004191697509032,0.969612605685236,1
2025-03-08 13:22:18.947,0.0004136259959564,0.7920793627273524,1
2025-03-08 13:22:18.955,0.0004058272460779,0.5817718124592701,1
2025-03-08 13:22:18.963,0.0003953281018287,0.3432759887530167,1
2025-03-08 13:22:18.971,0.0003816726142612,0.0810662210715023,1
2025-03-08 13:22:18.979,0.0003644118162037,-0.2005954592121774,1
2025-03-08 13:22:18.986,0.000343123246832,-0.4977327858343296,1
2025-03-08 13:22:18.994,0.0003174316386582,-0.8067004702382965,1
2025-03-08 13:22:19.002,0.0002870297470152,-1.1242016171847382,1
2025-03-08 13:22:19.010,0.0002516982119293,-1.4472792779212806,1
2025-03-08 13:22:19.018,0.0002113233660495,-1.7732853540662392,1
2025-03-08 13:22:19.025,0.0001659120125689,-2.099831076927459,1
2025-03-08 13:22:19.033,0.0001156023491091,-2.424723992364703,1
2025-03-08 13:22:19.041,6.067037471884834e-05,-2.7458967723424275,1
2025-03-08 13:22:19.049,1.5312859219550395e-06,-3.061333268383283,1
2025-03-08 13:22:19.057,-6.126443459389454e-05,-3.3689970511165237,1
2025-03-08 13:22:19.065,-0.0001270402943705,-3.6667672782526326,1
2025-03-08 13:22:19.072,-0.0001950082262435,-3.952386129404292,1
2025-03-08 13:22:19.080,-0.0002642877127713,-4.223421263809152,1
2025-03-08 13:22:19.088,-0.0003339288833181,-4.4772458226542025,1
2025-03-08 13:22:19.096,-0.0004029386415363,-4.711037451772585,1
2025-03-08 13:22:19.104,-0.0004703086936862,-4.9217967227814405,1
2025-03-08 13:22:19.111,-0.000535044226688,-5.106384253833508,1
2025-03-08 13:22:19.119,-0.0005961919554315,-5.261574845199238,1
2025-03-08 13:22:19.127,-0.0006528663329707,-5.384126104408727,1
2025-03-08 13:22:19.135,-0.0007042728840886,-5.470858375320518,1
2025-03-08 13:22:19.143,-0.0007497278548446,-5.518742322665009,1
2025-03-08 13:22:19.150,-0.0007886736313092,-5.524990262566182,1
2025-03-08 13:22:19.158,-0.0008206896330601,-5.487147263235854,1
2025-03-08 13:22:19.166,-0.0008454986120483,-5.403178149399171,1
2025-03-08 13:22:19.174,-0.0008629684873987,-5.27154679751543,1
2025-03-08 13:22:19.182,-0.0008731100221094,-5.091284467060134,1
2025-03-08 13:22:19.190,-0.0008760707872458,-4.862044339563993,1
2025-03-08 13:22:19.197,-0.0008721259647308,-4.584139910810615,1
2025-03-08 13:22:19.205,-0.0008616666270748,-4.258565403750427,1
2025-03-08 13:22:19.213,-0.0008451861867288,-3.886996958882051,1
2025-03-08 13:22:19.221,-0.0008232656763578,-3.4717740364011087,1
2025-03-08 13:22:19.229,-0.0007965583785806,-3.015861238351276,1
2025-03-08 13:22:19.236,-0.0007657741175901,-2.5227916152805547,1
2025-03-08 13:22:19.244,-0.0007316633378807,-1.9965934232138485,1
2025-03-08 13:22:19.252,-0.0006950009819735,-1.4417031844000747,1
2025-03-08 13:22:19.260,-0.0006565701599604,-0.8628687033396241,1
2025-03-08 13:22:19.268,-0.0006171456835794,-0.2650463147484151,1
2025-03-08 13:22:19.275,-0.0005774776953116,0.346702982825607,1
2025-03-08 13:22:19.283,-0.0005382757980441,0.967313776476391,1
2025-03-08 13:22:19.291,-0.0005001942096637,1.5918083795054938,1
2025-03-08 13:22:19.299,-0.0004638184931656,2.215376907650294,1
2025-03-08 13:22:19.307,-0.000429654366488,2.833442118953375,1
2025-03-08 13:22:19.315,-0.000398119022067,3.4417068072451475,1
2025-03-08 13:22:19.322,-0.000369535306279,4.036182609509088,1
2025-03-08 13:22:19.330,-0.0003441290045522,4.61320020438436,1
2025-03-08 13:22:19.338,-0.0003220293157446,5.169401991023436,1
2025-03-08 13:22:19.346,-0.0003032723804537,5.701719396506799,1
2025-03-08 13:22:19.354,-0.0002878074942634,6.2073379137542455,1
2025-03-08 13:22:19.361,-0.0002755054277661,6.68365375880193,1
2025-03-08 13:22:19.369,-0.0002661681142559,7.128226587347898,1
2025-03-08 13:22:19.377,-0.0002595388899999,7.538732959568003,1
2025-03-08 13:22:19.385,-0.0002553125180138,7.912925144058571,1
2025-03-08 13:22:19.393,-0.0002531443880407,8.248599398743217,1
2025-03-08 13:22:19.400,-0.0002526585185585,8.543577094320261,1
2025-03-08 13:22:19.408,-0.0002534542493153,8.795701023495283,1
2025-03-08 13:22:19.416,-0.000255111780465,9.002848052597962,1
2025-03-08 13:22:19.424,-0.000257196962377,9.162958011350405,1
2025-03-08 13:22:19.432,-0.0002592659256152,9.274077471883114,1
2025-03-08 13:22:19.440,-0.0002608702100413,9.334415927861476,1
2025-03-08 13:22:19.447,-0.0002615629794859,9.342410929552964,1
2025-03-08 13:22:19.455,-0.0002609067191057,9.296798028177257,1
2025-03-08 13:22:19.463,-0.0002584825590224,9.196680984674074,1
2025-03-08 13:22:19.471,-0.0002539010924258,9.041597638993832,1
2025-03-08 13:22:19.479,-0.0002468142830037,8.831577127769757,1
2025-03-08 13:22:19.486,-0.0002369278096552,8.567184758336701,1
2025-03-08 13:22:19.494,-0.0002240130193368,8.24955173332072,1
2025-03-08 13:22:19.502,-0.0002079176058781,7.880387977739202,1
2025-03-08 13:22:19.510,-0.000188574229406,7.461977441979958,1
2025-03-08 13:22:19.518,-0.0001660065028895,6.997156341452486,1
2025-03-08 13:22:19.525,-0.0001403320166492,6.48927577614726,1
2025-03-08 13:22:19.533,-0.0001117622650537,5.942151011236138,1
2025-03-08 13:22:19.541,-8.059944482332496e-05,5.360000377086049,1
2025-03-08 13:22:19.549,-4.723013300448448e-05,4.747377253806741,1
2025-03-08 13:22:19.557,-1.2115875022458112e-05,4.1090989215682745,1
2025-03-08 13:22:19.565,2.4219234910227727e-05,3.4501761499793764,1
2025-03-08 13:22:19.572,6.12037827160055e-05,2.775747235518297,1
2025-03-08 13:22:19.580,9.823668040149576e-05,2.0910197652379403,1
2025-03-08 13:22:19.588,0.0001347065936343,1.4012227126319197,1
2025-03-08 13:22:19.596,0.0001700122873574,0.7115706147990679,1
2025-03-08 13:22:19.604,0.0002035828752129,0.0272406127740811,1
2025-03-08 13:22:19.611,0.0002348969232788,-0.6466378680761629,1
2025-03-08 13:22:19.619,0.000263499442134,-1.3049820005490451,1
2025-03-08 13:22:19.627,0.0002890159692337,-1.9427451030493093,1
2025-03-08 13:22:19.635,0.0003111631463335,-2.5548997170695555,1
2025-03-08 13:22:19.643,0.0003297554068667,-3.1364176516567057,1
2025-03-08 13:22:19.650,0.0003447076113357,-3.6822507672551232,1
2025-03-08 13:22:19.658,0.0003560337121633,-4.187316348738627,1
2025-03-08 13:22:19.666,0.0003638417656799,-4.646490747451558,1
2025-03-08 13:22:19.674,0.0003683257882907,-5.054614594673302,1
2025-03-08 13:22:19.682,0.0003697550515533,-5.406512359113174,1
2025-03-08 13:22:19.690,0.0003684614408279,-5.6970283890426,1
2025-03-08 13:22:19.697,0.0003648254886702,-5.921080875510083,1
2025-03-08 13:22:19.705,0.000359261651377,-6.073734403684933,1
2025-03-08 13:22:19.713,0.0003522033333266,-6.150290918534088,1
2025-03-08 13:22:19.721,0.0003440880939662,-6.146398014893177,1
2025-03-08 13:22:19.729,0.0003353434224753,-6.058172480973151,1
2025-03-08 13:22:19.736,0.0003263734517562,-5.88233600755769,1
2025-03-08 13:22:19.744,0.0003175469851311,-5.616358968773461,1
2025-03-08 13:22:19.752,0.0003091871806952,-5.258607243060909,1
2025-03-08 13:22:19.760,0.0003015631578177,-4.808486240353216,1
2025-03-08 13:22:19.768,0.0002948836732392,-4.266575699831694,1
2025-03-08 13:22:19.775,0.0002892928867986,-3.6347484849715137,1
2025-03-08 13:22:19.783,0.0002848681236933,-2.9162665875522924,1
2025-03-08 13:22:19.791,0.0002816194765688,-2.115847912147822,1
2025-03-08 13:22:19.799,0.0002794911113961,-1.239698183730369,1
2025-03-08 13:22:19.807,0.0002783642334953,-0.2955035074127176,1
2025-03-08 13:22:19.815,0.0002780617602832,0.7076193323101809,1
2025-03-08 13:22:19.822,0.0002783547615625,1.7592159101140306,1
2025-03-08 13:22:19.830,0.0002789706558158,2.847629637987924,1
2025-03-08 13:22:19.838,0.0002796030369604,3.96017682596674,1
2025-03-08 13:22:19.846,0.0002799229052426,5.083356675868505,1
2025-03-08 13:22:19.854,0.0002795910153764,6.203090050944818,1
2025-03-08 13:22:19.861,0.0002782710148634,7.304979718216502,1
2025-03-08 13:22:19.869,0.0002756429810939,8.37458401045215,1
2025-03-08 13:22:19.877,0.000271416858557,9.39769550574074,1
2025-03-08 13:22:19.885,0.0002653451762578,10.3606163611117,1
2025-03-08 13:22:19.893,0.0002572343496407,11.250422337665569,1
2025-03-08 13:22:19.900,0.0002469539007508,12.055208279184498,1
2025-03-08 13:22:19.908,0.0002344430887825,12.76430879650186,1
2025-03-08 13:22:19.916,0.0002197146928321,13.368489089080406,1
2025-03-08 13:22:19.924,0.0002028559447841,13.860102112643808,1
2025-03-08 13:22:19.932,0.0001840267896463,14.233209584151377,1
2025-03-08 13:22:19.940,0.0001634557252481,14.483665521468485,1
2025-03-08 13:22:19.947,0.0001414334857423,14.609162087113791,1
2025-03-08 13:22:19.955,0.0001183048449775,14.609238414261212,1
2025-03-08 13:22:19.963,9.445884037225248e-05,14.485253834476037,1
2025-03-08 13:22:19.971,7.031773257887835e-05,14.240327513142576,1
2025-03-08 13:22:19.979,4.632502251683718e-05,13.879246952979496,1
2025-03-08 13:22:19.986,2.293287264923136e-05,13.408348178353092,1
2025-03-08 13:22:19.994,5.893221630607992e-07,12.83537069767392,1
2025-03-08 13:22:20.002,-2.0274290928832036e-05,12.169290590589547,1
2025-03-08 13:22:20.010,-3.92553059184297e-05,11.420135304556975,1
2025-03-08 13:22:20.018,-5.59907655518008e-05,10.598783982913414,1
2025-03-08 13:22:20.025,-7.016719733639188e-05,9.716757382330698,1
2025-03-08 13:22:20.033,-8.152890515325787e-05,8.786001657333793,1
2025-03-08 13:22:20.041,-8.988457168380634e-05,7.818670467284973,1
2025-03-08 13:22:20.049,-9.511201383726852e-05,6.8269099622034,1
2025-03-08 13:22:20.057,-9.716097283968394e-05,5.822651189183474,1
2025-03-08 13:22:20.065,-9.605385979425322e-05,4.81741429347588,1
2025-03-08 13:22:20.072,-9.188441846356376e-05,3.822128540533752,1
2025-03-08 13:22:20.080,-8.481431194879005e-05,2.846971653559493,1
2025-03-08 13:22:20.088,-7.506769094549944e-05,1.901231272566458,1
2025-03-08 13:22:20.096,-6.292386016874685e-05,0.9931905498029168,1
2025-03-08 13:22:20.104,-4.870822775960334e-05,0.1300390674117801,1
2025-03-08 13:22:20.111,-3.278180082966172e-05,-0.6821905450963439,1
2025-03-08 13:22:20.119,-1.5529578881030815e-05,-1.4386606585446082,1
2025-03-08 13:22:20.127,2.651706663773992e-06,-2.135742363752867,1
2025-03-08 13:22:20.135,2.1365967054816884e-05,-2.7710063806026,1
2025-03-08 13:22:20.143,4.022965135647404e-05,-3.343193027336832,1
2025-03-08 13:22:20.150,5.8882589258871e-05,-3.8521632994371897,1
2025-03-08 13:22:20.158,7.69973026042331e-05,-4.298833107766414,1
2025-03-08 13:22:20.166,9.428642479555148e-05,-4.685092565210657,1
2025-03-08 13:22:20.174,0.0001105079618225,-5.013711932633777,1
2025-03-08 13:22:20.182,0.000125468197265,-5.288235505526843,1
2025-03-08 13:22:20.190,0.0001390221195589,-5.512864423297721,1
2025-03-08 13:22:20.197,0.0001510713631077,-5.692329193641242,1
2025-03-08 13:22:20.205,0.000161559805124,-5.831752709673696,1
2025-03-08 13:22:20.213,0.0001704671213186,-5.936504736236039,1
2025-03-08 13:22:20.221,0.0001778007476683,-6.012049258256542,1
2025-03-08 13:22:20.229,0.0001835867999015,-6.063786684754782,1
2025-03-08 13:22:20.236,0.0001878605426117,-6.096893621910006,1
2025-03-08 13:22:20.244,0.0001906569636624,-6.116163687212398,1
2025-03-08 13:22:20.252,0.000192001922874,-6.125853556171035,1
2025-03-08 13:22:20.260,0.0001919042574467,-6.129539047801289,1
2025-03-08 13:22:20.268,0.0001903491676759,-6.129986510652909,1
2025-03-08 13:22:20.275,0.0001872931656655,-6.12904501623274,1
2025-03-08 13:22:20.283,0.0001826608283083,-6.127564847561963,1
2025-03-08 13:22:20.291,0.0001763435463826,-6.125347434776471,1
2025-03-08 13:22:20.299,0.0001682004051613,-6.121131199977924,1
2025-03-08 13:22:20.307,0.0001580612712292,-6.112616724869143,1
2025-03-08 13:22:20.315,0.0001457320982096,-6.096533283314772,1
2025-03-08 13:22:20.322,0.0001310024022512,-6.068747161186752,1
2025-03-08 13:22:20.330,0.0001136547898194,-6.024410415782207,1
2025-03-08 13:22:20.338,9.34763264306091e-05,-5.958146910974774,1
2025-03-08 13:22:20.346,7.02713975314145e-05,-5.864270700943719,1
2025-03-08 13:22:20.354,4.38755403083086e-05,-5.737030215400974,1
2025-03-08 13:22:20.361,1.4169558968590684e-05,-5.570870304715272,1
2025-03-08 13:22:20.369,-1.890686959035135e-05,-5.36070310510419,1
2025-03-08 13:22:20.377,-5.534289828524078e-05,-5.102177938729147,1
2025-03-08 13:22:20.385,-9.504622079737811e-05,-4.791940111810887,1
2025-03-08 13:22:20.393,-0.000137835323316,-4.42786853891164,1
2025-03-08 13:22:20.400,-0.0001834346294597,-4.009282605371546,1
2025-03-08 13:22:20.408,-0.0002314727565534,-3.5371095606168708,1
2025-03-08 13:22:20.416,-0.0002814840379527,-3.0140049675763056,1
2025-03-08 13:22:20.424,-0.0003329134483477,-2.4444202543270945,1
2025-03-08 13:22:20.432,-0.0003851250475512,-1.834613148743316,1
2025-03-08 13:22:20.440,-0.0004374139971375,-1.1925986471327024,1
2025-03-08 13:22:20.447,-0.0004890220904896,-0.5280400974778173,1
2025-03-08 13:22:20.455,-0.0005391565696671,0.1479181046617984,1
2025-03-08 13:22:20.463,-0.0005870117857086,0.8228728684209006,1
2025-03-08 13:22:20.471,-0.000631793000562,1.4834347528310845,1
2025-03-08 13:22:20.479,-0.000672741349159,2.115543682920063,1
2025-03-08 13:22:20.486,-0.0007091587242863,2.704819998271394,1
2025-03-08 13:22:20.494,-0.0007404311813695,3.236941523110198,1
2025-03-08 13:22:20.502,-0.0007660494396357,3.698036223839881,1
2025-03-08 13:22:20.510,-0.000785625186721,4.075079073559409,1
2025-03-08 13:22:20.518,-0.0007989021399872,4.356281019720601,1
2025-03-08 13:22:20.525,-0.0008057611439076,4.531457507757405,1
2025-03-08 13:22:20.533,-0.0008062189721374,4.592363914093977,1
2025-03-08 13:22:20.541,-0.0008004209368264,4.532985556371796,1
2025-03-08 13:22:20.549,-0.0007886278535111,4.349770745288724,1
2025-03-08 13:22:20.557,-0.0007711983342483,4.041796670396047,1
2025-03-08 13:22:20.565,-0.0007485677550144,3.61085978637324,1
2025-03-08 13:22:20.572,-0.0007212255229607,3.061484761649662,1
2025-03-08 13:22:20.580,-0.0006896923936755,2.400848902711916,1
2025-03-08 13:22:20.588,-0.0006544995050957,1.6386221694934997,1
2025-03-08 13:22:20.596,-0.0006161704976572,0.7867263055983215,1
2025-03-08 13:22:20.604,-0.0005752076398155,-0.1409799543226165,1
2025-03-08 13:22:20.611,-0.0005320823733908,-1.129079365744201,1
2025-03-08 13:22:20.619,-0.0004872302216198,-2.1610252073673366,1
2025-03-08 13:22:20.627,-0.0004410496171347,-3.219605388159896,1
2025-03-08 13:22:20.635,-0.0003939039335149,-4.287424530702502,1
2025-03-08 13:22:20.643,-0.0003461258446437,-5.347386149672811,1
2025-03-08 13:22:20.650,-0.0002980230720953,-6.383157153496772,1
2025-03-08 13:22:20.658,-0.0002498845914591,-7.379597891623271,1
2025-03-08 13:22:20.666,-0.0002019864433722,-8.323142778672558,1
2025-03-08 13:22:20.674,-0.0001545964294187,-9.20211902339782,1
2025-03-08 13:22:20.682,-0.0001079771617701,-10.006994005060632,1
2025-03-08 13:22:20.690,-6.238716965236873e-05,-10.73054517340904,1
2025-03-08 13:22:20.697,-1.80800250819338e-05,-11.367949788945484,1
2025-03-08 13:22:20.705,2.469830775066148e-05,-11.916795160420456,1
2025-03-08 13:22:20.713,6.571352565787389e-05,-12.377013092452426,1
2025-03-08 13:22:20.721,0.0001047480013099,-12.750744883380994,1
2025-03-08 13:22:20.729,0.0001416063347792,-13.042145318718784,1
2025-03-08 13:22:20.736,0.0001761210707316,-13.257135650691996,1
2025-03-08 13:22:20.744,0.0002081582692498,-13.40311654869477,1
2025-03-08 13:22:20.752,0.000237622670745,-13.48865248851919,1
2025-03-08 13:22:20.760,0.0002644622401049,-13.523139072280326,1
2025-03-08 13:22:20.768,0.0002886719131258,-13.516464394799684,1
2025-03-08 13:22:20.776,0.0003102964009196,-13.478674863935298,1
2025-03-08 13:22:20.783,0.0003294319372928,-13.419654919862028,1
2025-03-08 13:22:20.791,0.0003462268822425,-13.348828961532847,1
2025-03-08 13:22:20.799,0.0003608811240011,-13.27489254807954,1
2025-03-08 13:22:20.807,0.0003736442547505,-13.205578651924164,1
2025-03-08 13:22:20.815,0.0003848125332647,-13.147463432992886,1
2025-03-08 13:22:20.822,0.000394724693063,-13.105814699377207,1
2025-03-08 13:22:20.830,0.0004037567084014,-13.084484932424491,1
2025-03-08 13:22:20.838,0.0004123156916108,-13.085849497264292,1
2025-03-08 13:22:20.846,0.0004208331541711,-13.110789449873646,1
2025-03-08 13:22:20.854,0.0004297578974314,-13.158717207698608,1
2025-03-08 13:22:20.861,0.0004395487829004,-13.227642291267625,1
2025-03-08 13:22:20.869,0.0004506675601388,-13.31427338689175,1
2025-03-08 13:22:20.877,0.0004635718156472,-13.414152143145536,1
2025-03-08 13:22:20.885,0.0004787079745621,-13.521813415263042,1
2025-03-08 13:22:20.893,0.0004965041677162,-13.630966133497864,1
2025-03-08 13:22:20.901,0.0005173626867623,-13.73468862132555,1
2025-03-08 13:22:20.908,0.0005416517003495,-13.825632061312469,1
2025-03-08 13:22:20.916,0.0005696959183382,-13.896225932949305,1
2025-03-08 13:22:20.924,0.0006017659831128,-13.938879641193838,1
2025-03-08 13:22:20.932,0.0006380665174219,-13.946175197872128,1
2025-03-08 13:22:20.940,0.0006787229462148,-13.911046659224091,1
2025-03-08 13:22:20.947,0.0007237674409182,-13.82694298888844,1
2025-03-08 13:22:20.955,0.0007731246069354,-13.687972023111447,1
2025-03-08 13:22:20.963,0.0008265978094808,-13.489024178509274,1
2025-03-08 13:22:20.971,0.0008838572416826,-13.225875384413852,1
2025-03-08 13:22:20.979,0.0009444309151375,-12.895269382947845,1
2025-03-08 13:22:20.986,0.0010076996653733,-12.494979990323593,1
2025-03-08 13:22:20.994,0.0010728970347561,-12.023854153875984,1
2025-03-08 13:22:21.002,0.0011391145747941,-11.481836700148222,1
2025-03-08 13:22:21.010,0.0012053127503699,-10.869977597438051,1
2025-03-08 13:22:21.018,0.0012703372837972,-10.190422405547048,1
2025-03-08 13:22:21.026,0.0013329405019472,-9.44638640661716,1
2025-03-08 13:22:21.033,0.0013918070658228,-8.642112746887143,1
2025-03-08 13:22:21.041,0.0014455833302923,-7.782814806200402,1
2025-03-08 13:22:21.049,0.0014929094483287,-6.874602981532672,1
2025-03-08 13:22:21.057,0.0015324531954626,-5.924396150065295,1
2025-03-08 13:22:21.065,0.0015629443884713,-4.939818288256379,1
2025-03-08 13:22:21.072,0.0015832087370877,-3.9290810757720487,1
2025-03-08 13:22:21.080,0.0015921999932713,-2.900853794883709,1
2025-03-08 13:22:21.088,0.0015890293351407,-1.864122408349125,1
2025-03-08 13:22:21.096,0.0015729910390856,-0.828040303778963,1
2025-03-08 13:22:21.104,0.0015435836572806,0.1982262340205822,1
2025-03-08 13:22:21.111,0.0015005261236637,1.2056542791629417,1
2025-03-08 13:22:21.119,0.0014437684326616,2.1855183667143563,1
2025-03-08 13:22:21.127,0.0013734967320821,3.129538403712313,1
2025-03-08 13:22:21.135,0.0012901328279229,4.030017409759492,1
2025-03-08 13:22:21.143,0.0011943282353265,4.87996538350288,1
2025-03-08 13:22:21.151,0.0010869530483249,5.673206064576453,1
2025-03-08 13:22:21.158,0.0009690800270572,6.404463986984329,1
2025-03-08 13:22:21.166,0.0008419643809296,7.069429946396614,1
2025-03-08 13:22:21.174,0.0007070197496637,7.664803786573883,1
2025-03-08 13:22:21.182,0.0005657908847315,8.188314220715997,1
2025-03-08 13:22:21.190,0.0004199235671472,8.638716220412217,1
2025-03-08 13:22:21.197,0.0002711323959789,9.015767301212271,1
2025-03-08 13:22:21.205,0.0001211672275789,9.320184773528284,1
2025-03-08 13:22:21.213,-2.822080561286508e-05,9.55358666983062,1
2025-03-08 13:22:21.221,-0.0001753126504748,9.71841956489424,1
2025-03-08 13:22:21.229,-0.0003184529531905,9.817876842433462,1
2025-03-08 13:22:21.236,-0.0004560788504631,9.855811105328184,1
2025-03-08 13:22:21.244,-0.0005867449576437,9.83664436597024,1
2025-03-08 13:22:21.252,-0.0007091437996545,9.765279390045684,1
2025-03-08 13:22:21.260,-0.0008221212255323,9.647015117281711,1
2025-03-08 13:22:21.268,-0.0009246866879306,9.487468472092091,1
2025-03-08 13:22:21.276,-0.0010160186304008,9.292504135457422,1
2025-03-08 13:22:21.283,-0.0010954655770181,9.06817301034486,1
2025-03-08 13:22:21.291,-0.0011625438233349,8.820659221446444,1
2025-03-08 13:22:21.299,-0.001216932851211,8.556234611387337,1
2025-03-08 13:22:21.307,-0.0012584697107563,8.281218915975044,1
2025-03-08 13:22:21.315,-0.0012871436254697,8.00194321279693,1
2025-03-08 13:22:21.322,-0.0013030919903917,7.724713914579022,1
2025-03-08 13:22:21.330,-0.0013065987518138,7.455774558422917,1
2025-03-08 13:22:21.338,-0.0012980958734798,7.201262922453704,1
2025-03-08 13:22:21.346,-0.0012781682060652,6.967161550971693,1
2025-03-08 13:22:21.354,-0.0012475615984228,6.75924053712632,1
2025-03-08 13:22:21.361,-0.0012071935479248,6.582992334323496,1
2025-03-08 13:22:21.369,-0.0011581651240809,6.44355936707408,1
2025-03-08 13:22:21.377,-0.0011017723772119,6.345656197500663,1
2025-03-08 13:22:21.385,-0.0010395150381563,6.2934888743209045,1
2025-03-08 13:22:21.393,-0.0009731000841578,6.290674751473883,1
2025-03-08 13:22:21.401,-0.0009044377176104,6.340166443856333,1
2025-03-08 13:22:21.408,-0.0008356274896431,6.444183659032774,1
2025-03-08 13:22:21.416,-0.0007689327026946,6.604156423791991,1
2025-03-08 13:22:21.424,-0.0007067418362685,6.820682770615361,1
2025-03-08 13:22:21.432,-0.0006515165401945,7.093503342548775,1
2025-03-08 13:22:21.440,-0.0006057266937549,7.421494699500309,1
2025-03-08 13:22:21.447,-0.0005717740588914,7.802682434145298,1
2025-03-08 13:22:21.455,-0.0005519070438142,8.234274576881107,1
2025-03-08 13:22:21.463,-0.0005481299225108,8.712715205579247,1
2025-03-08 13:22:21.471,-0.0005621104554072,9.23375767153599,1
2025-03-08 13:22:21.479,-0.0005950902167815,9.792556381342305,1
2025-03-08 13:22:21.486,-0.0006478020769013,10.383775593964437,1
2025-03-08 13:22:21.494,-0.000720399232325,11.001713157962994,1
2025-03-08 13:22:21.502,-0.0008123999416196,11.640436491148312,1
2025-03-08 13:22:21.510,-0.0009226517085224,12.293927386081512,1
2025-03-08 13:22:21.518,-0.0010493180394813,12.956231441407963,1
2025-03-08 13:22:21.526,-0.0011898900707736,13.62160714666752,1
2025-03-08 13:22:21.533,-0.0013412243383078,14.284668993422,1
2025-03-08 13:22:21.541,-0.0014996067989539,14.940518559417466,1
2025-03-08 13:22:21.549,-0.0016608419361942,15.584857407780143,1
2025-03-08 13:22:21.557,-0.0018203644417476,16.214075923892477,1
2025-03-08 13:22:21.565,-0.0019733696925737,16.825312911066895,1
2025-03-08 13:22:21.572,-0.0021149582499398,17.416481880465117,1
2025-03-08 13:22:21.580,-0.002240289065128,17.9862614609627,1
2025-03-08 13:22:21.588,-0.002344735999908,18.534049142045127,1
2025-03-08 13:22:21.596,-0.0024240425163756,19.059879533778368,1
2025-03-08 13:22:21.604,-0.0024744697678895,19.56431034409266,1
2025-03-08 13:22:21.611,-0.0024929336954551,20.04828118706237,1
2025-03-08 13:22:21.619,-0.0024771270500799,20.512952006017727,1
2025-03-08 13:22:21.627,-0.0024256225217097,20.959529204238244,1
2025-03-08 13:22:21.635,-0.0023379533820476,21.3890884376984,1
2025-03-08 13:22:21.643,-0.0022146682837154,21.80240338670412,1
2025-03-08 13:22:21.651,-0.0020573571781889,22.19978966481149,1
2025-03-08 13:22:21.658,-0.0018686458299583,22.580972351195463,1
2025-03-08 13:22:21.666,-0.0016521572075689,22.944984483990023,1
2025-03-08 13:22:21.674,-0.001412439128151,23.290102297832405,1
2025-03-08 13:22:21.682,-0.0011548588221888,23.61382113162803,1
2025-03-08 13:22:21.690,-0.0008854664289106,23.91287389710624,1
2025-03-08 13:22:21.697,-0.0006108307192761,24.18329191499134,1
2025-03-08 13:22:21.705,-0.0003378515216042,24.42050591186257,1
2025-03-08 13:22:21.713,-7.355438799376572e-05,24.619483123584157,1
2025-03-08 13:22:21.721,0.0001751260103325,24.77489484373199,1
2025-03-08 13:22:21.729,0.0004015664589666,24.881307440047816,1
2025-03-08 13:22:21.736,0.000599671836166,24.933388872150942,1
2025-03-08 13:22:21.744,0.0007640795725086,24.926122096136915,1
2025-03-08 13:22:21.752,0.0008903437558335,24.85501644126185,1
2025-03-08 13:22:21.760,0.0009750912221353,24.71630809226927,1
2025-03-08 13:22:21.768,0.0010161429806502,24.507141210812,1
2025-03-08 13:22:21.776,0.001012595765349,24.22572198046906,1
2025-03-08 13:22:21.783,0.0009648602650928,23.87143894886159,1
2025-03-08 13:22:21.791,0.0008746545125669,23.444944432953744,1
2025-03-08 13:22:21.799,0.0007449528566976,22.948193390682057,1
2025-03-08 13:22:21.807,0.0005798927544248,22.38443796188244,1
2025-03-08 13:22:21.815,0.000384643174455,21.758177747312487,1
2025-03-08 13:22:21.822,0.0001652396723523,21.075067725518057,1
2025-03-08 13:22:21.830,-7.160774841680643e-05,20.341787409547443,1
2025-03-08 13:22:21.838,-0.0003187269051049,19.56587634143029,1
2025-03-08 13:22:21.846,-0.000568707851201,18.75554225547381,1
2025-03-08 13:22:21.854,-0.0008141308229628,17.919449175318583,1
2025-03-08 13:22:21.861,-0.0010477890179544,17.06649332117795,1
2025-03-08 13:22:21.869,-0.0012628981172276,16.205574976012393,1
2025-03-08 13:22:21.877,-0.0014532856524168,15.34537438051632,1
2025-03-08 13:22:21.885,-0.001613554786756,14.494139293477623,1
2025-03-08 13:22:21.893,-0.0017392185067689,13.659491078549,1
2025-03-08 13:22:21.901,-0.0018268014137412,12.84825509478932,1
2025-03-08 13:22:21.908,-0.0018739072306434,12.06631983687343,1
2025-03-08 13:22:21.916,-0.0018792509077286,11.31852777896433,1
2025-03-08 13:22:21.924,-0.001842655021209,10.608599332236858,1
2025-03-08 13:22:21.932,-0.0017650112236247,9.939089846652545,1
2025-03-08 13:22:21.940,-0.0016482088736979,9.311378281668182,1
2025-03-08 13:22:21.947,-0.0014950344572406,8.725685123169065,1
2025-03-08 13:22:21.955,-0.001309046718733,8.18111638405944,1
2025-03-08 13:22:21.963,-0.0010944333783356,7.675730100920808,1
2025-03-08 13:22:21.971,-0.0008558558755,7.206621596058669,1
2025-03-08 13:22:21.979,-0.0005982887499016,6.7700238468649845,1
2025-03-08 13:22:21.986,-0.0003268600230495,6.361419505835728,1
2025-03-08 13:22:21.994,-4.669830952807142e-05,5.975661357896143,1
2025-03-08 13:22:22.002,0.0002372085188492,5.60709822243699,1
2025-03-08 13:22:22.010,0.000520139309904,5.249703472984149,1
2025-03-08 13:22:22.018,0.0007977474357316,4.8972034481590105,1
2025-03-08 13:22:22.026,0.0010661485071856,4.543203064835265,1
2025-03-08 13:22:22.033,0.0013219868699899,4.181305930091727,1
2025-03-08 13:22:22.041,0.0015624804737564,3.805226215802187,1
2025-03-08 13:22:22.049,0.0017854443970173,3.4088895707889564,1
2025-03-08 13:22:22.057,0.0019892939902169,2.9865204863672985,1
2025-03-08 13:22:22.065,0.0021730292368519,2.532713890597398,1
