Timestamp,GSR_Filtered,PPG_Filtered
2025-03-08 12:24:32.170,-1.3983092263148447e-05,87.06929671319784
2025-03-08 12:24:32.178,9.225105248604832e-06,86.07473231644228
2025-03-08 12:24:32.186,3.217814777424011e-05,85.04383320575812
2025-03-08 12:24:32.193,5.4685831019578464e-05,83.9769567973384
2025-03-08 12:24:32.201,7.657308175038733e-05,82.87454875396939
2025-03-08 12:24:32.209,9.769176565013856e-05,81.73712795367956
2025-03-08 12:24:32.217,0.0001179295629695,80.56526770066898
2025-03-08 12:24:32.225,0.0001372153268326,79.35957350014723
2025-03-08 12:24:32.232,0.0001555206332177,78.12065787467822
2025-03-08 12:24:32.240,0.0001728575218626,76.84911285401596
2025-03-08 12:24:32.248,0.0001892727032909,75.54548091741721
2025-03-08 12:24:32.256,0.0002048387395874,74.21022530089945
2025-03-08 12:24:32.264,0.0002196428760017,72.84370069558754
2025-03-08 12:24:32.271,0.0002337743156894,71.44612545093771
2025-03-08 12:24:32.279,0.000247310809537,70.01755645232336
2025-03-08 12:24:32.287,0.0002603054754876,68.55786786084619
2025-03-08 12:24:32.295,0.0002727747452826,67.06673487974012
2025-03-08 12:24:32.303,0.000284688250788,65.54362364287552
2025-03-08 12:24:32.311,0.0002959613315031,63.98778820446091
2025-03-08 12:24:32.318,0.0003064507081743,62.39827544443201
2025-03-08 12:24:32.326,0.0003159537290803,60.77393849227544
2025-03-08 12:24:32.334,0.0003242114142428,59.11345901609184
2025-03-08 12:24:32.342,0.0003309152604628,57.415378428442686
2025-03-08 12:24:32.350,0.0003357174373911,55.67813773281625
2025-03-08 12:24:32.357,0.0003382436594411,53.90012538319829
2025-03-08 12:24:32.365,0.0003381077383868,52.079732164869775
2025-03-08 12:24:32.373,0.0003349266750367,50.21541173942252
2025-03-08 12:24:32.381,0.0003283351649871,48.30574514466628
2025-03-08 12:24:32.389,0.0003179985516406,46.34950721514895
2025-03-08 12:24:32.396,0.000303623500785,44.34573260650731
2025-03-08 12:24:32.404,0.0002849659340314,42.293778881916026
2025-03-08 12:24:32.412,0.0002618360130515,40.19338396607
2025-03-08 12:24:32.420,0.0002341002176189,38.04471520484004
2025-03-08 12:24:32.428,0.0002016808132746,35.848407298629155
2025-03-08 12:24:32.436,0.0001645532238282,33.605586513770376
2025-03-08 12:24:32.443,0.0001227419483783,31.31787882528484
2025-03-08 12:24:32.451,7.631567000967036e-05,28.98740000862928
2025-03-08 12:24:32.459,2.5382134571077035e-05,26.616726176325216
2025-03-08 12:24:32.467,-2.9916715407119453e-05,24.20884384176161
2025-03-08 12:24:32.475,-8.94089664393235e-05,21.76707927648898
2025-03-08 12:24:32.482,-0.0001528960436676,19.29500769366673
2025-03-08 12:24:32.490,-0.000220154947326,16.796343618935726
2025-03-08 12:24:32.498,-0.0002909393804865,14.27481467632694
2025-03-08 12:24:32.506,-0.000364979848125,11.734021892299909
2025-03-08 12:24:32.514,-0.0004419829095404,9.177290473655862
2025-03-08 12:24:32.521,-0.0005216298473039,6.607515810366128
2025-03-08 12:24:32.529,-0.0006035750699229,4.027010156269913
2025-03-08 12:24:32.537,-0.0006874445871454,1.4373560128018332
2025-03-08 12:24:32.545,-0.000772834884162,-1.160727351858131
2025-03-08 12:24:32.553,-0.0008593124813112,-3.767497606310836
2025-03-08 12:24:32.561,-0.0009464144208688,-6.384276657162121
2025-03-08 12:24:32.568,-0.001033649894088,-10.08192400143723
2025-03-08 12:24:32.576,-0.0011205032085962,-13.856154778521043
2025-03-08 12:24:32.584,-0.001206438274188,-17.711686767168278
2025-03-08 12:24:32.592,-0.0012909047318585,-21.654478896746724
2025-03-08 12:24:32.600,-0.0013733457671808,-25.691651517586987
2025-03-08 12:24:32.607,-0.0014532075581357,-29.831345039329157
2025-03-08 12:24:32.615,-0.0015299502348831,-34.08251413625518
2025-03-08 12:24:32.623,-0.0016030601773453,-38.4546568458882
2025-03-08 12:24:32.631,-0.0016720634254159,-42.95748028974805
2025-03-08 12:24:32.639,-0.0017365399061972,-47.60050735841679
2025-03-08 12:24:32.646,-0.0017961380889738,-52.39263144584174
2025-03-08 12:24:32.654,-0.0018505895754778,-57.34162909379636
2025-03-08 12:24:32.662,-0.0018997230482367,-62.45364310736249
2025-03-08 12:24:32.670,-0.0019434769529708,-67.73265120691744
2025-03-08 12:24:32.678,-0.0019819102666853,-73.17993746593923
2025-03-08 12:24:32.686,-0.0020152106708439,-78.79358551987352
2025-03-08 12:24:32.693,-0.0020436994149761,-84.56801369583835
2025-03-08 12:24:32.701,-0.0020678321626749,-90.49357269197714
2025-03-08 12:24:32.709,-0.0020881951857013,-96.5562261302989
2025-03-08 12:24:32.717,-0.0021054964011303,-102.73733314132812
2025-03-08 12:24:32.725,-0.0021205509027207,-109.0135500645942
2025-03-08 12:24:32.732,-0.0021342607978364,-115.35686535204177
2025-03-08 12:24:32.740,-0.0021475893228979,-121.73477786776184
2025-03-08 12:24:32.748,-0.0021615293949257,-128.1106240573448
2025-03-08 12:24:32.756,-0.0021770669825109,-134.44405403174866
2025-03-08 12:24:32.764,-0.0021951399330557,-140.69165064173322
2025-03-08 12:24:32.771,-0.0022165931409126,-146.80767932747204
2025-03-08 12:24:32.779,-0.0022421311666486,-152.744950180034
2025-03-08 12:24:32.787,-0.0022722696334314,-158.4557675575246
2025-03-08 12:24:32.795,-0.0023072869455363,-163.89293710756812
2025-03-08 12:24:32.803,-0.0023471780849247,-169.0107955381149
2025-03-08 12:24:32.811,-0.0023916124194238,-173.76622534801274
2025-03-08 12:24:32.818,-0.0024398975797094,-178.11961537976964
2025-03-08 12:24:32.826,-0.0024909515189338,-182.035728867801
2025-03-08 12:24:32.834,-0.0025432848468859,-185.484443912988
2025-03-08 12:24:32.842,-0.0025949954125831,-188.441337095088
2025-03-08 12:24:32.850,-0.0026437768680392,-190.8880889819996
2025-03-08 12:24:32.857,-0.0026869425592146,-192.8126999852813
2025-03-08 12:24:32.865,-0.0027214655643419,-194.20951544985076
2025-03-08 12:24:32.873,-0.0027440350705924,-195.0790690603025
2025-03-08 12:24:32.881,-0.00275112858874,-195.42776267493377
2025-03-08 12:24:32.889,-0.002739098785068,-195.2674078316044
2025-03-08 12:24:32.896,-0.002704272989136,-194.61465894475944
2025-03-08 12:24:32.904,-0.0026430627459682,-193.4903704672602
2025-03-08 12:24:32.912,-0.0025520801553941,-191.91891014561455
2025-03-08 12:24:32.920,-0.0024282572137518,-189.9274583015844
2025-03-08 12:24:32.928,-0.0022689639709453,-187.54531931926437
2025-03-08 12:24:32.936,-0.0020721210515101,-184.80326675204637
2025-03-08 12:24:32.943,-0.0018363019660888,-181.73293821746267
2025-03-08 12:24:32.951,-0.0015608206730021,-178.36629098042758
2025-03-08 12:24:32.959,-0.001245800073247,-174.73512420221567
2025-03-08 12:24:32.967,-0.0008922175906076,-170.87066951545822
2025-03-08 12:24:32.975,-0.0005019247579719,-166.8032480390999
2025-03-08 12:24:32.982,-7.76388289629613e-05,-162.56198925331827
2025-03-08 12:24:32.990,0.0003770941721693,-158.1746053256447
2025-03-08 12:24:32.998,0.0008579639675635,-153.66721346890327
2025-03-08 12:24:33.006,0.0013599855103697,-149.06419861935268
2025-03-08 12:24:33.014,0.001877609389769,-144.38810900860176
2025-03-08 12:24:33.021,0.0024048479726616,-139.65957790092773
2025-03-08 12:24:33.029,0.0029354113892407,-134.89726571347205
2025-03-08 12:24:33.037,0.0034628472587377,-130.11781779335354
2025-03-08 12:24:33.045,0.0039806783523844,-125.33583421339276
2025-03-08 12:24:33.053,0.0044825331481437,-120.5638490593816
2025-03-08 12:24:33.061,0.0049622653248143,-115.8123178660666
2025-03-08 12:24:33.068,0.0054140595115824,-111.08961317854803
2025-03-08 12:24:33.076,0.0058325218937672,-106.4020296919426
2025-03-08 12:24:33.084,0.0062127554464348,-101.75380199470978
2025-03-08 12:24:33.092,0.0065504205363554,-97.14713945445024
2025-03-08 12:24:33.100,0.0068417823486983,-92.58228400330364
2025-03-08 12:24:33.107,0.0070837470247339,-88.05759722831415
2025-03-08 12:24:33.115,0.0072738885190174,-83.56968299830726
2025-03-08 12:24:33.123,0.0074104680167427,-79.11355070250282
2025-03-08 12:24:33.131,0.0074924473693524,-74.68282202240722
2025-03-08 12:24:33.139,0.0075194975074092,-70.26998116021454
2025-03-08 12:24:33.146,0.0074920022426094,-65.8666649100968
2025-03-08 12:24:33.154,0.007411057303052,-61.46398529926066
2025-03-08 12:24:33.162,0.0072784638765718,-57.05287420532811
2025-03-08 12:24:33.170,0.0070967154051616,-52.62443680651157
2025-03-08 12:24:33.178,0.0068689759299313,-48.17029926403564
2025-03-08 12:24:33.186,0.0065990479662769,-43.6829358290744
2025-03-08 12:24:33.193,0.0062913277117535,-39.15596157909759
2025-03-08 12:24:33.201,0.0059507453894965,-34.584379023976496
2025-03-08 12:24:33.209,0.00558268877829,-29.964769568287405
2025-03-08 12:24:33.217,0.0051929085497285,-25.295423914734396
2025-03-08 12:24:33.225,0.004787404955127,-20.57640860924476
2025-03-08 12:24:33.232,0.0043722966730792,-15.809568799009607
2025-03-08 12:24:33.240,0.0039536742275732,-10.998469731875993
2025-03-08 12:24:33.248,0.0035374422824381,-6.1482814869494185
2025-03-08 12:24:33.256,0.0031291571996486,-1.2656128761656669
2025-03-08 12:24:33.264,0.0027338682830771,3.641698574756881
2025-03-08 12:24:33.271,0.0023559727577608,8.564833107093362
2025-03-08 12:24:33.279,0.0019990953033541,13.494263994042008
2025-03-08 12:24:33.287,0.0016660024009849,18.42005392588787
2025-03-08 12:24:33.295,0.0013585595628533,23.332164994421763
2025-03-08 12:24:33.303,0.0010777357748299,28.220774925717137
2025-03-08 12:24:33.311,0.0008236547534998,33.07659230902852
2025-03-08 12:24:33.318,0.0005956877871514,37.891163512932856
2025-03-08 12:24:33.326,0.0003925788745865,42.65716372301859
2025-03-08 12:24:33.334,0.0002125901786383,47.36866410049707
2025-03-08 12:24:33.342,5.365468263503405e-05,52.02136655052851
2025-03-08 12:24:33.350,-8.647668237382292e-05,56.61279717237343
2025-03-08 12:24:33.357,-0.000210104476987,61.14244933962908
2025-03-08 12:24:33.365,-0.000319475036397,65.61186770943708
2025-03-08 12:24:33.373,-0.0004167043564212,70.02466541110353
2025-03-08 12:24:33.381,-0.000503732493891,74.38646826678881
2025-03-08 12:24:33.389,-0.0005823057785651,78.70478211520843
2025-03-08 12:24:33.396,-0.000653981303715,82.98878202877334
2025-03-08 12:24:33.404,-0.0007201463961786,87.24902525773595
2025-03-08 12:24:33.412,-0.0007820450086077,91.49709289052292
2025-03-08 12:24:33.420,-0.0008408030447612,95.74516827255648
2025-03-08 12:24:33.428,-0.0008974454253162,100.00556297791762
2025-03-08 12:24:33.436,-0.0009528992077584,104.29020340940154
2025-03-08 12:24:33.443,-0.0010079792096974,108.61009278778172
2025-03-08 12:24:33.451,-0.0010633551407879,112.9747643228265
2025-03-08 12:24:33.459,-0.0011195019520642,117.391741763144
2025-03-08 12:24:33.467,-0.0011766377155086,121.86602340323748
2025-03-08 12:24:33.475,-0.0012346556091884,126.3996051340336
2025-03-08 12:24:33.482,-0.0012930581868579,130.99105740828622
2025-03-08 12:24:33.490,-0.0013509027032046,135.63517016377972
2025-03-08 12:24:33.498,-0.0014067656763339,140.3226788444715
2025-03-08 12:24:33.506,-0.0014587332747445,145.0400836455349
2025-03-08 12:24:33.514,-0.0015044219427219,149.76957288432618
2025-03-08 12:24:33.522,-0.0015410313438848,154.4890598332996
2025-03-08 12:24:33.529,-0.0015654294582662,159.1723403032316
2025-03-08 12:24:33.537,-0.0015742676165046,163.78937561063375
2025-03-08 12:24:33.545,-0.0015641214469103,168.30670221452286
2025-03-08 12:24:33.553,-0.0015316522007072,172.68796524423
2025-03-08 12:24:33.561,-0.0014737817523746,176.89456843356626
2025-03-08 12:24:33.568,-0.0013878737680972,180.88642780056065
2025-03-08 12:24:33.576,-0.0012719131022655,184.622811032117
2025-03-08 12:24:33.584,-0.0011246754069854,188.06323929427012
2025-03-08 12:24:33.592,-0.0009458791799288,191.1684235049728
2025-03-08 12:24:33.600,-0.0007363129716121,193.9012034513133
2025-03-08 12:24:33.607,-0.0004979311813429,196.2274560160487
2025-03-08 12:24:33.615,-0.0002339127810261,198.11693867185215
2025-03-08 12:24:33.623,5.132158726566023e-05,199.54403660681012
2025-03-08 12:24:33.631,0.000352137422131,200.48838634607088
2025-03-08 12:24:33.639,0.0006617609774598,200.9353551427196
2025-03-08 12:24:33.647,0.0009724011157162,200.87636303898068
2025-03-08 12:24:33.654,0.0012754173263204,200.30904252251207
2025-03-08 12:24:33.662,0.0015615313000171,199.2372383216308
2025-03-08 12:24:33.670,0.0018210779043703,197.67085643938387
2025-03-08 12:24:33.678,0.0020442898522516,195.6255765730348
2025-03-08 12:24:33.686,0.0022216087858662,193.12244539817627
2025-03-08 12:24:33.693,0.002344013926477,190.18736984817843
2025-03-08 12:24:33.701,0.002403357933827,186.85052972578515
2025-03-08 12:24:33.709,0.002392698294996,183.14572812087292
2025-03-08 12:24:33.717,0.0023066115310742,179.1096966121194
2025-03-08 12:24:33.725,0.0021414768510512,174.7813705122281
2025-03-08 12:24:33.732,0.0018957156744379,170.20114780213754
2025-03-08 12:24:33.740,0.0015699737957704,165.41014409886364
2025-03-08 12:24:33.748,0.0011672339851131,160.44945510669055
2025-03-08 12:24:33.756,0.0006928485686656,155.3594375047617
2025-03-08 12:24:33.764,0.0001544840190421,150.17901904224453
2025-03-08 12:24:33.772,-0.0004380271888783,144.9450486113857
2025-03-08 12:24:33.779,-0.0010729281937811,139.69169709119407
2025-03-08 12:24:33.787,-0.0017368687656044,134.44991964276807
2025-03-08 12:24:33.795,-0.0024153161704547,129.24698975162437
2025-03-08 12:24:33.803,-0.0030930305080072,124.10611453900518
2025-03-08 12:24:33.811,-0.0037545835318909,119.04613962410282
2025-03-08 12:24:33.818,-0.0043848952664484,114.08135008955009
2025-03-08 12:24:33.826,-0.0049697598492557,109.22137194226764
2025-03-08 12:24:33.834,-0.005496331862616,104.47117601650318
2025-03-08 12:24:33.842,-0.0059535473819788,99.83118373849004
2025-03-08 12:24:33.850,-0.00633245957624,95.29747176848954
2025-03-08 12:24:33.857,-0.0066264757561439,90.86207040654654
2025-03-08 12:24:33.865,-0.0068314900266985,86.51334884417754
2025-03-08 12:24:33.873,-0.006945912284939,82.23647880172308
2025-03-08 12:24:33.881,-0.0069705997808752,78.01396665384996
2025-03-08 12:24:33.889,-0.0069087016939647,73.82624262470877
2025-03-08 12:24:33.897,-0.0067654301970088,69.65229389205447
2025-03-08 12:24:33.904,-0.0065477733710878,65.4703264692877
2025-03-08 12:24:33.912,-0.006264166191698,61.2584387003716
2025-03-08 12:24:33.920,-0.0059241357272609,56.99528742450875
2025-03-08 12:24:33.928,-0.0055379358225129,52.6607267510392
2025-03-08 12:24:33.936,-0.0051161850885785,48.2363993240856
2025-03-08 12:24:33.943,-0.0046695202232052,43.70626123457954
2025-03-08 12:24:33.951,-0.0042082747465451,39.05702445265087
2025-03-08 12:24:33.959,-0.0037421912961423,34.27850468313418
2025-03-08 12:24:33.967,-0.0032801737310257,29.363867558748872
2025-03-08 12:24:33.975,-0.0028300834623536,24.30977159204626
2025-03-08 12:24:33.982,-0.0023985826994196,19.11641174933301
2025-03-08 12:24:33.990,-0.0019910257562912,13.787472348854076
2025-03-08 12:24:33.998,-0.0016113982626436,8.33000178783759
2025-03-08 12:24:34.006,-0.0012623030323394,2.754224100502396
2025-03-08 12:24:34.014,-0.0009449903671814,-2.9266965374871434
2025-03-08 12:24:34.022,-0.0006594296275701,-8.69692242443308
2025-03-08 12:24:34.029,-0.0004044179695316,-14.538225408501722
2025-03-08 12:24:34.037,-0.0001777212741278,-20.430273879773157
2025-03-08 12:24:34.045,2.3758432986410325e-05,-26.35091383768955
2025-03-08 12:24:34.053,0.0002037952689732,-32.27643725241789
2025-03-08 12:24:34.061,0.0003666379192202,-38.181834138551245
2025-03-08 12:24:34.068,0.0005168006620158,-44.041027895398535
2025-03-08 12:24:34.076,0.0006588533640804,-49.82709633965182
2025-03-08 12:24:34.084,0.0007972166453722,-55.51248326641498
2025-03-08 12:24:34.092,0.0009359681502824,-61.06920713909105
2025-03-08 12:24:34.100,0.001078665520934,-66.46907447985978
2025-03-08 12:24:34.107,0.0012281912639657,-71.68390562963913
2025-03-08 12:24:34.115,0.0013866242186297,-76.68577977763896
2025-03-08 12:24:34.123,0.0015551417307557,-81.4473046273787
2025-03-08 12:24:34.131,0.0017339558891211,-85.94191394695606
2025-03-08 12:24:34.139,0.0019222862836393,-90.1441937700521
2025-03-08 12:24:34.147,0.0021183707046673,-94.030235402635
2025-03-08 12:24:34.154,0.0023195140340102,-97.57801085654928
2025-03-08 12:24:34.162,0.0025221742994676,-100.76776403489433
2025-03-08 12:24:34.170,0.0027220835076509,-103.58240903547237
2025-03-08 12:24:34.178,0.0029143994955744,-106.00792536401649
2025-03-08 12:24:34.186,0.0030938837303796,-108.033738669972
2025-03-08 12:24:34.193,0.0032550988148352,-109.6530748316314
2025-03-08 12:24:34.201,0.0033926184930763,-110.86327481963366
2025-03-08 12:24:34.209,0.0035012422551109,-111.6660577522934
2025-03-08 12:24:34.217,0.0035762062421084,-112.06771991242684
2025-03-08 12:24:34.225,0.0036133820639675,-112.07925821101033
2025-03-08 12:24:34.232,0.003609455359863,-111.71640765576238
2025-03-08 12:24:34.240,0.0035620764749202,-110.99958383128792
2025-03-08 12:24:34.248,0.0034699765093794,-109.95372326004032
2025-03-08 12:24:34.256,0.0033330432339625,-108.60801683064535
2025-03-08 12:24:34.264,0.0031523529592997,-106.99553427071518
2025-03-08 12:24:34.272,0.0029301563689982,-105.15274088179711
2025-03-08 12:24:34.279,0.0026698184728253,-103.11891137003867
2025-03-08 12:24:34.287,0.0023757150203155,-100.93544947646043
2025-03-08 12:24:34.295,0.0020530897402768,-98.6451260846715
2025-03-08 12:24:34.303,0.0017078785463675,-96.29125239950682
2025-03-08 12:24:34.311,0.0013465083801819,-93.916808479833
2025-03-08 12:24:34.318,0.0009756796329128,-91.56355068907096
2025-03-08 12:24:34.326,0.0006021419771435,-89.2711242885859
2025-03-08 12:24:34.334,0.0002324737902162,-87.07620921587217
2025-03-08 12:24:34.342,-0.0001271249488933,-85.01172784269882
2025-03-08 12:24:34.350,-0.0004710173613211,-83.10614301125264
2025-03-08 12:24:34.357,-0.0007942845602524,-81.3828727637327
2025-03-08 12:24:34.365,-0.0010928452630116,-79.8598448531708
2025-03-08 12:24:34.373,-0.0013635368244981,-78.54920939696655
2025-03-08 12:24:34.381,-0.0016041565854888,-77.45722208726689
2025-03-08 12:24:34.389,-0.0018134644557611,-76.58430351305218
2025-03-08 12:24:34.397,-0.0019911493965121,-75.92527278772172
2025-03-08 12:24:34.404,-0.0021377638720513,-75.46974627378887
2025-03-08 12:24:34.412,-0.0022546313738349,-75.20268521221972
2025-03-08 12:24:34.420,-0.0023437327721356,-75.10506991102773
2025-03-08 12:24:34.428,-0.0024075775618876,-75.15467315882364
2025-03-08 12:24:34.436,-0.002449066111988,-75.32690193798175
2025-03-08 12:24:34.443,-0.002471348857432,-75.59567445004882
2025-03-08 12:24:34.451,-0.0024776880145021,-75.93429896556287
2025-03-08 12:24:34.459,-0.0024713268681708,-76.31632201327635
2025-03-08 12:24:34.467,-0.0024553710078188,-76.71631579451062
2025-03-08 12:24:34.475,-0.0024326851105546,-77.11057825669668
2025-03-08 12:24:34.482,-0.0024058080295643,-77.47772376617964
2025-03-08 12:24:34.490,-0.0023768880746107,-77.79914755331619
2025-03-08 12:24:34.498,-0.0023476395049162,-78.05935282834717
2025-03-08 12:24:34.506,-0.0023193204113678,-78.2461354462499
2025-03-08 12:24:34.514,-0.0022927313487519,-78.35062699048014
2025-03-08 12:24:34.522,-0.0022682332900603,-78.36720290629502
2025-03-08 12:24:34.529,-0.0022457827365068,-78.29326760764994
2025-03-08 12:24:34.537,-0.0022249811800856,-78.12893308554402
2025-03-08 12:24:34.545,-0.0022051356410939,-77.87661126119174
2025-03-08 12:24:34.553,-0.0021853267336449,-77.54054299042242
2025-03-08 12:24:34.561,-0.0021644806531971,-77.12628812558015
2025-03-08 12:24:34.568,-0.0021414416064562,-76.64020133982838
2025-03-08 12:24:34.576,-0.0021150414857757,-76.08891755806236
2025-03-08 12:24:34.584,-0.002084164005388,-75.47886893074556
2025-03-08 12:24:34.592,-0.0020478010391313,-74.81585249499688
2025-03-08 12:24:34.600,-0.0020050994812078,-74.10466418725937
2025-03-08 12:24:34.607,-0.0019553975321402,-73.34881091823335
2025-03-08 12:24:34.615,-0.0018982498537018,-72.55030821162077
2025-03-08 12:24:34.623,-0.001833441540118,-71.70956665381226
2025-03-08 12:24:34.631,-0.0017609913216522,-70.825366296556
2025-03-08 12:24:34.639,-0.0016811448219608,-69.89491436693775
2025-03-08 12:24:34.647,-0.0015943589946693,-68.91397829251434
2025-03-08 12:24:34.654,-0.0015012790676539,-67.87708321312105
2025-03-08 12:24:34.662,-0.0014027094630998,-66.77776085302028
2025-03-08 12:24:34.670,-0.0012995802636312,-65.60883489227942
2025-03-08 12:24:34.678,-0.0011929108437028,-64.36272686150797
2025-03-08 12:24:34.686,-0.0010837722526592,-63.03176619162796
2025-03-08 12:24:34.693,-0.0009732498304403,-61.60848851223198
2025-03-08 12:24:34.701,-0.000862407409666,-60.08590773056927
2025-03-08 12:24:34.709,-0.0007522543506086,-58.45774989458364
2025-03-08 12:24:34.717,-0.0006437165523936,-56.71864027945443
2025-03-08 12:24:34.725,-0.0005376124295138,-54.86423930967518
2025-03-08 12:24:34.732,-0.0004346346086949,-52.89132746063345
2025-03-08 12:24:34.740,-0.0003353378058855,-50.797843705748434
2025-03-08 12:24:34.748,-0.0002401330162067,-48.58288590745851
2025-03-08 12:24:34.756,-0.0001492878160386,-46.246684379861975
2025-03-08 12:24:34.764,-6.293226873200299e-05,-43.7905613915724
2025-03-08 12:24:34.772,1.8930326651706772e-05,-41.21688950724754
2025-03-08 12:24:34.779,9.6408789545963e-05,-38.529060438389685
2025-03-08 12:24:34.787,0.0001697065775456,-35.73147369856818
2025-03-08 12:24:34.795,0.0002391025819636,-32.829551157617495
2025-03-08 12:24:34.803,0.0003049312945833,-29.82977993861576
2025-03-08 12:24:34.811,0.000367563368529,-26.739782369468625
2025-03-08 12:24:34.818,0.0004273874721651,-23.56840820628697
2025-03-08 12:24:34.826,0.0004847941678222,-20.325841332705263
2025-03-08 12:24:34.834,0.0005401623382551,-17.023710771916008
2025-03-08 12:24:34.842,0.0005938484304752,-13.675194218739836
2025-03-08 12:24:34.850,0.0006461785119384,-10.295101447212469
2025-03-08 12:24:34.857,0.0006974428954852,-6.89992488305018
2025-03-08 12:24:34.865,0.0007478929410652,-3.507845334917438
2025-03-08 12:24:34.873,0.0007977395922411,-0.1386823083971143
2025-03-08 12:24:34.881,0.0008471532205405,3.186219601386697
2025-03-08 12:24:34.889,0.0008962643983483,6.444174143451955
2025-03-08 12:24:34.897,0.0009451652901607,9.611409579822
2025-03-08 12:24:34.904,0.000993911438933,12.663397238800718
2025-03-08 12:24:34.912,0.0010425238229129,15.575248714842337
2025-03-08 12:24:34.920,0.0010909911558016,18.32217460526313
2025-03-08 12:24:34.928,0.0011392724652412,20.879994465519637
2025-03-08 12:24:34.936,0.0011872999739439,23.22568476420246
2025-03-08 12:24:34.943,0.0012349822350578,25.33794915164936
2025-03-08 12:24:34.951,0.0012822074006701,27.197793419582453
2025-03-08 12:24:34.959,0.0013288464771364,28.789086199373163
2025-03-08 12:24:34.967,0.0013747564336378,30.099085791307047
2025-03-08 12:24:34.975,0.0014197830489134,31.118913601074663
2025-03-08 12:24:34.982,0.0014637634058802,31.84395553541648
2025-03-08 12:24:34.990,0.0015065280076017,32.274174402293845
2025-03-08 12:24:34.998,0.0015479026010723,32.41431885569253
2025-03-08 12:24:35.006,0.0015877099106993,32.27401764981088
2025-03-08 12:24:35.014,0.0016257715396984,31.86775179038644
2025-03-08 12:24:35.022,0.0016619102845121,31.21470140786612
2025-03-08 12:24:35.029,0.0016959530611192,30.338468609137976
2025-03-08 12:24:35.037,0.0017277345873115,29.266681958773813
2025-03-08 12:24:35.045,0.0017571018925274,28.03049236844525
2025-03-08 12:24:35.053,0.0017839196200928,26.66397382846685
2025-03-08 12:24:35.061,0.0018080759436516,25.20344543514872
2025-03-08 12:24:35.068,0.001829488757583,23.686733446495424
2025-03-08 12:24:35.076,0.0018481116614263,22.152393595548023
2025-03-08 12:24:35.084,0.0018639391943327,20.638914627355376
2025-03-08 12:24:35.092,0.0018770108154438,19.18392407832464
2025-03-08 12:24:35.100,0.0018874132487054,17.823416793360522
2025-03-08 12:24:35.107,0.0018952809690047,16.591025683794236
2025-03-08 12:24:35.115,0.0019007947655582,15.517352845627302
2025-03-08 12:24:35.123,0.0019041784641741,14.62937741955507
2025-03-08 12:24:35.131,0.0019056940186659,13.94995448029777
2025-03-08 12:24:35.139,0.0019056352900313,13.49741677059571
2025-03-08 12:24:35.147,0.0019043209091944,13.285288229945657
2025-03-08 12:24:35.154,0.0019020866437147,13.322115035107904
2025-03-08 12:24:35.162,0.0018992776492536,13.611416353407185
2025-03-08 12:24:35.170,0.0018962409088836,14.151753349395683
2025-03-08 12:24:35.178,0.0018933180974212,14.936911349506271
2025-03-08 12:24:35.186,0.0018908390800126,15.956186633701812
2025-03-08 12:24:35.193,0.0018891162526043,17.194766254923785
2025-03-08 12:24:35.201,0.0018884399354383,18.634186734149527
2025-03-08 12:24:35.209,0.0018890750287946,20.252855560133245
2025-03-08 12:24:35.217,0.0018912591302117,22.0266182196579
2025-03-08 12:24:35.225,0.0018952022915958,23.929353030081607
2025-03-08 12:24:35.232,0.0019010885521021,25.933576319999915
2025-03-08 12:24:35.240,0.0019090792950493,28.01104143291418
2025-03-08 12:24:35.248,0.0019193183224846,30.13331650390393
2025-03-08 12:24:35.256,0.0019319383226163,32.27232785594032
2025-03-08 12:24:35.264,0.0019470681515993,34.40085805436582
2025-03-08 12:24:35.272,0.0019648400952076,36.49299002443301
2025-03-08 12:24:35.279,0.0019853960560349,38.52449107108704
2025-03-08 12:24:35.287,0.0020088914911919,40.47313305895042
2025-03-08 12:24:35.295,0.0020354959751148,42.318947352213165
2025-03-08 12:24:35.303,0.0020653895013436,44.04441532539148
2025-03-08 12:24:35.311,0.0020987540099725,45.6345972754847
2025-03-08 12:24:35.318,0.0021357600501597,47.07720431937771
2025-03-08 12:24:35.326,0.0021765489000593,48.36261926634503
2025-03-08 12:24:35.334,0.0022212108414093,49.483873439184464
2025-03-08 12:24:35.342,0.0022697606151057,50.43658692133133
2025-03-08 12:24:35.350,0.0023221113756413,51.21887970043517
2025-03-08 12:24:35.357,0.0023780487253092,51.83126066629477
2025-03-08 12:24:35.365,0.0024372066284782,52.27650045231994
2025-03-08 12:24:35.373,0.0024990471368785,52.55949278213668
2025-03-08 12:24:35.381,0.0025628458446939,52.68710743418583
2025-03-08 12:24:35.389,0.0026276848092434,52.668036328038085
2025-03-08 12:24:35.397,0.0026924543409295,52.51263273067976
2025-03-08 12:24:35.404,0.0027558646364829,52.23274232981457
2025-03-08 12:24:35.412,0.0028164677348129,51.84152404939135
2025-03-08 12:24:35.420,0.0028726897144561,51.35325807717032
2025-03-08 12:24:35.428,0.0029228724203296,50.7831386693105
2025-03-08 12:24:35.436,0.0029653233168196,50.14704986624741
2025-03-08 12:24:35.443,0.0029983713492683,49.46132322124624
2025-03-08 12:24:35.451,0.0030204260306699,48.74247790689273
2025-03-08 12:24:35.459,0.0030300364814971,48.00694502264843
2025-03-08 12:24:35.467,0.0030259469851069,47.27077948486978
2025-03-08 12:24:35.475,0.0030071458596337,46.54936445571643
2025-03-08 12:24:35.482,0.0029729050354593,45.85711477977642
2025-03-08 12:24:35.490,0.0029228085074699,45.20718726082036
2025-03-08 12:24:35.498,0.0028567686420874,44.61120672211973
2025-03-08 12:24:35.506,0.0027750300584271,44.079017531849416
2025-03-08 12:24:35.514,0.0026781614232131,43.61847051953608
2025-03-08 12:24:35.522,0.0025670359936537,43.23525486061703
2025-03-08 12:24:35.529,0.0024428021420377,42.93278349929941
2025-03-08 12:24:35.537,0.0023068454389933,42.7121389928754
2025-03-08 12:24:35.545,0.0021607441613692,42.57208432610133
2025-03-08 12:24:35.553,0.0020062202859266,42.50914036977051
2025-03-08 12:24:35.561,0.001845088091835,42.51772843685824
2025-03-08 12:24:35.568,0.0016792024207316,42.590373085471256
2025-03-08 12:24:35.576,0.001510408457384,42.7179572201593
2025-03-08 12:24:35.584,0.001340494619867,42.89001892246065
2025-03-08 12:24:35.592,0.0011711498111527,43.09507751619507
2025-03-08 12:24:35.600,0.0010039259323961,43.320975291154426
2025-03-08 12:24:35.607,0.0008402062498405,43.5552211363778
2025-03-08 12:24:35.615,0.0006811799734753,43.78532304453054
2025-03-08 12:24:35.623,0.0005278232386997,43.99909792314942
2025-03-08 12:24:35.631,0.0003808865590014,44.18494919558243
2025-03-08 12:24:35.639,0.000240888723065,44.332105065674696
2025-03-08 12:24:35.647,0.0001081170281663,44.43081282431126
2025-03-08 12:24:35.654,-1.736635680927634e-05,44.47248698720748
2025-03-08 12:24:35.662,-0.0001357122410666,44.44981121537258
2025-03-08 12:24:35.670,-0.0002472669712133,44.35679579140959
2025-03-08 12:24:35.678,-0.0003525503320777,44.1887938793351
2025-03-08 12:24:35.686,-0.000452229519676,43.94248089769572
2025-03-08 12:24:35.693,-0.0005470899979634,43.6158021134463
2025-03-08 12:24:35.701,-0.0006380041408964,43.207894043916895
2025-03-08 12:24:35.709,-0.0007258986563541,42.71898546354006
2025-03-08 12:24:35.717,-0.0008117218478188,42.15028378509595
2025-03-08 12:24:35.725,-0.0008964117529022,41.503852363562046
2025-03-08 12:24:35.732,-0.0009808661017868,40.78248389823951
2025-03-08 12:24:35.740,-0.00106591489317,39.98957462610472
2025-03-08 12:24:35.748,-0.0011522962223745,39.12900343574668
2025-03-08 12:24:35.756,-0.0012406358344435,38.20501939746112
2025-03-08 12:24:35.764,-0.0013314307235571,37.22214049239158
2025-03-08 12:24:35.772,-0.0014250369652806,36.1850655182723
2025-03-08 12:24:35.779,-0.0015216618548634,35.09860025573039
2025-03-08 12:24:35.787,-0.0016213603364629,33.96759803501543
2025-03-08 12:24:35.795,-0.0017240356467607,32.79691391632238
2025-03-08 12:24:35.803,-0.0018294440609898,31.59137086775073
2025-03-08 12:24:35.811,-0.0019372036096722,30.35573566524621
2025-03-08 12:24:35.818,-0.0020468066065227,29.09470179932285
2025-03-08 12:24:35.826,-0.0021576357686905,27.81287648203605
2025-03-08 12:24:35.834,-0.0022689836191455,26.514768913331523
2025-03-08 12:24:35.842,-0.0023800747533135,25.20477727841567
2025-03-08 12:24:35.850,-0.0024900904320411,23.8871724767164
2025-03-08 12:24:35.858,-0.0025981948228912,22.5660772799
2025-03-08 12:24:35.865,-0.0027035620602781,21.245440420993205
2025-03-08 12:24:35.873,-0.0028054031632982,19.929005961083657
2025-03-08 12:24:35.881,-0.0029029917699918,18.62027909004435
2025-03-08 12:24:35.889,-0.0029956876344165,17.322490215875337
2025-03-08 12:24:35.897,-0.0030829568869569,16.038559713168492
2025-03-08 12:24:35.904,-0.0031643881629802,14.771065984487638
2025-03-08 12:24:35.912,-0.00323970385023,13.522219516582773
2025-03-08 12:24:35.920,-0.0033087659066497,12.293845390089746
2025-03-08 12:24:35.928,-0.0033715759733588,11.087376248693047
2025-03-08 12:24:35.936,-0.0034282698284107,9.903857085023168
2025-03-08 12:24:35.943,-0.0034791065476443,8.743962401636589
2025-03-08 12:24:35.951,-0.0035244530243992,7.608025421210157
2025-03-08 12:24:35.959,-0.0035647647211989,6.496078136344643
2025-03-08 12:24:35.967,-0.0036005636487887,5.4079002014242405
2025-03-08 12:24:35.975,-0.0036324145838313,4.34307406049557
2025-03-08 12:24:35.983,-0.0036609004909772,3.30104332910577
2025-03-08 12:24:35.990,-0.0036865980623992,2.281171320201933
2025-03-08 12:24:35.998,-0.0037100542380957,1.2827967096097794
2025-03-08 12:24:36.006,-0.0037317644963325,0.3052836415351457
2025-03-08 12:24:36.014,-0.0037521535850136,-0.6519359646832278
2025-03-08 12:24:36.022,-0.0037715592095248,-1.589329577497611
2025-03-08 12:24:36.029,-0.0037902190304552,-2.5072417316029343
2025-03-08 12:24:36.037,-0.0038082611800212,-3.405882631389075
2025-03-08 12:24:36.045,-0.0038256983762168,-4.285327480277585
2025-03-08 12:24:36.053,-0.0038424255916759,-5.145525790943159
2025-03-08 12:24:36.061,-0.0038582211400381,-5.986319485198297
2025-03-08 12:24:36.068,-0.0038727509951562,-6.807468284820697
2025-03-08 12:24:36.076,-0.0038855761374953,-7.608680754575315
2025-03-08 12:24:36.084,-0.0038961626950514,-8.389649387342077
2025-03-08 12:24:36.092,-0.0039038946087526,-9.150088284689518
2025-03-08 12:24:36.100,-0.0039080885206135,-9.889772223073702
2025-03-08 12:24:36.108,-0.0039080105699751,-10.608576134495925
2025-03-08 12:24:36.115,-0.0039028947937927,-11.306514207688217
2025-03-08 12:24:36.123,-0.0038919628543009,-11.983777891072194
2025-03-08 12:24:36.131,-0.0038744448336024,-12.640772039067768
2025-03-08 12:24:36.139,-0.0038496008001081,-13.278148299259952
2025-03-08 12:24:36.147,-0.0038167427521704,-13.896834615995344
2025-03-08 12:24:36.154,-0.0037752564145015,-14.498059469237727
2025-03-08 12:24:36.162,-0.0037246222610247,-15.083369242818629
2025-03-08 12:24:36.170,-0.0036644350986814,-15.654637013597297
2025-03-08 12:24:36.178,-0.0035944215615479,-16.214061164327735
2025-03-08 12:24:36.186,-0.003514454898873,-16.764152605742233
2025-03-08 12:24:36.193,-0.0034245664728,-17.307710041354106
2025-03-08 12:24:36.201,-0.0033249534216988,-17.847783547030556
2025-03-08 12:24:36.209,-0.0032159820165303,-18.387627643850955
2025-03-08 12:24:36.217,-0.0030981863515755,-18.93064587980633
2025-03-08 12:24:36.225,-0.0029722621637776,-19.48032958152514
2025-03-08 12:24:36.233,-0.002839055763518,-20.040193804728094
2025-03-08 12:24:36.240,-0.0026995482788494,-20.613713561889643
2025-03-08 12:24:36.248,-0.0025548356371821,-21.204263149849776
2025-03-08 12:24:36.256,-0.0024061048897961,-21.815060897116165
2025-03-08 12:24:36.264,-0.0022546076069637,-22.449120986666795
2025-03-08 12:24:36.272,-0.0021016311534179,-23.10921327713628
2025-03-08 12:24:36.279,-0.0019484687222417,-23.79783132440491
2025-03-08 12:24:36.287,-0.0017963890728234,-24.517168159846182
2025-03-08 12:24:36.295,-0.0016466069803105,-25.269098853116716
2025-03-08 12:24:36.303,-0.0015002554388585,-26.05516849462097
2025-03-08 12:24:36.311,-0.00135836064549,-26.8765839662111
2025-03-08 12:24:36.318,-0.001221820715369,-27.73420769432445
2025-03-08 12:24:36.326,-0.0010913889365592,-28.628551457210893
2025-03-08 12:24:36.334,-0.0009676621528841,-29.55976822924221
2025-03-08 12:24:36.342,-0.0008510745817567,-30.527640014839108
2025-03-08 12:24:36.350,-0.0007418970829251,-31.53155971346484
2025-03-08 12:24:36.358,-0.00064024164495,-32.57050534003313
2025-03-08 12:24:36.365,-0.0005460706618402,-33.64300546700749
2025-03-08 12:24:36.373,-0.00045921042194,-34.74709559435331
2025-03-08 12:24:36.381,-0.0003793681156292,-35.880266288206954
2025-03-08 12:24:36.389,-0.0003061515836929,-37.03940529809334
2025-03-08 12:24:36.397,-0.000239090971127,-38.22073734305217
2025-03-08 12:24:36.404,-0.000177661417869,-39.41976667672296
2025-03-08 12:24:36.412,-0.0001213059060465,-40.631228703496966
2025-03-08 12:24:36.420,-6.945739839784246e-05,-41.84905763288821
2025-03-08 12:24:36.428,-2.1559461277150335e-05,-43.06637728044805
2025-03-08 12:24:36.436,2.291532414420277e-05,-44.2755215779246
2025-03-08 12:24:36.443,6.444972482177585e-05,-45.4680901604312
2025-03-08 12:24:36.451,0.0001034694396882,-46.63504265673518
2025-03-08 12:24:36.459,0.0001403342591623,-47.76683318299801
2025-03-08 12:24:36.467,0.0001753330543607,-48.85358421927574
2025-03-08 12:24:36.475,0.0002086827227923,-49.88529672017626
2025-03-08 12:24:36.483,0.0002405310803611,-50.852091150133816
2025-03-08 12:24:36.490,0.0002709635662826,-51.74447229113464
2025-03-08 12:24:36.498,0.0003000135211744,-52.55360926573892
2025-03-08 12:24:36.506,0.0003276756903928,-53.271621327902906
2025-03-08 12:24:36.514,0.0003539224743873,-53.8918596253101
2025-03-08 12:24:36.522,0.0003787222989804,-54.40917530268472
2025-03-08 12:24:36.529,0.0004020593383433,-54.8201649164377
2025-03-08 12:24:36.537,0.000423953719357,-55.12338504460682
2025-03-08 12:24:36.545,0.0004444812813895,-55.31952905781552
2025-03-08 12:24:36.553,0.0004637919640649,-55.4115601296467
2025-03-08 12:24:36.561,0.0004821259463225,-55.40479560539267
2025-03-08 12:24:36.568,0.0004998267522384,-55.30693876065524
2025-03-08 12:24:36.576,0.000517350647768,-55.12805475642972
2025-03-08 12:24:36.584,0.0005352717541512,-54.88048826703324
2025-03-08 12:24:36.592,0.0005542824043035,-54.57872088606527
2025-03-08 12:24:36.600,0.0005751884003257,-54.23916708457272
2025-03-08 12:24:36.608,0.0005988990046717,-53.87990828139476
2025-03-08 12:24:36.615,0.0006264116832796,-53.52036554614728
2025-03-08 12:24:36.623,0.0006587917888398,-53.1809126282156
2025-03-08 12:24:36.631,0.0006971475429184,-52.882432412739824
2025-03-08 12:24:36.639,0.0007426008739886,-52.6458215538866
2025-03-08 12:24:36.647,0.0007962548837594,-52.49144991410762
2025-03-08 12:24:36.654,0.0008591589013942,-52.43858351061369
2025-03-08 12:24:36.662,0.0009322722021868,-52.50478187890365
2025-03-08 12:24:36.670,0.0010164275041836,-52.7052830263188
2025-03-08 12:24:36.678,0.0011122953374982,-53.052391362153
2025-03-08 12:24:36.686,0.0012203503448508,-53.55488603218065
2025-03-08 12:24:36.693,0.0013408405443232,-54.21746881878718
2025-03-08 12:24:36.701,0.001473760569894,-55.04027204829077
2025-03-08 12:24:36.709,0.0016188299006504,-56.0184476225939
2025-03-08 12:24:36.717,0.0017754771059676,-57.14185820922444
2025-03-08 12:24:36.725,0.0019428311704209,-58.39489064124371
2025-03-08 12:24:36.733,0.0021197209806897,-59.75640959221877
2025-03-08 12:24:36.740,0.0023046840049671,-61.19986655721488
2025-03-08 12:24:36.748,0.0024959850417615,-62.69357511580768
2025-03-08 12:24:36.756,0.0026916456402378,-64.20115847306757
2025-03-08 12:24:36.764,0.0028894843699413,-65.6821695220317
2025-03-08 12:24:36.772,0.0030871675174993,-67.09287734445779
2025-03-08 12:24:36.779,0.0032822690133173,-68.38720739776896
2025-03-08 12:24:36.787,0.0034723374920119,-69.51781587635283
2025-03-08 12:24:36.795,0.0036549674854054,-70.43727214022118
2025-03-08 12:24:36.803,0.0038278710271976,-71.09931692864278
2025-03-08 12:24:36.811,0.0039889456224561,-71.46015858561663
2025-03-08 12:24:36.818,0.004136334721891,-71.47976500658838
2025-03-08 12:24:36.826,0.0042684774891903,-71.12310578930408
2025-03-08 12:24:36.834,0.0043841455769445,-70.36129747628257
2025-03-08 12:24:36.842,0.004482465644594,-69.1726051571539
2025-03-08 12:24:36.850,0.00456292733976,-67.54325637057936
2025-03-08 12:24:36.858,0.0046253773472752,-65.46802842906048
2025-03-08 12:24:36.865,0.0046700008284797,-62.95057803245373
2025-03-08 12:24:36.873,0.0046972920986103,-60.00349213873024
2025-03-08 12:24:36.881,0.0047080167389183,-56.64805105116592
2025-03-08 12:24:36.889,0.004703167544972,-52.9137078405592
2025-03-08 12:24:36.897,0.0046839167939915,-48.837301653726485
2025-03-08 12:24:36.904,0.0046515672794982,-44.46203519088788
2025-03-08 12:24:36.912,0.004607504401564,-39.83625772461315
2025-03-08 12:24:36.920,0.0045531513007249,-35.01210369215245
2025-03-08 12:24:36.928,0.0044899286074549,-30.044042574054547
2025-03-08 12:24:36.936,0.0044192199126905,-24.9873982132979
2025-03-08 12:24:36.943,0.0043423435976882,-19.896894946295287
2025-03-08 12:24:36.951,0.0042605312070113,-14.825284162913738
2025-03-08 12:24:36.959,0.0041749121197881,-9.82209862630215
2025-03-08 12:24:36.967,0.0040865038986914,-4.932573636085844
2025-03-08 12:24:36.975,0.003996207400667,-0.1967645554554286
2025-03-08 12:24:36.983,0.0039048055434121,4.351119995878322
2025-03-08 12:24:36.990,0.0038129645607417,8.683160231434972
2025-03-08 12:24:36.998,0.0037212366520777,12.777943253801432
2025-03-08 12:24:37.006,0.0036300631039098,16.62056653182456
2025-03-08 12:24:37.014,0.0035397771831244,20.202443731546573
2025-03-08 12:24:37.022,0.0034506063351286,23.520935807572787
2025-03-08 12:24:37.029,0.0033626734459614,26.5788346468049
2025-03-08 12:24:37.037,0.0032759971392292,29.383729370749386
2025-03-08 12:24:37.045,0.003190491270008,31.9472867391363
2025-03-08 12:24:37.053,0.0031059639437184,34.28447709473075
2025-03-08 12:24:37.061,0.0030221165241505,36.412776109695166
2025-03-08 12:24:37.068,0.0029385431980255,38.35137041566679
2025-03-08 12:24:37.076,0.0028547317315987,40.1203922148125
2025-03-08 12:24:37.084,0.002770066086936,41.74020438355533
2025-03-08 12:24:37.092,0.0026838315620877,43.23075361071342
2025-03-08 12:24:37.100,0.0025952230822591,44.61100497320636
2025-03-08 12:24:37.108,0.0025033571998425,45.89846724472103
2025-03-08 12:24:37.115,0.0024072882547541,47.10881432424978
2025-03-08 12:24:37.123,0.0023060289866062,48.255604590141694
2025-03-08 12:24:37.131,0.0021985756630839,49.35009681350067
2025-03-08 12:24:37.139,0.0020839375067809,50.40115853860868
2025-03-08 12:24:37.147,0.0019611699036649,51.41526055568495
2025-03-08 12:24:37.154,0.001829410598293,52.39654922928055
2025-03-08 12:24:37.162,0.0016879178394289,53.3469869771641
2025-03-08 12:24:37.170,0.0015361092209291,54.26655010280429
2025-03-08 12:24:37.178,0.0013735997386395,55.15347246837102
2025-03-08 12:24:37.186,0.0012002373509603,56.00452316624835
2025-03-08 12:24:37.193,0.001016134132451,56.81530641862829
2025-03-08 12:24:37.201,0.0008216910129674,57.58057240779133
2025-03-08 12:24:37.209,0.000617614148698,58.294528593402966
2025-03-08 12:24:37.217,0.0004049211914712,58.95114226182513
2025-03-08 12:24:37.225,0.0001849360958425,59.54442650590379
2025-03-08 12:24:37.233,-4.072839033956295e-05,60.068703460166574
2025-03-08 12:24:37.240,-0.0002702007726495,60.51884030805672
2025-03-08 12:24:37.248,-0.0005013928618853,60.89045522151859
2025-03-08 12:24:37.256,-0.0007320524856126,61.18009188619833
2025-03-08 12:24:37.264,-0.0009598247626345,61.38536253098519
2025-03-08 12:24:37.272,-0.0011823192820493,61.50506037534581
2025-03-08 12:24:37.279,-0.001397180227051,61.539243121094025
2025-03-08 12:24:37.287,-0.0016021564353875,61.48928956258907
2025-03-08 12:24:37.295,-0.0017951685298819,61.35793160232498
2025-03-08 12:24:37.303,-0.0019743705000953,61.14926397093373
2025-03-08 12:24:37.311,-0.0021382034087147,60.86873378869272
2025-03-08 12:24:37.318,-0.0022854392194551,60.523111791653456
2025-03-08 12:24:37.326,-0.0024152131174568,60.12044660236469
2025-03-08 12:24:37.334,-0.0025270431393678,59.67000287937023
2025-03-08 12:24:37.342,-0.0026208364478213,59.18218356142036
2025-03-08 12:24:37.350,-0.0026968821509274,58.66843576692844
2025-03-08 12:24:37.358,-0.0027558311546964,58.14113925955908
2025-03-08 12:24:37.365,-0.0027986641290041,57.61347579831203
2025-03-08 12:24:37.373,-0.0028266492396331,57.0992772121077
2025-03-08 12:24:37.381,-0.0028412917799582,56.61284973067937
2025-03-08 12:24:37.389,-0.0028442781336559,56.16877201208215
2025-03-08 12:24:37.397,-0.0028374165728092,55.78166446631674
2025-03-08 12:24:37.404,-0.0028225772885299,55.46592791260468
2025-03-08 12:24:37.412,-0.0028016338469199,55.23545035607929
2025-03-08 12:24:37.420,-0.0027764080200823,55.10328176082292
2025-03-08 12:24:37.428,-0.0027486196860601,55.081278151899554
2025-03-08 12:24:37.436,-0.0027198432371515,55.17971819778524
2025-03-08 12:24:37.443,-0.0026914716831214,55.40689757603303
2025-03-08 12:24:37.451,-0.0026646893657866,55.76870884754291
2025-03-08 12:24:37.459,-0.0026404538893562,56.26821716409739
2025-03-08 12:24:37.467,-0.002619487501358,56.90524478312886
2025-03-08 12:24:37.475,-0.0026022777466083,57.67597990587869
2025-03-08 12:24:37.483,-0.0025890868140546,58.5726276031872
2025-03-08 12:24:37.490,-0.0025799686548863,59.58312233062281
2025-03-08 12:24:37.498,-0.0025747926749017,60.69092252629304
2025-03-08 12:24:37.506,-0.0025732725709988,61.8749078050542
2025-03-08 12:24:37.514,-0.0025749986918801,63.10939813384332
2025-03-08 12:24:37.522,-0.0025794721908261,64.36431199295177
2025-03-08 12:24:37.529,-0.0025861392325858,65.6054768850458
2025-03-08 12:24:37.537,-0.0025944236201699,66.79510072480626
2025-03-08 12:24:37.545,-0.0026037564109099,67.89240678547566
2025-03-08 12:24:37.553,-0.002613601372489,68.85442821662133
2025-03-08 12:24:37.561,-0.0026234754420817,69.63695094245729
2025-03-08 12:24:37.568,-0.0026329636452609,70.19558628368313
2025-03-08 12:24:37.576,-0.0026417281934066,70.4869472106765
2025-03-08 12:24:37.584,-0.002649511732622,70.46989504213892
2025-03-08 12:24:37.592,-0.0026561349767717,70.10681699141475
2025-03-08 12:24:37.600,-0.0026614891997618,69.36488961253215
2025-03-08 12:24:37.608,-0.0026655242578535,68.21727932720096
2025-03-08 12:24:37.615,-0.0026682329565148,66.64422926380351
2025-03-08 12:24:37.623,-0.0026696326843145,64.6339820444444
2025-03-08 12:24:37.631,-0.0026697453259792,62.18349128953483
2025-03-08 12:24:37.639,-0.0026685765360832,59.29888070129677
2025-03-08 12:24:37.647,-0.0026660954779208,55.99561863516266
2025-03-08 12:24:37.654,-0.0026622160842082,52.29838777096993
2025-03-08 12:24:37.662,-0.0026567807808747,48.24064324357972
2025-03-08 12:24:37.670,-0.0026495474656557,43.86386750881579
2025-03-08 12:24:37.678,-0.0026401803966735,39.216545254549686
2025-03-08 12:24:37.686,-0.0026282455479347,34.35289571527383
2025-03-08 12:24:37.693,-0.0026132108985374,29.331411790053643
2025-03-08 12:24:37.701,-0.002594451982219,24.21326457714881
2025-03-08 12:24:37.709,-0.002571262814985,19.060637781964363
2025-03-08 12:24:37.717,-0.0025428720804795,13.935058693785535
2025-03-08 12:24:37.725,-0.0025084642347512,8.895791118256652
2025-03-08 12:24:37.733,-0.002467205002593,3.998351101370981
2025-03-08 12:24:37.740,-0.0024182705490717,-0.7068010254386844
2025-03-08 12:24:37.748,-0.0023608794069148,-5.175348216042698
2025-03-08 12:24:37.756,-0.0022943260452647,-9.369950831372934
2025-03-08 12:24:37.764,-0.0022180148107962,-13.26080616592603
2025-03-08 12:24:37.772,-0.0021314928763082,-16.825924499445428
2025-03-08 12:24:37.779,-0.0020344808035314,-20.0511248780318
2025-03-08 12:24:37.787,-0.0019268993638952,-22.929765238967647
2025-03-08 12:24:37.795,-0.0018088913371501,-25.46223178809364
2025-03-08 12:24:37.803,-0.0016808370932041,-27.655221341810797
2025-03-08 12:24:37.811,-0.0015433628638428,-29.5208573613845
2025-03-08 12:24:37.818,-0.0013973407689555,-31.07568542489264
2025-03-08 12:24:37.826,-0.001243879904191,-32.339596779594814
2025-03-08 12:24:37.834,-0.0010843081124007,-33.33472935776808
2025-03-08 12:24:37.842,-0.0009201444274311,-34.084394263170324
2025-03-08 12:24:37.850,-0.0007530625936552,-34.61207235702808
2025-03-08 12:24:37.858,-0.0005848465425727,-34.940520381744015
2025-03-08 12:24:37.865,-0.000417339257853,-35.091019328840275
2025-03-08 12:24:37.873,-0.0002523870557604,-35.082789831274106
2025-03-08 12:24:37.881,-9.178186303581516e-05,-34.93259063746236
2025-03-08 12:24:37.889,6.279553537618735e-05,-34.65450712565192
2025-03-08 12:24:37.897,0.0002098281855483,-34.25992775899119
2025-03-08 12:24:37.904,0.0003480086897233,-33.7576977553464
2025-03-08 12:24:37.912,0.0004762755490504,-33.154431401470305
2025-03-08 12:24:37.920,0.0005938384037691,-32.45495767341194
2025-03-08 12:24:37.928,0.0007001912592243,-31.662868367694603
2025-03-08 12:24:37.936,0.0007951135974112,-30.78113397651125
2025-03-08 12:24:37.943,0.0008786600044128,-29.812750179756826
2025-03-08 12:24:37.951,0.0009511395471298,-28.76137715266587
2025-03-08 12:24:37.959,0.0010130865906729,-27.63193492117361
2025-03-08 12:24:37.967,0.0010652250582566,-26.43112069699095
2025-03-08 12:24:37.975,0.0011084283024237,-25.16781838294949
2025-03-08 12:24:37.983,0.0011436767882432,-23.853376080322487
2025-03-08 12:24:37.990,0.0011720156977119,-22.501734209920212
2025-03-08 12:24:37.998,0.001194514364903,-21.129394467651604
2025-03-08 12:24:38.006,0.0012122291607097,-19.755227901051786
2025-03-08 12:24:38.014,0.0012261710849114,-18.40012849775566
2025-03-08 12:24:38.022,0.0012372789213893,-17.086526382093535
2025-03-08 12:24:38.029,0.0012463984122811,-15.83778159640113
2025-03-08 12:24:38.037,0.0012542675498239,-14.677485121203793
2025-03-08 12:24:38.045,0.0012615077861165,-13.628697969466693
2025-03-08 12:24:38.053,0.0012686207122123,-12.71316169784141
2025-03-08 12:24:38.061,0.001275989555524,-11.95051447081531
2025-03-08 12:24:38.068,0.0012838847089381,-11.357545982983508
2025-03-08 12:24:38.076,0.0012924724603984,-10.947522289034994
2025-03-08 12:24:38.084,0.001301826129226,-10.729608177080742
2025-03-08 12:24:38.092,0.001311938887372,-10.70841044047876
2025-03-08 12:24:38.100,0.0013227375996009,-10.88366053443296
2025-03-08 12:24:38.108,0.0013340970358768,-11.250049878445791
2025-03-08 12:24:38.115,0.0013458538009284,-11.79722565242213
2025-03-08 12:24:38.123,0.0013578193216545,-12.509949441973577
2025-03-08 12:24:38.131,0.0013697912790749,-13.368415590902956
2025-03-08 12:24:38.139,0.0013815629916298,-14.348720683726578
2025-03-08 12:24:38.147,0.0013929304248018,-15.423470297240824
2025-03-08 12:24:38.154,0.0014036966777705,-16.562504159937404
2025-03-08 12:24:38.162,0.0014136739682447,-17.73371633158966
2025-03-08 12:24:38.170,0.0014226833088176,-18.90394320694807
2025-03-08 12:24:38.178,0.0014305522443995,-20.039889328793787
2025-03-08 12:24:38.186,0.0014371111879458,-21.10905941906292
2025-03-08 12:24:38.194,0.0014421890222778,-22.08066488268216
2025-03-08 12:24:38.201,0.0014456086938762,-22.926474370655537
2025-03-08 12:24:38.209,0.0014471834887172,-23.62158073152102
2025-03-08 12:24:38.217,0.0014467145634447,-24.14506062709068
2025-03-08 12:24:38.225,0.0014439901574332,-24.480507932779805
2025-03-08 12:24:38.233,0.0014387867852386,-24.61642742080044
2025-03-08 12:24:38.240,0.001430872612325,-24.54648076289494
2025-03-08 12:24:38.248,0.0014200131189445,-24.26958225514196
2025-03-08 12:24:38.256,0.0014059790414828,-23.7898466066862
2025-03-08 12:24:38.264,0.0013885564646312,-23.116395487074968
2025-03-08 12:24:38.272,0.0013675588387091,-22.26303321743324
2025-03-08 12:24:38.279,0.0013428406068525,-21.24780500562134
2025-03-08 12:24:38.287,0.0013143120292245,-20.09245349455041
2025-03-08 12:24:38.295,0.0012819546805454,-18.82179117480043
2025-03-08 12:24:38.303,0.0012458369702209,-17.46300748174523
2025-03-08 12:24:38.311,0.001206128877973,-16.044930227048877
2025-03-08 12:24:38.319,0.0011631149183983,-14.597261461430527
2025-03-08 12:24:38.326,0.0011172042016934,-13.149807957531335
2025-03-08 12:24:38.334,0.001068936413422,-11.73172623152184
2025-03-08 12:24:38.342,0.0010189826098356,-10.370801351853553
2025-03-08 12:24:38.350,0.0009681398848839,-9.09277765863056
2025-03-08 12:24:38.358,0.0009173191884765,-7.920757890928557
2025-03-08 12:24:38.365,0.0008675258722685,-6.874685082314572
2025-03-08 12:24:38.373,0.0008198329221128,-5.970918984789835
2025-03-08 12:24:38.381,0.0007753472948594,-5.221915830804749
2025-03-08 12:24:38.389,0.0007351702759554,-4.636017110672151
2025-03-08 12:24:38.397,0.0007003532735534,-4.217349930867926
2025-03-08 12:24:38.404,0.0006718509444401,-3.9658386288652494
2025-03-08 12:24:38.412,0.0006504739989459,-3.877324817290697
2025-03-08 12:24:38.420,0.0006368444242131,-3.943791015257572
2025-03-08 12:24:38.428,0.0006313561302768,-4.153681519767366
2025-03-08 12:24:38.436,0.0006341440882684,-4.492313115265997
2025-03-08 12:24:38.444,0.0006450648466507,-4.942367478684173
2025-03-08 12:24:38.451,0.0006636908538329,-5.484456509768964
2025-03-08 12:24:38.459,0.0006893202651677,-6.097751057998696
2025-03-08 12:24:38.467,0.0007210028752827,-6.760662379737693
2025-03-08 12:24:38.475,0.0007575815713839,-7.45156394991589
2025-03-08 12:24:38.483,0.0007977474093992,-8.149538899126227
2025-03-08 12:24:38.490,0.0008401052466555,-8.835135444648799
2025-03-08 12:24:38.498,0.0008832459427154,-9.49110950731258
2025-03-08 12:24:38.506,0.0009258205368131,-10.103130682179096
2025-03-08 12:24:38.514,0.0009666115780836,-10.660425373373334
2025-03-08 12:24:38.522,0.0010045969418085,-11.156329720109056
2025-03-08 12:24:38.529,0.0010390019789821,-11.588725337367697
2025-03-08 12:24:38.537,0.0010693366457374,-11.960333097937456
2025-03-08 12:24:38.545,0.0010954152524034,-12.278844207153668
2025-03-08 12:24:38.553,0.0011173575695791,-12.556873476631267
2025-03-08 12:24:38.561,0.0011355711535566,-12.81172662770149
2025-03-08 12:24:38.569,0.0011507158319568,-13.064981170822536
2025-03-08 12:24:38.576,0.0011636522542079,-13.341888378828196
2025-03-08 12:24:38.584,0.0011753772237384,-13.670611570353753
2025-03-08 12:24:38.592,0.0011869491817086,-14.081322879181217
2025-03-08 12:24:38.600,0.0011994076892808,-14.605186546668024
2025-03-08 12:24:38.608,0.0012136910316725,-15.273261310605246
2025-03-08 12:24:38.615,0.0012305561467727,-16.115357583334823
2025-03-08 12:24:38.623,0.0012505049971217,-17.158886844061847
2025-03-08 12:24:38.631,0.0012737212783577,-18.427741130653597
2025-03-08 12:24:38.639,0.0013000209816306,-19.941239856055336
2025-03-08 12:24:38.647,0.0013288197871293,-21.713179529366844
2025-03-08 12:24:38.654,0.0013591195712018,-23.75101941943459
2025-03-08 12:24:38.662,0.0013895154980756,-26.05523279009924
2025-03-08 12:24:38.670,0.0014182242799074,-28.618849037214463
2025-03-08 12:24:38.678,0.0014431332565096,-31.4272068057324
2025-03-08 12:24:38.686,0.0014618689951005,-34.4579319026495
2025-03-08 12:24:38.694,0.0014718831759313,-37.68114656719808
2025-03-08 12:24:38.701,0.001470552661358,-41.05990857945336
2025-03-08 12:24:38.709,0.0014552898939737,-44.55087012560914
2025-03-08 12:24:38.717,0.0014236591619034,-48.10513778506391
2025-03-08 12:24:38.725,0.0013734938183577,-51.66930703135215
2025-03-08 12:24:38.733,0.0013030092716146,-55.18663780326261
2025-03-08 12:24:38.740,0.0012109065051398,-58.59833246531901
2025-03-08 12:24:38.748,0.0010964610617503,-61.84487414840731
2025-03-08 12:24:38.756,0.0009595928212852,-64.86738218278767
2025-03-08 12:24:38.764,0.0008009125043913,-67.60894208709588
2025-03-08 12:24:38.772,0.0006217416405226,-70.01587020008321
2025-03-08 12:24:38.779,0.0004241037437837,-72.03887727210163
2025-03-08 12:24:38.787,0.0002106856374812,-73.63410083419177
2025-03-08 12:24:38.795,-1.523076619036808e-05,-74.76398255778743
2025-03-08 12:24:38.803,-0.000249864433053,-75.39797372231314
2025-03-08 12:24:38.811,-0.0004890555514194,-75.51305895780477
2025-03-08 12:24:38.819,-0.0007284052959303,-75.0940953037926
2025-03-08 12:24:38.826,-0.0009634285938376,-74.13397004595167
2025-03-08 12:24:38.834,-0.0011897124235824,-72.63358651411221
2025-03-08 12:24:38.842,-0.0014030717792501,-70.60169183586129
2025-03-08 12:24:38.850,-0.0015996957188605,-68.05456436507795
2025-03-08 12:24:38.858,-0.0017762766925539,-65.0155810204466
2025-03-08 12:24:38.865,-0.0019301174266448,-61.51468601206713
2025-03-08 12:24:38.873,-0.002059210943462,-57.58778241594363
2025-03-08 12:24:38.881,-0.0021622907968197,-53.27606687876136
2025-03-08 12:24:38.889,-0.002238850213133,-48.6253256016303
2025-03-08 12:24:38.897,-0.0022891303991244,-43.68520695364181
2025-03-08 12:24:38.904,-0.0023140796844714,-38.5084829529988
2025-03-08 12:24:38.912,-0.002315286376091,-33.15030878353594
2025-03-08 12:24:38.920,-0.0022948892339712,-27.667486805054523
2025-03-08 12:24:38.928,-0.0022554703542004,-22.11773939744382
2025-03-08 12:24:38.936,-0.0021999359417361,-16.55899356002389
2025-03-08 12:24:38.944,-0.0021313909225895,-11.0486794429591
2025-03-08 12:24:38.951,-0.0020530135308566,-5.643044772869502
2025-03-08 12:24:38.959,-0.0019679358692412,-0.3964872355220922
2025-03-08 12:24:38.967,-0.0018791359382949,4.639092924589502
2025-03-08 12:24:38.975,-0.001789345730525,9.414917692828867
2025-03-08 12:24:38.983,-0.0017009787415596,13.885931034339292
2025-03-08 12:24:38.990,-0.0016160788136116,18.011371147068147
2025-03-08 12:24:38.998,-0.0015362907825792,21.75531250214611
2025-03-08 12:24:39.006,-0.0014628520963553,25.08717419628384
2025-03-08 12:24:39.014,-0.0013966034954584,27.982189658791363
2025-03-08 12:24:39.022,-0.0013380160308645,30.421830481722427
2025-03-08 12:24:39.029,-0.001287231134123,32.394174208638084
2025-03-08 12:24:39.037,-0.0012441101379788,33.89420266047083
2025-03-08 12:24:39.045,-0.0012082895627634,34.92401428829569
2025-03-08 12:24:39.053,-0.0011792386245619,35.4929316959229
2025-03-08 12:24:39.061,-0.0011563157603159,35.61748442723922
2025-03-08 12:24:39.069,-0.0011388214487594,35.321247807861695
2025-03-08 12:24:39.076,-0.0011260451557564,34.63452132807642
2025-03-08 12:24:39.084,-0.0011173047786931,33.593834799540474
2025-03-08 12:24:39.092,-0.0011119774849061,32.241277141927945
2025-03-08 12:24:39.100,-0.0011095213579559,30.62365078780804
2025-03-08 12:24:39.108,-0.0011094878083278,28.79146378900537
2025-03-08 12:24:39.115,-0.0011115252533127,26.79778108166728
2025-03-08 12:24:39.123,-0.0011153750621989,24.696965256388932
2025-03-08 12:24:39.131,-0.0011208611360492,22.543344823027816
2025-03-08 12:24:39.139,-0.0011278747233725,20.389853701845325
2025-03-08 12:24:39.147,-0.0011363561705715,18.286689061465903
2025-03-08 12:24:39.154,-0.0011462752771218,16.28003546707727
2025-03-08 12:24:39.162,-0.0011576117838471,14.41090166026657
2025-03-08 12:24:39.170,-0.0011703373069183,12.714112427824714
2025-03-08 12:24:39.178,-0.0011843997858571,11.217492323816725
2025-03-08 12:24:39.186,-0.0011997112591548,9.941270938645498
2025-03-08 12:24:39.194,-0.0012161395130939,8.897731413319255
2025-03-08 12:24:39.201,-0.0012335038780494,8.091115394280884
2025-03-08 12:24:39.209,-0.0012515752013928,7.517788976162675
2025-03-08 12:24:39.217,-0.0012700798256791,7.166665679656344
2025-03-08 12:24:39.225,-0.001288707227847,7.019874374762731
2025-03-08 12:24:39.233,-0.0013071207904874,7.053652425087434
2025-03-08 12:24:39.240,-0.0013249709626718,7.239437270277677
2025-03-08 12:24:39.248,-0.0013419098554268,7.545123210106287
2025-03-08 12:24:39.256,-0.0013576061591849,7.93644432313085
2025-03-08 12:24:39.264,-0.001371759204959,8.37843929685592
2025-03-08 12:24:39.272,-0.0013841110231436,8.836949591355037
2025-03-08 12:24:39.279,-0.0013944553652403,9.280099028147545
2025-03-08 12:24:39.287,-0.0014026428302581,9.679700905866266
2025-03-08 12:24:39.295,-0.0014085814972583,10.01253846554408
2025-03-08 12:24:39.303,-0.0014122328371262,10.261466332539014
2025-03-08 12:24:39.311,-0.001413603139288,10.416284749087758
2025-03-08 12:24:39.319,-0.0014127311600199,10.474345135420528
2025-03-08 12:24:39.326,-0.0014096730869188,10.440854726777218
2025-03-08 12:24:39.334,-0.0014044861648084,10.32885944040673
2025-03-08 12:24:39.342,-0.0013972124249588,10.158897211708902
2025-03-08 12:24:39.350,-0.0013878639099648,9.958328095904545
2025-03-08 12:24:39.358,-0.001376410618467,9.76036164073824
2025-03-08 12:24:39.365,-0.0013627721401334,9.602815548193565
2025-03-08 12:24:39.373,-0.0013468136345816,9.526651666903517
2025-03-08 12:24:39.381,-0.0013283464511573,9.57434523206939
2025-03-08 12:24:39.389,-0.0013071333284971,9.788150525742816
2025-03-08 12:24:39.397,-0.0012828977922834,10.208330511068748
2025-03-08 12:24:39.404,-0.0012553371076623,10.871419446417018
2025-03-08 12:24:39.412,-0.0012241379504157,11.808586121536184
2025-03-08 12:24:39.420,-0.0011889938387989,13.044161407576103
2025-03-08 12:24:39.428,-0.0011496232998844,14.594387577166676
2025-03-08 12:24:39.436,-0.001105787720971,16.466438662855595
2025-03-08 12:24:39.444,-0.0010573078754788,18.657751311716392
2025-03-08 12:24:39.451,-0.0010040782278627,21.15569445724476
2025-03-08 12:24:39.459,-0.0009460782895287,23.93759392140733
2025-03-08 12:24:39.467,-0.0008833804711053,26.97111502275363
2025-03-08 12:24:39.475,-0.0008161540242089,30.21499269723068
2025-03-08 12:24:39.483,-0.0007446647872393,33.62008495639492
2025-03-08 12:24:39.490,-0.0006692705695917,37.13071228946989
2025-03-08 12:24:39.498,-0.0005904121617194,40.68623356677207
2025-03-08 12:24:39.506,-0.0005086001683107,44.22279887272176
2025-03-08 12:24:39.514,-0.0004243981267384,47.67521216893042
2025-03-08 12:24:39.522,-0.0003384026641659,50.97883227457233
2025-03-08 12:24:39.529,-0.0002512217158766,54.0714396385087
2025-03-08 12:24:39.537,-0.0001634520212574,56.8949988116818
2025-03-08 12:24:39.545,-7.565719567484407e-05,59.39725222882745
2025-03-08 12:24:39.553,1.165235639176759e-05,61.53308949594432
2025-03-08 12:24:39.561,9.803654414562248e-05,63.26564731441646
2025-03-08 12:24:39.569,0.0001831387512602,64.567107802754
2025-03-08 12:24:39.576,0.0002666943283315,65.4191765919215
2025-03-08 12:24:39.584,0.0003485339606722,65.81323595149932
2025-03-08 12:24:39.592,0.000428581754524,65.75018166950032
2025-03-08 12:24:39.600,0.0005068481958583,65.23996484569179
2025-03-08 12:24:39.608,0.000583418427916,64.30087064236085
2025-03-08 12:24:39.615,0.0006584365365752,62.95857494663619
2025-03-08 12:24:39.623,0.0007320867211428,61.245026536523326
2025-03-08 12:24:39.631,0.000804572381455,59.19720655059735
2025-03-08 12:24:39.639,0.0008760942886568,56.855818821465206
2025-03-08 12:24:39.647,0.000946829122375,54.263964050345045
2025-03-08 12:24:39.654,0.0010169097176446,51.46584807401928
2025-03-08 12:24:39.662,0.0010864083239901,48.50556987478503
2025-03-08 12:24:39.670,0.0011553240155258,45.42602882593123
2025-03-08 12:24:39.678,0.0012235751333522,42.26798330053944
2025-03-08 12:24:39.686,0.001290997344211,39.06928457464901
2025-03-08 12:24:39.694,0.001357347603035,35.8643013120638
2025-03-08 12:24:39.701,0.0014223140211602,32.68354119966636
2025-03-08 12:24:39.709,0.0014855313430133,29.553467843409567
2025-03-08 12:24:39.717,0.0015466013764335,26.49650311919072
2025-03-08 12:24:39.725,0.0016051172739722,23.53119803461
2025-03-08 12:24:39.733,0.0016606900542463,20.67254899682733
2025-03-08 12:24:39.740,0.0017129752932645,17.932431373883432
2025-03-08 12:24:39.748,0.0017616976583819,15.32011853772512
2025-03-08 12:24:39.756,0.0018066710159871,12.842852323742346
2025-03-08 12:24:39.764,0.0018478122219337,10.506430154784816
2025-03-08 12:24:39.772,0.001885147302701,8.315775059783368
2025-03-08 12:24:39.779,0.0019188094364448,6.27545752883352
2025-03-08 12:24:39.787,0.0019490288699706,4.390142558882307
2025-03-08 12:24:39.795,0.0019761156043094,2.6649411842637334
2025-03-08 12:24:39.803,0.0020004362623121,1.105652906099697
2025-03-08 12:24:39.811,0.0020223869202895,-0.2811067778833938
2025-03-08 12:24:39.819,0.002042363813607,-1.487891707265641
2025-03-08 12:24:39.826,0.0020607337808395,-2.5065139907971936
2025-03-08 12:24:39.834,0.0020778061883941,-3.328221243677885
2025-03-08 12:24:39.842,0.0020938079180303,-3.943942488202648
2025-03-08 12:24:39.850,0.0021088627791561,-4.344580701666981
2025-03-08 12:24:39.858,0.0021229763933508,-4.521329696657491
2025-03-08 12:24:39.865,0.0021360272024507,-4.465994701719289
2025-03-08 12:24:39.873,0.0021477638339289,-4.171299410516325
2025-03-08 12:24:39.881,0.0021578086885859,-3.631166980695895
2025-03-08 12:24:39.889,0.0021656673413101,-2.8409679790980418
2025-03-08 12:24:39.897,0.0021707431753515,-1.7977340046919148
2025-03-08 12:24:39.904,0.0021723565791329,-0.5003410564062132
2025-03-08 12:24:39.912,0.0021697679782978,1.050328951931485
2025-03-08 12:24:39.920,0.0021622039231481,2.851237303709812
2025-03-08 12:24:39.928,0.0021488853966811,4.897036018177372
2025-03-08 12:24:39.936,0.0021290574542282,7.179902599975052
2025-03-08 12:24:39.944,0.0021020192564461,9.68935361151788
2025-03-08 12:24:39.951,0.0020671535215543,12.412033049276916
2025-03-08 12:24:39.959,0.002023954407758,15.33147698715713
2025-03-08 12:24:39.967,0.0019720528489525,18.427862040338532
2025-03-08 12:24:39.975,0.0019112384140317,21.677751361788854
2025-03-08 12:24:39.983,0.0018414768418691,25.05385757543616
2025-03-08 12:24:39.990,0.0017629225128882,28.52484677653743
2025-03-08 12:24:39.998,0.0016759252609636,32.05521105837684
2025-03-08 12:24:40.006,0.0015810311253305,35.60523860617701
2025-03-08 12:24:40.014,0.0014789768939522,39.13110997713586
2025-03-08 12:24:40.022,0.0013706785768531,42.58514660203829
2025-03-08 12:24:40.029,0.0012572142464266,45.91623275562031
2025-03-08 12:24:40.037,0.0011398019700652,49.07042534063267
2025-03-08 12:24:40.045,0.0010197738034988,51.991757053384845
2025-03-08 12:24:40.053,0.0008985469650572,54.62322823918005
2025-03-08 12:24:40.061,0.0007775933490274,56.90797154918362
2025-03-08 12:24:40.069,0.000658408477934,58.79056205706573
2025-03-08 12:24:40.076,0.0005424808682657,60.21843456006409
2025-03-08 12:24:40.084,0.0004312626090445,61.14336017703409
2025-03-08 12:24:40.092,0.000326141746611,61.52292681821399
2025-03-08 12:24:40.100,0.0002284168650995,61.32196327829644
2025-03-08 12:24:40.108,0.000139274088116,60.51384507801465
2025-03-08 12:24:40.115,5.97666378519722e-05,59.08162203357231
2025-03-08 12:24:40.123,-9.202904449387164e-06,57.01891291382636
2025-03-08 12:24:40.131,-6.689739690479077e-05,54.33052123317219
2025-03-08 12:24:40.139,-0.0001127566164492,51.03273774446858
2025-03-08 12:24:40.147,-0.0001464049310714,47.1533088411146
2025-03-08 12:24:40.154,-0.0001676546634825,42.7310649870706
2025-03-08 12:24:40.162,-0.0001765047650528,37.81521850678747
2025-03-08 12:24:40.170,-0.0001731346564933,32.46435460351023
2025-03-08 12:24:40.178,-0.0001578934041714,26.74515242873492
2025-03-08 12:24:40.186,-0.0001312847540799,20.730883656591697
2025-03-08 12:24:40.194,-9.394891492978186e-05,14.499743808965604
2025-03-08 12:24:40.201,-4.664232745674673e-05,8.133076260720838
2025-03-08 12:24:40.209,9.78309046987662e-06,1.7135503925250486
2025-03-08 12:24:40.217,7.43996520850561e-05,-4.67664608690918
2025-03-08 12:24:40.225,0.0001462211226556,-10.957544739971834
2025-03-08 12:24:40.233,0.0002242163208038,-17.053014363170927
2025-03-08 12:24:40.240,0.000307318370168,-22.8922178443371
2025-03-08 12:24:40.248,0.000394429300424,-28.410875711755644
2025-03-08 12:24:40.256,0.0004844201329788,-33.55231402325872
2025-03-08 12:24:40.264,0.0005761270130028,-38.268284064929134
2025-03-08 12:24:40.272,0.0006683443126345,-42.5195505408381
2025-03-08 12:24:40.279,0.0007598158801768,-46.27625303755885
2025-03-08 12:24:40.287,0.0008492257522904,-49.51805216189567
2025-03-08 12:24:40.295,0.0009351897199348,-52.234076647053705
2025-03-08 12:24:40.303,0.0010162491637689,-54.42269083725939
2025-03-08 12:24:40.311,0.0010908685403385,-56.09110340246781
2025-03-08 12:24:40.319,0.0011574377890453,-57.25483816922336
2025-03-08 12:24:40.326,0.0012142807372933,-57.93708696246221
2025-03-08 12:24:40.334,0.0012596703181932,-58.16796277618071
2025-03-08 12:24:40.342,0.0012918510961775,-57.983669868212026
2025-03-08 12:24:40.350,0.0013090692367923,-57.42560589127347
2025-03-08 12:24:40.358,0.0013096096781282,-56.53941021407649
2025-03-08 12:24:40.365,0.001291839875627,-55.37397230348397
2025-03-08 12:24:40.373,0.0012542590977979,-53.98041443254783
2025-03-08 12:24:40.381,0.0011955518434816,-52.411063909612565
2025-03-08 12:24:40.389,0.0011146435397917,-50.718431240717145
2025-03-08 12:24:40.397,0.0010107563018453,-48.954211828989536
2025-03-08 12:24:40.405,0.0008834622575937,-47.1683296598863
2025-03-08 12:24:40.412,0.0007327318090613,-45.40804164377704
2025-03-08 12:24:40.420,0.000558974206781,-43.71712070119156
2025-03-08 12:24:40.428,0.0003630679438973,-42.13513421464781
2025-03-08 12:24:40.436,0.0001463787561148,-40.696832192358414
2025-03-08 12:24:40.444,-8.923653209374516e-05,-39.43165655178143
2025-03-08 12:24:40.451,-0.0003414414713418,-38.36337955503727
2025-03-08 12:24:40.459,-0.0006074472290544,-37.509875858493466
2025-03-08 12:24:40.467,-0.0008840553692249,-36.88302911437795
2025-03-08 12:24:40.475,-0.0011677152523802,-36.48877078740531
2025-03-08 12:24:40.483,-0.001454594528027,-36.32724596749022
2025-03-08 12:24:40.490,-0.0017406606952426,-36.39309853882712
2025-03-08 12:24:40.498,-0.0020217713599696,-36.67586610128214
2025-03-08 12:24:40.506,-0.0022937705992595,-37.16047347102063
2025-03-08 12:24:40.514,-0.0025525886637405,-37.8278123204226
2025-03-08 12:24:40.522,-0.0027943420240097,-38.655393454873405
2025-03-08 12:24:40.530,-0.0030154305049911,-39.61805728860461
2025-03-08 12:24:40.537,-0.0032126280629453,-40.68872723412946
2025-03-08 12:24:40.545,-0.0033831637634447,-41.83918996640775
2025-03-08 12:24:40.553,-0.003524789784847,-43.040885912293625
2025-03-08 12:24:40.561,-0.0036358338144276,-44.26569292458456
2025-03-08 12:24:40.569,-0.0037152339836547,-45.48668601129717
2025-03-08 12:24:40.576,-0.0037625554029697,-46.67885627253876
2025-03-08 12:24:40.584,-0.0037779882564995,-47.8197728838647
2025-03-08 12:24:40.592,-0.0037623281689914,-48.89017304589573
2025-03-08 12:24:40.600,-0.0037169401098076,-49.8744662415162
2025-03-08 12:24:40.608,-0.0036437074999882,-50.76114082522045
2025-03-08 12:24:40.615,-0.003544968523771,-51.54306283621829
2025-03-08 12:24:40.623,-0.0034234419599431,-52.21765891860098
2025-03-08 12:24:40.631,-0.0032821451253608,-52.78697731006368
2025-03-08 12:24:40.639,-0.0031243067263556,-53.25762300384064
2025-03-08 12:24:40.647,-0.0029532775194176,-53.6405653889629
2025-03-08 12:24:40.655,-0.0027724416826377,-53.95081893636683
2025-03-08 12:24:40.662,-0.0025851317006003,-54.20699983710211
2025-03-08 12:24:40.670,-0.0023945493837504,-54.43076393420879
2025-03-08 12:24:40.678,-0.0022036953853754,-54.64613384391841
2025-03-08 12:24:40.686,-0.0020153092359261,-54.87872585273608
2025-03-08 12:24:40.694,-0.0018318214769337,-55.154890007711074
2025-03-08 12:24:40.701,-0.0016553189495723,-55.50077976135256
2025-03-08 12:24:40.709,-0.0014875236901183,-55.94137052445984
2025-03-08 12:24:40.717,-0.0013297852317516,-56.49944941738172
2025-03-08 12:24:40.725,-0.0011830854588967,-57.19460126875529
2025-03-08 12:24:40.733,-0.0010480545854142,-58.04221836014539
2025-03-08 12:24:40.740,-0.0009249964174227,-59.05256342315816
2025-03-08 12:24:40.748,-0.0008139208619028,-60.22991682376336
2025-03-08 12:24:40.756,-0.000714581625166,-61.57183956915294
2025-03-08 12:24:40.764,-0.0006265171301662,-63.0685835958559
2025-03-08 12:24:40.772,-0.000549092805866,-64.70267960027743
2025-03-08 12:24:40.780,-0.00048154306082,-66.44873032000244
2025-03-08 12:24:40.787,-0.0004230114712959,-68.27343354465918
2025-03-08 12:24:40.795,-0.0003725879939338,-70.13585413107091
2025-03-08 12:24:40.803,-0.0003293423130702,-71.98795786626582
2025-03-08 12:24:40.811,-0.0002923526917057,-73.77541218615994
2025-03-08 12:24:40.819,-0.0002607298830684,-75.4386496436712
2025-03-08 12:24:40.826,-0.0002336358096612,-76.91417987568052
2025-03-08 12:24:40.834,-0.000210296886749,-78.1361250163909
2025-03-08 12:24:40.842,-0.0001900120799568,-79.03794253181267
2025-03-08 12:24:40.850,-0.000172156019766,-79.55428888375998
2025-03-08 12:24:40.858,-0.000156177717059,-79.62296790714372
2025-03-08 12:24:40.865,-0.000141595612004,-79.18689995464473
2025-03-08 12:24:40.873,-0.0001279898236667,-78.19604235577911
2025-03-08 12:24:40.881,-0.0001149925224724,-76.60918911010909
2025-03-08 12:24:40.889,-0.0001022773076695,-74.39557842530483
2025-03-08 12:24:40.897,-8.954837052499372e-05,-71.53624098467918
2025-03-08 12:24:40.905,-7.653013085234763e-05,-68.02502971902321
2025-03-08 12:24:40.912,-6.295798805097853e-05,-63.8692831244833
2025-03-08 12:24:40.920,-4.857079472283319e-05,-59.09008829488667
2025-03-08 12:24:40.928,-3.3105584357141434e-05,-53.72212606253253
2025-03-08 12:24:40.936,-1.6294956569076726e-05,-47.81309801994402
2025-03-08 12:24:40.944,2.132618109679823e-06,-41.42275267310862
2025-03-08 12:24:40.951,2.2449442975766065e-05,-34.62154449137008
2025-03-08 12:24:40.959,4.492219788094872e-05,-27.488974203978746
2025-03-08 12:24:40.967,6.98026936827541e-05,-20.111670570533708
2025-03-08 12:24:40.975,9.731621781103824e-05,-12.581282491584188
2025-03-08 12:24:40.983,0.0001276481775828,-4.992255463105051
2025-03-08 12:24:40.990,0.0001609299673248,2.56043199549522
2025-03-08 12:24:40.998,0.00019722512296,9.983497992522649
2025-03-08 12:24:41.006,0.0002365169007365,17.187483679750038
2025-03-08 12:24:41.014,0.0002786984312469,24.088714250317885
2025-03-08 12:24:41.022,0.0003235665162381,30.611041468346727
2025-03-08 12:24:41.030,0.0003708199191643,36.68732528236302
2025-03-08 12:24:41.037,0.0004200626696662,42.26062359093343
2025-03-08 12:24:41.045,0.0004708125092379,47.28507108271372
2025-03-08 12:24:41.053,0.0005225141949358,51.72643969110961
2025-03-08 12:24:41.061,0.000574556982624,55.56238404671636
2025-03-08 12:24:41.069,0.0006262952682493,58.78238490870015
2025-03-08 12:24:41.076,0.0006770711191228,61.38741154767087
2025-03-08 12:24:41.084,0.0007262373169006,63.38933022256633
2025-03-08 12:24:41.092,0.0007731795840328,64.81009020007872
2025-03-08 12:24:41.100,0.0008173368641164,65.68072133704536
2025-03-08 12:24:41.108,0.0008582188119052,66.04017835793621
2025-03-08 12:24:41.115,0.0008954199402832,65.93406697838721
2025-03-08 12:24:41.123,0.000928630118869,65.41328634711101
2025-03-08 12:24:41.131,0.000957641305143,64.5326212568953
2025-03-08 12:24:41.139,0.0009823505098922,63.34931646757232
2025-03-08 12:24:41.147,0.0010027590645968,61.92166442019614
2025-03-08 12:24:41.155,0.0010189682964485,60.307636606136526
2025-03-08 12:24:41.162,0.0010311717555551,58.56358778342402
2025-03-08 12:24:41.170,0.0010396442022271,56.743060922113976
2025-03-08 12:24:41.178,0.0010447276758881,54.89571898487643
2025-03-08 12:24:41.186,0.0010468151449743,53.06642718597473
2025-03-08 12:24:41.194,0.0010463324527175,51.29450605347266
2025-03-08 12:24:41.201,0.0010437194659407,49.613171378778944
2025-03-08 12:24:41.209,0.0010394114437491,48.0491720322614
2025-03-08 12:24:41.217,0.0010338216363144,46.622630829773925
2025-03-08 12:24:41.225,0.0010273260014007,45.34708741754242
2025-03-08 12:24:41.233,0.001020250726302,44.22973581755248
2025-03-08 12:24:41.240,0.00101286302066,43.27184316879513
2025-03-08 12:24:41.248,0.0010053654419546,42.4693306117297
2025-03-08 12:24:41.256,0.0009978938485318,41.81349244226935
2025-03-08 12:24:41.264,0.0009905189514235,41.2918257938223
2025-03-08 12:24:41.272,0.0009832513571809,40.88894031541608
2025-03-08 12:24:41.280,0.0009760499490205,40.58751565833935
2025-03-08 12:24:41.287,0.0009688334097261,40.36927404651185
2025-03-08 12:24:41.295,0.0009614946008555,40.21593569815239
2025-03-08 12:24:41.303,0.0009539173557752,40.11012624893456
2025-03-08 12:24:41.311,0.0009459950360573,40.03620744464913
2025-03-08 12:24:41.319,0.0009376499727142,39.981005085305874
2025-03-08 12:24:41.326,0.00092885269286,39.93441140858372
2025-03-08 12:24:41.334,0.0009196396608489,39.88984273845342
2025-03-08 12:24:41.342,0.0009101281946345,39.84453727837731
2025-03-08 12:24:41.350,0.0009005272791923,39.79968241202917
2025-03-08 12:24:41.358,0.0008911431753489,39.76036580576333
2025-03-08 12:24:41.365,0.0008823789882314,39.73534997492484
2025-03-08 12:24:41.373,0.0008747276954611,39.73667571359884
2025-03-08 12:24:41.381,0.0008687585193302,39.77910575864304
2025-03-08 12:24:41.389,0.0008650969244268,39.87942606161918
2025-03-08 12:24:41.397,0.0008643988966163,40.0556278221127
2025-03-08 12:24:41.405,0.0008673204981328,40.32599870672503
2025-03-08 12:24:41.412,0.000874484005682,40.70815614890523
2025-03-08 12:24:41.420,0.0008864422229874,41.218059032010295
2025-03-08 12:24:41.428,0.0009036427808789,41.86903619077692
2025-03-08 12:24:41.436,0.0009263943431032,42.67087087913578
2025-03-08 12:24:41.444,0.0009548366031461,43.62897956681945
2025-03-08 12:24:41.451,0.000988915825938,44.74372113256086
2025-03-08 12:24:41.459,0.0010283675132766,46.00986877187267
2025-03-08 12:24:41.467,0.0010727075516122,47.416271841961326
2025-03-08 12:24:41.475,0.0011212328794788,48.94572857399403
2025-03-08 12:24:41.483,0.0011730322577205,50.57508326947709
2025-03-08 12:24:41.490,0.0012270071803585,52.27555346736543
2025-03-08 12:24:41.498,0.001281902395549,54.01328386601339
2025-03-08 12:24:41.506,0.0013363449386777,55.75011480141363
2025-03-08 12:24:41.514,0.0013888900058482,57.44454415930412
2025-03-08 12:24:41.522,0.0014380714542183,59.05285311178175
2025-03-08 12:24:41.530,0.0014824543132254,60.53035842374455
2025-03-08 12:24:41.537,0.0015206865304007,61.832747680045095
2025-03-08 12:24:41.545,0.0015515472749618,62.91744902069999
2025-03-08 12:24:41.553,0.0015739894236474,63.744984150872405
2025-03-08 12:24:41.561,0.0015871742930105,64.28025272738593
2025-03-08 12:24:41.569,0.0015904972203045,64.49369781184845
2025-03-08 12:24:41.576,0.0015836031842549,64.36230590104644
2025-03-08 12:24:41.584,0.001566392237143,63.87040096067117
2025-03-08 12:24:41.592,0.001539015046629,63.01019965282376
2025-03-08 12:24:41.600,0.0015018592929275,61.78210422635723
2025-03-08 12:24:41.608,0.0014555280060478,60.194719938580754
2025-03-08 12:24:41.615,0.001400811145919,58.26459497404866
2025-03-08 12:24:41.623,0.0013386518522461,56.015692180973225
2025-03-08 12:24:41.631,0.0012701088634784,53.478613095018645
2025-03-08 12:24:41.639,0.001196316642593,50.68960516619814
2025-03-08 12:24:41.647,0.0011184447458581,47.6893923192125
2025-03-08 12:24:41.655,0.0010376579268257,44.521876434615216
2025-03-08 12:24:41.662,0.0009550783789025,41.23276257160423
2025-03-08 12:24:41.670,0.0008717513703297,37.868163423543486
2025-03-08 12:24:41.678,0.0007886153100018,34.47323844156544
2025-03-08 12:24:41.686,0.0007064770343331,31.09092031042436
2025-03-08 12:24:41.694,0.0006259928766495,27.76077622274194
2025-03-08 12:24:41.701,0.0005476559004109,24.518044023511653
2025-03-08 12:24:41.709,0.0004717895361855,21.392874237729394
2025-03-08 12:24:41.717,0.0003985477279513,18.409798768173424
2025-03-08 12:24:41.725,0.0003279215342542,15.58743621597826
2025-03-08 12:24:41.733,0.0002597519215618,12.93843290698971
2025-03-08 12:24:41.740,0.0001937482311465,10.469628358035054
2025-03-08 12:24:41.748,0.0001295115236748,8.182424593871984
2025-03-08 12:24:41.756,6.656173676035002e-05,6.0733308534346655
2025-03-08 12:24:41.764,4.367345093727401e-06,4.134649130821256
2025-03-08 12:24:41.772,-5.7623993043811394e-05,2.3552618979608884
2025-03-08 12:24:41.780,-0.0001199554559686,0.7214813459556956
2025-03-08 12:24:41.787,-0.0001831334405858,-0.7820804685087874
2025-03-08 12:24:41.795,-0.0002476039378278,-2.1716592186153387
2025-03-08 12:24:41.803,-0.0003137343645546,-3.4635386440920617
2025-03-08 12:24:41.811,-0.0003818020458178,-4.673333610487992
2025-03-08 12:24:41.819,-0.0004519901792142,-5.815379847458097
2025-03-08 12:24:41.826,-0.0005243916694673,-6.902247680209016
2025-03-08 12:24:41.834,-0.0005990207185932,-7.944390191287892
2025-03-08 12:24:41.842,-0.0006758315337438,-8.94992948126237
2025-03-08 12:24:41.850,-0.0007547430202386,-9.924578318686866
2025-03-08 12:24:41.858,-0.000835667908037,-10.871688699014411
2025-03-08 12:24:41.865,-0.0009185444504502,-11.792413830650927
2025-03-08 12:24:41.873,-0.0010033686441099,-12.68596595590836
2025-03-08 12:24:41.881,-0.0010902248309074,-13.549949288519938
2025-03-08 12:24:41.889,-0.0011793125347968,-14.380745279352343
2025-03-08 12:24:41.897,-0.0012709674588201,-15.173926459592916
2025-03-08 12:24:41.905,-0.0013656747296825,-15.924675280474602
2025-03-08 12:24:41.912,-0.0014640727257089,-16.62818565399453
2025-03-08 12:24:41.920,-0.0015669461503074,-17.28002723230212
2025-03-08 12:24:41.928,-0.0016752074287666,-17.876455724865547
2025-03-08 12:24:41.936,-0.0017898660327461,-18.41465657351684
2025-03-08 12:24:41.944,-0.0019119859489636,-18.892913869100244
2025-03-08 12:24:41.951,-0.0020426321252917,-19.31070123874812
2025-03-08 12:24:41.959,-0.002182807282978,-19.66869626995744
2025-03-08 12:24:41.967,-0.0023333809719144,-19.968724573637456
2025-03-08 12:24:41.975,-0.0024950131911075,-20.213643555951272
2025-03-08 12:24:41.983,-0.0026680753196161,-20.407179149498702
2025-03-08 12:24:41.990,-0.0028525715093025,-20.553730988764134
2025-03-08 12:24:41.998,-0.0030480640556948,-20.658162704307287
2025-03-08 12:24:42.006,-0.0032536065315072,-20.725594118177487
2025-03-08 12:24:42.014,-0.0034676885735904,-20.76121117478652
2025-03-08 12:24:42.022,-0.0036881961169166,-20.770107520727308
2025-03-08 12:24:42.030,-0.0039123905693712,-20.75716889088069
2025-03-08 12:24:42.037,-0.0041369099376141,-20.7270080532092
2025-03-08 12:24:42.045,-0.0043577942532257,-20.68395423974424
2025-03-08 12:24:42.053,-0.0045705368248233,-20.632097001308672
2025-03-08 12:24:42.061,-0.0047701619108617,-20.575380526316746
2025-03-08 12:24:42.069,-0.004951328429182,-20.517740897931763
2025-03-08 12:24:42.076,-0.0051084583089649,-20.463275729458147
2025-03-08 12:24:42.084,-0.0052358870454459,-20.416433261568194
2025-03-08 12:24:42.092,-0.0053280329587164,-20.38220640719863
2025-03-08 12:24:42.100,-0.0053795806111319,-20.36631640499916
2025-03-08 12:24:42.108,-0.0053856728095081,-20.375370655081237
2025-03-08 12:24:42.115,-0.0053421046326212,-20.41697990586175
2025-03-08 12:24:42.123,-0.0052455120607592,-20.499821189260285
2025-03-08 12:24:42.131,-0.0050935471459092,-20.633634734312583
2025-03-08 12:24:42.139,-0.0048850313273024,-20.82914551116501
2025-03-08 12:24:42.147,-0.0046200785210799,-21.09790305066646
2025-03-08 12:24:42.155,-0.0043001800531382,-21.45203671171618
2025-03-08 12:24:42.162,-0.0039282444223312,-21.90392755534913
2025-03-08 12:24:42.170,-0.0035085863121863,-22.465802306505392
2025-03-08 12:24:42.178,-0.003046861220277,-23.149259358295424
2025-03-08 12:24:42.186,-0.0025499445548221,-23.96474116698129
2025-03-08 12:24:42.194,-0.0020257570685572,-24.920971446028
2025-03-08 12:24:42.201,-0.0014830419975811,-26.024379054873293
2025-03-08 12:24:42.209,-0.0009311029809435,-27.278533185976517
2025-03-08 12:24:42.217,-0.000379515194516,-28.6836162121538
2025-03-08 12:24:42.225,0.0001621755877026,-30.23596123031393
2025-03-08 12:24:42.233,0.0006847506142867,-31.927680828942947
2025-03-08 12:24:42.240,0.0011795980131307,-33.746411855807786
2025-03-08 12:24:42.248,0.001638962585319,-35.67519795480486
2025-03-08 12:24:42.256,0.0020561560218766,-37.69252741605301
2025-03-08 12:24:42.264,0.0024257209674105,-39.77253854397598
2025-03-08 12:24:42.272,0.0027435451302016,-41.88539846212806
2025-03-08 12:24:42.280,0.0030069241113122,-43.99785426359082
2025-03-08 12:24:42.287,0.003214573784882,-46.07394794424099
2025-03-08 12:24:42.295,0.0033665949525896,-48.07587892008048
2025-03-08 12:24:42.303,0.0034643946593517,-49.96499046940862
2025-03-08 12:24:42.311,0.0035105699913429,-51.7028495425455
2025-03-08 12:24:42.319,0.0035087613092984,-53.252383457037325
2025-03-08 12:24:42.326,0.0034634825973539,-54.5790324380136
2025-03-08 12:24:42.334,0.0033799368762796,-55.65187410675907
2025-03-08 12:24:42.342,0.0032638244657234,-56.44467511510092
2025-03-08 12:24:42.350,0.003121151359149,-56.93682631350265
2025-03-08 12:24:42.358,0.0029580441909849,-57.11412115038223
2025-03-08 12:24:42.365,0.0027805773170229,-56.96934232097276
2025-03-08 12:24:42.373,0.0025946164608692,-56.50262877804386
2025-03-08 12:24:42.381,0.0024056822489888,-55.72160373698088
2025-03-08 12:24:42.389,0.0022188358281585,-54.641253835739846
2025-03-08 12:24:42.397,0.0020385877128575,-53.28355969830871
2025-03-08 12:24:42.405,0.0018688300964815,-51.676888351095485
2025-03-08 12:24:42.412,0.0017127920717751,-49.85516781692584
2025-03-08 12:24:42.420,0.0015730165271967,-47.8568733253324
2025-03-08 12:24:42.428,0.0014513569572589,-45.72386249277328
2025-03-08 12:24:42.436,0.0013489921167812,-43.50010312125252
2025-03-08 12:24:42.444,0.0012664563694133,-41.23034158155515
2025-03-08 12:24:42.451,0.001203683633262,-38.95876184989291
2025-03-08 12:24:42.459,0.001160062873016,-36.72768506761988
2025-03-08 12:24:42.467,0.0011345030495499,-34.5763570577498
2025-03-08 12:24:42.475,0.001125505337062,-32.539866753364755
2025-03-08 12:24:42.483,0.0011312403357528,-30.648232263773952
2025-03-08 12:24:42.490,0.001149628007658,-28.925683683387724
2025-03-08 12:24:42.498,0.0011784181492508,-27.39016313630596
2025-03-08 12:24:42.506,0.0012152693564138,-26.05305337226961
2025-03-08 12:24:42.514,0.0012578246053978,-24.919136923809653
2025-03-08 12:24:42.522,0.0013037817327898,-23.986778828815247
2025-03-08 12:24:42.530,0.0013509571990468,-23.248317612046183
2025-03-08 12:24:42.537,0.0013973415458215,-22.690641939007683
2025-03-08 12:24:42.545,0.0014411449730768,-22.295924365247245
2025-03-08 12:24:42.553,0.0014808315939865,-22.04247907891231
2025-03-08 12:24:42.561,0.0015151412818304,-21.90570756658083
2025-03-08 12:24:42.569,0.0015430986303045,-21.85909473584494
2025-03-08 12:24:42.576,0.0015640093363924,-21.8752181454781
2025-03-08 12:24:42.584,0.0015774451485464,-21.92673450503928
2025-03-08 12:24:42.592,0.0015832192571182,-21.987310337037275
2025-03-08 12:24:42.600,0.001581354520392,-22.032467432654656
2025-03-08 12:24:42.608,0.0015720471503928,-22.040318241745577
2025-03-08 12:24:42.615,0.0015556284289975,-21.992171385467987
2025-03-08 12:24:42.623,0.0015325267532497,-21.872992849900196
2025-03-08 12:24:42.631,0.0015032319156447,-21.6717139233282
2025-03-08 12:24:42.639,0.0014682630908962,-21.381382420363806
2025-03-08 12:24:42.647,0.0014281415702309,-20.99915906028611
2025-03-08 12:24:42.655,0.0013833688881763,-20.526165919602214
2025-03-08 12:24:42.662,0.0013344106565811,-19.967198551865703
2025-03-08 12:24:42.670,0.0012816861615638,-19.3303175539762
2025-03-08 12:24:42.678,0.0012255635557344,-18.62633894587981
2025-03-08 12:24:42.686,0.0011663602562926,-17.868245599662554
2025-03-08 12:24:42.694,0.0011043479473442,-17.070543975968196
2025-03-08 12:24:42.701,0.0010397614153703,-16.248591475202996
2025-03-08 12:24:42.709,0.0009728103357224,-15.4179196932984
2025-03-08 12:24:42.717,0.00090369305937,-14.593577757404894
2025-03-08 12:24:42.725,0.0008326114039304,-13.789517765046456
2025-03-08 12:24:42.733,0.0007597854344655,-13.018041307836262
2025-03-08 12:24:42.741,0.0006854672431524,-12.289322342759665
2025-03-08 12:24:42.748,0.0006099528137165,-11.611017541057938
2025-03-08 12:24:42.756,0.0005335911956803,-10.987970984080382
2025-03-08 12:24:42.764,0.0004567904237015,-10.422015975830142
2025-03-08 12:24:42.772,0.000380019881805,-9.911873059095452
2025-03-08 12:24:42.780,0.0003038090683878,-9.45314024618456
2025-03-08 12:24:42.787,0.0002287428915367,-9.038369115017964
2025-03-08 12:24:42.795,0.0001554536980489,-8.657218805792963
2025-03-08 12:24:42.803,8.461026959594867e-05,-8.296679041284913
2025-03-08 12:24:42.811,1.6904070975270074e-05,-7.941352984213526
2025-03-08 12:24:42.819,-4.696688963954728e-05,-7.573790894814635
2025-03-08 12:24:42.826,-0.0001063161785637,-7.174866000238979
2025-03-08 12:24:42.834,-0.0001604886117953,-6.724184581262644
2025-03-08 12:24:42.842,-0.0002088810400397,-6.200522891179412
2025-03-08 12:24:42.850,-0.0002509636984879,-5.5822840478665
2025-03-08 12:24:42.858,-0.000286301418233,-4.847968417697613
2025-03-08 12:24:42.866,-0.0003145738239087,-3.976651207167168
2025-03-08 12:24:42.873,-0.0003355934870358,-2.948460990670239
2025-03-08 12:24:42.881,-0.0003493209000158,-1.7450527432215353
2025-03-08 12:24:42.889,-0.0003558751400246,-0.350068630158795
2025-03-08 12:24:42.897,-0.0003555392471161,1.2504206566081353
2025-03-08 12:24:42.905,-0.0003487596247945,3.0675018202439004
2025-03-08 12:24:42.912,-0.0003361391154839,5.109040634060128
2025-03-08 12:24:42.920,-0.0003184237467224,7.379348580610817
2025-03-08 12:24:42.928,-0.0002964834612507,9.878904281931447
2025-03-08 12:24:42.936,-0.0002712874304115,12.60413989446659
2025-03-08 12:24:42.944,-0.0002438748025139,15.547302510314225
2025-03-08 12:24:42.951,-0.0002153219616791,18.69639978044563
2025-03-08 12:24:42.959,-0.0001867075801697,22.0352372834725
2025-03-08 12:24:42.967,-0.0001590769332773,25.543552541419743
2025-03-08 12:24:42.975,-0.0001334070818981,29.19724712634327
2025-03-08 12:24:42.983,-0.0001105745774636,32.96871426645169
2025-03-08 12:24:42.991,-9.132727200362122e-05,36.827255121186006
2025-03-08 12:24:42.998,-7.626160063425558e-05,40.73957286437519
2025-03-08 12:24:43.006,-6.58063590283079e-05,44.67033027340037
2025-03-08 12:24:43.014,-6.021357977412168e-05,48.58275396576076
2025-03-08 12:24:43.022,-5.9556684152701285e-05,52.43926693324911
2025-03-08 12:24:43.030,-6.373569330340615e-05,56.20213065769693
2025-03-08 12:24:43.037,-7.248894392382119e-05,59.83407880196527
2025-03-08 12:24:43.045,-8.541047548346224e-05,63.2989261168095
2025-03-08 12:24:43.053,-0.0001019720415566,66.56213857775577
2025-03-08 12:24:43.061,-0.0001215485484536,69.59135360406236
2025-03-08 12:24:43.069,-0.0001434456392478,72.35684223029841
2025-03-08 12:24:43.076,-0.0001669281184394,74.83190803321627
2025-03-08 12:24:43.084,-0.0001912479484446,76.993220249962
2025-03-08 12:24:43.092,-0.0002156706410309,78.82108072139336
2025-03-08 12:24:43.100,-0.0002394990174709,80.29962599540666
2025-03-08 12:24:43.108,-0.0002620935271826,81.4169671317944
2025-03-08 12:24:43.116,-0.0002828885881425,82.16527050984715
2025-03-08 12:24:43.123,-0.0003014047100407,82.54078332533507
2025-03-08 12:24:43.131,-0.0003172564397793,82.54380755106362
2025-03-08 12:24:43.139,-0.0003301563899786,82.17862599098278
2025-03-08 12:24:43.147,-0.0003399157470414,81.45338373623443
2025-03-08 12:24:43.155,-0.0003464417113135,80.37992788327092
2025-03-08 12:24:43.162,-0.0003497323374519,78.97360785857852
2025-03-08 12:24:43.170,-0.0003498692447096,77.25303819184882
2025-03-08 12:24:43.178,-0.0003470086456028,75.23982519494244
2025-03-08 12:24:43.186,-0.0003413710908382,72.95825885251003
2025-03-08 12:24:43.194,-0.0003332302688602,70.43497140039112
2025-03-08 12:24:43.201,-0.0003229011553066,67.69856458468202
2025-03-08 12:24:43.209,-0.0003107277859402,64.7792084041129
2025-03-08 12:24:43.217,-0.0002970709088385,61.70821513002403
2025-03-08 12:24:43.225,-0.0002822957382091,58.51759344761207
2025-03-08 12:24:43.233,-0.000266759986603,55.2395885742902
2025-03-08 12:24:43.241,-0.0002508023208023,51.90621513814442
2025-03-08 12:24:43.248,-0.0002347313929994,48.54879042957359
2025-03-08 12:24:43.256,-0.0002188156437625,45.19747636838415
2025-03-08 12:24:43.264,-0.0002032741343732,41.88083913451349
2025-03-08 12:24:43.272,-0.0001882687184457,38.625435838766215
2025-03-08 12:24:43.280,-0.0001738979023786,35.45543777871505
2025-03-08 12:24:43.287,-0.0001601927803743,32.392299647232804
2025-03-08 12:24:43.295,-0.0001471154503048,29.45448347470979
2025-03-08 12:24:43.303,-0.0001345602837132,26.65724507511749
2025-03-08 12:24:43.311,-0.0001223583152373,24.0124893628422
2025-03-08 12:24:43.319,-0.0001102848572927,21.52869917566368
2025-03-08 12:24:43.326,-9.807027503401776e-05,19.210940257637382
2025-03-08 12:24:43.334,-8.541368900919341e-05,17.060942908536745
2025-03-08 12:24:43.342,-7.199920198062197e-05,15.077258583758958
2025-03-08 12:24:43.350,-5.751407740264626e-05,13.255487521409526
2025-03-08 12:24:43.358,-4.166814866592811e-05,11.588571365250612
2025-03-08 12:24:43.366,-2.4213615845921127e-05,10.067142811894737
2025-03-08 12:24:43.373,-4.9642823603383935e-06,8.679922591358302
2025-03-08 12:24:43.381,1.6186795662787478e-05,7.414152634562357
2025-03-08 12:24:43.389,3.925230175736729e-05,6.256053126135096
2025-03-08 12:24:43.397,6.413929625253581e-05,5.1912903190399655
2025-03-08 12:24:43.405,9.064236012596108e-05,4.205441530121295
2025-03-08 12:24:43.412,0.0001184418769394,3.2844436711397167
2025-03-08 12:24:43.420,0.0001471077705137,2.415012021809652
2025-03-08 12:24:43.428,0.0001761086400401,1.5850167340298489
2025-03-08 12:24:43.436,0.0002048258487126,0.7838057710277198
2025-03-08 12:24:43.444,0.0002325718060096,0.0024646190804784
2025-03-08 12:24:43.451,0.0002586114934724,-0.7659948617063099
2025-03-08 12:24:43.459,0.0002821862109753,-1.5265216975115916
2025-03-08 12:24:43.467,0.0003025385223074,-2.2819917505807523
2025-03-08 12:24:43.475,0.0003189374303433,-3.033252085080738
2025-03-08 12:24:43.483,0.0003307029036037,-3.779240587696574
2025-03-08 12:24:43.491,0.0003372289814051,-4.51717492609474
2025-03-08 12:24:43.498,0.0003380047687056,-5.242802467282863
2025-03-08 12:24:43.506,0.0003326326948898,-5.950700746750616
2025-03-08 12:24:43.514,0.0003208434978518,-6.634616576303488
2025-03-08 12:24:43.522,0.0003025075342443,-7.287830958185666
2025-03-08 12:24:43.530,0.0002776421739439,-7.903536638903529
2025-03-08 12:24:43.537,0.0002464151556106,-8.475215339268665
2025-03-08 12:24:43.545,0.0002091438537186,-8.99700234949801
2025-03-08 12:24:43.553,0.0001662904744566,-9.46402717566224
2025-03-08 12:24:43.561,0.0001184532845719,-9.872720166568612
2025-03-08 12:24:43.569,6.635407460016042e-05,-10.221076452379112
2025-03-08 12:24:43.576,1.0822148106317408e-05,-10.508870017839284
2025-03-08 12:24:43.584,-4.722479352865812e-05,-10.737812259907686
2025-03-08 12:24:43.592,-0.0001068024262802,-10.91165090276318
2025-03-08 12:24:43.600,-0.0001668837069857,-11.036206635415438
2025-03-08 12:24:43.608,-0.0002264242736068,-11.119346281287118
2025-03-08 12:24:43.616,-0.000284388621613,-11.170892698715454
2025-03-08 12:24:43.623,-0.000339776282171,-11.202472947338414
2025-03-08 12:24:43.631,-0.0003916472111382,-11.227307535528196
2025-03-08 12:24:43.639,-0.000439145606641,-11.259944774859768
2025-03-08 12:24:43.647,-0.0004815214009483,-11.315945392136694
2025-03-08 12:24:43.655,-0.0005181487201577,-11.411523588456877
2025-03-08 12:24:43.662,-0.0005485406757028,-11.563151721857434
2025-03-08 12:24:43.670,-0.0005723599479235,-11.78713678557957
2025-03-08 12:24:43.678,-0.000589424746954,-12.099177917986198
2025-03-08 12:24:43.686,-0.00059970989273,-12.513915339430383
2025-03-08 12:24:43.694,-0.0006033429461482,-13.0444823355163
2025-03-08 12:24:43.701,-0.0006005955469567,-13.70207309803179
2025-03-08 12:24:43.709,-0.0005918703595489,-14.495540232921035
2025-03-08 12:24:43.717,-0.0005776842621358,-15.43103633731662
2025-03-08 12:24:43.725,-0.0005586485915576,-16.51171400106968
2025-03-08 12:24:43.733,-0.0005354473518626,-17.737497689051757
2025-03-08 12:24:43.741,-0.0005088143261458,-19.10493906791021
2025-03-08 12:24:43.748,-0.0004795100241395,-20.6071644377683
2025-03-08 12:24:43.756,-0.0004482993581707,-22.23391915426152
2025-03-08 12:24:43.764,-0.0004159308599877,-23.97170956824448
2025-03-08 12:24:43.772,-0.0003831181286036,-25.804038461352494
2025-03-08 12:24:43.780,-0.00035052404137,-27.71172563717385
2025-03-08 12:24:43.787,-0.0003187480821439,-29.67330161781464
2025-03-08 12:24:43.795,-0.0002883169631507,-31.66545957270327
2025-03-08 12:24:43.803,-0.0002596785567579,-33.663548825563055
2025-03-08 12:24:43.811,-0.000233199014507,-35.64209258416311
2025-03-08 12:24:43.819,-0.0002091628350485,-37.575312858541096
2025-03-08 12:24:43.826,-0.0001877755455234,-39.43764674635591
2025-03-08 12:24:43.834,-0.0001691685703794,-41.20424018071611
2025-03-08 12:24:43.842,-0.0001534057862641,-42.8514076276817
2025-03-08 12:24:43.850,-0.0001404912371901,-44.35704884312717
2025-03-08 12:24:43.858,-0.0001303775215966,-45.701016420212845
2025-03-08 12:24:43.866,-0.00012297442215,-46.86543028625302
2025-03-08 12:24:43.873,-0.0001181573910179,-47.83493740168468
2025-03-08 12:24:43.881,-0.0001157755368315,-48.59691659031628
2025-03-08 12:24:43.889,-0.0001156588152694,-49.14162965460999
2025-03-08 12:24:43.897,-0.0001176242087662,-49.46232070821609
2025-03-08 12:24:43.905,-0.0001214807759101,-49.55526602843205
2025-03-08 12:24:43.912,-0.0001270335524262,-49.41977675910303
2025-03-08 12:24:43.920,-0.000134086399316,-49.05815657011376
2025-03-08 12:24:43.928,-0.0001424440043594,-48.47561601444207
2025-03-08 12:24:43.936,-0.0001519133095663,-47.6801449411864
2025-03-08 12:24:43.944,-0.000162304634525,-46.68234404886962
2025-03-08 12:24:43.951,-0.0001734327141586,-45.49521662132969
2025-03-08 12:24:43.959,-0.0001851178059848,-44.13392179495522
2025-03-08 12:24:43.967,-0.0001971869578641,-42.61549144911762
2025-03-08 12:24:43.975,-0.0002094754526943,-40.9585140112007
2025-03-08 12:24:43.983,-0.0002218283653132,-39.18279003701048
2025-03-08 12:24:43.991,-0.0002341021043247,-37.3089661695151
2025-03-08 12:24:43.998,-0.0002461657907713,-35.35815572753942
2025-03-08 12:24:44.006,-0.000257902347048,-33.351555464068504
2025-03-08 12:24:44.014,-0.0002692092111183,-31.31006875948533
2025-03-08 12:24:44.022,-0.0002799986286045,-29.25394558266466
2025-03-08 12:24:44.030,-0.0002901975058248,-27.202448977113143
2025-03-08 12:24:44.037,-0.0002997468424947,-25.17355670935672
2025-03-08 12:24:44.045,-0.000308600802644,-23.183705194914378
2025-03-08 12:24:44.053,-0.0003167255106382,-21.24758104092084
2025-03-08 12:24:44.061,-0.000324097667325,-19.37796364437265
2025-03-08 12:24:44.069,-0.0003307030694711,-17.58562037160982
2025-03-08 12:24:44.076,-0.0003365350848095,-15.879254013233824
2025-03-08 12:24:44.084,-0.000341593096679,-14.265500539075298
2025-03-08 12:24:44.092,-0.0003458809127755,-12.748973728404456
2025-03-08 12:24:44.100,-0.0003494051543531,-11.33235205491285
2025-03-08 12:24:44.108,-0.000352173704872,-10.016502278247346
2025-03-08 12:24:44.116,-0.0003541943757735,-8.800633537422213
2025-03-08 12:24:44.123,-0.0003554740064667,-7.682475352755023
2025-03-08 12:24:44.131,-0.0003560182308447,-6.658472809615826
2025-03-08 12:24:44.139,-0.0003558321131886,-5.723992295193376
2025-03-08 12:24:44.147,-0.0003549218043926,-4.873531454155841
2025-03-08 12:24:44.155,-0.000353297318016,-4.100927479292126
2025-03-08 12:24:44.162,-0.0003509764683051,-3.3995584146617235
2025-03-08 12:24:44.170,-0.000347989915103,-2.7625327787784086
2025-03-08 12:24:44.178,-0.0003443871057056,-2.18286347974853
2025-03-08 12:24:44.186,-0.0003402427196643,-1.653622672680261
2025-03-08 12:24:44.194,-0.0003356630616923,-1.1680748953275375
2025-03-08 12:24:44.201,-0.0003307917488909,-0.719786513474113
2025-03-08 12:24:44.209,-0.0003258140167908,-0.3027102199795399
2025-03-08 12:24:44.217,-0.000320959025359,0.0887559307740872
2025-03-08 12:24:44.225,-0.0003164996696815,0.459734698787799
2025-03-08 12:24:44.233,-0.0003127495636025,0.8148599774546907
2025-03-08 12:24:44.241,-0.0003100570397549,1.1582893424796614
2025-03-08 12:24:44.248,-0.0003087961884347,1.4937360670291946
2025-03-08 12:24:44.256,-0.0003093551472116,1.82451703071765
2025-03-08 12:24:44.264,-0.0003121220458906,2.153612237587338
2025-03-08 12:24:44.272,-0.0003174691867508,2.4837310975508564
2025-03-08 12:24:44.280,-0.0003257361902851,2.817380271110002
2025-03-08 12:24:44.287,-0.0003372129660721,3.156927778355923
2025-03-08 12:24:44.295,-0.0003521234599527,3.504658266562702
2025-03-08 12:24:44.303,-0.0003706111400766,3.8628148268982216
2025-03-08 12:24:44.311,-0.0003927270903088,4.233623529137791
2025-03-08 12:24:44.319,-0.0004184214019147,4.619297856492899
2025-03-08 12:24:44.326,-0.0004475383407388,5.022021407555279
2025-03-08 12:24:44.334,-0.0004798155508863,5.44390851764217
2025-03-08 12:24:44.342,-0.0005148873413728,5.886943763382734
2025-03-08 12:24:44.350,-0.0005522918721603,6.352902581584899
2025-03-08 12:24:44.358,-0.0005914818021563,6.843256394950569
2025-03-08 12:24:44.366,-0.0006318377209926,7.359066642629325
2025-03-08 12:24:44.373,-0.0006726835330451,7.900872921954
2025-03-08 12:24:44.381,-0.0007133029515639,8.468581026834885
2025-03-08 12:24:44.389,-0.0007529563882872,9.0613569957301
2025-03-08 12:24:44.397,-0.000790897728326,9.67753334514892
2025-03-08 12:24:44.405,-0.0008263906737752,10.314533458204572
2025-03-08 12:24:44.412,-0.0008587244572273,10.96881962233577
2025-03-08 12:24:44.420,-0.0008872287620941,11.635869473746729
2025-03-08 12:24:44.428,-0.000911287675698,12.310184628403418
2025-03-08 12:24:44.436,-0.0009303524765539,12.985334096422092
2025-03-08 12:24:44.444,-0.0009439530339089,13.654033738606229
2025-03-08 12:24:44.451,-0.0009517075810896,14.30826159031481
2025-03-08 12:24:44.459,-0.0009533306189455,14.939407412745169
2025-03-08 12:24:44.467,-0.0009486387161968,15.538453398418504
2025-03-08 12:24:44.475,-0.0009375540042605,16.096181612184033
2025-03-08 12:24:44.483,-0.000920105217589,16.603402534489245
2025-03-08 12:24:44.491,-0.0008964262021368,17.05119802138238
2025-03-08 12:24:44.498,-0.0008667518943103,17.43117113518654
2025-03-08 12:24:44.506,-0.0008314118618731,17.735694670331778
2025-03-08 12:24:44.514,-0.0007908216105545,17.95814985260663
2025-03-08 12:24:44.522,-0.0007454719871339,18.09314668198719
2025-03-08 12:24:44.530,-0.0006959171064079,18.13671776060377
2025-03-08 12:24:44.537,-0.0006427612610919,18.08647821371509
2025-03-08 12:24:44.545,-0.0005866452564682,17.94174545681095
2025-03-08 12:24:44.553,-0.0005282325839886,17.70361403801598
2025-03-08 12:24:44.561,-0.0004681958238692,17.374982513354627
2025-03-08 12:24:44.569,-0.0004072036361164,16.96053118953964
2025-03-08 12:24:44.576,-0.0003459086568656,16.46665147591277
2025-03-08 12:24:44.584,-0.0002849365646928,15.901329404592582
2025-03-08 12:24:44.592,-0.00022487652156,15.273987501815231
2025-03-08 12:24:44.600,-0.0001662731348891,14.595290547109554
2025-03-08 12:24:44.608,-0.0001096200462328,13.87692179486482
2025-03-08 12:24:44.616,-5.535522588259068e-05,13.13133693798779
2025-03-08 12:24:44.623,-3.858016947983764e-06,12.371503469768212
2025-03-08 12:24:44.631,4.455209611777415e-05,11.610633164437145
2025-03-08 12:24:44.639,8.961512200058207e-05,10.861915172559073
2025-03-08 12:24:44.647,0.000131128841123,10.138256743668425
2025-03-08 12:24:44.655,0.000168946061778,9.452037882732286
2025-03-08 12:24:44.662,0.0002029712347436,8.814885362433051
2025-03-08 12:24:44.670,0.000233156803076,8.237470492522688
2025-03-08 12:24:44.678,0.0002594996109363,7.729333929912165
2025-03-08 12:24:44.686,0.0002820376005394,7.298739642784706
2025-03-08 12:24:44.694,0.000300846899495,6.952558977711516
2025-03-08 12:24:44.701,0.0003160392627723,6.696184692349251
2025-03-08 12:24:44.709,0.0003277597249888,6.533473878166872
2025-03-08 12:24:44.717,0.0003361842841189,6.466717961827465
2025-03-08 12:24:44.725,0.0003415174827548,6.496637474202334
2025-03-08 12:24:44.733,0.0003439898347531,6.622399033617143
2025-03-08 12:24:44.741,0.0003438551173449,6.841652020928483
2025-03-08 12:24:44.748,0.0003413875933384,7.150582734596521
2025-03-08 12:24:44.756,0.0003368792357015,7.543984381139211
2025-03-08 12:24:44.764,0.0003306369863777,8.01534200840727
2025-03-08 12:24:44.772,0.0003229799993575,8.556932301291768
2025-03-08 12:24:44.780,0.0003142367256534,9.159938870981255
2025-03-08 12:24:44.787,0.0003047416340737,9.814584114775265
2025-03-08 12:24:44.795,0.0002948313627501,10.510278773343966
2025-03-08 12:24:44.803,0.0002848401794159,11.235789905544852
2025-03-08 12:24:44.811,0.0002750947681446,11.979427164348891
2025-03-08 12:24:44.819,0.000265908497944,12.7292460967629
2025-03-08 12:24:44.826,0.000257575415072,13.47326585982867
2025-03-08 12:24:44.834,0.0002503642244219,14.199697409047472
2025-03-08 12:24:44.842,0.0002445125070137,14.89717702107117
2025-03-08 12:24:44.850,0.0002402213943148,15.55499906766426
2025-03-08 12:24:44.858,0.0002376509097328,16.163341326525096
2025-03-08 12:24:44.866,0.0002369161933419,16.713475820048124
2025-03-08 12:24:44.873,0.0002380848257263,17.197958212685155
2025-03-08 12:24:44.881,0.0002411754370661,17.610789157751018
2025-03-08 12:24:44.889,0.0002461577281922,17.947541648510345
2025-03-08 12:24:44.897,0.0002529539649598,18.20544937261471
2025-03-08 12:24:44.905,0.0002614419580346,18.38345225645969
2025-03-08 12:24:44.912,0.0002714595073,18.482196765056177
2025-03-08 12:24:44.920,0.0002828102520206,18.503990032788685
2025-03-08 12:24:44.928,0.000295270801712,18.452708478553745
2025-03-08 12:24:44.936,0.000308598931056,18.33366314307328
2025-03-08 12:24:44.944,0.0003225425383013,18.153425510940394
2025-03-08 12:24:44.951,0.0003368490267544,17.91961897439933
2025-03-08 12:24:44.959,0.0003512747739604,17.640682290116544
2025-03-08 12:24:44.967,0.0003655943600946,17.325612314361415
2025-03-08 12:24:44.975,0.0003796091998416,16.983693933609526
2025-03-08 12:24:44.983,0.0003931551847653,16.624225417903222
2025-03-08 12:24:44.991,0.0004061089549694,16.25624742225243
2025-03-08 12:24:44.998,0.0004183925014325,15.88828357997738
2025-03-08 12:24:45.006,0.0004299759177978,15.528100116551313
2025-03-08 12:24:45.014,0.0004408782257206,15.182491205965553
2025-03-08 12:24:45.022,0.0004511662790776,14.857095924276116
2025-03-08 12:24:45.030,0.000460951829258,14.556251645672573
2025-03-08 12:24:45.037,0.0004703869264153,14.282887591836456
2025-03-08 12:24:45.045,0.0004796579381101,14.038461008865834
2025-03-08 12:24:45.053,0.0004889785634791,13.82293714002699
2025-03-08 12:24:45.061,0.0004985822810411,13.63481282719883
2025-03-08 12:24:45.069,0.0005087146802952,13.47118225645186
2025-03-08 12:24:45.077,0.0005196260914255,13.327842117868906
2025-03-08 12:24:45.084,0.0005315648451481,13.199432333774867
2025-03-08 12:24:45.092,0.0005447713786252,13.079607575515151
2025-03-08 12:24:45.100,0.0005594732815537,12.96123407447137
2025-03-08 12:24:45.108,0.0005758812737525,12.836605753448875
2025-03-08 12:24:45.116,0.0005941860259822,12.69767345049682
2025-03-08 12:24:45.123,0.0006145556693311,12.53628094681444
2025-03-08 12:24:45.131,0.0006371337859761,12.344401597697503
2025-03-08 12:24:45.139,0.0006620376582132,12.114369555447224
2025-03-08 12:24:45.147,0.0006893565945743,11.839099836701209
2025-03-08 12:24:45.155,0.0007191502460733,11.512291814039877
2025-03-08 12:24:45.162,0.0007514469433317,11.128611103201347
2025-03-08 12:24:45.170,0.0007862421902008,10.683845273887744
2025-03-08 12:24:45.178,0.0008234975185486,10.175029337833124
2025-03-08 12:24:45.186,0.0008631399480584,9.60053757443249
2025-03-08 12:24:45.194,0.0009050623127498,8.960138956134333
2025-03-08 12:24:45.202,0.0009491246875825,8.25501423634506
2025-03-08 12:24:45.209,0.0009951570458507,7.48773365048734
2025-03-08 12:24:45.217,0.0010429631262621,6.662195141667345
2025-03-08 12:24:45.225,0.001092325348848,5.783524050317165
2025-03-08 12:24:45.233,0.0011430105243534,4.857936301189096
2025-03-08 12:24:45.241,0.0011947760418352,3.892568269095696
2025-03-08 12:24:45.248,0.0012473761739285,2.89527767401679
2025-03-08 12:24:45.256,0.0013005681079672,1.8744209997060564
2025-03-08 12:24:45.264,0.0013541173141534,0.8386139981488009
2025-03-08 12:24:45.272,0.0014078019201915,-0.2035172162293057
2025-03-08 12:24:45.280,0.0014614158716386,-1.2435862246477
2025-03-08 12:24:45.287,0.001514770790585,-2.27368876198284
2025-03-08 12:24:45.295,0.0015676965734624,-3.2866286618932623
2025-03-08 12:24:45.303,0.0016200408764787,-4.276118612671448
2025-03-08 12:24:45.311,0.001671667718163,-5.236947720015604
2025-03-08 12:24:45.319,0.0017224554792804,-6.165108987909415
2025-03-08 12:24:45.327,0.0017722945986239,-7.057881354074942
2025-03-08 12:24:45.334,0.0018210852478322,-7.913862781831894
2025-03-08 12:24:45.342,0.0018687352195899,-8.732953014193576
2025-03-08 12:24:45.350,0.0019151581843757,-9.516286816977455
2025-03-08 12:24:45.358,0.0019602723736535,-10.266120744663954
2025-03-08 12:24:45.366,0.002003999658045,-10.985678524519413
2025-03-08 12:24:45.373,0.0020462649332851,-11.678961948770285
2025-03-08 12:24:45.381,0.0020869957079368,-12.350535589241678
2025-03-08 12:24:45.389,0.0021261217922024,-13.005294634044796
2025-03-08 12:24:45.397,0.0021635750161342,-13.64822566057778
2025-03-08 12:24:45.405,0.0021992889680593,-14.284170207039883
2025-03-08 12:24:45.412,0.002233198826,-14.917600614384028
2025-03-08 12:24:45.420,0.0022652414089774,-15.55241682808976
2025-03-08 12:24:45.428,0.002295355563212,-16.191771735073807
2025-03-08 12:24:45.436,0.0023234829336559,-16.837931238035402
2025-03-08 12:24:45.444,0.0023495691001975,-17.492173713241833
2025-03-08 12:24:45.452,0.0023735650072413,-18.15473182507995
2025-03-08 12:24:45.459,0.0023954285837091,-18.824777936080025
2025-03-08 12:24:45.467,0.0024151264389286,-19.500452606433612
2025-03-08 12:24:45.475,0.002432635531956,-20.17893398174638
2025-03-08 12:24:45.483,0.0024479447243604,-20.856544285754627
2025-03-08 12:24:45.491,0.0024610561031499,-21.52888822421105
2025-03-08 12:24:45.498,0.0024719859039943,-22.19101691632313
2025-03-08 12:24:45.506,0.0024807648231395,-22.837610045024928
2025-03-08 12:24:45.514,0.0024874375251994,-23.46316829936603
2025-03-08 12:24:45.522,0.0024920612410743,-24.06220791120276
2025-03-08 12:24:45.530,0.0024947034716214,-24.629449194541618
2025-03-08 12:24:45.537,0.0024954389103119,-25.15999148858389
2025-03-08 12:24:45.545,0.002494345732652,-25.64946776263345
2025-03-08 12:24:45.553,0.0024915013932187,-26.094173307671827
2025-03-08 12:24:45.561,0.002486978088123,-26.49116433571368
2025-03-08 12:24:45.569,0.0024808381165392,-26.838323840373388
2025-03-08 12:24:45.577,0.0024731294705506,-27.13439364465176
2025-03-08 12:24:45.584,0.002463882026972,-27.378973088817908
2025-03-08 12:24:45.592,0.0024531046729502,-27.572486223679867
2025-03-08 12:24:45.600,0.0024407835826162,-27.716120619377545
2025-03-08 12:24:45.608,0.0024268817090301,-27.811741933140635
2025-03-08 12:24:45.616,0.002411339402903,-27.86178916395753
2025-03-08 12:24:45.623,0.0023940759558246,-27.869156030100022
2025-03-08 12:24:45.631,0.0023749918168069,-27.83706412218892
2025-03-08 12:24:45.639,0.002353971247502,-27.768933410033327
2025-03-08 12:24:45.647,0.0023308852389048,-27.66825533346564
2025-03-08 12:24:45.655,0.0023055945749696,-27.53847312428405
2025-03-08 12:24:45.662,0.0022779529703454,-27.38287324687675
2025-03-08 12:24:45.670,0.002247810228122,-27.20449098185564
2025-03-08 12:24:45.678,0.0022150153774139,-27.00603228748029
2025-03-08 12:24:45.686,0.0021794197719658,-26.78981322913539
2025-03-08 12:24:45.694,0.0021408801376455,-26.5577175222682
2025-03-08 12:24:45.702,0.0020992615143271,-26.311172119857133
2025-03-08 12:24:45.709,0.0020544399578724,-26.051140298280128
2025-03-08 12:24:45.717,0.00200630481276,-25.77813134351886
2025-03-08 12:24:45.725,0.0019547603820146,-25.49222569070295
2025-03-08 12:24:45.733,0.001899726897241,-25.193114196960355
2025-03-08 12:24:45.741,0.0018411407899457,-24.88015009996746
2025-03-08 12:24:45.748,0.0017789543636759,-24.552412099364723
2025-03-08 12:24:45.756,0.0017131350507476,-24.20877686361548
2025-03-08 12:24:45.764,0.0016436644810233,-23.84799908829011
2025-03-08 12:24:45.772,0.0015705375700826,-23.468797006571453
2025-03-08 12:24:45.780,0.0014937617538285,-23.069940990803115
2025-03-08 12:24:45.787,0.0014133563848115,-22.65034261113402
2025-03-08 12:24:45.795,0.0013293522085285,-22.2091412650802
2025-03-08 12:24:45.803,0.0012417908061699,-21.745785289188237
2025-03-08 12:24:45.811,0.0011507239391896,-21.260104335458205
2025-03-08 12:24:45.819,0.0010562128160635,-20.75236976261437
2025-03-08 12:24:45.827,0.0009583273620417,-20.223339878439425
2025-03-08 12:24:45.834,0.0008571455976923,-19.674287101341427
2025-03-08 12:24:45.842,0.000752753254268,-19.107004518811603
2025-03-08 12:24:45.850,0.0006452437850277,-18.52378993679968
2025-03-08 12:24:45.858,0.000534718935593,-17.92740635115865
2025-03-08 12:24:45.866,0.0004212899716948,-17.321018816947205
2025-03-08 12:24:45.873,0.000305079532589,-16.708108899019557
2025-03-08 12:24:45.881,0.0001862239327175,-16.092369184064715
2025-03-08 12:24:45.889,6.4875624826572e-05,-15.477581621390446
2025-03-08 12:24:45.897,-5.8794518884470045e-05,-14.86748462270688
2025-03-08 12:24:45.905,-0.0001845954632716,-14.2656347750269
2025-03-08 12:24:45.912,-0.0003123151266196,-13.6752696098552
2025-03-08 12:24:45.920,-0.0004417205872175,-13.09917806633062
2025-03-08 12:24:45.928,-0.0005725594660645,-12.539585069292588
2025-03-08 12:24:45.936,-0.0007045624118811,-11.9980560370588
2025-03-08 12:24:45.944,-0.000837446490414,-11.475426185717748
2025-03-08 12:24:45.952,-0.0009709192280607,-10.971758269958595
2025-03-08 12:24:45.959,-0.0011046830832819,-10.486330969327128
2025-03-08 12:24:45.967,-0.0012384401925809,-10.017658577886271
2025-03-08 12:24:45.975,-0.0013718973256633,-9.563541074580325
2025-03-08 12:24:45.983,-0.0015047710511199,-9.121142130705298
2025-03-08 12:24:45.991,-0.00163679313315,-8.687091236037265
2025-03-08 12:24:45.998,-0.0017677161515171,-8.25760497655673
2025-03-08 12:24:46.006,-0.0018973192859608,-7.828621641728031
2025-03-08 12:24:46.014,-0.0020254141570057,-7.395942824805751
2025-03-08 12:24:46.022,-0.0021518505708106,-6.955375528178931
2025-03-08 12:24:46.030,-0.0022765219585725,-6.502868496154195
2025-03-08 12:24:46.037,-0.0023993702139166,-6.034637047084634
2025-03-08 12:24:46.045,-0.0025203895298518,-5.547271522784629
2025-03-08 12:24:46.053,-0.0026396287720045,-5.037825555180358
2025-03-08 12:24:46.061,-0.0027571919474718,-4.503881593569042
2025-03-08 12:24:46.069,-0.0028732364486415,-3.943592457544699
2025-03-08 12:24:46.077,-0.00298796893584,-3.3556989931442893
2025-03-08 12:24:46.084,-0.0031016389216882,-2.7395251263157445
2025-03-08 12:24:46.092,-0.0032145302958802,-2.094952651917477
2025-03-08 12:24:46.100,-0.0033269511740064,-1.4223789121404258
2025-03-08 12:24:46.108,-0.0034392225773364,-0.7226610731095084
2025-03-08 12:24:46.116,-0.0035516665472072,0.0029490100107974
2025-03-08 12:24:46.123,-0.0036645943421416,0.7528753365463414
2025-03-08 12:24:46.131,-0.0037782953353902,1.5252899429652025
2025-03-08 12:24:46.139,-0.003893027125936,2.3181833878543845
2025-03-08 12:24:46.147,-0.0040090072228271,3.1294307665468266
2025-03-08 12:24:46.155,-0.0041264064977177,3.956851102302626
2025-03-08 12:24:46.162,-0.0042453444522107,4.798258571159408
2025-03-08 12:24:46.170,-0.0043658862277874,5.651504578119964
2025-03-08 12:24:46.178,-0.0044880411999186,6.514510199263366
2025-03-08 12:24:46.186,-0.0046117629444193,7.385288942538446
2025-03-08 12:24:46.194,-0.0047369503418207,8.261960172724272
2025-03-08 12:24:46.202,-0.0048634495918376,9.142753906888297
2025-03-08 12:24:46.209,-0.0049910569411113,10.026008025106082
2025-03-08 12:24:46.217,-0.0051195219786036,10.910159259166466
2025-03-08 12:24:46.225,-0.0052485514189102,11.793729608641234
2025-03-08 12:24:46.233,-0.0053778133668152,12.675310061339598
2025-03-08 12:24:46.241,-0.0055069421208281,13.553543623305146
2025-03-08 12:24:46.248,-0.0056355436008442,14.427109652859585
2025-03-08 12:24:46.256,-0.0057632014503068,15.294711321390228
2025-03-08 12:24:46.264,-0.0058894837746634,16.15506769315212
2025-03-08 12:24:46.272,-0.0060139503819212,17.00691145362411
2025-03-08 12:24:46.280,-0.0061361603346885,17.84899276612085
2025-03-08 12:24:46.287,-0.0062556796161776,18.680089159014663
2025-03-08 12:24:46.295,-0.0063720887326759,19.499020809079003
2025-03-08 12:24:46.303,-0.006484990097076,20.30467015469037
2025-03-08 12:24:46.311,-0.0065940150505907,21.09600449083324
2025-03-08 12:24:46.319,-0.0066988303800132,21.87210007910855
2025-03-08 12:24:46.327,-0.0067991441755315,22.63216633014464
2025-03-08 12:24:46.334,-0.0068947108496893,23.375568739863063
2025-03-08 12:24:46.342,-0.0069853351045367,24.101849435508655
2025-03-08 12:24:46.350,-0.0070708746030444,24.81074437087685
2025-03-08 12:24:46.358,-0.0071512410973386,25.50219637587169
2025-03-08 12:24:46.366,-0.0072263998142684,26.17636340070622
2025-03-08 12:24:46.373,-0.0072963669976676,26.83362139879773
2025-03-08 12:24:46.381,-0.0073612056311445,27.47456137168372
2025-03-08 12:24:46.389,-0.0074210194891083,28.09998016338326
2025-03-08 12:24:46.397,-0.0074759457720496,28.710864647941165
2025-03-08 12:24:46.405,-0.0075261466619772,29.30836900827096
2025-03-08 12:24:46.412,-0.0075718001700382,29.89378486590626
2025-03-08 12:24:46.420,-0.0076130906397964,30.468504106954565
2025-03-08 12:24:46.428,-0.0076501992395666,31.033974383089024
2025-03-08 12:24:46.436,-0.007683294747558,31.591647467988903
2025-03-08 12:24:46.444,-0.0077125248965902,32.142920925040364
2025-03-08 12:24:46.452,-0.0077380084766559,32.689073882864264
2025-03-08 12:24:46.459,-0.0077598282963133,33.23119810888424
2025-03-08 12:24:46.467,-0.0077780250235665,33.77012600741233
2025-03-08 12:24:46.475,-0.0077925919099626,34.30635763398983
2025-03-08 12:24:46.483,-0.007803470444669,34.8399892865766
2025-03-08 12:24:46.491,-0.0078105470400159,35.37064666965157
2025-03-08 12:24:46.498,-0.0078136508691513,35.897425989523256
2025-03-08 12:24:46.506,-0.0078125529547287,36.41884659326254
2025-03-08 12:24:46.514,-0.0078069665850093,36.93281887990102
2025-03-08 12:24:46.522,-0.0077965491456161,37.43663116058946
2025-03-08 12:24:46.530,-0.0077809054848681,37.92695888881846
2025-03-08 12:24:46.537,-0.0077595929381772,38.399899183715455
2025-03-08 12:24:46.545,-0.0077321281110357,38.85103279507464
2025-03-08 12:24:46.553,-0.0076979954702671,39.27551459200745
2025-03-08 12:24:46.561,-0.0076566577188174,39.66819231299711
2025-03-08 12:24:46.569,-0.007607567827801,40.023751748772014
2025-03-08 12:24:46.577,-0.0075501824874489,40.33688483289932
2025-03-08 12:24:46.584,-0.0074839766400361,40.6024754030175
2025-03-08 12:24:46.592,-0.007408458677274,40.81579578895923
2025-03-08 12:24:46.600,-0.0073231858117386,40.97270600125022
2025-03-08 12:24:46.608,-0.007227779069679,41.06984625062808
2025-03-08 12:24:46.616,-0.0071219373172719,41.104812937152175
2025-03-08 12:24:46.623,-0.0070054497268646,41.07630819994942
2025-03-08 12:24:46.631,-0.0068782061032835,40.98425367595791
2025-03-08 12:24:46.639,-0.0067402045249743,40.82986029382872
2025-03-08 12:24:46.647,-0.0065915558254008,40.61564769672703
2025-03-08 12:24:46.655,-0.0064324845459096,40.34540917238684
2025-03-08 12:24:46.662,-0.0062633261091254,40.0241206599193
2025-03-08 12:24:46.670,-0.0060845200684827,39.65779535510143
2025-03-08 12:24:46.678,-0.0058965993748242,39.25328847200903
2025-03-08 12:24:46.686,-0.0057001756656407,38.81805963662658
2025-03-08 12:24:46.694,-0.005495920638984,38.35990297548749
2025-03-08 12:24:46.702,-0.0052845436542591,37.88665702274804
2025-03-08 12:24:46.709,-0.0050667658413447,37.405907945231526
2025-03-08 12:24:46.717,-0.0048432911944091,36.92470017443268
2025-03-08 12:24:46.725,-0.0046147753271574,36.44926829594938
2025-03-08 12:24:46.733,-0.0043817927305019,35.98480299954702
2025-03-08 12:24:46.741,-0.0041448035175932,35.535262109813814
2025-03-08 12:24:46.748,-0.0039041208128176,35.10323531517177
2025-03-08 12:24:46.756,-0.0036598801524704,34.6898683459561
2025-03-08 12:24:46.764,-0.003412012459308,34.29484920507228
2025-03-08 12:24:46.772,-0.0031602222517806,33.91645583043957
2025-03-08 12:24:46.780,-0.0029039727187169,33.5516614668424
2025-03-08 12:24:46.787,-0.0026424791598276,33.196291220387955
2025-03-08 12:24:46.795,-0.0023747121027341,32.84522090264816
2025-03-08 12:24:46.803,-0.0020994111670638,32.4926074593928
2025-03-08 12:24:46.811,-0.0018151104366577,32.13213911721509
2025-03-08 12:24:46.819,-0.00152017571258,31.75729293705427
2025-03-08 12:24:46.827,-0.0012128535724342,31.361587751563228
2025-03-08 12:24:46.834,-0.0008913316867676,30.93882143342404
2025-03-08 12:24:46.842,-0.0005538093536036,30.483282983814608
2025-03-08 12:24:46.850,-0.0001985766993515,29.98993188905175
2025-03-08 12:24:46.858,0.0001758995449517,29.45453938750992
2025-03-08 12:24:46.866,0.000570886327821,28.873788534505067
2025-03-08 12:24:46.873,0.0009872937627222,28.245332092126795
2025-03-08 12:24:46.881,0.0014255873728467,27.56780919253213
2025-03-08 12:24:46.889,0.0018857069566678,26.84082336433936
2025-03-08 12:24:46.897,0.0023669961145644,26.064885847061
2025-03-08 12:24:46.905,0.0028681465100267,25.24132914604061
2025-03-08 12:24:46.912,0.003387160795451,24.37219651319456
2025-03-08 12:24:46.920,0.0039213378005741,23.460113500424782
2025-03-08 12:24:46.928,0.0044672830764622,22.508147949545776
2025-03-08 12:24:46.936,0.0050209472292226,21.51966477405585
2025-03-08 12:24:46.944,0.0055776936680523,20.498181658655064
2025-03-08 12:24:46.952,0.0061323964122688,19.447231346580423
2025-03-08 12:24:46.959,0.0066795674259899,18.37023549830941
2025-03-08 12:24:46.967,0.0072135115850892,17.270394193184398
2025-03-08 12:24:46.975,0.0077285058924048,16.15059402712156
2025-03-08 12:24:46.983,0.0082189980322708,15.013336472204225
2025-03-08 12:24:46.991,0.0086798178645261,13.860686766273489
2025-03-08 12:24:46.998,0.0091063940581264,12.694242170942386
2025-03-08 12:24:47.006,0.0094949668397681,11.515117069097371
2025-03-08 12:24:47.014,0.0098427869155247,10.323941174029896
2025-03-08 12:24:47.022,0.0101482901734995,9.12086620081424
2025-03-08 12:24:47.030,0.0104112379421737,7.905575802010626
2025-03-08 12:24:47.037,0.0106328134571919,6.677293459851943
2025-03-08 12:24:47.045,0.0108156667913902,5.434783385346252
2025-03-08 12:24:47.053,0.0109639027720815,4.176340301570978
2025-03-08 12:24:47.061,0.0110830092360999,2.8997652634149857
2025-03-08 12:24:47.069,0.0111797261714729,1.602326344369437
2025-03-08 12:24:47.077,0.0112618596035144,0.2807050197656201
2025-03-08 12:24:47.084,0.0113380472393995,-1.0690687335208489
2025-03-08 12:24:47.092,0.0114174856733724,-2.451687382347387
2025-03-08 12:24:47.100,0.0115096311475973,-3.87263551963128
2025-03-08 12:24:47.108,0.0116238871739217,-5.338249226888164
2025-03-08 12:24:47.116,0.0117692925203067,-6.855754787779095
2025-03-08 12:24:47.123,0.0119542221762136,-8.433275763093535
2025-03-08 12:24:47.131,0.0121861122370563,-10.079797497196427
2025-03-08 12:24:47.139,0.0124712175909606,-11.805078978388927
2025-03-08 12:24:47.147,0.0128144091668956,-13.619503652796189
2025-03-08 12:24:47.155,0.013219015489007,-15.533863278375907
2025-03-08 12:24:47.162,0.0136867114605525,-17.55907213262465
2025-03-08 12:24:47.170,0.0142174557148407,-19.70581272558908
2025-03-08 12:24:47.178,0.01480947654411,-21.98411843727622
2025-03-08 12:24:47.186,0.015459305349044,-24.402902975590667
2025-03-08 12:24:47.194,0.0161618557057825,-26.96945099273877
2025-03-08 12:24:47.202,0.0169105454585855,-29.68888834300415
2025-03-08 12:24:47.209,0.0176974586441092,-32.563654038291176
2025-03-08 12:24:47.217,0.0185135434921797,-35.59299867840848
2025-03-08 12:24:47.225,0.0193488422162522,-38.772535729450034
