Timestamp,GSR_Filtered,PPG_Filtered
2025-03-08 12:24:32.170,-1.3983092263148447e-05,87.06929671319784
2025-03-08 12:24:32.178,9.225105248604832e-06,86.07473231644228
2025-03-08 12:24:32.186,3.217814777424011e-05,85.04383320575812
2025-03-08 12:24:32.193,5.4685831019578464e-05,83.9769567973384
2025-03-08 12:24:32.201,7.657308175038733e-05,82.87454875396939
2025-03-08 12:24:32.209,9.769176565013856e-05,81.73712795367956
2025-03-08 12:24:32.217,0.00011792956296951344,80.56526770066898
2025-03-08 12:24:32.225,0.00013721532683266672,79.35957350014723
2025-03-08 12:24:32.232,0.00015552063321773712,78.12065787467822
2025-03-08 12:24:32.240,0.0001728575218626048,76.84911285401596
2025-03-08 12:24:32.248,0.00018927270329094448,75.54548091741721
2025-03-08 12:24:32.256,0.0002048387395874337,74.21022530089945
2025-03-08 12:24:32.264,0.00021964287600177796,72.84370069558754
2025-03-08 12:24:32.271,0.00023377431568945755,71.44612545093771
2025-03-08 12:24:32.279,0.00024731080953701196,70.01755645232336
2025-03-08 12:24:32.287,0.00026030547548762156,68.55786786084619
2025-03-08 12:24:32.295,0.00027277474528269844,67.06673487974012
2025-03-08 12:24:32.303,0.0002846882507880619,65.54362364287552
2025-03-08 12:24:32.311,0.0002959613315031506,63.98778820446091
2025-03-08 12:24:32.318,0.0003064507081743865,62.39827544443201
2025-03-08 12:24:32.326,0.00031595372908039724,60.77393849227544
2025-03-08 12:24:32.334,0.0003242114142428176,59.11345901609184
2025-03-08 12:24:32.342,0.0003309152604628939,57.415378428442686
2025-03-08 12:24:32.350,0.0003357174373911361,55.67813773281625
2025-03-08 12:24:32.357,0.0003382436594411002,53.90012538319829
2025-03-08 12:24:32.365,0.0003381077383868476,52.079732164869775
2025-03-08 12:24:32.373,0.00033492667503674827,50.21541173942252
2025-03-08 12:24:32.381,0.0003283351649871165,48.30574514466628
2025-03-08 12:24:32.389,0.00031799855164066154,46.34950721514895
2025-03-08 12:24:32.396,0.00030362350078506185,44.34573260650731
2025-03-08 12:24:32.404,0.00028496593403142494,42.293778881916026
2025-03-08 12:24:32.412,0.0002618360130515979,40.193383966069995
2025-03-08 12:24:32.420,0.00023410021761893863,38.04471520484004
2025-03-08 12:24:32.428,0.00020168081327465352,35.848407298629155
2025-03-08 12:24:32.436,0.00016455322382820923,33.605586513770376
2025-03-08 12:24:32.443,0.00012274194837834525,31.31787882528484
2025-03-08 12:24:32.451,7.631567000967036e-05,28.987400008629276
2025-03-08 12:24:32.459,2.5382134571077035e-05,26.616726176325216
2025-03-08 12:24:32.467,-2.9916715407119453e-05,24.20884384176161
2025-03-08 12:24:32.475,-8.94089664393235e-05,21.76707927648898
2025-03-08 12:24:32.482,-0.0001528960436676789,19.295007693666726
2025-03-08 12:24:32.490,-0.000220154947326069,16.796343618935726
2025-03-08 12:24:32.498,-0.0002909393804865419,14.274814676326939
2025-03-08 12:24:32.506,-0.0003649798481250599,11.734021892299909
2025-03-08 12:24:32.514,-0.0004419829095404574,9.177290473655862
2025-03-08 12:24:32.521,-0.0005216298473039601,6.607515810366128
2025-03-08 12:24:32.529,-0.0006035750699229708,4.027010156269913
2025-03-08 12:24:32.537,-0.0006874445871454362,1.4373560128018332
2025-03-08 12:24:32.545,-0.0007728348841620514,-1.160727351858131
2025-03-08 12:24:32.553,-0.0008593124813112008,-3.7674976063108363
2025-03-08 12:24:32.561,-0.0009464144208688275,-6.384276657162121
2025-03-08 12:24:32.568,-0.0010336498940880393,-10.08192400143723
2025-03-08 12:24:32.576,-0.0011205032085962513,-13.856154778521045
2025-03-08 12:24:32.584,-0.0012064382741880765,-17.711686767168278
2025-03-08 12:24:32.592,-0.0012909047318585807,-21.654478896746724
2025-03-08 12:24:32.600,-0.001373345767180813,-25.691651517586987
2025-03-08 12:24:32.607,-0.0014532075581357073,-29.831345039329154
2025-03-08 12:24:32.615,-0.0015299502348831457,-34.08251413625518
2025-03-08 12:24:32.623,-0.0016030601773453842,-38.4546568458882
2025-03-08 12:24:32.631,-0.001672063425415919,-42.95748028974805
2025-03-08 12:24:32.639,-0.001736539906197296,-47.60050735841679
2025-03-08 12:24:32.646,-0.001796138088973804,-52.39263144584174
2025-03-08 12:24:32.654,-0.00185058957547781,-57.34162909379636
2025-03-08 12:24:32.662,-0.0018997230482367745,-62.45364310736249
2025-03-08 12:24:32.670,-0.0019434769529708827,-67.73265120691744
2025-03-08 12:24:32.678,-0.001981910266685354,-73.17993746593923
2025-03-08 12:24:32.686,-0.0020152106708439506,-78.79358551987352
2025-03-08 12:24:32.693,-0.0020436994149761172,-84.56801369583835
2025-03-08 12:24:32.701,-0.0020678321626749997,-90.49357269197714
2025-03-08 12:24:32.709,-0.0020881951857013407,-96.5562261302989
2025-03-08 12:24:32.717,-0.0021054964011303664,-102.73733314132812
2025-03-08 12:24:32.725,-0.00212055090272079,-109.0135500645942
2025-03-08 12:24:32.732,-0.0021342607978364473,-115.35686535204175
2025-03-08 12:24:32.740,-0.0021475893228979845,-121.73477786776184
2025-03-08 12:24:32.748,-0.0021615293949257593,-128.1106240573448
2025-03-08 12:24:32.756,-0.002177066982510983,-134.44405403174866
2025-03-08 12:24:32.764,-0.002195139933055721,-140.69165064173322
2025-03-08 12:24:32.771,-0.0022165931409126767,-146.80767932747204
2025-03-08 12:24:32.779,-0.0022421311666486047,-152.744950180034
2025-03-08 12:24:32.787,-0.002272269633431461,-158.4557675575246
2025-03-08 12:24:32.795,-0.0023072869455363896,-163.89293710756812
2025-03-08 12:24:32.803,-0.0023471780849247527,-169.0107955381149
2025-03-08 12:24:32.811,-0.0023916124194238646,-173.76622534801274
2025-03-08 12:24:32.818,-0.0024398975797094227,-178.11961537976964
2025-03-08 12:24:32.826,-0.0024909515189338693,-182.035728867801
2025-03-08 12:24:32.834,-0.0025432848468859176,-185.48444391298798
2025-03-08 12:24:32.842,-0.002594995412583141,-188.441337095088
2025-03-08 12:24:32.850,-0.0026437768680392373,-190.88808898199957
2025-03-08 12:24:32.857,-0.002686942559214669,-192.8126999852813
2025-03-08 12:24:32.865,-0.002721465564341976,-194.20951544985073
2025-03-08 12:24:32.873,-0.002744035070592428,-195.0790690603025
2025-03-08 12:24:32.881,-0.0027511285887400613,-195.42776267493377
2025-03-08 12:24:32.889,-0.0027390987850680337,-195.26740783160437
2025-03-08 12:24:32.896,-0.002704272989136011,-194.61465894475944
2025-03-08 12:24:32.904,-0.002643062745968226,-193.4903704672602
2025-03-08 12:24:32.912,-0.0025520801553941823,-191.91891014561457
2025-03-08 12:24:32.920,-0.002428257213751846,-189.9274583015844
2025-03-08 12:24:32.928,-0.002268963970945371,-187.54531931926434
2025-03-08 12:24:32.936,-0.0020721210515101947,-184.80326675204634
2025-03-08 12:24:32.943,-0.0018363019660888433,-181.73293821746267
2025-03-08 12:24:32.951,-0.001560820673002103,-178.36629098042758
2025-03-08 12:24:32.959,-0.001245800073247074,-174.73512420221567
2025-03-08 12:24:32.967,-0.0008922175906076378,-170.87066951545822
2025-03-08 12:24:32.975,-0.0005019247579719583,-166.8032480390999
2025-03-08 12:24:32.982,-7.76388289629613e-05,-162.56198925331827
2025-03-08 12:24:32.990,0.0003770941721693405,-158.1746053256447
2025-03-08 12:24:32.998,0.0008579639675635511,-153.66721346890327
2025-03-08 12:24:33.006,0.0013599855103697653,-149.06419861935268
2025-03-08 12:24:33.014,0.0018776093897690728,-144.38810900860176
2025-03-08 12:24:33.021,0.0024048479726616755,-139.65957790092773
2025-03-08 12:24:33.029,0.00293541138924078,-134.89726571347205
2025-03-08 12:24:33.037,0.003462847258737746,-130.11781779335354
2025-03-08 12:24:33.045,0.003980678352384498,-125.33583421339276
2025-03-08 12:24:33.053,0.004482533148143735,-120.5638490593816
2025-03-08 12:24:33.061,0.0049622653248143096,-115.8123178660666
2025-03-08 12:24:33.068,0.005414059511582492,-111.08961317854805
2025-03-08 12:24:33.076,0.005832521893767285,-106.40202969194259
2025-03-08 12:24:33.084,0.00621275544643481,-101.75380199470978
2025-03-08 12:24:33.092,0.006550420536355405,-97.14713945445024
2025-03-08 12:24:33.100,0.006841782348698356,-92.58228400330363
2025-03-08 12:24:33.107,0.007083747024733941,-88.05759722831415
2025-03-08 12:24:33.115,0.007273888519017427,-83.56968299830726
2025-03-08 12:24:33.123,0.007410468016742701,-79.11355070250282
2025-03-08 12:24:33.131,0.007492447369352458,-74.68282202240722
2025-03-08 12:24:33.139,0.0075194975074092925,-70.26998116021454
2025-03-08 12:24:33.146,0.007492002242609463,-65.8666649100968
2025-03-08 12:24:33.154,0.007411057303052071,-61.46398529926066
2025-03-08 12:24:33.162,0.007278463876571817,-57.05287420532811
2025-03-08 12:24:33.170,0.007096715405161638,-52.62443680651157
2025-03-08 12:24:33.178,0.006868975929931351,-48.17029926403564
2025-03-08 12:24:33.186,0.006599047966276919,-43.682935829074395
2025-03-08 12:24:33.193,0.006291327711753518,-39.15596157909759
2025-03-08 12:24:33.201,0.005950745389496517,-34.584379023976496
2025-03-08 12:24:33.209,0.005582688778290092,-29.964769568287405
2025-03-08 12:24:33.217,0.005192908549728568,-25.295423914734393
2025-03-08 12:24:33.225,0.004787404955127053,-20.57640860924476
2025-03-08 12:24:33.232,0.004372296673079248,-15.809568799009607
2025-03-08 12:24:33.240,0.0039536742275732995,-10.998469731875993
2025-03-08 12:24:33.248,0.0035374422824381952,-6.1482814869494185
2025-03-08 12:24:33.256,0.0031291571996486843,-1.2656128761656669
2025-03-08 12:24:33.264,0.0027338682830771364,3.641698574756881
2025-03-08 12:24:33.271,0.002355972757760855,8.564833107093362
2025-03-08 12:24:33.279,0.001999095303354181,13.494263994042008
2025-03-08 12:24:33.287,0.00166600240098498,18.42005392588787
2025-03-08 12:24:33.295,0.0013585595628533569,23.332164994421763
2025-03-08 12:24:33.303,0.0010777357748299244,28.220774925717137
2025-03-08 12:24:33.311,0.0008236547534998544,33.07659230902852
2025-03-08 12:24:33.318,0.0005956877871514836,37.891163512932856
2025-03-08 12:24:33.326,0.00039257887458651235,42.65716372301859
2025-03-08 12:24:33.334,0.00021259017863832662,47.36866410049707
2025-03-08 12:24:33.342,5.365468263503405e-05,52.02136655052851
2025-03-08 12:24:33.350,-8.647668237382292e-05,56.61279717237343
2025-03-08 12:24:33.357,-0.0002101044769870693,61.14244933962908
2025-03-08 12:24:33.365,-0.0003194750363970758,65.61186770943708
2025-03-08 12:24:33.373,-0.00041670435642126414,70.02466541110353
2025-03-08 12:24:33.381,-0.0005037324938910807,74.38646826678881
2025-03-08 12:24:33.389,-0.0005823057785651949,78.70478211520843
2025-03-08 12:24:33.396,-0.0006539813037150801,82.98878202877334
2025-03-08 12:24:33.404,-0.0007201463961786097,87.24902525773595
2025-03-08 12:24:33.412,-0.0007820450086077392,91.49709289052291
2025-03-08 12:24:33.420,-0.0008408030447612527,95.74516827255647
2025-03-08 12:24:33.428,-0.0008974454253162635,100.00556297791762
2025-03-08 12:24:33.436,-0.0009528992077584323,104.29020340940154
2025-03-08 12:24:33.443,-0.001007979209697495,108.61009278778171
2025-03-08 12:24:33.451,-0.001063355140787913,112.9747643228265
2025-03-08 12:24:33.459,-0.0011195019520642121,117.391741763144
2025-03-08 12:24:33.467,-0.0011766377155086063,121.86602340323749
2025-03-08 12:24:33.475,-0.0012346556091884864,126.39960513403359
2025-03-08 12:24:33.482,-0.0012930581868579845,130.99105740828622
2025-03-08 12:24:33.490,-0.001350902703204609,135.63517016377972
2025-03-08 12:24:33.498,-0.001406765676333944,140.3226788444715
2025-03-08 12:24:33.506,-0.001458733274744553,145.04008364553493
2025-03-08 12:24:33.514,-0.0015044219427219454,149.76957288432618
2025-03-08 12:24:33.522,-0.0015410313438848674,154.4890598332996
2025-03-08 12:24:33.529,-0.001565429458266229,159.1723403032316
2025-03-08 12:24:33.537,-0.0015742676165046397,163.78937561063375
2025-03-08 12:24:33.545,-0.0015641214469103103,168.30670221452286
2025-03-08 12:24:33.553,-0.0015316522007072602,172.68796524422999
2025-03-08 12:24:33.561,-0.001473781752374634,176.89456843356626
2025-03-08 12:24:33.568,-0.001387873768097206,180.88642780056063
2025-03-08 12:24:33.576,-0.001271913102265551,184.622811032117
2025-03-08 12:24:33.584,-0.0011246754069854736,188.06323929427015
2025-03-08 12:24:33.592,-0.0009458791799288872,191.16842350497282
2025-03-08 12:24:33.600,-0.0007363129716121622,193.9012034513133
2025-03-08 12:24:33.607,-0.000497931181342988,196.2274560160487
2025-03-08 12:24:33.615,-0.00023391278102619122,198.11693867185218
2025-03-08 12:24:33.623,5.1321587265660227e-05,199.54403660681015
2025-03-08 12:24:33.631,0.0003521374221310506,200.48838634607088
2025-03-08 12:24:33.639,0.0006617609774598944,200.9353551427196
2025-03-08 12:24:33.647,0.0009724011157162184,200.87636303898068
2025-03-08 12:24:33.654,0.0012754173263204928,200.30904252251207
2025-03-08 12:24:33.662,0.0015615313000171573,199.2372383216308
2025-03-08 12:24:33.670,0.0018210779043703023,197.67085643938387
2025-03-08 12:24:33.678,0.0020442898522516754,195.6255765730348
2025-03-08 12:24:33.686,0.002221608785866263,193.12244539817627
2025-03-08 12:24:33.693,0.0023440139264770117,190.18736984817843
2025-03-08 12:24:33.701,0.00240335793382704,186.85052972578515
2025-03-08 12:24:33.709,0.002392698294996031,183.14572812087295
2025-03-08 12:24:33.717,0.0023066115310742636,179.1096966121194
2025-03-08 12:24:33.725,0.002141476851051258,174.7813705122281
2025-03-08 12:24:33.732,0.0018957156744379704,170.20114780213754
2025-03-08 12:24:33.740,0.0015699737957704538,165.41014409886364
2025-03-08 12:24:33.748,0.0011672339851131516,160.44945510669055
2025-03-08 12:24:33.756,0.0006928485686656071,155.3594375047617
2025-03-08 12:24:33.764,0.00015448401904216079,150.17901904224453
2025-03-08 12:24:33.772,-0.00043802718887834174,144.9450486113857
2025-03-08 12:24:33.779,-0.0010729281937811883,139.69169709119407
2025-03-08 12:24:33.787,-0.0017368687656044125,134.44991964276807
2025-03-08 12:24:33.795,-0.002415316170454717,129.24698975162437
2025-03-08 12:24:33.803,-0.0030930305080072327,124.10611453900518
2025-03-08 12:24:33.811,-0.00375458353189096,119.04613962410282
2025-03-08 12:24:33.818,-0.00438489526644844,114.08135008955009
2025-03-08 12:24:33.826,-0.0049697598492557385,109.22137194226764
2025-03-08 12:24:33.834,-0.0054963318626160326,104.47117601650318
2025-03-08 12:24:33.842,-0.005953547381978829,99.83118373849005
2025-03-08 12:24:33.850,-0.00633245957624003,95.29747176848954
2025-03-08 12:24:33.857,-0.006626475756143996,90.86207040654654
2025-03-08 12:24:33.865,-0.006831490026698576,86.51334884417754
2025-03-08 12:24:33.873,-0.006945912284939001,82.23647880172308
2025-03-08 12:24:33.881,-0.006970599780875266,78.01396665384996
2025-03-08 12:24:33.889,-0.006908701693964734,73.82624262470877
2025-03-08 12:24:33.897,-0.006765430197008835,69.65229389205447
2025-03-08 12:24:33.904,-0.0065477733710878686,65.4703264692877
2025-03-08 12:24:33.912,-0.006264166191698023,61.2584387003716
2025-03-08 12:24:33.920,-0.0059241357272609915,56.99528742450875
2025-03-08 12:24:33.928,-0.005537935822512911,52.6607267510392
2025-03-08 12:24:33.936,-0.005116185088578556,48.2363993240856
2025-03-08 12:24:33.943,-0.004669520223205287,43.70626123457954
2025-03-08 12:24:33.951,-0.004208274746545148,39.057024452650865
2025-03-08 12:24:33.959,-0.0037421912961423357,34.27850468313418
2025-03-08 12:24:33.967,-0.003280173731025748,29.363867558748872
2025-03-08 12:24:33.975,-0.0028300834623536946,24.30977159204626
2025-03-08 12:24:33.982,-0.002398582699419695,19.11641174933301
2025-03-08 12:24:33.990,-0.001991025756291202,13.787472348854076
2025-03-08 12:24:33.998,-0.0016113982626436594,8.33000178783759
2025-03-08 12:24:34.006,-0.0012623030323394727,2.754224100502396
2025-03-08 12:24:34.014,-0.0009449903671814734,-2.9266965374871434
2025-03-08 12:24:34.022,-0.0006594296275701166,-8.69692242443308
2025-03-08 12:24:34.029,-0.00040441796953166124,-14.538225408501722
2025-03-08 12:24:34.037,-0.00017772127412786428,-20.430273879773154
2025-03-08 12:24:34.045,2.3758432986410325e-05,-26.35091383768955
2025-03-08 12:24:34.053,0.00020379526897321812,-32.27643725241789
2025-03-08 12:24:34.061,0.00036663791922027694,-38.181834138551245
2025-03-08 12:24:34.068,0.0005168006620158044,-44.041027895398535
2025-03-08 12:24:34.076,0.0006588533640804094,-49.82709633965182
2025-03-08 12:24:34.084,0.0007972166453722077,-55.51248326641498
2025-03-08 12:24:34.092,0.0009359681502824437,-61.06920713909105
2025-03-08 12:24:34.100,0.0010786655209340976,-66.46907447985978
2025-03-08 12:24:34.107,0.0012281912639657757,-71.68390562963913
2025-03-08 12:24:34.115,0.0013866242186297345,-76.68577977763896
2025-03-08 12:24:34.123,0.0015551417307557798,-81.4473046273787
2025-03-08 12:24:34.131,0.0017339558891211059,-85.94191394695606
2025-03-08 12:24:34.139,0.0019222862836393672,-90.1441937700521
2025-03-08 12:24:34.147,0.002118370704667354,-94.03023540263501
2025-03-08 12:24:34.154,0.0023195140340102585,-97.57801085654927
2025-03-08 12:24:34.162,0.0025221742994676025,-100.76776403489431
2025-03-08 12:24:34.170,0.002722083507650969,-103.58240903547235
2025-03-08 12:24:34.178,0.0029143994955744814,-106.00792536401649
2025-03-08 12:24:34.186,0.0030938837303796816,-108.03373866997201
2025-03-08 12:24:34.193,0.0032550988148352875,-109.65307483163141
2025-03-08 12:24:34.201,0.003392618493076315,-110.86327481963366
2025-03-08 12:24:34.209,0.0035012422551109926,-111.6660577522934
2025-03-08 12:24:34.217,0.0035762062421084203,-112.06771991242685
2025-03-08 12:24:34.225,0.003613382063967527,-112.07925821101033
2025-03-08 12:24:34.232,0.003609455359863093,-111.71640765576238
2025-03-08 12:24:34.240,0.003562076474920273,-110.99958383128792
2025-03-08 12:24:34.248,0.0034699765093794115,-109.95372326004032
2025-03-08 12:24:34.256,0.0033330432339625116,-108.60801683064537
2025-03-08 12:24:34.264,0.003152352959299784,-106.99553427071518
2025-03-08 12:24:34.272,0.0029301563689982852,-105.15274088179711
2025-03-08 12:24:34.279,0.0026698184728253596,-103.11891137003867
2025-03-08 12:24:34.287,0.002375715020315548,-100.93544947646045
2025-03-08 12:24:34.295,0.0020530897402768105,-98.6451260846715
2025-03-08 12:24:34.303,0.0017078785463675316,-96.29125239950682
2025-03-08 12:24:34.311,0.0013465083801819518,-93.916808479833
2025-03-08 12:24:34.318,0.0009756796329128144,-91.56355068907096
2025-03-08 12:24:34.326,0.0006021419771435181,-89.2711242885859
2025-03-08 12:24:34.334,0.0002324737902162119,-87.07620921587217
2025-03-08 12:24:34.342,-0.00012712494889337967,-85.01172784269882
2025-03-08 12:24:34.350,-0.0004710173613211542,-83.10614301125264
2025-03-08 12:24:34.357,-0.0007942845602524987,-81.3828727637327
2025-03-08 12:24:34.365,-0.0010928452630116151,-79.8598448531708
2025-03-08 12:24:34.373,-0.0013635368244981835,-78.54920939696655
2025-03-08 12:24:34.381,-0.0016041565854888018,-77.45722208726689
2025-03-08 12:24:34.389,-0.0018134644557611219,-76.58430351305218
2025-03-08 12:24:34.397,-0.0019911493965121666,-75.92527278772172
2025-03-08 12:24:34.404,-0.0021377638720513764,-75.46974627378887
2025-03-08 12:24:34.412,-0.002254631373834948,-75.20268521221972
2025-03-08 12:24:34.420,-0.0023437327721356786,-75.10506991102773
2025-03-08 12:24:34.428,-0.002407577561887601,-75.15467315882364
2025-03-08 12:24:34.436,-0.0024490661119880926,-75.32690193798175
2025-03-08 12:24:34.443,-0.002471348857432036,-75.59567445004882
2025-03-08 12:24:34.451,-0.0024776880145021656,-75.93429896556287
2025-03-08 12:24:34.459,-0.002471326868170834,-76.31632201327635
2025-03-08 12:24:34.467,-0.0024553710078188762,-76.71631579451062
2025-03-08 12:24:34.475,-0.0024326851105546284,-77.11057825669668
2025-03-08 12:24:34.482,-0.00240580802956435,-77.47772376617964
2025-03-08 12:24:34.490,-0.0023768880746107995,-77.79914755331619
2025-03-08 12:24:34.498,-0.002347639504916263,-78.05935282834717
2025-03-08 12:24:34.506,-0.0023193204113678215,-78.2461354462499
2025-03-08 12:24:34.514,-0.0022927313487519758,-78.35062699048014
2025-03-08 12:24:34.522,-0.0022682332900603158,-78.36720290629502
2025-03-08 12:24:34.529,-0.0022457827365068264,-78.29326760764994
2025-03-08 12:24:34.537,-0.002224981180085662,-78.12893308554402
2025-03-08 12:24:34.545,-0.0022051356410939835,-77.87661126119174
2025-03-08 12:24:34.553,-0.0021853267336449283,-77.54054299042242
2025-03-08 12:24:34.561,-0.002164480653197151,-77.12628812558015
2025-03-08 12:24:34.568,-0.0021414416064562884,-76.64020133982838
2025-03-08 12:24:34.576,-0.002115041485775771,-76.08891755806236
2025-03-08 12:24:34.584,-0.0020841640053880332,-75.47886893074556
2025-03-08 12:24:34.592,-0.0020478010391313042,-74.81585249499688
2025-03-08 12:24:34.600,-0.0020050994812078815,-74.10466418725937
2025-03-08 12:24:34.607,-0.0019553975321402206,-73.34881091823335
2025-03-08 12:24:34.615,-0.001898249853701818,-72.55030821162077
2025-03-08 12:24:34.623,-0.0018334415401180034,-71.70956665381226
2025-03-08 12:24:34.631,-0.0017609913216522222,-70.825366296556
2025-03-08 12:24:34.639,-0.0016811448219608578,-69.89491436693775
2025-03-08 12:24:34.647,-0.0015943589946693412,-68.91397829251434
2025-03-08 12:24:34.654,-0.0015012790676539663,-67.87708321312105
2025-03-08 12:24:34.662,-0.0014027094630998688,-66.77776085302028
2025-03-08 12:24:34.670,-0.0012995802636312482,-65.60883489227942
2025-03-08 12:24:34.678,-0.001192910843702825,-64.36272686150797
2025-03-08 12:24:34.686,-0.0010837722526592646,-63.03176619162796
2025-03-08 12:24:34.693,-0.0009732498304403061,-61.60848851223198
2025-03-08 12:24:34.701,-0.0008624074096660411,-60.08590773056927
2025-03-08 12:24:34.709,-0.0007522543506086798,-58.45774989458364
2025-03-08 12:24:34.717,-0.000643716552393641,-56.71864027945443
2025-03-08 12:24:34.725,-0.0005376124295138439,-54.86423930967518
2025-03-08 12:24:34.732,-0.0004346346086949325,-52.89132746063345
2025-03-08 12:24:34.740,-0.00033533780588558174,-50.797843705748434
2025-03-08 12:24:34.748,-0.00024013301620675473,-48.58288590745851
2025-03-08 12:24:34.756,-0.00014928781603860456,-46.246684379861975
2025-03-08 12:24:34.764,-6.293226873200299e-05,-43.7905613915724
2025-03-08 12:24:34.772,1.8930326651706775e-05,-41.216889507247544
2025-03-08 12:24:34.779,9.640878954596301e-05,-38.529060438389685
2025-03-08 12:24:34.787,0.00016970657754566168,-35.73147369856818
2025-03-08 12:24:34.795,0.00023910258196362132,-32.829551157617495
2025-03-08 12:24:34.803,0.0003049312945833637,-29.829779938615758
2025-03-08 12:24:34.811,0.00036756336852907976,-26.739782369468625
2025-03-08 12:24:34.818,0.00042738747216511586,-23.56840820628697
2025-03-08 12:24:34.826,0.00048479416782225596,-20.325841332705263
2025-03-08 12:24:34.834,0.0005401623382551526,-17.023710771916008
2025-03-08 12:24:34.842,0.0005938484304752959,-13.675194218739836
2025-03-08 12:24:34.850,0.0006461785119384876,-10.295101447212469
2025-03-08 12:24:34.857,0.000697442895485292,-6.89992488305018
2025-03-08 12:24:34.865,0.0007478929410652664,-3.507845334917438
2025-03-08 12:24:34.873,0.0007977395922411272,-0.1386823083971143
2025-03-08 12:24:34.881,0.000847153220540561,3.186219601386697
2025-03-08 12:24:34.889,0.0008962643983483001,6.444174143451955
2025-03-08 12:24:34.897,0.0009451652901607345,9.611409579821999
2025-03-08 12:24:34.904,0.0009939114389330057,12.663397238800718
2025-03-08 12:24:34.912,0.00104252382291294,15.575248714842337
2025-03-08 12:24:34.920,0.0010909911558016174,18.322174605263132
2025-03-08 12:24:34.928,0.001139272465241259,20.879994465519633
2025-03-08 12:24:34.936,0.0011872999739439406,23.22568476420246
2025-03-08 12:24:34.943,0.0012349822350578923,25.337949151649358
2025-03-08 12:24:34.951,0.0012822074006701302,27.197793419582453
2025-03-08 12:24:34.959,0.0013288464771364892,28.789086199373163
2025-03-08 12:24:34.967,0.0013747564336378897,30.099085791307047
2025-03-08 12:24:34.975,0.0014197830489134828,31.118913601074663
2025-03-08 12:24:34.982,0.0014637634058802956,31.843955535416477
2025-03-08 12:24:34.990,0.0015065280076017827,32.274174402293845
2025-03-08 12:24:34.998,0.0015479026010723172,32.41431885569253
2025-03-08 12:24:35.006,0.0015877099106993834,32.27401764981088
2025-03-08 12:24:35.014,0.0016257715396984023,31.867751790386436
2025-03-08 12:24:35.022,0.0016619102845121486,31.21470140786612
2025-03-08 12:24:35.029,0.001695953061119296,30.338468609137976
2025-03-08 12:24:35.037,0.0017277345873115291,29.266681958773813
2025-03-08 12:24:35.045,0.0017571018925274465,28.03049236844525
2025-03-08 12:24:35.053,0.0017839196200928548,26.66397382846685
2025-03-08 12:24:35.061,0.0018080759436516938,25.20344543514872
2025-03-08 12:24:35.068,0.0018294887575830282,23.686733446495424
2025-03-08 12:24:35.076,0.0018481116614263945,22.152393595548023
2025-03-08 12:24:35.084,0.0018639391943327049,20.638914627355376
2025-03-08 12:24:35.092,0.0018770108154438944,19.183924078324637
2025-03-08 12:24:35.100,0.0018874132487054372,17.823416793360522
2025-03-08 12:24:35.107,0.0018952809690047888,16.591025683794236
2025-03-08 12:24:35.115,0.0019007947655582517,15.517352845627302
2025-03-08 12:24:35.123,0.0019041784641741961,14.62937741955507
2025-03-08 12:24:35.131,0.0019056940186659487,13.94995448029777
2025-03-08 12:24:35.139,0.0019056352900313712,13.49741677059571
2025-03-08 12:24:35.147,0.0019043209091944833,13.285288229945655
2025-03-08 12:24:35.154,0.0019020866437147864,13.322115035107903
2025-03-08 12:24:35.162,0.0018992776492536816,13.611416353407185
2025-03-08 12:24:35.170,0.0018962409088836886,14.151753349395685
2025-03-08 12:24:35.178,0.0018933180974212785,14.936911349506271
2025-03-08 12:24:35.186,0.0018908390800126925,15.956186633701813
2025-03-08 12:24:35.193,0.001889116252604351,17.194766254923785
2025-03-08 12:24:35.201,0.0018884399354383444,18.634186734149527
2025-03-08 12:24:35.209,0.0018890750287946418,20.252855560133245
2025-03-08 12:24:35.217,0.0018912591302117376,22.0266182196579
2025-03-08 12:24:35.225,0.0018952022915958064,23.929353030081607
2025-03-08 12:24:35.232,0.0019010885521021411,25.933576319999915
2025-03-08 12:24:35.240,0.0019090792950493582,28.01104143291418
2025-03-08 12:24:35.248,0.0019193183224846242,30.13331650390393
2025-03-08 12:24:35.256,0.0019319383226163859,32.27232785594032
2025-03-08 12:24:35.264,0.0019470681515993229,34.40085805436582
2025-03-08 12:24:35.272,0.0019648400952076693,36.49299002443301
2025-03-08 12:24:35.279,0.001985396056034916,38.524491071087034
2025-03-08 12:24:35.287,0.0020088914911919253,40.47313305895042
2025-03-08 12:24:35.295,0.0020354959751148036,42.318947352213165
2025-03-08 12:24:35.303,0.0020653895013436688,44.04441532539148
2025-03-08 12:24:35.311,0.002098754009972579,45.6345972754847
2025-03-08 12:24:35.318,0.002135760050159757,47.07720431937771
2025-03-08 12:24:35.326,0.002176548900059307,48.36261926634503
2025-03-08 12:24:35.334,0.0022212108414093146,49.483873439184464
2025-03-08 12:24:35.342,0.0022697606151057394,50.43658692133133
2025-03-08 12:24:35.350,0.002322111375641398,51.21887970043517
2025-03-08 12:24:35.357,0.0023780487253092647,51.83126066629477
2025-03-08 12:24:35.365,0.00243720662847826,52.276500452319944
2025-03-08 12:24:35.373,0.0024990471368785505,52.55949278213668
2025-03-08 12:24:35.381,0.002562845844693911,52.687107434185826
2025-03-08 12:24:35.389,0.002627684809243441,52.668036328038085
2025-03-08 12:24:35.397,0.00269245434092951,52.512632730679755
2025-03-08 12:24:35.404,0.0027558646364829295,52.23274232981457
2025-03-08 12:24:35.412,0.00281646773481299,51.84152404939135
2025-03-08 12:24:35.420,0.0028726897144561152,51.353258077170324
2025-03-08 12:24:35.428,0.002922872420329623,50.7831386693105
2025-03-08 12:24:35.436,0.0029653233168196007,50.147049866247414
2025-03-08 12:24:35.443,0.0029983713492683084,49.46132322124624
2025-03-08 12:24:35.451,0.0030204260306699255,48.74247790689273
2025-03-08 12:24:35.459,0.0030300364814971697,48.00694502264843
2025-03-08 12:24:35.467,0.0030259469851069924,47.270779484869784
2025-03-08 12:24:35.475,0.0030071458596337224,46.54936445571643
2025-03-08 12:24:35.482,0.002972905035459379,45.857114779776424
2025-03-08 12:24:35.490,0.002922808507469921,45.20718726082036
2025-03-08 12:24:35.498,0.0028567686420874557,44.61120672211973
2025-03-08 12:24:35.506,0.0027750300584271493,44.079017531849416
2025-03-08 12:24:35.514,0.002678161423213109,43.618470519536075
2025-03-08 12:24:35.522,0.0025670359936537253,43.23525486061703
2025-03-08 12:24:35.529,0.0024428021420377236,42.932783499299404
2025-03-08 12:24:35.537,0.0023068454389933222,42.712138992875396
2025-03-08 12:24:35.545,0.002160744161369297,42.57208432610133
2025-03-08 12:24:35.553,0.0020062202859266426,42.50914036977051
2025-03-08 12:24:35.561,0.0018450880918350434,42.51772843685824
2025-03-08 12:24:35.568,0.0016792024207316048,42.590373085471256
2025-03-08 12:24:35.576,0.001510408457384046,42.7179572201593
2025-03-08 12:24:35.584,0.0013404946198670566,42.89001892246065
2025-03-08 12:24:35.592,0.0011711498111527702,43.09507751619507
2025-03-08 12:24:35.600,0.001003925932396145,43.320975291154426
2025-03-08 12:24:35.607,0.0008402062498405153,43.555221136377796
2025-03-08 12:24:35.615,0.0006811799734753448,43.78532304453054
2025-03-08 12:24:35.623,0.0005278232386997357,43.99909792314942
2025-03-08 12:24:35.631,0.00038088655900141437,44.18494919558243
2025-03-08 12:24:35.639,0.00024088872306503125,44.332105065674696
2025-03-08 12:24:35.647,0.0001081170281663898,44.43081282431126
2025-03-08 12:24:35.654,-1.736635680927634e-05,44.47248698720748
2025-03-08 12:24:35.662,-0.00013571224106667765,44.44981121537258
2025-03-08 12:24:35.670,-0.00024726697121339215,44.35679579140959
2025-03-08 12:24:35.678,-0.0003525503320777387,44.1887938793351
2025-03-08 12:24:35.686,-0.0004522295196760856,43.94248089769572
2025-03-08 12:24:35.693,-0.0005470899979634003,43.6158021134463
2025-03-08 12:24:35.701,-0.0006380041408964905,43.207894043916895
2025-03-08 12:24:35.709,-0.0007258986563541919,42.71898546354006
2025-03-08 12:24:35.717,-0.0008117218478188927,42.15028378509595
2025-03-08 12:24:35.725,-0.0008964117529022962,41.503852363562046
2025-03-08 12:24:35.732,-0.0009808661017868293,40.78248389823951
2025-03-08 12:24:35.740,-0.001065914893170055,39.98957462610472
2025-03-08 12:24:35.748,-0.0011522962223745514,39.129003435746675
2025-03-08 12:24:35.756,-0.001240635834443523,38.20501939746112
2025-03-08 12:24:35.764,-0.0013314307235571588,37.22214049239158
2025-03-08 12:24:35.772,-0.0014250369652806826,36.1850655182723
2025-03-08 12:24:35.779,-0.0015216618548634067,35.09860025573039
2025-03-08 12:24:35.787,-0.0016213603364629685,33.96759803501543
2025-03-08 12:24:35.795,-0.0017240356467607462,32.79691391632238
2025-03-08 12:24:35.803,-0.0018294440609898282,31.591370867750726
2025-03-08 12:24:35.811,-0.00193720360967222,30.35573566524621
2025-03-08 12:24:35.818,-0.0020468066065227153,29.09470179932285
2025-03-08 12:24:35.826,-0.0021576357686905684,27.812876482036046
2025-03-08 12:24:35.834,-0.0022689836191455435,26.514768913331523
2025-03-08 12:24:35.842,-0.002380074753313598,25.20477727841567
2025-03-08 12:24:35.850,-0.0024900904320411146,23.8871724767164
2025-03-08 12:24:35.858,-0.0025981948228912454,22.5660772799
2025-03-08 12:24:35.865,-0.0027035620602781046,21.245440420993205
2025-03-08 12:24:35.873,-0.00280540316329825,19.929005961083657
2025-03-08 12:24:35.881,-0.002902991769991876,18.62027909004435
2025-03-08 12:24:35.889,-0.0029956876344165435,17.322490215875337
2025-03-08 12:24:35.897,-0.003082956886956938,16.038559713168492
2025-03-08 12:24:35.904,-0.003164388162980284,14.771065984487638
2025-03-08 12:24:35.912,-0.003239703850230036,13.522219516582771
2025-03-08 12:24:35.920,-0.003308765906649766,12.293845390089746
2025-03-08 12:24:35.928,-0.003371575973358846,11.087376248693047
2025-03-08 12:24:35.936,-0.003428269828410711,9.903857085023168
2025-03-08 12:24:35.943,-0.0034791065476443865,8.743962401636589
2025-03-08 12:24:35.951,-0.003524453024399216,7.608025421210157
2025-03-08 12:24:35.959,-0.0035647647211989007,6.496078136344643
2025-03-08 12:24:35.967,-0.003600563648788727,5.4079002014242405
2025-03-08 12:24:35.975,-0.00363241458383135,4.34307406049557
2025-03-08 12:24:35.983,-0.0036609004909772505,3.30104332910577
2025-03-08 12:24:35.990,-0.0036865980623992933,2.2811713202019335
2025-03-08 12:24:35.998,-0.0037100542380957002,1.2827967096097794
2025-03-08 12:24:36.006,-0.003731764496332514,0.30528364153514576
2025-03-08 12:24:36.014,-0.0037521535850136745,-0.6519359646832278
2025-03-08 12:24:36.022,-0.0037715592095248947,-1.589329577497611
2025-03-08 12:24:36.029,-0.0037902190304552304,-2.5072417316029343
2025-03-08 12:24:36.037,-0.003808261180021218,-3.405882631389075
2025-03-08 12:24:36.045,-0.003825698376216892,-4.285327480277585
2025-03-08 12:24:36.053,-0.0038424255916759756,-5.145525790943159
2025-03-08 12:24:36.061,-0.003858221140038117,-5.986319485198297
2025-03-08 12:24:36.068,-0.0038727509951562962,-6.807468284820697
2025-03-08 12:24:36.076,-0.0038855761374953957,-7.608680754575315
2025-03-08 12:24:36.084,-0.0038961626950514434,-8.389649387342077
2025-03-08 12:24:36.092,-0.0039038946087526956,-9.150088284689518
2025-03-08 12:24:36.100,-0.003908088520613596,-9.889772223073702
2025-03-08 12:24:36.108,-0.003908010569975152,-10.608576134495925
2025-03-08 12:24:36.115,-0.0039028947937927547,-11.306514207688215
2025-03-08 12:24:36.123,-0.0038919628543009266,-11.983777891072194
2025-03-08 12:24:36.131,-0.003874444833602462,-12.640772039067768
2025-03-08 12:24:36.139,-0.003849600800108162,-13.278148299259952
2025-03-08 12:24:36.147,-0.003816742752170444,-13.896834615995344
2025-03-08 12:24:36.154,-0.003775256414501567,-14.498059469237727
2025-03-08 12:24:36.162,-0.0037246222610247976,-15.083369242818629
2025-03-08 12:24:36.170,-0.003664435098681427,-15.654637013597297
2025-03-08 12:24:36.178,-0.0035944215615479115,-16.214061164327735
2025-03-08 12:24:36.186,-0.003514454898873091,-16.764152605742233
2025-03-08 12:24:36.193,-0.0034245664728000907,-17.307710041354106
2025-03-08 12:24:36.201,-0.0033249534216988424,-17.847783547030556
2025-03-08 12:24:36.209,-0.0032159820165303782,-18.387627643850955
2025-03-08 12:24:36.217,-0.0030981863515755605,-18.93064587980633
2025-03-08 12:24:36.225,-0.0029722621637776232,-19.48032958152514
2025-03-08 12:24:36.233,-0.002839055763518016,-20.040193804728098
2025-03-08 12:24:36.240,-0.002699548278849473,-20.613713561889643
2025-03-08 12:24:36.248,-0.0025548356371821687,-21.204263149849776
2025-03-08 12:24:36.256,-0.002406104889796141,-21.815060897116165
2025-03-08 12:24:36.264,-0.0022546076069637354,-22.449120986666795
2025-03-08 12:24:36.272,-0.002101631153417995,-23.109213277136277
2025-03-08 12:24:36.279,-0.0019484687222417454,-23.79783132440491
2025-03-08 12:24:36.287,-0.0017963890728234558,-24.517168159846182
2025-03-08 12:24:36.295,-0.001646606980310563,-25.269098853116713
2025-03-08 12:24:36.303,-0.0015002554388585609,-26.055168494620972
2025-03-08 12:24:36.311,-0.0013583606454900944,-26.8765839662111
2025-03-08 12:24:36.318,-0.0012218207153690671,-27.73420769432445
2025-03-08 12:24:36.326,-0.0010913889365592555,-28.628551457210893
2025-03-08 12:24:36.334,-0.000967662152884133,-29.559768229242206
2025-03-08 12:24:36.342,-0.0008510745817567212,-30.527640014839108
2025-03-08 12:24:36.350,-0.0007418970829251454,-31.53155971346484
2025-03-08 12:24:36.358,-0.0006402416449500133,-32.57050534003313
2025-03-08 12:24:36.365,-0.0005460706618402227,-33.64300546700749
2025-03-08 12:24:36.373,-0.00045921042194007196,-34.74709559435331
2025-03-08 12:24:36.381,-0.00037936811562920255,-35.880266288206954
2025-03-08 12:24:36.389,-0.0003061515836929223,-37.03940529809334
2025-03-08 12:24:36.397,-0.00023909097112702823,-38.22073734305217
2025-03-08 12:24:36.404,-0.0001776614178690028,-39.41976667672296
2025-03-08 12:24:36.412,-0.00012130590604658237,-40.631228703496966
2025-03-08 12:24:36.420,-6.945739839784246e-05,-41.849057632888204
2025-03-08 12:24:36.428,-2.1559461277150338e-05,-43.06637728044805
2025-03-08 12:24:36.436,2.291532414420277e-05,-44.2755215779246
2025-03-08 12:24:36.443,6.444972482177585e-05,-45.468090160431196
2025-03-08 12:24:36.451,0.00010346943968824337,-46.63504265673518
2025-03-08 12:24:36.459,0.00014033425916234172,-47.76683318299801
2025-03-08 12:24:36.467,0.0001753330543607586,-48.85358421927574
2025-03-08 12:24:36.475,0.0002086827227923008,-49.885296720176264
2025-03-08 12:24:36.483,0.00024053108036115113,-50.852091150133816
2025-03-08 12:24:36.490,0.0002709635662826651,-51.744472291134635
2025-03-08 12:24:36.498,0.00030001352117448054,-52.55360926573892
2025-03-08 12:24:36.506,0.0003276756903928679,-53.271621327902906
2025-03-08 12:24:36.514,0.0003539224743873162,-53.8918596253101
2025-03-08 12:24:36.522,0.0003787222989804493,-54.40917530268472
2025-03-08 12:24:36.529,0.00040205933834333037,-54.8201649164377
2025-03-08 12:24:36.537,0.0004239537193570249,-55.12338504460682
2025-03-08 12:24:36.545,0.0004444812813895661,-55.319529057815515
2025-03-08 12:24:36.553,0.0004637919640649332,-55.4115601296467
2025-03-08 12:24:36.561,0.00048212594632258916,-55.40479560539267
2025-03-08 12:24:36.568,0.0004998267522384733,-55.30693876065524
2025-03-08 12:24:36.576,0.0005173506477680696,-55.12805475642972
2025-03-08 12:24:36.584,0.0005352717541512957,-54.880488267033236
2025-03-08 12:24:36.592,0.0005542824043035125,-54.57872088606527
2025-03-08 12:24:36.600,0.0005751884003257195,-54.23916708457272
2025-03-08 12:24:36.608,0.0005988990046717019,-53.879908281394755
2025-03-08 12:24:36.615,0.0006264116832796545,-53.520365546147275
2025-03-08 12:24:36.623,0.0006587917888398925,-53.180912628215594
2025-03-08 12:24:36.631,0.0006971475429184762,-52.882432412739824
2025-03-08 12:24:36.639,0.000742600873988627,-52.6458215538866
2025-03-08 12:24:36.647,0.0007962548837594833,-52.49144991410762
2025-03-08 12:24:36.654,0.0008591589013942712,-52.43858351061369
2025-03-08 12:24:36.662,0.0009322722021868392,-52.50478187890365
2025-03-08 12:24:36.670,0.0010164275041836246,-52.7052830263188
2025-03-08 12:24:36.678,0.0011122953374982133,-53.052391362152996
2025-03-08 12:24:36.686,0.0012203503448508677,-53.55488603218065
2025-03-08 12:24:36.693,0.0013408405443232885,-54.21746881878718
2025-03-08 12:24:36.701,0.0014737605698940867,-55.040272048290774
2025-03-08 12:24:36.709,0.0016188299006504368,-56.0184476225939
2025-03-08 12:24:36.717,0.0017754771059676044,-57.14185820922444
2025-03-08 12:24:36.725,0.0019428311704209377,-58.39489064124371
2025-03-08 12:24:36.733,0.0021197209806897554,-59.75640959221877
2025-03-08 12:24:36.740,0.0023046840049671404,-61.19986655721488
2025-03-08 12:24:36.748,0.0024959850417615647,-62.69357511580768
2025-03-08 12:24:36.756,0.0026916456402378505,-64.20115847306757
2025-03-08 12:24:36.764,0.002889484369941329,-65.6821695220317
2025-03-08 12:24:36.772,0.003087167517499371,-67.09287734445779
2025-03-08 12:24:36.779,0.003282269013317305,-68.38720739776896
2025-03-08 12:24:36.787,0.003472337492011969,-69.51781587635283
2025-03-08 12:24:36.795,0.0036549674854054162,-70.43727214022118
2025-03-08 12:24:36.803,0.0038278710271976426,-71.09931692864278
2025-03-08 12:24:36.811,0.003988945622456164,-71.46015858561663
2025-03-08 12:24:36.818,0.004136334721891038,-71.47976500658838
2025-03-08 12:24:36.826,0.0042684774891903355,-71.12310578930408
2025-03-08 12:24:36.834,0.004384145576944543,-70.36129747628257
2025-03-08 12:24:36.842,0.004482465644594006,-69.1726051571539
2025-03-08 12:24:36.850,0.004562927339760053,-67.54325637057936
2025-03-08 12:24:36.858,0.004625377347275253,-65.46802842906048
2025-03-08 12:24:36.865,0.004670000828479786,-62.950578032453734
2025-03-08 12:24:36.873,0.004697292098610386,-60.00349213873024
2025-03-08 12:24:36.881,0.004708016738918398,-56.648051051165915
2025-03-08 12:24:36.889,0.0047031675449720365,-52.9137078405592
2025-03-08 12:24:36.897,0.004683916793991569,-48.837301653726485
2025-03-08 12:24:36.904,0.004651567279498294,-44.46203519088788
2025-03-08 12:24:36.912,0.0046075044015640035,-39.83625772461315
2025-03-08 12:24:36.920,0.004553151300724915,-35.01210369215245
2025-03-08 12:24:36.928,0.004489928607454999,-30.044042574054547
2025-03-08 12:24:36.936,0.0044192199126905215,-24.9873982132979
2025-03-08 12:24:36.943,0.00434234359768823,-19.896894946295287
2025-03-08 12:24:36.951,0.0042605312070113,-14.825284162913738
2025-03-08 12:24:36.959,0.004174912119788109,-9.82209862630215
2025-03-08 12:24:36.967,0.0040865038986914685,-4.932573636085844
2025-03-08 12:24:36.975,0.00399620740066703,-0.19676455545542865
2025-03-08 12:24:36.983,0.003904805543412116,4.351119995878322
2025-03-08 12:24:36.990,0.0038129645607417957,8.683160231434972
2025-03-08 12:24:36.998,0.0037212366520777036,12.777943253801432
2025-03-08 12:24:37.006,0.003630063103909833,16.62056653182456
2025-03-08 12:24:37.014,0.003539777183124405,20.202443731546573
2025-03-08 12:24:37.022,0.0034506063351286563,23.520935807572787
2025-03-08 12:24:37.029,0.003362673445961476,26.5788346468049
2025-03-08 12:24:37.037,0.0032759971392292407,29.383729370749382
2025-03-08 12:24:37.045,0.003190491270008026,31.9472867391363
2025-03-08 12:24:37.053,0.003105963943718486,34.28447709473075
2025-03-08 12:24:37.061,0.0030221165241505403,36.412776109695166
2025-03-08 12:24:37.068,0.0029385431980255366,38.351370415666786
2025-03-08 12:24:37.076,0.0028547317315987496,40.1203922148125
2025-03-08 12:24:37.084,0.002770066086936014,41.74020438355533
2025-03-08 12:24:37.092,0.0026838315620877247,43.23075361071342
2025-03-08 12:24:37.100,0.002595223082259198,44.61100497320636
2025-03-08 12:24:37.108,0.00250335719984252,45.898467244721026
2025-03-08 12:24:37.115,0.0024072882547541284,47.10881432424978
2025-03-08 12:24:37.123,0.0023060289866062914,48.255604590141694
2025-03-08 12:24:37.131,0.0021985756630839666,49.35009681350067
2025-03-08 12:24:37.139,0.0020839375067809264,50.40115853860868
2025-03-08 12:24:37.147,0.0019611699036649107,51.41526055568495
2025-03-08 12:24:37.154,0.0018294105982930996,52.396549229280545
2025-03-08 12:24:37.162,0.001687917839428988,53.3469869771641
2025-03-08 12:24:37.170,0.0015361092209291078,54.26655010280429
2025-03-08 12:24:37.178,0.0013735997386395415,55.15347246837102
2025-03-08 12:24:37.186,0.001200237350960334,56.00452316624835
2025-03-08 12:24:37.193,0.0010161341324510002,56.81530641862829
2025-03-08 12:24:37.201,0.000821691012967419,57.58057240779133
2025-03-08 12:24:37.209,0.0006176141486980181,58.294528593402966
2025-03-08 12:24:37.217,0.00040492119147124937,58.95114226182513
2025-03-08 12:24:37.225,0.00018493609584256402,59.54442650590379
2025-03-08 12:24:37.233,-4.0728390339562946e-05,60.068703460166574
2025-03-08 12:24:37.240,-0.00027020077264952884,60.51884030805672
2025-03-08 12:24:37.248,-0.0005013928618853456,60.89045522151859
2025-03-08 12:24:37.256,-0.0007320524856126206,61.18009188619833
2025-03-08 12:24:37.264,-0.0009598247626345699,61.38536253098519
2025-03-08 12:24:37.272,-0.001182319282049387,61.50506037534581
2025-03-08 12:24:37.279,-0.001397180227051095,61.539243121094025
2025-03-08 12:24:37.287,-0.0016021564353875116,61.48928956258907
2025-03-08 12:24:37.295,-0.0017951685298819011,61.35793160232498
2025-03-08 12:24:37.303,-0.0019743705000953215,61.149263970933724
2025-03-08 12:24:37.311,-0.0021382034087147834,60.868733788692715
2025-03-08 12:24:37.318,-0.00228543921945517,60.523111791653456
2025-03-08 12:24:37.326,-0.002415213117456896,60.120446602364694
2025-03-08 12:24:37.334,-0.0025270431393678537,59.67000287937023
2025-03-08 12:24:37.342,-0.0026208364478213027,59.18218356142036
2025-03-08 12:24:37.350,-0.002696882150927499,58.66843576692844
2025-03-08 12:24:37.358,-0.0027558311546964334,58.14113925955908
2025-03-08 12:24:37.365,-0.0027986641290041357,57.61347579831203
2025-03-08 12:24:37.373,-0.0028266492396331307,57.0992772121077
2025-03-08 12:24:37.381,-0.002841291779958201,56.61284973067937
2025-03-08 12:24:37.389,-0.002844278133655935,56.16877201208215
2025-03-08 12:24:37.397,-0.002837416572809295,55.78166446631674
2025-03-08 12:24:37.404,-0.0028225772885299167,55.46592791260468
2025-03-08 12:24:37.412,-0.002801633846919901,55.23545035607929
2025-03-08 12:24:37.420,-0.0027764080200823847,55.10328176082292
2025-03-08 12:24:37.428,-0.002748619686060152,55.081278151899554
2025-03-08 12:24:37.436,-0.00271984323715153,55.179718197785235
2025-03-08 12:24:37.443,-0.0026914716831214097,55.40689757603303
2025-03-08 12:24:37.451,-0.0026646893657866263,55.76870884754291
2025-03-08 12:24:37.459,-0.002640453889356249,56.26821716409739
2025-03-08 12:24:37.467,-0.002619487501358029,56.90524478312886
2025-03-08 12:24:37.475,-0.002602277746608399,57.67597990587869
2025-03-08 12:24:37.483,-0.002589086814054628,58.5726276031872
2025-03-08 12:24:37.490,-0.00257996865488631,59.58312233062281
2025-03-08 12:24:37.498,-0.0025747926749017684,60.690922526293036
2025-03-08 12:24:37.506,-0.0025732725709988716,61.8749078050542
2025-03-08 12:24:37.514,-0.002574998691880185,63.10939813384332
2025-03-08 12:24:37.522,-0.002579472190826135,64.36431199295177
2025-03-08 12:24:37.529,-0.002586139232585844,65.6054768850458
2025-03-08 12:24:37.537,-0.0025944236201699165,66.79510072480626
2025-03-08 12:24:37.545,-0.00260375641090994,67.89240678547566
2025-03-08 12:24:37.553,-0.0026136013724890298,68.85442821662133
2025-03-08 12:24:37.561,-0.0026234754420817272,69.63695094245729
2025-03-08 12:24:37.568,-0.002632963645260901,70.19558628368313
2025-03-08 12:24:37.576,-0.0026417281934066152,70.4869472106765
2025-03-08 12:24:37.584,-0.002649511732622016,70.46989504213892
2025-03-08 12:24:37.592,-0.002656134976771731,70.10681699141475
2025-03-08 12:24:37.600,-0.002661489199761854,69.36488961253215
2025-03-08 12:24:37.608,-0.0026655242578535543,68.21727932720096
2025-03-08 12:24:37.615,-0.0026682329565148742,66.64422926380351
2025-03-08 12:24:37.623,-0.002669632684314536,64.6339820444444
2025-03-08 12:24:37.631,-0.002669745325979295,62.18349128953483
2025-03-08 12:24:37.639,-0.002668576536083222,59.298880701296774
2025-03-08 12:24:37.647,-0.002666095477920888,55.995618635162664
2025-03-08 12:24:37.654,-0.002662216084208233,52.29838777096993
2025-03-08 12:24:37.662,-0.0026567807808747217,48.24064324357972
2025-03-08 12:24:37.670,-0.00264954746565574,43.86386750881579
2025-03-08 12:24:37.678,-0.0026401803966735688,39.216545254549686
2025-03-08 12:24:37.686,-0.0026282455479347995,34.35289571527383
2025-03-08 12:24:37.693,-0.002613210898537478,29.331411790053643
2025-03-08 12:24:37.701,-0.0025944519822190247,24.213264577148806
2025-03-08 12:24:37.709,-0.0025712628149850304,19.060637781964363
2025-03-08 12:24:37.717,-0.0025428720804795872,13.935058693785535
2025-03-08 12:24:37.725,-0.0025084642347512494,8.895791118256652
2025-03-08 12:24:37.733,-0.002467205002593076,3.9983511013709814
2025-03-08 12:24:37.740,-0.0024182705490717296,-0.7068010254386844
2025-03-08 12:24:37.748,-0.002360879406914853,-5.175348216042698
2025-03-08 12:24:37.756,-0.0022943260452647422,-9.369950831372934
2025-03-08 12:24:37.764,-0.0022180148107962955,-13.26080616592603
2025-03-08 12:24:37.772,-0.002131492876308298,-16.825924499445428
2025-03-08 12:24:37.779,-0.002034480803531446,-20.0511248780318
2025-03-08 12:24:37.787,-0.0019268993638952817,-22.929765238967647
2025-03-08 12:24:37.795,-0.0018088913371501255,-25.46223178809364
2025-03-08 12:24:37.803,-0.001680837093204127,-27.655221341810794
2025-03-08 12:24:37.811,-0.0015433628638428234,-29.5208573613845
2025-03-08 12:24:37.818,-0.0013973407689555327,-31.07568542489264
2025-03-08 12:24:37.826,-0.0012438799041910665,-32.339596779594814
2025-03-08 12:24:37.834,-0.0010843081124007402,-33.33472935776808
2025-03-08 12:24:37.842,-0.0009201444274311255,-34.084394263170324
2025-03-08 12:24:37.850,-0.0007530625936552799,-34.61207235702808
2025-03-08 12:24:37.858,-0.0005848465425727071,-34.940520381744015
2025-03-08 12:24:37.865,-0.00041733925785307296,-35.091019328840275
2025-03-08 12:24:37.873,-0.0002523870557604007,-35.082789831274106
2025-03-08 12:24:37.881,-9.178186303581517e-05,-34.93259063746236
2025-03-08 12:24:37.889,6.279553537618735e-05,-34.65450712565192
2025-03-08 12:24:37.897,0.00020982818554838128,-34.25992775899119
2025-03-08 12:24:37.904,0.0003480086897233714,-33.7576977553464
2025-03-08 12:24:37.912,0.0004762755490504688,-33.154431401470305
2025-03-08 12:24:37.920,0.0005938384037691886,-32.45495767341194
2025-03-08 12:24:37.928,0.0007001912592243594,-31.662868367694603
2025-03-08 12:24:37.936,0.0007951135974112079,-30.781133976511246
2025-03-08 12:24:37.943,0.0008786600044128464,-29.812750179756826
2025-03-08 12:24:37.951,0.0009511395471298913,-28.76137715266587
2025-03-08 12:24:37.959,0.0010130865906729744,-27.631934921173606
2025-03-08 12:24:37.967,0.0010652250582566397,-26.43112069699095
2025-03-08 12:24:37.975,0.0011084283024237604,-25.167818382949495
2025-03-08 12:24:37.983,0.001143676788243227,-23.853376080322487
2025-03-08 12:24:37.990,0.0011720156977119932,-22.501734209920215
2025-03-08 12:24:37.998,0.001194514364903098,-21.129394467651604
2025-03-08 12:24:38.006,0.0012122291607097946,-19.755227901051782
2025-03-08 12:24:38.014,0.0012261710849114618,-18.40012849775566
2025-03-08 12:24:38.022,0.00123727892138935,-17.086526382093535
2025-03-08 12:24:38.029,0.001246398412281165,-15.83778159640113
2025-03-08 12:24:38.037,0.0012542675498239723,-14.677485121203791
2025-03-08 12:24:38.045,0.0012615077861165972,-13.628697969466693
2025-03-08 12:24:38.053,0.0012686207122123779,-12.71316169784141
2025-03-08 12:24:38.061,0.0012759895555240434,-11.95051447081531
2025-03-08 12:24:38.068,0.0012838847089381674,-11.357545982983508
2025-03-08 12:24:38.076,0.0012924724603984889,-10.947522289034994
2025-03-08 12:24:38.084,0.0013018261292260973,-10.729608177080742
2025-03-08 12:24:38.092,0.0013119388873720204,-10.70841044047876
2025-03-08 12:24:38.100,0.0013227375996009798,-10.88366053443296
2025-03-08 12:24:38.108,0.00133409703587685,-11.250049878445793
2025-03-08 12:24:38.115,0.0013458538009284374,-11.79722565242213
2025-03-08 12:24:38.123,0.0013578193216545896,-12.509949441973577
2025-03-08 12:24:38.131,0.0013697912790749998,-13.368415590902956
2025-03-08 12:24:38.139,0.0013815629916298403,-14.348720683726578
2025-03-08 12:24:38.147,0.0013929304248018102,-15.423470297240824
2025-03-08 12:24:38.154,0.001403696677770575,-16.562504159937404
2025-03-08 12:24:38.162,0.0014136739682447154,-17.73371633158966
2025-03-08 12:24:38.170,0.0014226833088176458,-18.90394320694807
2025-03-08 12:24:38.178,0.0014305522443995866,-20.039889328793787
2025-03-08 12:24:38.186,0.0014371111879458854,-21.109059419062916
2025-03-08 12:24:38.194,0.0014421890222778959,-22.080664882682157
2025-03-08 12:24:38.201,0.0014456086938762901,-22.926474370655537
2025-03-08 12:24:38.209,0.0014471834887172337,-23.62158073152102
2025-03-08 12:24:38.217,0.0014467145634447544,-24.14506062709068
2025-03-08 12:24:38.225,0.0014439901574332932,-24.480507932779805
2025-03-08 12:24:38.233,0.0014387867852386192,-24.61642742080044
2025-03-08 12:24:38.240,0.0014308726123250604,-24.54648076289494
2025-03-08 12:24:38.248,0.001420013118944528,-24.269582255141962
2025-03-08 12:24:38.256,0.0014059790414828782,-23.7898466066862
2025-03-08 12:24:38.264,0.0013885564646312974,-23.116395487074968
2025-03-08 12:24:38.272,0.0013675588387091874,-22.263033217433236
2025-03-08 12:24:38.279,0.0013428406068525455,-21.24780500562134
2025-03-08 12:24:38.287,0.0013143120292245926,-20.092453494550412
2025-03-08 12:24:38.295,0.0012819546805454597,-18.82179117480043
2025-03-08 12:24:38.303,0.0012458369702209474,-17.46300748174523
2025-03-08 12:24:38.311,0.0012061288779730383,-16.044930227048877
2025-03-08 12:24:38.319,0.0011631149183983563,-14.597261461430527
2025-03-08 12:24:38.326,0.0011172042016934852,-13.149807957531337
2025-03-08 12:24:38.334,0.001068936413422056,-11.73172623152184
2025-03-08 12:24:38.342,0.0010189826098356803,-10.370801351853551
2025-03-08 12:24:38.350,0.0009681398848839414,-9.09277765863056
2025-03-08 12:24:38.358,0.0009173191884765491,-7.920757890928557
2025-03-08 12:24:38.365,0.0008675258722685395,-6.8746850823145715
2025-03-08 12:24:38.373,0.0008198329221128504,-5.970918984789835
2025-03-08 12:24:38.381,0.000775347294859411,-5.221915830804749
2025-03-08 12:24:38.389,0.000735170275955496,-4.636017110672151
2025-03-08 12:24:38.397,0.0007003532735534042,-4.217349930867926
2025-03-08 12:24:38.404,0.0006718509444401736,-3.9658386288652503
2025-03-08 12:24:38.412,0.0006504739989459995,-3.877324817290697
2025-03-08 12:24:38.420,0.0006368444242131899,-3.943791015257572
2025-03-08 12:24:38.428,0.00063135613027683,-4.153681519767366
2025-03-08 12:24:38.436,0.000634144088268481,-4.492313115265997
2025-03-08 12:24:38.444,0.0006450648466507063,-4.942367478684173
2025-03-08 12:24:38.451,0.0006636908538329517,-5.484456509768964
2025-03-08 12:24:38.459,0.0006893202651677911,-6.097751057998696
2025-03-08 12:24:38.467,0.0007210028752827485,-6.760662379737693
2025-03-08 12:24:38.475,0.0007575815713839247,-7.45156394991589
2025-03-08 12:24:38.483,0.0007977474093992513,-8.149538899126227
2025-03-08 12:24:38.490,0.0008401052466555245,-8.835135444648799
2025-03-08 12:24:38.498,0.000883245942715415,-9.491109507312581
2025-03-08 12:24:38.506,0.0009258205368131851,-10.103130682179096
2025-03-08 12:24:38.514,0.0009666115780836012,-10.660425373373334
2025-03-08 12:24:38.522,0.0010045969418085393,-11.156329720109055
2025-03-08 12:24:38.529,0.0010390019789821084,-11.588725337367697
2025-03-08 12:24:38.537,0.001069336645737447,-11.960333097937456
2025-03-08 12:24:38.545,0.001095415252403416,-12.278844207153668
2025-03-08 12:24:38.553,0.0011173575695791057,-12.556873476631269
2025-03-08 12:24:38.561,0.0011355711535566831,-12.81172662770149
2025-03-08 12:24:38.569,0.0011507158319568494,-13.064981170822536
2025-03-08 12:24:38.576,0.0011636522542079833,-13.341888378828196
2025-03-08 12:24:38.584,0.0011753772237384833,-13.670611570353753
2025-03-08 12:24:38.592,0.0011869491817086697,-14.081322879181217
2025-03-08 12:24:38.600,0.0011994076892808776,-14.605186546668024
2025-03-08 12:24:38.608,0.0012136910316725268,-15.273261310605246
2025-03-08 12:24:38.615,0.0012305561467727715,-16.115357583334823
2025-03-08 12:24:38.623,0.00125050499712178,-17.158886844061847
2025-03-08 12:24:38.631,0.001273721278357714,-18.427741130653594
2025-03-08 12:24:38.639,0.0013000209816306687,-19.941239856055336
2025-03-08 12:24:38.647,0.0013288197871293287,-21.713179529366844
2025-03-08 12:24:38.654,0.0013591195712018048,-23.75101941943459
2025-03-08 12:24:38.662,0.0013895154980756192,-26.055232790099236
2025-03-08 12:24:38.670,0.0014182242799074668,-28.618849037214463
2025-03-08 12:24:38.678,0.0014431332565096441,-31.4272068057324
2025-03-08 12:24:38.686,0.0014618689951005342,-34.4579319026495
2025-03-08 12:24:38.694,0.0014718831759313474,-37.68114656719808
2025-03-08 12:24:38.701,0.0014705526613580803,-41.05990857945336
2025-03-08 12:24:38.709,0.0014552898939737607,-44.550870125609144
2025-03-08 12:24:38.717,0.0014236591619034963,-48.10513778506391
2025-03-08 12:24:38.725,0.001373493818357723,-51.66930703135215
2025-03-08 12:24:38.733,0.0013030092716146925,-55.18663780326261
2025-03-08 12:24:38.740,0.0012109065051398237,-58.59833246531901
2025-03-08 12:24:38.748,0.001096461061750395,-61.84487414840731
2025-03-08 12:24:38.756,0.0009595928212852781,-64.86738218278767
2025-03-08 12:24:38.764,0.0008009125043913136,-67.60894208709588
2025-03-08 12:24:38.772,0.0006217416405226865,-70.01587020008321
2025-03-08 12:24:38.779,0.00042410374378376174,-72.03887727210163
2025-03-08 12:24:38.787,0.00021068563748120913,-73.63410083419177
2025-03-08 12:24:38.795,-1.523076619036808e-05,-74.76398255778743
2025-03-08 12:24:38.803,-0.00024986443305307195,-75.39797372231314
2025-03-08 12:24:38.811,-0.0004890555514194718,-75.51305895780477
2025-03-08 12:24:38.819,-0.0007284052959303008,-75.0940953037926
2025-03-08 12:24:38.826,-0.0009634285938376307,-74.13397004595167
2025-03-08 12:24:38.834,-0.0011897124235824565,-72.63358651411221
2025-03-08 12:24:38.842,-0.0014030717792501925,-70.60169183586129
2025-03-08 12:24:38.850,-0.0015996957188605656,-68.05456436507795
2025-03-08 12:24:38.858,-0.001776276692553986,-65.0155810204466
2025-03-08 12:24:38.865,-0.0019301174266448675,-61.51468601206713
2025-03-08 12:24:38.873,-0.002059210943462077,-57.58778241594363
2025-03-08 12:24:38.881,-0.0021622907968197576,-53.276066878761355
2025-03-08 12:24:38.889,-0.0022388502131330244,-48.6253256016303
2025-03-08 12:24:38.897,-0.002289130399124483,-43.68520695364181
2025-03-08 12:24:38.904,-0.0023140796844714423,-38.508482952998804
2025-03-08 12:24:38.912,-0.00231528637609101,-33.15030878353594
2025-03-08 12:24:38.920,-0.002294889233971227,-27.667486805054523
2025-03-08 12:24:38.928,-0.0022554703542004206,-22.11773939744382
2025-03-08 12:24:38.936,-0.002199935941736196,-16.55899356002389
2025-03-08 12:24:38.944,-0.002131390922589509,-11.048679442959099
2025-03-08 12:24:38.951,-0.0020530135308566228,-5.643044772869502
2025-03-08 12:24:38.959,-0.0019679358692412394,-0.3964872355220922
2025-03-08 12:24:38.967,-0.001879135938294922,4.639092924589502
2025-03-08 12:24:38.975,-0.0017893457305250989,9.414917692828869
2025-03-08 12:24:38.983,-0.0017009787415596643,13.885931034339293
2025-03-08 12:24:38.990,-0.0016160788136116,18.011371147068147
2025-03-08 12:24:38.998,-0.0015362907825792512,21.75531250214611
2025-03-08 12:24:39.006,-0.0014628520963553655,25.08717419628384
2025-03-08 12:24:39.014,-0.001396603495458438,27.982189658791363
2025-03-08 12:24:39.022,-0.0013380160308645247,30.421830481722427
2025-03-08 12:24:39.029,-0.0012872311341230868,32.394174208638084
2025-03-08 12:24:39.037,-0.0012441101379788598,33.89420266047083
2025-03-08 12:24:39.045,-0.0012082895627634682,34.92401428829569
2025-03-08 12:24:39.053,-0.0011792386245619165,35.4929316959229
2025-03-08 12:24:39.061,-0.0011563157603159992,35.61748442723922
2025-03-08 12:24:39.069,-0.0011388214487594531,35.321247807861695
2025-03-08 12:24:39.076,-0.001126045155756443,34.63452132807642
2025-03-08 12:24:39.084,-0.0011173047786931373,33.593834799540474
2025-03-08 12:24:39.092,-0.00111197748490611,32.241277141927945
2025-03-08 12:24:39.100,-0.0011095213579559067,30.62365078780804
2025-03-08 12:24:39.108,-0.0011094878083278983,28.791463789005366
2025-03-08 12:24:39.115,-0.0011115252533127275,26.797781081667278
2025-03-08 12:24:39.123,-0.001115375062198987,24.696965256388935
2025-03-08 12:24:39.131,-0.0011208611360492323,22.543344823027816
2025-03-08 12:24:39.139,-0.001127874723372575,20.389853701845325
2025-03-08 12:24:39.147,-0.0011363561705715693,18.286689061465903
2025-03-08 12:24:39.154,-0.0011462752771218584,16.28003546707727
2025-03-08 12:24:39.162,-0.0011576117838471686,14.41090166026657
2025-03-08 12:24:39.170,-0.0011703373069183406,12.714112427824714
2025-03-08 12:24:39.178,-0.001184399785857121,11.217492323816725
2025-03-08 12:24:39.186,-0.0011997112591548768,9.941270938645498
2025-03-08 12:24:39.194,-0.001216139513093902,8.897731413319255
2025-03-08 12:24:39.201,-0.0012335038780494632,8.091115394280884
2025-03-08 12:24:39.209,-0.0012515752013928685,7.517788976162675
2025-03-08 12:24:39.217,-0.0012700798256791582,7.166665679656344
2025-03-08 12:24:39.225,-0.0012887072278470594,7.019874374762731
2025-03-08 12:24:39.233,-0.001307120790487492,7.053652425087434
2025-03-08 12:24:39.240,-0.0013249709626718213,7.239437270277677
2025-03-08 12:24:39.248,-0.001341909855426847,7.545123210106287
2025-03-08 12:24:39.256,-0.001357606159184989,7.93644432313085
2025-03-08 12:24:39.264,-0.001371759204959079,8.37843929685592
2025-03-08 12:24:39.272,-0.001384111023143605,8.836949591355037
2025-03-08 12:24:39.279,-0.0013944553652403668,9.280099028147545
2025-03-08 12:24:39.287,-0.0014026428302581244,9.679700905866266
2025-03-08 12:24:39.295,-0.0014085814972583622,10.01253846554408
2025-03-08 12:24:39.303,-0.0014122328371262655,10.261466332539014
2025-03-08 12:24:39.311,-0.0014136031392880323,10.416284749087758
2025-03-08 12:24:39.319,-0.0014127311600199326,10.474345135420528
2025-03-08 12:24:39.326,-0.0014096730869188898,10.440854726777218
2025-03-08 12:24:39.334,-0.0014044861648084207,10.32885944040673
2025-03-08 12:24:39.342,-0.001397212424958879,10.158897211708902
2025-03-08 12:24:39.350,-0.0013878639099648901,9.958328095904545
2025-03-08 12:24:39.358,-0.0013764106184670076,9.76036164073824
2025-03-08 12:24:39.365,-0.0013627721401334948,9.602815548193563
2025-03-08 12:24:39.373,-0.001346813634581643,9.526651666903515
2025-03-08 12:24:39.381,-0.0013283464511573376,9.57434523206939
2025-03-08 12:24:39.389,-0.0013071333284971696,9.788150525742815
2025-03-08 12:24:39.397,-0.0012828977922834635,10.208330511068748
2025-03-08 12:24:39.404,-0.001255337107662337,10.871419446417018
2025-03-08 12:24:39.412,-0.0012241379504157864,11.808586121536184
2025-03-08 12:24:39.420,-0.0011889938387989838,13.044161407576105
2025-03-08 12:24:39.428,-0.0011496232998844536,14.594387577166676
2025-03-08 12:24:39.436,-0.001105787720971029,16.466438662855595
2025-03-08 12:24:39.444,-0.0010573078754788977,18.657751311716392
2025-03-08 12:24:39.451,-0.0010040782278627942,21.15569445724476
2025-03-08 12:24:39.459,-0.0009460782895287686,23.937593921407334
2025-03-08 12:24:39.467,-0.0008833804711053098,26.97111502275363
2025-03-08 12:24:39.475,-0.0008161540242089025,30.21499269723068
2025-03-08 12:24:39.483,-0.00074466478723938,33.62008495639492
2025-03-08 12:24:39.490,-0.0006692705695917076,37.13071228946989
2025-03-08 12:24:39.498,-0.0005904121617194064,40.68623356677207
2025-03-08 12:24:39.506,-0.0005086001683107948,44.222798872721754
2025-03-08 12:24:39.514,-0.0004243981267384561,47.67521216893042
2025-03-08 12:24:39.522,-0.0003384026641659079,50.97883227457233
2025-03-08 12:24:39.529,-0.00025122171587669537,54.0714396385087
2025-03-08 12:24:39.537,-0.00016345202125740593,56.8949988116818
2025-03-08 12:24:39.545,-7.565719567484407e-05,59.39725222882745
2025-03-08 12:24:39.553,1.165235639176759e-05,61.533089495944324
2025-03-08 12:24:39.561,9.803654414562248e-05,63.26564731441646
2025-03-08 12:24:39.569,0.00018313875126023093,64.567107802754
2025-03-08 12:24:39.576,0.00026669432833155855,65.4191765919215
2025-03-08 12:24:39.584,0.0003485339606722391,65.81323595149932
2025-03-08 12:24:39.592,0.00042858175452408545,65.75018166950032
2025-03-08 12:24:39.600,0.0005068481958583215,65.23996484569179
2025-03-08 12:24:39.608,0.0005834184279160687,64.30087064236085
2025-03-08 12:24:39.615,0.0006584365365752739,62.95857494663619
2025-03-08 12:24:39.623,0.0007320867211428307,61.245026536523326
2025-03-08 12:24:39.631,0.0008045723814550692,59.19720655059735
2025-03-08 12:24:39.639,0.0008760942886568376,56.855818821465206
2025-03-08 12:24:39.647,0.0009468291223750949,54.263964050345045
2025-03-08 12:24:39.654,0.0010169097176446723,51.465848074019284
2025-03-08 12:24:39.662,0.0010864083239901022,48.50556987478503
2025-03-08 12:24:39.670,0.0011553240155258015,45.42602882593123
2025-03-08 12:24:39.678,0.0012235751333522559,42.26798330053944
2025-03-08 12:24:39.686,0.00129099734421106,39.069284574649004
2025-03-08 12:24:39.694,0.0013573476030350167,35.8643013120638
2025-03-08 12:24:39.701,0.0014223140211602815,32.68354119966636
2025-03-08 12:24:39.709,0.0014855313430133547,29.553467843409567
2025-03-08 12:24:39.717,0.001546601376433594,26.49650311919072
2025-03-08 12:24:39.725,0.001605117273972287,23.531198034609996
2025-03-08 12:24:39.733,0.0016606900542463945,20.67254899682733
2025-03-08 12:24:39.740,0.0017129752932645507,17.932431373883432
2025-03-08 12:24:39.748,0.001761697658381906,15.320118537725119
2025-03-08 12:24:39.756,0.001806671015987166,12.842852323742346
2025-03-08 12:24:39.764,0.0018478122219337135,10.506430154784816
2025-03-08 12:24:39.772,0.001885147302701023,8.315775059783368
2025-03-08 12:24:39.779,0.00191880943644481,6.27545752883352
2025-03-08 12:24:39.787,0.0019490288699706526,4.390142558882307
2025-03-08 12:24:39.795,0.001976115604309447,2.6649411842637334
2025-03-08 12:24:39.803,0.0020004362623121945,1.1056529060996967
2025-03-08 12:24:39.811,0.0020223869202895687,-0.28110677788339383
2025-03-08 12:24:39.819,0.0020423638136070972,-1.487891707265641
2025-03-08 12:24:39.826,0.0020607337808395913,-2.5065139907971936
2025-03-08 12:24:39.834,0.0020778061883941455,-3.3282212436778855
2025-03-08 12:24:39.842,0.0020938079180303684,-3.943942488202648
2025-03-08 12:24:39.850,0.0021088627791561476,-4.344580701666981
2025-03-08 12:24:39.858,0.002122976393350825,-4.521329696657491
2025-03-08 12:24:39.865,0.0021360272024507736,-4.465994701719289
2025-03-08 12:24:39.873,0.002147763833928956,-4.171299410516325
2025-03-08 12:24:39.881,0.002157808688585998,-3.631166980695895
2025-03-08 12:24:39.889,0.0021656673413101113,-2.8409679790980418
2025-03-08 12:24:39.897,0.002170743175351592,-1.7977340046919148
2025-03-08 12:24:39.904,0.0021723565791329945,-0.5003410564062132
2025-03-08 12:24:39.912,0.002169767978297823,1.0503289519314847
2025-03-08 12:24:39.920,0.002162203923148127,2.851237303709812
2025-03-08 12:24:39.928,0.0021488853966811204,4.8970360181773716
2025-03-08 12:24:39.936,0.002129057454228287,7.179902599975052
2025-03-08 12:24:39.944,0.002102019256446114,9.689353611517879
2025-03-08 12:24:39.951,0.002067153521554386,12.412033049276916
2025-03-08 12:24:39.959,0.002023954407758012,15.33147698715713
2025-03-08 12:24:39.967,0.0019720528489525374,18.427862040338535
2025-03-08 12:24:39.975,0.0019112384140317804,21.677751361788854
2025-03-08 12:24:39.983,0.0018414768418691825,25.053857575436158
2025-03-08 12:24:39.990,0.001762922512888223,28.52484677653743
2025-03-08 12:24:39.998,0.0016759252609636415,32.05521105837684
2025-03-08 12:24:40.006,0.0015810311253305575,35.60523860617701
2025-03-08 12:24:40.014,0.0014789768939522802,39.13110997713586
2025-03-08 12:24:40.022,0.0013706785768531318,42.58514660203829
2025-03-08 12:24:40.029,0.0012572142464266636,45.91623275562031
2025-03-08 12:24:40.037,0.0011398019700652345,49.07042534063267
2025-03-08 12:24:40.045,0.0010197738034988181,51.991757053384845
2025-03-08 12:24:40.053,0.0008985469650572285,54.62322823918005
2025-03-08 12:24:40.061,0.0007775933490274137,56.90797154918362
2025-03-08 12:24:40.069,0.0006584084779340476,58.79056205706573
2025-03-08 12:24:40.076,0.0005424808682657589,60.21843456006409
2025-03-08 12:24:40.084,0.00043126260904453737,61.14336017703409
2025-03-08 12:24:40.092,0.0003261417466110686,61.52292681821399
2025-03-08 12:24:40.100,0.00022841686509955146,61.32196327829644
2025-03-08 12:24:40.108,0.0001392740881160284,60.51384507801465
2025-03-08 12:24:40.115,5.97666378519722e-05,59.08162203357231
2025-03-08 12:24:40.123,-9.202904449387163e-06,57.018912913826355
2025-03-08 12:24:40.131,-6.689739690479077e-05,54.33052123317219
2025-03-08 12:24:40.139,-0.00011275661644924456,51.03273774446858
2025-03-08 12:24:40.147,-0.00014640493107148748,47.1533088411146
2025-03-08 12:24:40.154,-0.00016765466348259405,42.7310649870706
2025-03-08 12:24:40.162,-0.00017650476505285398,37.81521850678747
2025-03-08 12:24:40.170,-0.0001731346564933899,32.46435460351023
2025-03-08 12:24:40.178,-0.00015789340417149918,26.74515242873492
2025-03-08 12:24:40.186,-0.00013128475407991812,20.730883656591697
2025-03-08 12:24:40.194,-9.394891492978186e-05,14.499743808965603
2025-03-08 12:24:40.201,-4.664232745674673e-05,8.133076260720838
2025-03-08 12:24:40.209,9.78309046987662e-06,1.7135503925250486
2025-03-08 12:24:40.217,7.43996520850561e-05,-4.67664608690918
2025-03-08 12:24:40.225,0.00014622112265568672,-10.957544739971834
2025-03-08 12:24:40.233,0.00022421632080385544,-17.053014363170927
2025-03-08 12:24:40.240,0.0003073183701680958,-22.8922178443371
2025-03-08 12:24:40.248,0.00039442930042403506,-28.410875711755644
2025-03-08 12:24:40.256,0.0004844201329788578,-33.55231402325872
2025-03-08 12:24:40.264,0.0005761270130028715,-38.268284064929134
2025-03-08 12:24:40.272,0.000668344312634554,-42.5195505408381
2025-03-08 12:24:40.279,0.0007598158801768296,-46.27625303755885
2025-03-08 12:24:40.287,0.0008492257522904842,-49.51805216189567
2025-03-08 12:24:40.295,0.0009351897199348563,-52.234076647053705
2025-03-08 12:24:40.303,0.0010162491637689553,-54.42269083725939
2025-03-08 12:24:40.311,0.001090868540338568,-56.09110340246781
2025-03-08 12:24:40.319,0.0011574377890453517,-57.254838169223355
2025-03-08 12:24:40.326,0.0012142807372933317,-57.93708696246221
2025-03-08 12:24:40.334,0.0012596703181932227,-58.16796277618071
2025-03-08 12:24:40.342,0.0012918510961775775,-57.983669868212026
2025-03-08 12:24:40.350,0.0013090692367923433,-57.42560589127347
2025-03-08 12:24:40.358,0.0013096096781282417,-56.53941021407649
2025-03-08 12:24:40.365,0.0012918398756270684,-55.37397230348397
2025-03-08 12:24:40.373,0.0012542590977979268,-53.980414432547825
2025-03-08 12:24:40.381,0.0011955518434816248,-52.411063909612565
2025-03-08 12:24:40.389,0.0011146435397917818,-50.718431240717145
2025-03-08 12:24:40.397,0.0010107563018453558,-48.954211828989536
2025-03-08 12:24:40.405,0.0008834622575937641,-47.1683296598863
2025-03-08 12:24:40.412,0.0007327318090613195,-45.40804164377704
2025-03-08 12:24:40.420,0.0005589742067810365,-43.71712070119156
2025-03-08 12:24:40.428,0.0003630679438973895,-42.13513421464781
2025-03-08 12:24:40.436,0.00014637875611481297,-40.696832192358414
2025-03-08 12:24:40.444,-8.923653209374516e-05,-39.43165655178143
2025-03-08 12:24:40.451,-0.0003414414713418484,-38.36337955503727
2025-03-08 12:24:40.459,-0.0006074472290544209,-37.509875858493466
2025-03-08 12:24:40.467,-0.0008840553692249767,-36.88302911437795
2025-03-08 12:24:40.475,-0.0011677152523802425,-36.48877078740531
2025-03-08 12:24:40.483,-0.0014545945280270956,-36.32724596749022
2025-03-08 12:24:40.490,-0.001740660695242667,-36.39309853882712
2025-03-08 12:24:40.498,-0.002021771359969661,-36.67586610128214
2025-03-08 12:24:40.506,-0.0022937705992595483,-37.16047347102063
2025-03-08 12:24:40.514,-0.0025525886637405614,-37.827812320422595
2025-03-08 12:24:40.522,-0.002794342024009711,-38.655393454873405
2025-03-08 12:24:40.530,-0.00301543050499115,-39.61805728860461
2025-03-08 12:24:40.537,-0.003212628062945351,-40.68872723412946
2025-03-08 12:24:40.545,-0.003383163763444743,-41.83918996640775
2025-03-08 12:24:40.553,-0.0035247897848470593,-43.040885912293625
2025-03-08 12:24:40.561,-0.0036358338144276132,-44.265692924584556
2025-03-08 12:24:40.569,-0.0037152339836547797,-45.48668601129717
2025-03-08 12:24:40.576,-0.0037625554029697087,-46.67885627253876
2025-03-08 12:24:40.584,-0.003777988256499592,-47.8197728838647
2025-03-08 12:24:40.592,-0.0037623281689914126,-48.89017304589573
2025-03-08 12:24:40.600,-0.003716940109807659,-49.874466241516195
2025-03-08 12:24:40.608,-0.003643707499988241,-50.76114082522045
2025-03-08 12:24:40.615,-0.003544968523771023,-51.54306283621829
2025-03-08 12:24:40.623,-0.0034234419599431082,-52.21765891860098
2025-03-08 12:24:40.631,-0.003282145125360857,-52.78697731006368
2025-03-08 12:24:40.639,-0.0031243067263556205,-53.25762300384064
2025-03-08 12:24:40.647,-0.0029532775194176823,-53.6405653889629
2025-03-08 12:24:40.655,-0.002772441682637762,-53.95081893636683
2025-03-08 12:24:40.662,-0.002585131700600318,-54.20699983710211
2025-03-08 12:24:40.670,-0.002394549383750461,-54.43076393420879
2025-03-08 12:24:40.678,-0.0022036953853754714,-54.64613384391841
2025-03-08 12:24:40.686,-0.0020153092359261053,-54.87872585273608
2025-03-08 12:24:40.694,-0.001831821476933753,-55.154890007711074
2025-03-08 12:24:40.701,-0.001655318949572312,-55.500779761352554
2025-03-08 12:24:40.709,-0.0014875236901183324,-55.941370524459835
2025-03-08 12:24:40.717,-0.0013297852317516708,-56.49944941738172
2025-03-08 12:24:40.725,-0.0011830854588967188,-57.19460126875529
2025-03-08 12:24:40.733,-0.001048054585414261,-58.04221836014539
2025-03-08 12:24:40.740,-0.0009249964174227045,-59.05256342315816
2025-03-08 12:24:40.748,-0.0008139208619028058,-60.22991682376336
2025-03-08 12:24:40.756,-0.0007145816251660297,-61.57183956915294
2025-03-08 12:24:40.764,-0.0006265171301662461,-63.0685835958559
2025-03-08 12:24:40.772,-0.0005490928058660706,-64.70267960027743
2025-03-08 12:24:40.780,-0.0004815430608200372,-66.44873032000244
2025-03-08 12:24:40.787,-0.00042301147129592096,-68.27343354465918
2025-03-08 12:24:40.795,-0.00037258799393386405,-70.13585413107091
2025-03-08 12:24:40.803,-0.0003293423130702143,-71.98795786626582
2025-03-08 12:24:40.811,-0.00029235269170576,-73.77541218615994
2025-03-08 12:24:40.819,-0.00026072988306847746,-75.4386496436712
2025-03-08 12:24:40.826,-0.00023363580966120654,-76.91417987568052
2025-03-08 12:24:40.834,-0.00021029688674902738,-78.1361250163909
2025-03-08 12:24:40.842,-0.00019001207995684356,-79.03794253181267
2025-03-08 12:24:40.850,-0.00017215601976601662,-79.55428888375998
2025-03-08 12:24:40.858,-0.00015617771705906818,-79.62296790714372
2025-03-08 12:24:40.865,-0.00014159561200403635,-79.18689995464473
2025-03-08 12:24:40.873,-0.00012798982366670104,-78.19604235577911
2025-03-08 12:24:40.881,-0.00011499252247248669,-76.60918911010909
2025-03-08 12:24:40.889,-0.00010227730766957811,-74.39557842530483
2025-03-08 12:24:40.897,-8.954837052499372e-05,-71.53624098467918
2025-03-08 12:24:40.905,-7.653013085234763e-05,-68.02502971902321
2025-03-08 12:24:40.912,-6.295798805097853e-05,-63.8692831244833
2025-03-08 12:24:40.920,-4.857079472283319e-05,-59.09008829488667
2025-03-08 12:24:40.928,-3.3105584357141434e-05,-53.722126062532524
2025-03-08 12:24:40.936,-1.6294956569076726e-05,-47.81309801994402
2025-03-08 12:24:40.944,2.132618109679823e-06,-41.42275267310862
2025-03-08 12:24:40.951,2.2449442975766065e-05,-34.62154449137008
2025-03-08 12:24:40.959,4.492219788094872e-05,-27.488974203978746
2025-03-08 12:24:40.967,6.98026936827541e-05,-20.111670570533708
2025-03-08 12:24:40.975,9.731621781103825e-05,-12.581282491584187
2025-03-08 12:24:40.983,0.00012764817758283343,-4.992255463105051
2025-03-08 12:24:40.990,0.0001609299673248359,2.56043199549522
2025-03-08 12:24:40.998,0.0001972251229600784,9.983497992522649
2025-03-08 12:24:41.006,0.00023651690073658074,17.187483679750038
2025-03-08 12:24:41.014,0.0002786984312469879,24.088714250317885
2025-03-08 12:24:41.022,0.00032356651623819093,30.611041468346727
2025-03-08 12:24:41.030,0.00037081991916435817,36.68732528236302
2025-03-08 12:24:41.037,0.0004200626696662311,42.26062359093343
2025-03-08 12:24:41.045,0.00047081250923798975,47.28507108271372
2025-03-08 12:24:41.053,0.0005225141949358397,51.72643969110961
2025-03-08 12:24:41.061,0.0005745569826240879,55.56238404671636
2025-03-08 12:24:41.069,0.0006262952682493084,58.782384908700145
2025-03-08 12:24:41.076,0.0006770711191228116,61.38741154767087
2025-03-08 12:24:41.084,0.0007262373169006128,63.38933022256633
2025-03-08 12:24:41.092,0.000773179584032891,64.81009020007872
2025-03-08 12:24:41.100,0.0008173368641164581,65.68072133704536
2025-03-08 12:24:41.108,0.0008582188119052722,66.04017835793621
2025-03-08 12:24:41.115,0.0008954199402832421,65.93406697838721
2025-03-08 12:24:41.123,0.0009286301188690864,65.41328634711101
2025-03-08 12:24:41.131,0.0009576413051430754,64.5326212568953
2025-03-08 12:24:41.139,0.0009823505098922056,63.349316467572315
2025-03-08 12:24:41.147,0.0010027590645968671,61.92166442019614
2025-03-08 12:24:41.155,0.0010189682964485583,60.307636606136526
2025-03-08 12:24:41.162,0.0010311717555551696,58.56358778342402
2025-03-08 12:24:41.170,0.00103964420222716,56.743060922113976
2025-03-08 12:24:41.178,0.001044727675888183,54.89571898487643
2025-03-08 12:24:41.186,0.0010468151449743045,53.06642718597473
2025-03-08 12:24:41.194,0.0010463324527175896,51.29450605347266
2025-03-08 12:24:41.201,0.0010437194659407214,49.613171378778944
2025-03-08 12:24:41.209,0.0010394114437491484,48.0491720322614
2025-03-08 12:24:41.217,0.0010338216363144045,46.622630829773925
2025-03-08 12:24:41.225,0.0010273260014007672,45.34708741754242
2025-03-08 12:24:41.233,0.0010202507263020848,44.22973581755248
2025-03-08 12:24:41.240,0.0010128630206600686,43.27184316879513
2025-03-08 12:24:41.248,0.00100536544195468,42.4693306117297
2025-03-08 12:24:41.256,0.000997893848531876,41.81349244226935
2025-03-08 12:24:41.264,0.0009905189514235763,41.2918257938223
2025-03-08 12:24:41.272,0.0009832513571809405,40.88894031541608
2025-03-08 12:24:41.280,0.0009760499490205584,40.58751565833935
2025-03-08 12:24:41.287,0.0009688334097261483,40.36927404651185
2025-03-08 12:24:41.295,0.0009614946008555665,40.215935698152386
2025-03-08 12:24:41.303,0.0009539173557752526,40.110126248934556
2025-03-08 12:24:41.311,0.0009459950360573728,40.03620744464913
2025-03-08 12:24:41.319,0.000937649972714252,39.981005085305874
2025-03-08 12:24:41.326,0.0009288526928600963,39.93441140858372
2025-03-08 12:24:41.334,0.0009196396608489725,39.88984273845342
2025-03-08 12:24:41.342,0.0009101281946345331,39.84453727837731
2025-03-08 12:24:41.350,0.0009005272791923983,39.79968241202917
2025-03-08 12:24:41.358,0.0008911431753489857,39.76036580576333
2025-03-08 12:24:41.365,0.0008823789882314601,39.73534997492484
2025-03-08 12:24:41.373,0.0008747276954611754,39.736675713598835
2025-03-08 12:24:41.381,0.0008687585193302064,39.77910575864304
2025-03-08 12:24:41.389,0.0008650969244268309,39.87942606161918
2025-03-08 12:24:41.397,0.0008643988966163328,40.0556278221127
2025-03-08 12:24:41.405,0.0008673204981328223,40.32599870672503
2025-03-08 12:24:41.412,0.0008744840056820651,40.70815614890523
2025-03-08 12:24:41.420,0.0008864422229874985,41.218059032010295
2025-03-08 12:24:41.428,0.0009036427808789624,41.86903619077692
2025-03-08 12:24:41.436,0.000926394343103275,42.67087087913578
2025-03-08 12:24:41.444,0.0009548366031461786,43.62897956681945
2025-03-08 12:24:41.451,0.0009889158259380596,44.74372113256086
2025-03-08 12:24:41.459,0.0010283675132766515,46.00986877187267
2025-03-08 12:24:41.467,0.0010727075516122609,47.416271841961326
2025-03-08 12:24:41.475,0.0011212328794788628,48.94572857399403
2025-03-08 12:24:41.483,0.0011730322577205533,50.57508326947709
2025-03-08 12:24:41.490,0.001227007180358505,52.27555346736543
2025-03-08 12:24:41.498,0.0012819023955490461,54.01328386601339
2025-03-08 12:24:41.506,0.0013363449386777837,55.75011480141363
2025-03-08 12:24:41.514,0.0013888900058482002,57.444544159304115
2025-03-08 12:24:41.522,0.001438071454218305,59.05285311178175
2025-03-08 12:24:41.530,0.0014824543132254204,60.530358423744545
2025-03-08 12:24:41.537,0.001520686530400768,61.832747680045095
2025-03-08 12:24:41.545,0.0015515472749618442,62.91744902069999
2025-03-08 12:24:41.553,0.001573989423647426,63.744984150872405
2025-03-08 12:24:41.561,0.0015871742930105934,64.28025272738593
2025-03-08 12:24:41.569,0.0015904972203045185,64.49369781184845
2025-03-08 12:24:41.576,0.0015836031842549054,64.36230590104644
2025-03-08 12:24:41.584,0.0015663922371430448,63.87040096067117
2025-03-08 12:24:41.592,0.0015390150466290965,63.01019965282376
2025-03-08 12:24:41.600,0.0015018592929275727,61.78210422635723
2025-03-08 12:24:41.608,0.0014555280060478523,60.194719938580754
2025-03-08 12:24:41.615,0.0014008111459190128,58.26459497404866
2025-03-08 12:24:41.623,0.0013386518522461538,56.015692180973225
2025-03-08 12:24:41.631,0.0012701088634784737,53.478613095018645
2025-03-08 12:24:41.639,0.0011963166425930116,50.68960516619814
2025-03-08 12:24:41.647,0.0011184447458581009,47.6893923192125
2025-03-08 12:24:41.655,0.0010376579268257127,44.521876434615216
2025-03-08 12:24:41.662,0.000955078378902577,41.23276257160423
2025-03-08 12:24:41.670,0.0008717513703297541,37.868163423543486
2025-03-08 12:24:41.678,0.0007886153100018282,34.47323844156544
2025-03-08 12:24:41.686,0.0007064770343331766,31.09092031042436
2025-03-08 12:24:41.694,0.0006259928766495606,27.76077622274194
2025-03-08 12:24:41.701,0.000547655900410903,24.518044023511653
2025-03-08 12:24:41.709,0.00047178953618556385,21.392874237729394
2025-03-08 12:24:41.717,0.0003985477279513131,18.409798768173424
2025-03-08 12:24:41.725,0.00032792153425425385,15.58743621597826
2025-03-08 12:24:41.733,0.000259751921561874,12.93843290698971
2025-03-08 12:24:41.740,0.0001937482311465633,10.469628358035054
2025-03-08 12:24:41.748,0.00012951152367480736,8.182424593871984
2025-03-08 12:24:41.756,6.656173676035002e-05,6.0733308534346655
2025-03-08 12:24:41.764,4.367345093727401e-06,4.134649130821256
2025-03-08 12:24:41.772,-5.7623993043811394e-05,2.3552618979608884
2025-03-08 12:24:41.780,-0.00011995545596864218,0.7214813459556956
2025-03-08 12:24:41.787,-0.00018313344058580152,-0.7820804685087874
2025-03-08 12:24:41.795,-0.00024760393782780656,-2.1716592186153387
2025-03-08 12:24:41.803,-0.0003137343645546434,-3.4635386440920617
2025-03-08 12:24:41.811,-0.00038180204581787596,-4.673333610487992
2025-03-08 12:24:41.819,-0.0004519901792142535,-5.815379847458097
2025-03-08 12:24:41.826,-0.0005243916694673209,-6.902247680209016
2025-03-08 12:24:41.834,-0.0005990207185932085,-7.944390191287892
2025-03-08 12:24:41.842,-0.0006758315337438485,-8.94992948126237
2025-03-08 12:24:41.850,-0.000754743020238695,-9.924578318686866
2025-03-08 12:24:41.858,-0.0008356679080370319,-10.871688699014411
2025-03-08 12:24:41.865,-0.000918544450450239,-11.792413830650927
2025-03-08 12:24:41.873,-0.0010033686441099456,-12.68596595590836
2025-03-08 12:24:41.881,-0.0010902248309074092,-13.549949288519938
2025-03-08 12:24:41.889,-0.0011793125347968232,-14.380745279352343
2025-03-08 12:24:41.897,-0.0012709674588201464,-15.173926459592915
2025-03-08 12:24:41.905,-0.0013656747296825688,-15.924675280474602
2025-03-08 12:24:41.912,-0.0014640727257089555,-16.62818565399453
2025-03-08 12:24:41.920,-0.001566946150307469,-17.28002723230212
2025-03-08 12:24:41.928,-0.0016752074287666359,-17.876455724865547
2025-03-08 12:24:41.936,-0.001789866032746168,-18.414656573516837
2025-03-08 12:24:41.944,-0.0019119859489636455,-18.892913869100244
2025-03-08 12:24:41.951,-0.0020426321252917743,-19.310701238748116
2025-03-08 12:24:41.959,-0.0021828072829780595,-19.668696269957437
2025-03-08 12:24:41.967,-0.00233338097191447,-19.968724573637456
2025-03-08 12:24:41.975,-0.00249501319110754,-20.213643555951272
2025-03-08 12:24:41.983,-0.0026680753196161476,-20.407179149498702
2025-03-08 12:24:41.990,-0.0028525715093025,-20.553730988764134
2025-03-08 12:24:41.998,-0.003048064055694883,-20.658162704307287
2025-03-08 12:24:42.006,-0.0032536065315072324,-20.725594118177487
2025-03-08 12:24:42.014,-0.0034676885735904755,-20.761211174786517
2025-03-08 12:24:42.022,-0.0036881961169166113,-20.770107520727308
2025-03-08 12:24:42.030,-0.003912390569371276,-20.75716889088069
2025-03-08 12:24:42.037,-0.004136909937614158,-20.7270080532092
2025-03-08 12:24:42.045,-0.004357794253225759,-20.68395423974424
2025-03-08 12:24:42.053,-0.004570536824823339,-20.632097001308672
2025-03-08 12:24:42.061,-0.004770161910861705,-20.575380526316746
2025-03-08 12:24:42.069,-0.004951328429182068,-20.517740897931763
2025-03-08 12:24:42.076,-0.005108458308964906,-20.463275729458147
2025-03-08 12:24:42.084,-0.005235887045445996,-20.416433261568194
2025-03-08 12:24:42.092,-0.005328032958716495,-20.38220640719863
2025-03-08 12:24:42.100,-0.005379580611131948,-20.366316404999157
2025-03-08 12:24:42.108,-0.005385672809508125,-20.375370655081234
2025-03-08 12:24:42.115,-0.005342104632621214,-20.41697990586175
2025-03-08 12:24:42.123,-0.00524551206075928,-20.499821189260285
2025-03-08 12:24:42.131,-0.0050935471459092625,-20.633634734312583
2025-03-08 12:24:42.139,-0.00488503132730248,-20.829145511165006
2025-03-08 12:24:42.147,-0.00462007852107998,-21.09790305066646
2025-03-08 12:24:42.155,-0.004300180053138231,-21.45203671171618
2025-03-08 12:24:42.162,-0.003928244422331246,-21.90392755534913
2025-03-08 12:24:42.170,-0.0035085863121863798,-22.465802306505392
2025-03-08 12:24:42.178,-0.0030468612202770003,-23.149259358295424
2025-03-08 12:24:42.186,-0.002549944554822189,-23.964741166981295
2025-03-08 12:24:42.194,-0.002025757068557287,-24.920971446028
2025-03-08 12:24:42.201,-0.0014830419975811024,-26.024379054873293
2025-03-08 12:24:42.209,-0.0009311029809435237,-27.278533185976514
2025-03-08 12:24:42.217,-0.00037951519451605965,-28.6836162121538
2025-03-08 12:24:42.225,0.00016217558770260663,-30.23596123031393
2025-03-08 12:24:42.233,0.0006847506142867251,-31.927680828942947
2025-03-08 12:24:42.240,0.001179598013130776,-33.746411855807786
2025-03-08 12:24:42.248,0.0016389625853190071,-35.67519795480486
2025-03-08 12:24:42.256,0.0020561560218766593,-37.692527416053004
2025-03-08 12:24:42.264,0.0024257209674105403,-39.77253854397598
2025-03-08 12:24:42.272,0.002743545130201677,-41.88539846212806
2025-03-08 12:24:42.280,0.003006924111312268,-43.997854263590824
2025-03-08 12:24:42.287,0.0032145737848820175,-46.07394794424099
2025-03-08 12:24:42.295,0.003366594952589617,-48.07587892008048
2025-03-08 12:24:42.303,0.0034643946593517195,-49.96499046940862
2025-03-08 12:24:42.311,0.003510569991342974,-51.7028495425455
2025-03-08 12:24:42.319,0.0035087613092984376,-53.252383457037325
2025-03-08 12:24:42.326,0.003463482597353996,-54.5790324380136
2025-03-08 12:24:42.334,0.0033799368762796093,-55.65187410675907
2025-03-08 12:24:42.342,0.0032638244657234136,-56.44467511510092
2025-03-08 12:24:42.350,0.0031211513591490026,-56.93682631350265
2025-03-08 12:24:42.358,0.002958044190984983,-57.11412115038223
2025-03-08 12:24:42.365,0.0027805773170229042,-56.96934232097276
2025-03-08 12:24:42.373,0.0025946164608692673,-56.50262877804386
2025-03-08 12:24:42.381,0.002405682248988814,-55.72160373698088
2025-03-08 12:24:42.389,0.002218835828158582,-54.641253835739846
2025-03-08 12:24:42.397,0.002038587712857553,-53.28355969830871
2025-03-08 12:24:42.405,0.0018688300964815987,-51.676888351095485
2025-03-08 12:24:42.412,0.001712792071775194,-49.85516781692584
2025-03-08 12:24:42.420,0.0015730165271967086,-47.8568733253324
2025-03-08 12:24:42.428,0.0014513569572589958,-45.72386249277328
2025-03-08 12:24:42.436,0.0013489921167812685,-43.500103121252515
2025-03-08 12:24:42.444,0.0012664563694133376,-41.23034158155515
2025-03-08 12:24:42.451,0.0012036836332620414,-38.95876184989291
2025-03-08 12:24:42.459,0.0011600628730160877,-36.72768506761988
2025-03-08 12:24:42.467,0.0011345030495499369,-34.5763570577498
2025-03-08 12:24:42.475,0.0011255053370620108,-32.539866753364755
2025-03-08 12:24:42.483,0.0011312403357528547,-30.648232263773952
2025-03-08 12:24:42.490,0.0011496280076580775,-28.925683683387724
2025-03-08 12:24:42.498,0.001178418149250882,-27.390163136305958
2025-03-08 12:24:42.506,0.0012152693564138751,-26.05305337226961
2025-03-08 12:24:42.514,0.0012578246053978753,-24.919136923809653
2025-03-08 12:24:42.522,0.001303781732789835,-23.986778828815247
2025-03-08 12:24:42.530,0.0013509571990468414,-23.248317612046186
2025-03-08 12:24:42.537,0.0013973415458215538,-22.690641939007683
2025-03-08 12:24:42.545,0.0014411449730768312,-22.295924365247245
2025-03-08 12:24:42.553,0.0014808315939865261,-22.04247907891231
2025-03-08 12:24:42.561,0.001515141281830405,-21.90570756658083
2025-03-08 12:24:42.569,0.0015430986303045441,-21.85909473584494
2025-03-08 12:24:42.576,0.0015640093363924108,-21.8752181454781
2025-03-08 12:24:42.584,0.0015774451485464516,-21.92673450503928
2025-03-08 12:24:42.592,0.0015832192571182632,-21.987310337037275
2025-03-08 12:24:42.600,0.0015813545203920984,-22.032467432654656
2025-03-08 12:24:42.608,0.001572047150392883,-22.040318241745577
2025-03-08 12:24:42.615,0.0015556284289975643,-21.992171385467987
2025-03-08 12:24:42.623,0.0015325267532497178,-21.872992849900193
2025-03-08 12:24:42.631,0.0015032319156447608,-21.671713923328202
2025-03-08 12:24:42.639,0.0014682630908962517,-21.381382420363806
2025-03-08 12:24:42.647,0.0014281415702309223,-20.99915906028611
2025-03-08 12:24:42.655,0.0013833688881763357,-20.526165919602214
2025-03-08 12:24:42.662,0.001334410656581128,-19.967198551865703
2025-03-08 12:24:42.670,0.001281686161563893,-19.3303175539762
2025-03-08 12:24:42.678,0.0012255635557344516,-18.626338945879812
2025-03-08 12:24:42.686,0.0011663602562926414,-17.868245599662554
2025-03-08 12:24:42.694,0.0011043479473442806,-17.070543975968196
2025-03-08 12:24:42.701,0.0010397614153703813,-16.248591475202996
2025-03-08 12:24:42.709,0.0009728103357224795,-15.4179196932984
2025-03-08 12:24:42.717,0.0009036930593700476,-14.593577757404894
2025-03-08 12:24:42.725,0.0008326114039304807,-13.789517765046455
2025-03-08 12:24:42.733,0.0007597854344655682,-13.018041307836262
2025-03-08 12:24:42.741,0.0006854672431524638,-12.289322342759665
2025-03-08 12:24:42.748,0.0006099528137165554,-11.611017541057938
2025-03-08 12:24:42.756,0.0005335911956803187,-10.987970984080382
2025-03-08 12:24:42.764,0.00045679042370155723,-10.422015975830142
2025-03-08 12:24:42.772,0.00038001988180503827,-9.911873059095452
2025-03-08 12:24:42.780,0.0003038090683878942,-9.45314024618456
2025-03-08 12:24:42.787,0.00022874289153673152,-9.038369115017963
2025-03-08 12:24:42.795,0.00015545369804894458,-8.657218805792963
2025-03-08 12:24:42.803,8.461026959594867e-05,-8.296679041284913
2025-03-08 12:24:42.811,1.6904070975270074e-05,-7.941352984213526
2025-03-08 12:24:42.819,-4.696688963954728e-05,-7.573790894814635
2025-03-08 12:24:42.826,-0.0001063161785637228,-7.174866000238979
2025-03-08 12:24:42.834,-0.00016048861179535372,-6.7241845812626435
2025-03-08 12:24:42.842,-0.0002088810400397408,-6.200522891179412
2025-03-08 12:24:42.850,-0.00025096369848799036,-5.5822840478665
2025-03-08 12:24:42.858,-0.00028630141823309674,-4.847968417697613
2025-03-08 12:24:42.866,-0.0003145738239087396,-3.9766512071671682
2025-03-08 12:24:42.873,-0.00033559348703586197,-2.948460990670239
2025-03-08 12:24:42.881,-0.00034932090001589376,-1.7450527432215353
2025-03-08 12:24:42.889,-0.00035587514002460266,-0.350068630158795
2025-03-08 12:24:42.897,-0.0003555392471161956,1.2504206566081353
2025-03-08 12:24:42.905,-0.0003487596247945241,3.0675018202439004
2025-03-08 12:24:42.912,-0.00033613911548395156,5.109040634060128
2025-03-08 12:24:42.920,-0.00031842374672246237,7.379348580610817
2025-03-08 12:24:42.928,-0.00029648346125077586,9.878904281931447
2025-03-08 12:24:42.936,-0.0002712874304115141,12.60413989446659
2025-03-08 12:24:42.944,-0.0002438748025139254,15.547302510314223
2025-03-08 12:24:42.951,-0.0002153219616791187,18.69639978044563
2025-03-08 12:24:42.959,-0.0001867075801697276,22.0352372834725
2025-03-08 12:24:42.967,-0.0001590769332773763,25.543552541419743
2025-03-08 12:24:42.975,-0.0001334070818981221,29.19724712634327
2025-03-08 12:24:42.983,-0.00011057457746360187,32.96871426645169
2025-03-08 12:24:42.991,-9.132727200362122e-05,36.827255121186006
2025-03-08 12:24:42.998,-7.626160063425558e-05,40.73957286437519
2025-03-08 12:24:43.006,-6.58063590283079e-05,44.67033027340037
2025-03-08 12:24:43.014,-6.0213579774121684e-05,48.58275396576076
2025-03-08 12:24:43.022,-5.9556684152701285e-05,52.43926693324911
2025-03-08 12:24:43.030,-6.373569330340615e-05,56.202130657696934
2025-03-08 12:24:43.037,-7.248894392382119e-05,59.83407880196527
2025-03-08 12:24:43.045,-8.541047548346224e-05,63.2989261168095
2025-03-08 12:24:43.053,-0.00010197204155667788,66.56213857775577
2025-03-08 12:24:43.061,-0.00012154854845364162,69.59135360406236
2025-03-08 12:24:43.069,-0.00014344563924788005,72.35684223029841
2025-03-08 12:24:43.076,-0.00016692811843940084,74.83190803321627
2025-03-08 12:24:43.084,-0.00019124794844467574,76.993220249962
2025-03-08 12:24:43.092,-0.00021567064103090238,78.82108072139336
2025-03-08 12:24:43.100,-0.0002394990174709214,80.29962599540666
2025-03-08 12:24:43.108,-0.0002620935271826998,81.4169671317944
2025-03-08 12:24:43.116,-0.0002828885881425162,82.16527050984715
2025-03-08 12:24:43.123,-0.0003014047100407225,82.54078332533507
2025-03-08 12:24:43.131,-0.0003172564397793118,82.54380755106362
2025-03-08 12:24:43.139,-0.0003301563899786203,82.17862599098278
2025-03-08 12:24:43.147,-0.00033991574704142995,81.45338373623443
2025-03-08 12:24:43.155,-0.00034644171131351255,80.37992788327092
2025-03-08 12:24:43.162,-0.00034973233745197566,78.97360785857852
2025-03-08 12:24:43.170,-0.00034986924470969385,77.25303819184882
2025-03-08 12:24:43.178,-0.00034700864560283844,75.23982519494244
2025-03-08 12:24:43.186,-0.00034137109083823297,72.95825885251003
2025-03-08 12:24:43.194,-0.0003332302688602898,70.43497140039112
2025-03-08 12:24:43.201,-0.0003229011553066457,67.69856458468202
2025-03-08 12:24:43.209,-0.0003107277859402223,64.7792084041129
2025-03-08 12:24:43.217,-0.0002970709088385016,61.70821513002403
2025-03-08 12:24:43.225,-0.0002822957382091902,58.51759344761207
2025-03-08 12:24:43.233,-0.000266759986603082,55.239588574290195
2025-03-08 12:24:43.241,-0.00025080232080230486,51.90621513814442
2025-03-08 12:24:43.248,-0.0002347313929994503,48.54879042957359
2025-03-08 12:24:43.256,-0.00021881564376254961,45.19747636838415
2025-03-08 12:24:43.264,-0.0002032741343732859,41.88083913451349
2025-03-08 12:24:43.272,-0.00018826871844575027,38.625435838766215
2025-03-08 12:24:43.280,-0.00017389790237867586,35.45543777871505
2025-03-08 12:24:43.287,-0.0001601927803743304,32.392299647232804
2025-03-08 12:24:43.295,-0.0001471154503048901,29.45448347470979
2025-03-08 12:24:43.303,-0.0001345602837132258,26.65724507511749
2025-03-08 12:24:43.311,-0.0001223583152373496,24.0124893628422
2025-03-08 12:24:43.319,-0.00011028485729272573,21.52869917566368
2025-03-08 12:24:43.326,-9.807027503401775e-05,19.210940257637386
2025-03-08 12:24:43.334,-8.541368900919341e-05,17.060942908536745
2025-03-08 12:24:43.342,-7.199920198062197e-05,15.077258583758958
2025-03-08 12:24:43.350,-5.751407740264626e-05,13.255487521409526
2025-03-08 12:24:43.358,-4.166814866592811e-05,11.588571365250612
2025-03-08 12:24:43.366,-2.4213615845921127e-05,10.067142811894735
2025-03-08 12:24:43.373,-4.9642823603383935e-06,8.679922591358302
2025-03-08 12:24:43.381,1.6186795662787478e-05,7.414152634562357
2025-03-08 12:24:43.389,3.925230175736729e-05,6.256053126135096
2025-03-08 12:24:43.397,6.413929625253581e-05,5.1912903190399655
2025-03-08 12:24:43.405,9.064236012596107e-05,4.205441530121295
2025-03-08 12:24:43.412,0.00011844187693941913,3.2844436711397167
2025-03-08 12:24:43.420,0.0001471077705137375,2.415012021809652
2025-03-08 12:24:43.428,0.00017610864004014327,1.5850167340298487
2025-03-08 12:24:43.436,0.00020482584871265235,0.7838057710277198
2025-03-08 12:24:43.444,0.0002325718060096527,0.00246461908047845
2025-03-08 12:24:43.451,0.00025861149347245177,-0.7659948617063099
2025-03-08 12:24:43.459,0.00028218621097530133,-1.5265216975115916
2025-03-08 12:24:43.467,0.00030253852230743557,-2.2819917505807523
2025-03-08 12:24:43.475,0.00031893743034333837,-3.033252085080738
2025-03-08 12:24:43.483,0.0003307029036037896,-3.779240587696574
2025-03-08 12:24:43.491,0.00033722898140516673,-4.51717492609474
2025-03-08 12:24:43.498,0.0003380047687056083,-5.242802467282863
2025-03-08 12:24:43.506,0.00033263269488984334,-5.950700746750616
2025-03-08 12:24:43.514,0.0003208434978518077,-6.634616576303488
2025-03-08 12:24:43.522,0.0003025075342443993,-7.287830958185666
2025-03-08 12:24:43.530,0.0002776421739439949,-7.903536638903529
2025-03-08 12:24:43.537,0.00024641515561061526,-8.475215339268665
2025-03-08 12:24:43.545,0.0002091438537186308,-8.99700234949801
2025-03-08 12:24:43.553,0.00016629047445662783,-9.46402717566224
2025-03-08 12:24:43.561,0.00011845328457192923,-9.872720166568612
2025-03-08 12:24:43.569,6.635407460016042e-05,-10.221076452379112
2025-03-08 12:24:43.576,1.0822148106317408e-05,-10.508870017839284
2025-03-08 12:24:43.584,-4.722479352865812e-05,-10.737812259907686
2025-03-08 12:24:43.592,-0.00010680242628020582,-10.911650902763181
2025-03-08 12:24:43.600,-0.0001668837069857114,-11.036206635415438
2025-03-08 12:24:43.608,-0.000226424273606829,-11.119346281287118
2025-03-08 12:24:43.616,-0.0002843886216130521,-11.170892698715454
2025-03-08 12:24:43.623,-0.0003397762821710721,-11.202472947338414
2025-03-08 12:24:43.631,-0.000391647211138264,-11.227307535528197
2025-03-08 12:24:43.639,-0.00043914560664101666,-11.259944774859768
2025-03-08 12:24:43.647,-0.00048152140094835725,-11.315945392136694
2025-03-08 12:24:43.655,-0.0005181487201577913,-11.411523588456875
2025-03-08 12:24:43.662,-0.0005485406757028658,-11.563151721857434
2025-03-08 12:24:43.670,-0.0005723599479235041,-11.78713678557957
2025-03-08 12:24:43.678,-0.0005894247469540347,-12.099177917986198
2025-03-08 12:24:43.686,-0.000599709892730093,-12.513915339430385
2025-03-08 12:24:43.694,-0.0006033429461482894,-13.044482335516301
2025-03-08 12:24:43.701,-0.000600595546956799,-13.70207309803179
2025-03-08 12:24:43.709,-0.0005918703595489823,-14.495540232921035
2025-03-08 12:24:43.717,-0.0005776842621358731,-15.43103633731662
2025-03-08 12:24:43.725,-0.0005586485915576248,-16.51171400106968
2025-03-08 12:24:43.733,-0.0005354473518626577,-17.737497689051757
2025-03-08 12:24:43.741,-0.0005088143261458385,-19.104939067910212
2025-03-08 12:24:43.748,-0.0004795100241395216,-20.6071644377683
2025-03-08 12:24:43.756,-0.0004482993581707253,-22.23391915426152
2025-03-08 12:24:43.764,-0.0004159308599877888,-23.97170956824448
2025-03-08 12:24:43.772,-0.00038311812860366277,-25.804038461352498
2025-03-08 12:24:43.780,-0.00035052404137008033,-27.71172563717385
2025-03-08 12:24:43.787,-0.00031874808214396106,-29.67330161781464
2025-03-08 12:24:43.795,-0.0002883169631507153,-31.66545957270327
2025-03-08 12:24:43.803,-0.000259678556757901,-33.663548825563055
2025-03-08 12:24:43.811,-0.0002331990145070913,-35.64209258416311
2025-03-08 12:24:43.819,-0.00020916283504856983,-37.575312858541096
2025-03-08 12:24:43.826,-0.00018777554552342946,-39.43764674635591
2025-03-08 12:24:43.834,-0.00016916857037944206,-41.20424018071611
2025-03-08 12:24:43.842,-0.00015340578626411202,-42.8514076276817
2025-03-08 12:24:43.850,-0.00014049123719013658,-44.35704884312717
2025-03-08 12:24:43.858,-0.00013037752159662447,-45.701016420212845
2025-03-08 12:24:43.866,-0.00012297442215008356,-46.86543028625302
2025-03-08 12:24:43.873,-0.0001181573910179796,-47.83493740168468
2025-03-08 12:24:43.881,-0.00011577553683153819,-48.596916590316276
2025-03-08 12:24:43.889,-0.00011565881526949235,-49.141629654609986
2025-03-08 12:24:43.897,-0.00011762420876622056,-49.46232070821609
2025-03-08 12:24:43.905,-0.00012148077591014243,-49.555266028432044
2025-03-08 12:24:43.912,-0.00012703355242626142,-49.41977675910303
2025-03-08 12:24:43.920,-0.0001340863993160741,-49.05815657011376
2025-03-08 12:24:43.928,-0.00014244400435944372,-48.47561601444207
2025-03-08 12:24:43.936,-0.0001519133095663769,-47.6801449411864
2025-03-08 12:24:43.944,-0.00016230463452502136,-46.68234404886962
2025-03-08 12:24:43.951,-0.00017343271415869022,-45.49521662132969
2025-03-08 12:24:43.959,-0.0001851178059848428,-44.13392179495522
2025-03-08 12:24:43.967,-0.0001971869578641202,-42.61549144911762
2025-03-08 12:24:43.975,-0.00020947545269437497,-40.9585140112007
2025-03-08 12:24:43.983,-0.00022182836531323106,-39.182790037010484
2025-03-08 12:24:43.991,-0.00023410210432478343,-37.3089661695151
2025-03-08 12:24:43.998,-0.00024616579077133135,-35.35815572753942
2025-03-08 12:24:44.006,-0.000257902347048022,-33.351555464068504
2025-03-08 12:24:44.014,-0.00026920921111839503,-31.31006875948533
2025-03-08 12:24:44.022,-0.00027999862860458695,-29.25394558266466
2025-03-08 12:24:44.030,-0.0002901975058248567,-27.202448977113146
2025-03-08 12:24:44.037,-0.0002997468424947779,-25.173556709356717
2025-03-08 12:24:44.045,-0.0003086008026440581,-23.183705194914378
2025-03-08 12:24:44.053,-0.0003167255106382104,-21.247581040920842
2025-03-08 12:24:44.061,-0.00032409766732509934,-19.377963644372652
2025-03-08 12:24:44.069,-0.0003307030694711287,-17.58562037160982
2025-03-08 12:24:44.076,-0.00033653508480957603,-15.879254013233824
2025-03-08 12:24:44.084,-0.0003415930966790439,-14.265500539075298
2025-03-08 12:24:44.092,-0.0003458809127755362,-12.748973728404456
2025-03-08 12:24:44.100,-0.00034940515435318627,-11.33235205491285
2025-03-08 12:24:44.108,-0.000352173704872087,-10.016502278247346
2025-03-08 12:24:44.116,-0.0003541943757735622,-8.800633537422213
2025-03-08 12:24:44.123,-0.00035547400646679074,-7.682475352755023
2025-03-08 12:24:44.131,-0.0003560182308447917,-6.658472809615826
2025-03-08 12:24:44.139,-0.0003558321131886946,-5.723992295193376
2025-03-08 12:24:44.147,-0.0003549218043926997,-4.873531454155841
2025-03-08 12:24:44.155,-0.0003532973180160116,-4.100927479292126
2025-03-08 12:24:44.162,-0.0003509764683051435,-3.3995584146617235
2025-03-08 12:24:44.170,-0.00034798991510302823,-2.7625327787784086
2025-03-08 12:24:44.178,-0.00034438710570561964,-2.18286347974853
2025-03-08 12:24:44.186,-0.0003402427196643284,-1.653622672680261
2025-03-08 12:24:44.194,-0.00033566306169238795,-1.1680748953275377
2025-03-08 12:24:44.201,-0.00033079174889092755,-0.719786513474113
2025-03-08 12:24:44.209,-0.00032581401679089605,-0.3027102199795399
2025-03-08 12:24:44.217,-0.0003209590253590048,0.08875593077408726
2025-03-08 12:24:44.225,-0.00031649966968152246,0.45973469878779905
2025-03-08 12:24:44.233,-0.00031274956360256167,0.8148599774546907
2025-03-08 12:24:44.241,-0.0003100570397549001,1.1582893424796614
2025-03-08 12:24:44.248,-0.00030879618843478613,1.4937360670291946
2025-03-08 12:24:44.256,-0.0003093551472116819,1.82451703071765
2025-03-08 12:24:44.264,-0.00031212204589067046,2.153612237587338
2025-03-08 12:24:44.272,-0.00031746918675083476,2.4837310975508564
2025-03-08 12:24:44.280,-0.0003257361902851505,2.817380271110002
2025-03-08 12:24:44.287,-0.0003372129660721448,3.156927778355923
2025-03-08 12:24:44.295,-0.0003521234599527202,3.5046582665627026
2025-03-08 12:24:44.303,-0.0003706111400766827,3.8628148268982216
2025-03-08 12:24:44.311,-0.00039272709030886715,4.233623529137791
2025-03-08 12:24:44.319,-0.00041842140191475824,4.619297856492899
2025-03-08 12:24:44.326,-0.00044753834073884955,5.022021407555279
2025-03-08 12:24:44.334,-0.0004798155508863557,5.44390851764217
2025-03-08 12:24:44.342,-0.0005148873413728125,5.886943763382734
2025-03-08 12:24:44.350,-0.000552291872160322,6.352902581584899
2025-03-08 12:24:44.358,-0.0005914818021563677,6.843256394950569
2025-03-08 12:24:44.366,-0.0006318377209926358,7.359066642629325
2025-03-08 12:24:44.373,-0.0006726835330451202,7.900872921954
2025-03-08 12:24:44.381,-0.0007133029515639834,8.468581026834885
2025-03-08 12:24:44.389,-0.0007529563882872116,9.061356995730101
2025-03-08 12:24:44.397,-0.0007908977283260945,9.67753334514892
2025-03-08 12:24:44.405,-0.0008263906737752288,10.314533458204572
2025-03-08 12:24:44.412,-0.0008587244572273061,10.96881962233577
2025-03-08 12:24:44.420,-0.0008872287620941972,11.635869473746727
2025-03-08 12:24:44.428,-0.000911287675698033,12.310184628403418
2025-03-08 12:24:44.436,-0.0009303524765539279,12.985334096422093
2025-03-08 12:24:44.444,-0.0009439530339089024,13.654033738606227
2025-03-08 12:24:44.451,-0.0009517075810896719,14.30826159031481
2025-03-08 12:24:44.459,-0.0009533306189455526,14.939407412745167
2025-03-08 12:24:44.467,-0.0009486387161968568,15.538453398418504
2025-03-08 12:24:44.475,-0.0009375540042605501,16.096181612184033
2025-03-08 12:24:44.483,-0.0009201052175890966,16.603402534489245
2025-03-08 12:24:44.491,-0.0008964262021368083,17.05119802138238
2025-03-08 12:24:44.498,-0.0008667518943103898,17.43117113518654
2025-03-08 12:24:44.506,-0.0008314118618731371,17.735694670331778
2025-03-08 12:24:44.514,-0.0007908216105545505,17.95814985260663
2025-03-08 12:24:44.522,-0.0007454719871339527,18.09314668198719
2025-03-08 12:24:44.530,-0.0006959171064079495,18.13671776060377
2025-03-08 12:24:44.537,-0.0006427612610919512,18.08647821371509
2025-03-08 12:24:44.545,-0.000586645256468278,17.94174545681095
2025-03-08 12:24:44.553,-0.0005282325839886704,17.70361403801598
2025-03-08 12:24:44.561,-0.00046819582386928564,17.374982513354627
2025-03-08 12:24:44.569,-0.00040720363611641125,16.96053118953964
2025-03-08 12:24:44.576,-0.00034590865686566177,16.46665147591277
2025-03-08 12:24:44.584,-0.0002849365646928526,15.901329404592582
2025-03-08 12:24:44.592,-0.00022487652156004184,15.273987501815231
2025-03-08 12:24:44.600,-0.0001662731348891509,14.595290547109554
2025-03-08 12:24:44.608,-0.00010962004623289952,13.876921794864819
2025-03-08 12:24:44.616,-5.535522588259068e-05,13.13133693798779
2025-03-08 12:24:44.623,-3.858016947983764e-06,12.371503469768212
2025-03-08 12:24:44.631,4.455209611777415e-05,11.610633164437143
2025-03-08 12:24:44.639,8.961512200058207e-05,10.861915172559073
2025-03-08 12:24:44.647,0.0001311288411230307,10.138256743668425
2025-03-08 12:24:44.655,0.00016894606177803836,9.452037882732286
2025-03-08 12:24:44.662,0.00020297123474364274,8.814885362433051
2025-03-08 12:24:44.670,0.00023315680307603657,8.237470492522688
2025-03-08 12:24:44.678,0.00025949961093637013,7.729333929912165
2025-03-08 12:24:44.686,0.0002820376005394734,7.298739642784706
2025-03-08 12:24:44.694,0.00030084689949505685,6.952558977711516
2025-03-08 12:24:44.701,0.0003160392627723382,6.696184692349251
2025-03-08 12:24:44.709,0.00032775972498881253,6.533473878166872
2025-03-08 12:24:44.717,0.0003361842841189283,6.466717961827465
2025-03-08 12:24:44.725,0.0003415174827548959,6.496637474202334
2025-03-08 12:24:44.733,0.00034398983475318834,6.622399033617143
2025-03-08 12:24:44.741,0.0003438551173449811,6.841652020928483
2025-03-08 12:24:44.748,0.0003413875933384433,7.150582734596521
2025-03-08 12:24:44.756,0.00033687923570152037,7.543984381139211
2025-03-08 12:24:44.764,0.0003306369863777518,8.01534200840727
2025-03-08 12:24:44.772,0.00032297999935755936,8.556932301291768
2025-03-08 12:24:44.780,0.0003142367256534288,9.159938870981255
2025-03-08 12:24:44.787,0.00030474163407371663,9.814584114775265
2025-03-08 12:24:44.795,0.0002948313627501552,10.510278773343966
2025-03-08 12:24:44.803,0.0002848401794159678,11.235789905544852
2025-03-08 12:24:44.811,0.0002750947681446143,11.979427164348893
2025-03-08 12:24:44.819,0.0002659084979440509,12.7292460967629
2025-03-08 12:24:44.826,0.00025757541507209157,13.47326585982867
2025-03-08 12:24:44.834,0.000250364224421907,14.199697409047472
2025-03-08 12:24:44.842,0.0002445125070137393,14.89717702107117
2025-03-08 12:24:44.850,0.00024022139431484197,15.55499906766426
2025-03-08 12:24:44.858,0.0002376509097328654,16.163341326525096
2025-03-08 12:24:44.866,0.00023691619334194916,16.713475820048124
2025-03-08 12:24:44.873,0.00023808482572637926,17.197958212685155
2025-03-08 12:24:44.881,0.00024117543706619142,17.610789157751018
2025-03-08 12:24:44.889,0.0002461577281922627,17.947541648510345
2025-03-08 12:24:44.897,0.00025295396495983306,18.20544937261471
2025-03-08 12:24:44.905,0.00026144195803466566,18.383452256459694
2025-03-08 12:24:44.912,0.0002714595073000942,18.482196765056177
2025-03-08 12:24:44.920,0.00028281025202063763,18.503990032788685
2025-03-08 12:24:44.928,0.0002952708017120687,18.452708478553742
2025-03-08 12:24:44.936,0.00030859893105607316,18.33366314307328
2025-03-08 12:24:44.944,0.0003225425383013266,18.153425510940394
2025-03-08 12:24:44.951,0.0003368490267544881,17.91961897439933
2025-03-08 12:24:44.959,0.0003512747739604048,17.640682290116544
2025-03-08 12:24:44.967,0.0003655943600946213,17.325612314361415
2025-03-08 12:24:44.975,0.000379609199841614,16.983693933609526
2025-03-08 12:24:44.983,0.00039315518476538475,16.624225417903222
2025-03-08 12:24:44.991,0.00040610895496944344,16.25624742225243
2025-03-08 12:24:44.998,0.00041839250143259327,15.888283579977381
2025-03-08 12:24:45.006,0.00042997591779786514,15.528100116551313
2025-03-08 12:24:45.014,0.0004408782257206232,15.182491205965551
2025-03-08 12:24:45.022,0.0004511662790776311,14.857095924276116
2025-03-08 12:24:45.030,0.00046095182925802274,14.556251645672573
2025-03-08 12:24:45.037,0.0004703869264153743,14.282887591836456
2025-03-08 12:24:45.045,0.0004796579381101276,14.038461008865834
2025-03-08 12:24:45.053,0.000488978563479176,13.82293714002699
2025-03-08 12:24:45.061,0.0004985822810411983,13.63481282719883
2025-03-08 12:24:45.069,0.0005087146802952994,13.471182256451861
2025-03-08 12:24:45.077,0.0005196260914255567,13.327842117868906
2025-03-08 12:24:45.084,0.0005315648451481768,13.199432333774867
2025-03-08 12:24:45.092,0.0005447713786252721,13.079607575515151
2025-03-08 12:24:45.100,0.0005594732815537173,12.96123407447137
2025-03-08 12:24:45.108,0.0005758812737525846,12.836605753448875
2025-03-08 12:24:45.116,0.00059418602598224,12.697673450496819
2025-03-08 12:24:45.123,0.0006145556693311091,12.53628094681444
2025-03-08 12:24:45.131,0.0006371337859761958,12.344401597697503
2025-03-08 12:24:45.139,0.0006620376582132489,12.114369555447224
2025-03-08 12:24:45.147,0.0006893565945743786,11.839099836701209
2025-03-08 12:24:45.155,0.0007191502460733833,11.512291814039877
2025-03-08 12:24:45.162,0.0007514469433317925,11.128611103201349
2025-03-08 12:24:45.170,0.0007862421902008695,10.683845273887744
2025-03-08 12:24:45.178,0.0008234975185486324,10.175029337833124
2025-03-08 12:24:45.186,0.0008631399480584411,9.60053757443249
2025-03-08 12:24:45.194,0.0009050623127498008,8.960138956134333
2025-03-08 12:24:45.202,0.0009491246875825117,8.25501423634506
2025-03-08 12:24:45.209,0.0009951570458507275,7.48773365048734
2025-03-08 12:24:45.217,0.001042963126262185,6.662195141667345
2025-03-08 12:24:45.225,0.0010923253488480684,5.783524050317165
2025-03-08 12:24:45.233,0.0011430105243534496,4.857936301189096
2025-03-08 12:24:45.241,0.0011947760418352922,3.892568269095696
2025-03-08 12:24:45.248,0.0012473761739285035,2.89527767401679
2025-03-08 12:24:45.256,0.0013005681079672209,1.8744209997060564
2025-03-08 12:24:45.264,0.0013541173141534348,0.8386139981488009
2025-03-08 12:24:45.272,0.0014078019201915716,-0.20351721622930577
2025-03-08 12:24:45.280,0.0014614158716386766,-1.2435862246476999
2025-03-08 12:24:45.287,0.001514770790585014,-2.27368876198284
2025-03-08 12:24:45.295,0.0015676965734624344,-3.2866286618932623
2025-03-08 12:24:45.303,0.0016200408764787796,-4.276118612671448
2025-03-08 12:24:45.311,0.0016716677181630977,-5.236947720015604
2025-03-08 12:24:45.319,0.0017224554792804924,-6.165108987909415
2025-03-08 12:24:45.327,0.0017722945986239323,-7.057881354074942
2025-03-08 12:24:45.334,0.0018210852478322613,-7.913862781831894
2025-03-08 12:24:45.342,0.0018687352195899802,-8.732953014193576
2025-03-08 12:24:45.350,0.0019151581843757574,-9.516286816977455
2025-03-08 12:24:45.358,0.0019602723736535633,-10.266120744663954
2025-03-08 12:24:45.366,0.0020039996580450132,-10.985678524519413
2025-03-08 12:24:45.373,0.0020462649332851145,-11.678961948770285
2025-03-08 12:24:45.381,0.0020869957079368653,-12.350535589241678
2025-03-08 12:24:45.389,0.0021261217922024216,-13.005294634044796
2025-03-08 12:24:45.397,0.0021635750161342576,-13.64822566057778
2025-03-08 12:24:45.405,0.0021992889680593148,-14.284170207039885
2025-03-08 12:24:45.412,0.0022331988260000557,-14.917600614384028
2025-03-08 12:24:45.420,0.002265241408977465,-15.552416828089761
2025-03-08 12:24:45.428,0.0022953555632120913,-16.191771735073807
2025-03-08 12:24:45.436,0.0023234829336559655,-16.837931238035402
2025-03-08 12:24:45.444,0.002349569100197588,-17.492173713241833
2025-03-08 12:24:45.452,0.002373565007241317,-18.15473182507995
2025-03-08 12:24:45.459,0.00239542858370913,-18.824777936080025
2025-03-08 12:24:45.467,0.0024151264389286648,-19.500452606433615
2025-03-08 12:24:45.475,0.002432635531956007,-20.17893398174638
2025-03-08 12:24:45.483,0.0024479447243604497,-20.856544285754627
2025-03-08 12:24:45.491,0.0024610561031499344,-21.528888224211055
2025-03-08 12:24:45.498,0.002471985903994313,-22.191016916323132
2025-03-08 12:24:45.506,0.002480764823139555,-22.837610045024928
2025-03-08 12:24:45.514,0.0024874375251994194,-23.46316829936603
2025-03-08 12:24:45.522,0.0024920612410743136,-24.06220791120276
2025-03-08 12:24:45.530,0.0024947034716214607,-24.629449194541618
2025-03-08 12:24:45.537,0.002495438910311957,-25.159991488583895
2025-03-08 12:24:45.545,0.0024943457326520057,-25.649467762633446
2025-03-08 12:24:45.553,0.002491501393218715,-26.094173307671827
2025-03-08 12:24:45.561,0.0024869780881230418,-26.49116433571368
2025-03-08 12:24:45.569,0.0024808381165392695,-26.838323840373388
2025-03-08 12:24:45.577,0.0024731294705506277,-27.134393644651762
2025-03-08 12:24:45.584,0.0024638820269720567,-27.378973088817908
2025-03-08 12:24:45.592,0.002453104672950295,-27.572486223679867
2025-03-08 12:24:45.600,0.0024407835826162766,-27.716120619377545
2025-03-08 12:24:45.608,0.0024268817090301455,-27.811741933140635
2025-03-08 12:24:45.616,0.002411339402903073,-27.861789163957532
2025-03-08 12:24:45.623,0.0023940759558246784,-27.869156030100022
2025-03-08 12:24:45.631,0.0023749918168069492,-27.837064122188917
2025-03-08 12:24:45.639,0.002353971247502035,-27.768933410033327
2025-03-08 12:24:45.647,0.002330885238904878,-27.668255333465638
2025-03-08 12:24:45.655,0.0023055945749696992,-27.538473124284046
2025-03-08 12:24:45.662,0.0022779529703454275,-27.38287324687675
2025-03-08 12:24:45.670,0.002247810228122027,-27.20449098185564
2025-03-08 12:24:45.678,0.002215015377413999,-27.006032287480295
2025-03-08 12:24:45.686,0.002179419771965823,-26.78981322913539
2025-03-08 12:24:45.694,0.002140880137645543,-26.5577175222682
2025-03-08 12:24:45.702,0.0020992615143271163,-26.311172119857133
2025-03-08 12:24:45.709,0.002054439957872466,-26.051140298280128
2025-03-08 12:24:45.717,0.0020063048127600255,-25.77813134351886
2025-03-08 12:24:45.725,0.0019547603820146797,-25.49222569070295
2025-03-08 12:24:45.733,0.0018997268972410545,-25.193114196960355
2025-03-08 12:24:45.741,0.001841140789945751,-24.88015009996746
2025-03-08 12:24:45.748,0.001778954363675957,-24.552412099364723
2025-03-08 12:24:45.756,0.0017131350507476428,-24.20877686361548
2025-03-08 12:24:45.764,0.0016436644810233743,-23.84799908829011
2025-03-08 12:24:45.772,0.0015705375700826845,-23.468797006571453
2025-03-08 12:24:45.780,0.00149376175382855,-23.069940990803115
2025-03-08 12:24:45.787,0.0014133563848115086,-22.65034261113402
2025-03-08 12:24:45.795,0.0013293522085285293,-22.209141265080202
2025-03-08 12:24:45.803,0.0012417908061699294,-21.745785289188234
2025-03-08 12:24:45.811,0.0011507239391896921,-21.260104335458205
2025-03-08 12:24:45.819,0.0010562128160635181,-20.75236976261437
2025-03-08 12:24:45.827,0.0009583273620417774,-20.223339878439425
2025-03-08 12:24:45.834,0.0008571455976923349,-19.674287101341427
2025-03-08 12:24:45.842,0.0007527532542680635,-19.107004518811603
2025-03-08 12:24:45.850,0.0006452437850277974,-18.523789936799677
2025-03-08 12:24:45.858,0.0005347189355930054,-17.92740635115865
2025-03-08 12:24:45.866,0.0004212899716948845,-17.321018816947205
2025-03-08 12:24:45.873,0.0003050795325890893,-16.708108899019557
2025-03-08 12:24:45.881,0.0001862239327175231,-16.092369184064715
2025-03-08 12:24:45.889,6.4875624826572e-05,-15.477581621390446
2025-03-08 12:24:45.897,-5.8794518884470045e-05,-14.86748462270688
2025-03-08 12:24:45.905,-0.00018459546327163906,-14.2656347750269
2025-03-08 12:24:45.912,-0.00031231512661961905,-13.675269609855201
2025-03-08 12:24:45.920,-0.0004417205872175601,-13.09917806633062
2025-03-08 12:24:45.928,-0.0005725594660645511,-12.539585069292587
2025-03-08 12:24:45.936,-0.0007045624118811658,-11.9980560370588
2025-03-08 12:24:45.944,-0.0008374464904140915,-11.475426185717748
2025-03-08 12:24:45.952,-0.0009709192280607378,-10.971758269958595
2025-03-08 12:24:45.959,-0.0011046830832819859,-10.486330969327128
2025-03-08 12:24:45.967,-0.0012384401925809622,-10.017658577886271
2025-03-08 12:24:45.975,-0.0013718973256633654,-9.563541074580323
2025-03-08 12:24:45.983,-0.0015047710511199536,-9.121142130705298
2025-03-08 12:24:45.991,-0.0016367931331500575,-8.687091236037265
2025-03-08 12:24:45.998,-0.0017677161515171377,-8.25760497655673
2025-03-08 12:24:46.006,-0.001897319285960893,-7.828621641728031
2025-03-08 12:24:46.014,-0.002025414157005756,-7.395942824805751
2025-03-08 12:24:46.022,-0.0021518505708106126,-6.955375528178931
2025-03-08 12:24:46.030,-0.0022765219585725474,-6.502868496154195
2025-03-08 12:24:46.037,-0.0023993702139166084,-6.034637047084634
2025-03-08 12:24:46.045,-0.002520389529851834,-5.547271522784629
2025-03-08 12:24:46.053,-0.0026396287720045564,-5.037825555180358
2025-03-08 12:24:46.061,-0.0027571919474718687,-4.503881593569042
2025-03-08 12:24:46.069,-0.002873236448641528,-3.943592457544699
2025-03-08 12:24:46.077,-0.0029879689358400722,-3.3556989931442893
2025-03-08 12:24:46.084,-0.0031016389216882386,-2.7395251263157445
2025-03-08 12:24:46.092,-0.0032145302958802554,-2.0949526519174775
2025-03-08 12:24:46.100,-0.0033269511740064216,-1.4223789121404258
2025-03-08 12:24:46.108,-0.0034392225773364317,-0.7226610731095084
2025-03-08 12:24:46.116,-0.003551666547207214,0.002949010010797437
2025-03-08 12:24:46.123,-0.003664594342141695,0.7528753365463414
2025-03-08 12:24:46.131,-0.0037782953353902916,1.5252899429652025
2025-03-08 12:24:46.139,-0.0038930271259360045,2.3181833878543845
2025-03-08 12:24:46.147,-0.004009007222827127,3.1294307665468266
2025-03-08 12:24:46.155,-0.0041264064977177,3.956851102302626
2025-03-08 12:24:46.162,-0.004245344452210795,4.7982585711594075
2025-03-08 12:24:46.170,-0.004365886227787456,5.6515045781199635
2025-03-08 12:24:46.178,-0.0044880411999186605,6.514510199263366
2025-03-08 12:24:46.186,-0.004611762944419361,7.385288942538446
2025-03-08 12:24:46.194,-0.004736950341820703,8.261960172724272
2025-03-08 12:24:46.202,-0.004863449591837687,9.142753906888297
2025-03-08 12:24:46.209,-0.004991056941111342,10.026008025106082
2025-03-08 12:24:46.217,-0.005119521978603672,10.910159259166466
2025-03-08 12:24:46.225,-0.005248551418910265,11.793729608641234
2025-03-08 12:24:46.233,-0.00537781336681526,12.675310061339598
2025-03-08 12:24:46.241,-0.005506942120828161,13.553543623305146
2025-03-08 12:24:46.248,-0.005635543600844211,14.427109652859583
2025-03-08 12:24:46.256,-0.005763201450306814,15.294711321390228
2025-03-08 12:24:46.264,-0.005889483774663494,16.15506769315212
2025-03-08 12:24:46.272,-0.006013950381921291,17.00691145362411
2025-03-08 12:24:46.280,-0.006136160334688541,17.84899276612085
2025-03-08 12:24:46.287,-0.00625567961617767,18.680089159014663
2025-03-08 12:24:46.295,-0.00637208873267596,19.499020809079003
2025-03-08 12:24:46.303,-0.006484990097076063,20.304670154690374
2025-03-08 12:24:46.311,-0.00659401505059075,21.09600449083324
2025-03-08 12:24:46.319,-0.006698830380013212,21.87210007910855
2025-03-08 12:24:46.327,-0.006799144175531535,22.63216633014464
2025-03-08 12:24:46.334,-0.0068947108496893615,23.375568739863066
2025-03-08 12:24:46.342,-0.006985335104536722,24.101849435508658
2025-03-08 12:24:46.350,-0.007070874603044485,24.810744370876854
2025-03-08 12:24:46.358,-0.007151241097338611,25.502196375871694
2025-03-08 12:24:46.366,-0.007226399814268493,26.17636340070622
2025-03-08 12:24:46.373,-0.0072963669976676354,26.833621398797735
2025-03-08 12:24:46.381,-0.007361205631144585,27.47456137168372
2025-03-08 12:24:46.389,-0.007421019489108331,28.09998016338326
2025-03-08 12:24:46.397,-0.007475945772049655,28.710864647941165
2025-03-08 12:24:46.405,-0.007526146661977287,29.308369008270958
2025-03-08 12:24:46.412,-0.0075718001700382995,29.89378486590626
2025-03-08 12:24:46.420,-0.007613090639796427,30.468504106954565
2025-03-08 12:24:46.428,-0.00765019923956661,31.033974383089024
2025-03-08 12:24:46.436,-0.007683294747558053,31.591647467988906
2025-03-08 12:24:46.444,-0.007712524896590275,32.142920925040364
2025-03-08 12:24:46.452,-0.0077380084766559025,32.689073882864264
2025-03-08 12:24:46.459,-0.007759828296313343,33.23119810888424
2025-03-08 12:24:46.467,-0.007778025023566542,33.77012600741233
2025-03-08 12:24:46.475,-0.007792591909962627,34.30635763398983
2025-03-08 12:24:46.483,-0.007803470444669081,34.8399892865766
2025-03-08 12:24:46.491,-0.007810547040015941,35.37064666965157
2025-03-08 12:24:46.498,-0.007813650869151319,35.897425989523256
2025-03-08 12:24:46.506,-0.007812552954728753,36.41884659326254
2025-03-08 12:24:46.514,-0.007806966585009348,36.93281887990102
2025-03-08 12:24:46.522,-0.007796549145616116,37.43663116058946
2025-03-08 12:24:46.530,-0.007780905484868186,37.92695888881846
2025-03-08 12:24:46.537,-0.007759592938177246,38.399899183715455
