Timestamp,ECG_test1_ECGtoHR_LA_RA_CAL,Lead I (LA-RA),Lead II (LL-LA),Lead III (LL-RA),Vx-RL,FMSQ
2025-03-08 12:31:15.501,94.8148148148148,-0.0665064849928454,-0.0492429262575243,-0.1157492989114966,-1.4859954666404573e-07,9
2025-03-08 12:31:15.503,94.8148148148148,-0.0665130632025231,-0.0484850518519225,-0.1149980020222485,-1.4817855891020965e-07,9
2025-03-08 12:31:15.505,94.8148148148148,-0.0667479579804025,-0.0477227395415637,-0.1144705838215417,-1.4774970303201993e-07,9
2025-03-08 12:31:15.507,94.8148148148148,-0.0671868212313117,-0.0469767530832736,-0.1141634599584496,-1.473130474419639e-07,9
2025-03-08 12:31:15.509,94.8148148148148,-0.0676509175047187,-0.0463317678549985,-0.1139825703407877,-1.468686609294087e-07,9
2025-03-08 12:31:15.511,94.8148148148148,-0.0679154138116744,-0.0459516002858529,-0.1138668983916963,-1.4641660999776425e-07,9
2025-03-08 12:31:15.513,94.8148148148148,-0.0678234437744177,-0.0460362851689623,-0.113859612520183,-1.4595695724392912e-07,9
2025-03-08 12:31:15.515,94.8148148148148,-0.0673753918532703,-0.0467239737133755,-0.1140992484026818,-1.45489761368388e-07,9
2025-03-08 12:31:15.517,94.8148148148148,-0.0667639060512889,-0.0479770656038601,-0.11474085374376,-1.450150787814259e-07,9
2025-03-08 12:31:15.519,94.8148148148148,-0.0663151783736252,-0.0495226086015546,-0.1158376683278978,-1.445329657793923e-07,9
2025-03-08 12:31:15.521,94.8148148148148,-0.0663327829961636,-0.0509112368924344,-0.1172439005279489,-1.44043479738293e-07,9
2025-03-08 12:31:15.523,94.8148148148148,-0.0669195906294189,-0.0516993871148434,-0.1186188576916435,-1.4354667839569994e-07,9
2025-03-08 12:31:15.525,94.8148148148148,-0.0678942699421949,-0.0516738031924539,-0.1195679523991878,-1.430426177473674e-07,9
2025-03-08 12:31:15.526,94.8148148148148,-0.0688633413961925,-0.0509879886184011,-0.1198512085882005,-1.425313501441142e-07,9
2025-03-08 12:31:15.528,94.8148148148148,-0.0694031454118645,-0.0501156042507082,-0.1195186275232609,-1.42012923919444e-07,9
2025-03-08 12:31:15.530,94.8148148148148,-0.0692458325995209,-0.0496312766276491,-0.1188769863487443,-1.4148738463634368e-07,9
2025-03-08 12:31:15.532,94.8148148148148,-0.0683844270426371,-0.0499323593025919,-0.118316662708546,-1.4095477694750065e-07,9
2025-03-08 12:31:15.534,94.8148148148148,-0.0670636259785228,-0.051049833462259,-0.1181133350412815,-1.40415145950009e-07,9
2025-03-08 12:31:15.536,94.8148148148148,-0.0656597264870907,-0.052648555892851,-0.118308157228146,-1.3986853766896508e-07,9
2025-03-08 12:31:15.538,94.8148148148148,-0.0644920398524841,-0.054210402914452,-0.118702316882028,-1.3931499908150153e-07,9
2025-03-08 12:31:15.540,94.8148148148148,-0.0636653693018512,-0.0552833071668835,-0.1189485498685075,-1.38754578192911e-07,9
2025-03-08 12:31:15.542,94.8148148148148,-0.0630596223743184,-0.0556463081726017,-0.1187058032388628,-1.3818732422460704e-07,9
2025-03-08 12:31:15.544,94.8148148148148,-0.0624898715756793,-0.0553217186530505,-0.1178114622062274,-1.3761328762889365e-07,9
2025-03-08 12:31:15.546,94.8148148148148,-0.0619137576457737,-0.0544860485444583,-0.116399677435314,-1.370325197638276e-07,9
2025-03-08 12:31:15.548,94.8148148148148,-0.0615153287390074,-0.0533739263901482,-0.1148891256202036,-1.364450724117703e-07,9
2025-03-08 12:31:15.550,94.8148148148148,-0.061601430113518,-0.0522110199575371,-0.1138123197917675,-1.3585099750886532e-07,9
2025-03-08 12:31:15.552,94.8148148148148,-0.0623943624338228,-0.0511532498018868,-0.1135474811812964,-1.3525034733817945e-07,9
2025-03-08 12:31:15.554,94.8148148148148,-0.0638616528725654,-0.0502348602449087,-0.1140963812955228,-1.3464317514915405e-07,9
2025-03-08 12:31:15.556,94.8148148148148,-0.065679329233276,-0.0493795574995669,-0.1150587541587768,-1.340295358368525e-07,9
2025-03-08 12:31:15.558,94.8148148148148,-0.0673403100885196,-0.0484986604047339,-0.115838837182645,-1.3340948611309016e-07,9
2025-03-08 12:31:15.560,94.8148148148148,-0.0683422841933726,-0.0476094154593236,-0.1159515656138999,-1.3278308374530716e-07,9
2025-03-08 12:31:15.562,94.8148148148148,-0.0683563393712876,-0.0468775914588345,-0.1152337960603401,-1.321503859206537e-07,9
2025-03-08 12:31:15.564,94.8148148148148,-0.0673121150147508,-0.0465558412878182,-0.1138678207888297,-1.315114472809117e-07,9
2025-03-08 12:31:15.566,94.8148148148148,-0.0654039871339398,-0.0468639454142758,-0.1122677962726242,-1.3086631829689849e-07,9
2025-03-08 12:31:15.567,94.8148148148148,-0.0630554639602484,-0.0478712767665799,-0.1109266036737325,-1.3021504434704936e-07,9
2025-03-08 12:31:15.569,94.8148148148148,-0.060850432501043,-0.0494202382427102,-0.1102705329058087,-1.2955766547559624e-07,9
2025-03-08 12:31:15.571,94.8148148148148,-0.059401148853738,-0.0511138789977514,-0.1105148892321761,-1.2889421670985128e-07,9
2025-03-08 12:31:15.573,94.8148148148148,-0.0591430976879422,-0.0523855491084777,-0.1115285074080563,-1.282247289448153e-07,9
2025-03-08 12:31:15.575,94.8148148148148,-0.0601273142150869,-0.0526582281510111,-0.1127854022242071,-1.2754923034763946e-07,9
2025-03-08 12:31:15.577,94.8148148148148,-0.0619424169625379,-0.0515669507421776,-0.1135092268210436,-1.2686774784666084e-07,9
2025-03-08 12:31:15.579,94.8148148148148,-0.0638645369880433,-0.0491591535652893,-0.1130235489303728,-1.2618030794565192e-07,9
2025-03-08 12:31:15.581,94.8148148148148,-0.0652021562110667,-0.0459547678169273,-0.1111567816573201,-1.2548693641295664e-07,9
2025-03-08 12:31:15.583,94.8148148148148,-0.0656543789385988,-0.0427934079259895,-0.108447643729821,-1.247876573568864e-07,9
2025-03-08 12:31:15.585,94.8148148148148,-0.0654535962602376,-0.0405003578554538,-0.1059538101990354,-1.240824929935345e-07,9
2025-03-08 12:31:15.587,94.8148148148148,-0.0651809937028052,-0.0395044644872273,-0.1046853134797463,-1.2337146515941318e-07,9
2025-03-08 12:31:15.589,94.8148148148148,-0.0653575883329996,-0.0395953322757583,-0.1049527751043462,-1.226545983900401e-07,9
2025-03-08 12:31:15.591,94.8148148148148,-0.0660722982562979,-0.039971756796511,-0.1060439087654913,-1.2193192314712914e-07,9
2025-03-08 12:31:15.593,94.8148148148148,-0.066900285433228,-0.0395914798999429,-0.1064916182811015,-1.212034774758991e-07,9
2025-03-08 12:31:15.595,94.8148148148148,-0.0671830240559482,-0.0376706913130421,-0.104853567569037,-1.2046930618951956e-07,9
2025-03-08 12:31:15.597,94.8148148148148,-0.0664911233891094,-0.0341174165528943,-0.1006083914016244,-1.1972945797525557e-07,9
2025-03-08 12:31:15.599,94.8148148148148,-0.0649515739421013,-0.0297122797643088,-0.0946637044194164,-1.189839816974652e-07,9
2025-03-08 12:31:15.601,94.8148148148148,-0.063214817962046,-0.0259101083381779,-0.0891247762487081,-1.182329231708544e-07,9
2025-03-08 12:31:15.603,94.8148148148148,-0.0620949848699433,-0.0242592645404315,-0.0863540985723274,-1.1747632305476237e-07,9
2025-03-08 12:31:15.605,94.8148148148148,-0.062128828049049,-0.0256616179873375,-0.0877902943957678,-1.1671421592930482e-07,9
2025-03-08 12:31:15.607,94.8148148148148,-0.063313191614268,-0.0298807655388748,-0.0931938047077335,-1.1594663043642361e-07,9
2025-03-08 12:31:15.609,94.8148148148148,-0.0651323781789019,-0.0356212346168222,-0.1007534595588136,-1.1517359041956905e-07,9
2025-03-08 12:31:15.610,94.8148148148148,-0.0668224231664666,-0.041142338608519,-0.1079646077696804,-1.1439511693027217e-07,9
2025-03-08 12:31:15.612,94.8148148148148,-0.0677284027850463,-0.0450264597126619,-0.1127547077461823,-1.1361123073735413e-07,9
2025-03-08 12:31:15.614,94.8148148148148,-0.0675905180517704,-0.0466745942401775,-0.1142649568045997,-1.1282195480343905e-07,9
2025-03-08 12:31:15.616,94.8148148148148,-0.0666364475109387,-0.0463352032254182,-0.1129714945061954,-1.1202731627147825e-07,9
2025-03-08 12:31:15.618,94.8148148148148,-0.0654564255060907,-0.0447513540737938,-0.1102076225851976,-1.1122734772048586e-07,9
2025-03-08 12:31:15.620,94.8148148148148,-0.0647390042867693,-0.0426706948244091,-0.1074095413255934,-1.1042208759242425e-07,9
2025-03-08 12:31:15.622,94.8148148148148,-0.0649849473277754,-0.0404913246322275,-0.1054761133653269,-1.0961157980066673e-07,9
2025-03-08 12:31:15.624,94.8148148148148,-0.0662982527030246,-0.0382255752198632,-0.1045236685184951,-1.0879587273895149e-07,9
2025-03-08 12:31:15.626,94.8148148148148,-0.0683243496505139,-0.0357608977502012,-0.1040850872046718,-1.0797501809368683e-07,9
2025-03-08 12:31:15.628,94.8148148148148,-0.0703775294748994,-0.0331905523180992,-0.1035679208340143,-1.07149069792711e-07,9
2025-03-08 12:31:15.630,94.8148148148148,-0.0717422564307766,-0.0309462608742805,-0.1026883556088985,-1.0631808317984277e-07,9
2025-03-08 12:31:15.632,94.8148148148148,-0.0720349572450268,-0.0296336014370805,-0.1016683962590211,-1.0548211438013549e-07,9
2025-03-08 12:31:15.634,94.8148148148148,-0.0714299982464492,-0.0297043363866066,-0.1011341714725036,-1.046412198836046e-07,9
2025-03-08 12:31:15.636,94.8148148148148,-0.0705853030089455,-0.031206603537322,-0.1017917426218457,-1.037954564554344e-07,9
2025-03-08 12:31:15.638,94.8148148148148,-0.0702820478051779,-0.0337647865387591,-0.1040466696263571,-1.0294488145725097e-07,9
2025-03-08 12:31:15.640,94.8148148148148,-0.0709972127569869,-0.0367592793482401,-0.1077563265771218,-1.020895535237861e-07,9
2025-03-08 12:31:15.642,94.8148148148148,-0.0726742777315737,-0.0395662002668499,-0.1122403116636405,-1.0122953333162016e-07,9
2025-03-08 12:31:15.644,94.8148148148148,-0.0748023213439608,-0.0417369977320589,-0.1165391519586147,-1.0036488407035981e-07,9
2025-03-08 12:31:15.646,94.8148148148148,-0.0767054944314629,-0.0430726701262587,-0.1197779966909007,-9.949567136398937e-08,9
2025-03-08 12:31:15.648,94.8148148148148,-0.0778571528878427,-0.0435894637040102,-0.1214464480021525,-9.862196277324633e-08,9
2025-03-08 12:31:15.650,94.8148148148148,-0.0780861353941271,-0.0433884798523372,-0.1214744459409667,-9.774382735071993e-08,9
2025-03-08 12:31:15.651,94.8148148148148,-0.077623477799503,-0.0424978662741797,-0.1201211740367078,-9.686133575463865e-08,9
2025-03-08 12:31:15.653,94.8148148148148,-0.0769755099697901,-0.0408385466256317,-0.1178138857965201,-9.597456113672109e-08,9
2025-03-08 12:31:15.655,94.8148148148148,-0.0766535490073166,-0.0384289785983884,-0.1150823560151556,-9.508358055034055e-08,9
2025-03-08 12:31:15.657,94.8148148148148,-0.0768827804136783,-0.0357162502809143,-0.1125988582987968,-9.418847622452268e-08,9
2025-03-08 12:31:15.659,94.8148148148148,-0.0774716480510946,-0.0336954059954722,-0.1111668808556639,-9.328933596501829e-08,9
2025-03-08 12:31:15.661,94.8148148148148,-0.0779443679474601,-0.0335597442068277,-0.1115039381980946,-9.238625221305866e-08,9
2025-03-08 12:31:15.663,94.8148148148148,-0.0778620805567126,-0.0360187436120307,-0.1138806494828943,-9.14793197719089e-08,9
2025-03-08 12:31:15.665,94.8148148148148,-0.0771326486069297,-0.0407540476676382,-0.1178865208836463,-9.056863272109745e-08,9
2025-03-08 12:31:15.667,94.8148148148148,-0.0761190804320116,-0.0464273165689719,-0.1225462209070059,-8.965428134270175e-08,9
2025-03-08 12:31:15.669,94.8148148148148,-0.0754670527284391,-0.0512793934205211,-0.1267462693309994,-8.87363497916136e-08,9
2025-03-08 12:31:15.671,94.8148148148148,-0.0757287364665553,-0.0539810332470051,-0.1297095921387975,-8.781491483975049e-08,9
2025-03-08 12:31:15.673,94.8148148148148,-0.0770088145435235,-0.0542384285346072,-0.1312470647189381,-8.68900456539897e-08,9
2025-03-08 12:31:15.675,94.8148148148148,-0.0788842090690477,-0.0528009312322056,-0.1316849611498636,-8.596180449482635e-08,9
2025-03-08 12:31:15.677,94.8148148148148,-0.0806726077090968,-0.0509045373967149,-0.1315769651792613,-8.5030248380336e-08,9
2025-03-08 12:31:15.679,94.8148148148148,-0.0818662860925258,-0.0495537977597709,-0.1314199031851158,-8.409543182156857e-08,9
2025-03-08 12:31:15.681,94.8148148148148,-0.0824313578342639,-0.0490949902547879,-0.1315261667172488,-8.315741040659778e-08,9
2025-03-08 12:31:15.683,94.8148148148148,-0.0827792374722183,-0.0492554668592659,-0.1320345222757263,-8.221624437571865e-08,9
2025-03-08 12:31:15.685,94.8148148148148,-0.0834452992448453,-0.049506072613606,-0.1329511891147962,-8.127200094741735e-08,9
2025-03-08 12:31:15.687,94.8148148148148,-0.0847105966581154,-0.0494698270993524,-0.1341802403003031,-8.032475453928685e-08,9
2025-03-08 12:31:15.689,94.8148148148148,-0.086444928500695,-0.0491426507974948,-0.1355873950939959,-7.937458499981963e-08,9
2025-03-08 12:31:15.691,94.8148148148148,-0.0882715799468687,-0.0488352004404682,-0.137106595412488,-7.842157477963888e-08,9
2025-03-08 12:31:15.693,94.8148148148148,-0.0898794239782905,-0.0489280065053369,-0.1388072447373916,-7.7465806128621e-08,9
2025-03-08 12:31:15.694,94.8148148148148,-0.0911971084173653,-0.0496406890830353,-0.1408376110066294,-7.650735907340004e-08,9
2025-03-08 12:31:15.696,94.8148148148148,-0.0923055398078426,-0.0509577308414439,-0.1432630834458851,-7.554631051916917e-08,9
2025-03-08 12:31:15.698,94.8148148148148,-0.0932147845303914,-0.0526972253234931,-0.1459118219752482,-7.458273448861244e-08,9
2025-03-08 12:31:15.700,94.8148148148148,-0.0937273806568871,-0.0546127724791984,-0.1483399645972362,-7.361670317702955e-08,9
2025-03-08 12:31:15.702,94.8148148148148,-0.093514217656774,-0.056446387752061,-0.1499604161992041,-7.264828818870838e-08,9
2025-03-08 12:31:15.704,94.8148148148148,-0.0923676189935635,-0.057930291364627,-0.1502977204482134,-7.167756125391903e-08,9
2025-03-08 12:31:15.706,94.8148148148148,-0.0904791686431676,-0.0587648024774269,-0.1492437804778836,-7.070459403705448e-08,9
2025-03-08 12:31:15.708,94.8148148148148,-0.0885563497978203,-0.0585693600605127,-0.1471255184653637,-6.972945716668288e-08,9
2025-03-08 12:31:15.710,94.8148148148148,-0.0876507211153484,-0.0568094224089517,-0.144459951388734,-6.87522190656809e-08,9
2025-03-08 12:31:15.712,94.8148148148148,-0.0887128232687775,-0.0527894228559117,-0.1415020532771045,-6.777294536836226e-08,9
2025-03-08 12:31:15.714,94.8148148148148,-0.092064461742846,-0.0458559810954219,-0.1379202493183805,-6.679169961502214e-08,9
2025-03-08 12:31:15.716,94.8148148148148,-0.0970825533407433,-0.0358391674783061,-0.1329215266573227,-6.580854546133147e-08,9
2025-03-08 12:31:15.718,94.8148148148148,-0.1023254089408327,-0.0235241936608095,-0.1258494078055458,-6.482354993445436e-08,9
2025-03-08 12:31:15.720,94.8148148148148,-0.1061138377342074,-0.0108111691387557,-0.1169248114248436,-6.383678667698973e-08,9
2025-03-08 12:31:15.722,94.8148148148148,-0.1073215883533276,-0.0003424591628407,-0.1076638513838526,-6.284833802296538e-08,9
2025-03-08 12:31:15.724,94.8148148148148,-0.1059664662113266,0.0053202069954809,-0.10064606237065,-6.18582952131483e-08,9
2025-03-08 12:31:15.726,94.8148148148148,-0.1032291467779962,0.0046304036710612,-0.0985985455399715,-6.086675681971047e-08,9
2025-03-08 12:31:15.728,94.8148148148148,-0.1007993664925825,-0.0022825732014694,-0.1030817414225428,-5.987382612232719e-08,9
2025-03-08 12:31:15.730,94.8148148148148,-0.0998527405523391,-0.0134649652761188,-0.1133175068888204,-5.887960844539614e-08,9
2025-03-08 12:31:15.732,94.8148148148148,-0.1002446732795177,-0.0255293137875817,-0.1257737874982948,-5.7884209259473245e-08,9
2025-03-08 12:31:15.734,94.8148148148148,-0.1004462713188842,-0.0344731690325287,-0.134919240177032,-5.6887733355607854e-08,9
2025-03-08 12:31:15.735,94.8148148148148,-0.0983402047014158,-0.0367586008059842,-0.1350986047256355,-5.589028493102674e-08,9
2025-03-08 12:31:15.737,94.8148148148148,-0.0924765977178072,-0.0304181065175779,-0.1228945028220293,-5.489196822469392e-08,9
2025-03-08 12:31:15.739,94.8148148148148,-0.083067973998622,-0.0158285355779711,-0.098896307499536,-5.3892888414683266e-08,9
2025-03-08 12:31:15.741,94.8148148148148,-0.0720910984039677,0.004257009488828,-0.0678338861529307,-5.2893152623181957e-08,9
2025-03-08 12:31:15.743,94.8148148148148,-0.0623665073003821,0.0256069033160516,-0.0367594005392613,-5.189287085311789e-08,9
2025-03-08 12:31:15.745,94.8148148148148,-0.0561292230598405,0.0440256730327695,-0.0121033459260418,-5.08921564540306e-08,9
2025-03-08 12:31:15.747,94.8148148148148,-0.0539395148667321,0.05674002262134,0.0028007124718717,-4.9891125483965314e-08,9
2025-03-08 12:31:15.749,94.8148148148148,-0.054542018072407,0.062973577719062,0.0084317649459313,-4.888989452255561e-08,9
2025-03-08 12:31:15.751,94.8148148148148,-0.0556560339520088,0.0635886388197074,0.0079328107356377,-4.788857735230594e-08,9
2025-03-08 12:31:15.753,94.8148148148148,-0.0551582664687679,0.0602341484502697,0.0050760884300738,-4.6887282021141954e-08,9
2025-03-08 12:31:15.755,94.8148148148148,-0.0520282628416017,0.0545630957177556,0.0025350399338928,-4.58861101827465e-08,9
2025-03-08 12:31:15.757,94.8148148148148,-0.0466902645556878,0.0478323265620058,0.0011422697009646,-4.4885159708906175e-08,9
2025-03-08 12:31:15.759,94.8148148148148,-0.0407193629998454,0.0408973285989877,0.0001781739407709,-4.3884529800801635e-08,9
2025-03-08 12:31:15.761,94.8148148148148,-0.0361054894974058,0.0344217145405415,-0.0016835659834141,-4.288432631795533e-08,9
2025-03-08 12:31:15.763,94.8148148148148,-0.0343788816813642,0.0290238534982825,-0.0053548186125462,-4.188466470880818e-08,9
2025-03-08 12:31:15.765,94.8148148148148,-0.0359328146876841,0.0251267444792735,-0.0108058600792462,-4.0885668875639605e-08,9
2025-03-08 12:31:15.767,94.8148148148148,-0.0398325041933416,0.0225314455653729,-0.0173008479646966,-3.988746597136961e-08,9
2025-03-08 12:31:15.769,94.8148148148148,-0.0442474556070139,0.0200652449146933,-0.0241819994953964,-3.8890178706456094e-08,9
2025-03-08 12:31:15.771,94.8148148148148,-0.0473829961025273,0.0157466255983347,-0.0316361587527149,-3.789391762137383e-08,9
2025-03-08 12:31:15.773,94.8148148148148,-0.04849181486139,0.0075988518497855,-0.0408927506773564,-3.689877571438236e-08,9
2025-03-08 12:31:15.775,94.8148148148148,-0.0484004246718031,-0.0052513857770222,-0.053651597514118,-3.5904826894775616e-08,9
2025-03-08 12:31:15.776,94.8148148148148,-0.0491671010622976,-0.0218377350353212,-0.071004622567403,-3.491212830027381e-08,9
2025-03-08 12:31:15.778,94.8148148148148,-0.0529724721266272,-0.039484146886144,-0.0924564049145765,-3.3920725159625356e-08,9
2025-03-08 12:31:15.780,94.8148148148148,-0.0608345900045592,-0.0548281528271864,-0.1156625282035468,-3.2930656240617094e-08,9
2025-03-08 12:31:15.782,94.8148148148148,-0.0718797077827725,-0.0652464097919956,-0.1371259024473734,-3.19419582221361e-08,9
2025-03-08 12:31:15.784,94.8148148148148,-0.0835869639067053,-0.0699504896702371,-0.153537237960431,-3.0954668176772224e-08,9
2025-03-08 12:31:15.786,94.8148148148148,-0.0928879671458596,-0.0702155455982607,-0.1631032966256536,-2.996882417898986e-08,9
2025-03-08 12:31:15.788,94.8148148148148,-0.0975719793148528,-0.0686949115982371,-0.166266674267236,-2.898446453895343e-08,9
2025-03-08 12:31:15.790,94.8148148148148,-0.0973168410619084,-0.068221994139241,-0.1655386180070483,-2.8001626271622444e-08,9
2025-03-08 12:31:15.792,94.8148148148148,-0.0938452689540294,-0.0706604392821,-0.1645054904920924,-2.70203433280809e-08,9
2025-03-08 12:31:15.794,94.8148148148148,-0.0901054845413922,-0.0762419804169403,-0.1663472466858665,-2.6040645062649092e-08,9
2025-03-08 12:31:15.796,94.8148148148148,-0.0888444841981514,-0.0835873922088963,-0.1724316576421047,-2.5062555417141437e-08,9
2025-03-08 12:31:15.798,94.8148148148148,-0.0912676649873637,-0.090360306219921,-0.1816277519835837,-2.4086093213383026e-08,9
2025-03-08 12:31:15.800,94.8148148148148,-0.0964660887720693,-0.094289148828508,-0.190755017934251,-2.311127364584571e-08,9
2025-03-08 12:31:15.802,94.8148148148148,-0.1019185384462674,-0.0941515859261401,-0.1960699042565215,-2.213811064120551e-08,9
2025-03-08 12:31:15.804,94.8148148148148,-0.104825975335627,-0.0903250272692962,-0.1951507820169583,-2.1166619363528493e-08,9
2025-03-08 12:31:15.806,94.8148148148148,-0.1035998545809658,-0.0846683998913973,-0.1882680333905207,-2.0196817958138107e-08,9
2025-03-08 12:31:15.808,94.8148148148148,-0.0987361757866131,-0.0797415199908763,-0.1784774741967003,-1.9228727831867162e-08,9
2025-03-08 12:31:15.810,94.8148148148148,-0.0926180797163354,-0.0776418129861226,-0.1702596706410615,-1.826237240763451e-08,9
2025-03-08 12:31:15.812,94.8148148148148,-0.0883436907615268,-0.0789750434780115,-0.1673185117327691,-1.72977750580056e-08,9
2025-03-08 12:31:15.814,94.8148148148148,-0.0881753067337606,-0.0825110831597381,-0.170686166977337,-1.6334957267373136e-08,9
2025-03-08 12:31:15.816,94.8148148148148,-0.0923801947062023,-0.0857824785246207,-0.1781624499252701,-1.537393769869911e-08,9
2025-03-08 12:31:15.818,94.8148148148148,-0.09901970751169,-0.0863652073346406,-0.1853846911476293,-1.4414732082951989e-08,9
2025-03-08 12:31:15.819,94.8148148148148,-0.1047946151616936,-0.0831576884721846,-0.1879520795202559,-1.3457353356877233e-08,9
2025-03-08 12:31:15.821,94.8148148148148,-0.1065768679371861,-0.076958823634689,-0.1835354670197614,-1.250181155061976e-08,9
2025-03-08 12:31:15.823,94.8148148148148,-0.1029302902126212,-0.0700649442198633,-0.1729950094341273,-1.1548113376888162e-08,9
2025-03-08 12:31:15.825,94.8148148148148,-0.094903036278979,-0.0651636060659595,-0.1600664169173666,-1.0596261943080271e-08,9
2025-03-08 12:31:15.827,94.8148148148148,-0.0857093882254918,-0.0641625704273825,-0.149871732832891,-9.646257254236631e-09,9
2025-03-08 12:31:15.829,94.8148148148148,-0.0794383150580948,-0.0676139970430875,-0.1470520859289315,-8.698098073269625e-09,9
2025-03-08 12:31:15.831,94.8148148148148,-0.079342688928834,-0.0750977466747585,-0.1544402091038193,-7.751785192719652e-09,9
2025-03-08 12:31:15.833,94.8148148148148,-0.0863885650476186,-0.0864139712361002,-0.1728023094553778,-6.807325408164929e-09,9
2025-03-08 12:31:15.835,94.8148148148148,-0.0985892353215406,-0.102907680181461,-0.2014966883233639,-5.8647349328332434e-09,9
2025-03-08 12:31:15.837,94.8148148148148,-0.1113466283158088,-0.1279848781639954,-0.2393312789211144,-4.9240410655243725e-09,9
2025-03-08 12:31:15.839,94.8148148148148,-0.1187033203647079,-0.166098876234841,-0.2848019686490934,-3.985281587309392e-09,9
2025-03-08 12:31:15.841,94.8148148148148,-0.1151274240355994,-0.2202267318032519,-0.3353539275111289,-3.0485021953178995e-09,9
2025-03-08 12:31:15.843,94.8148148148148,-0.0972340704471598,-0.2888504646837571,-0.3860843064647791,-2.1137528559023875e-09,9
2025-03-08 12:31:15.845,94.8148148148148,-0.0648059908714074,-0.3640412555598263,-0.4288470174731861,-1.1810841567060234e-09,9
2025-03-08 12:31:15.847,94.8148148148148,-0.0207720912964566,-0.4317495284186537,-0.4525213904978177,-2.5054465028479795e-10,9
2025-03-08 12:31:15.849,94.8148148148148,0.0296542015190446,-0.4740283514357007,-0.4443739204446439,6.778201813595446e-10,9
2025-03-08 12:31:15.851,94.8148148148148,0.0801319306594608,-0.4719402012714481,-0.3918080408627885,1.603967377590699e-09,9
2025-03-08 12:31:15.853,94.8148148148148,0.1243081900404781,-0.4083452744957211,-0.2840368543957576,2.527855163907672e-09,9
2025-03-08 12:31:15.855,94.8148148148148,0.1570378700492291,-0.2709521009872521,-0.1139140005473141,3.449442073998271e-09,9
2025-03-08 12:31:15.857,94.8148148148148,0.1758775552387723,-0.0562281805535063,0.1196496053993393,4.368687564898742e-09,9
2025-03-08 12:31:15.859,94.8148148148148,0.182285093169861,0.2264828757255015,0.4087681998951057,5.285554312292289e-09,9
2025-03-08 12:31:15.860,94.8148148148148,0.1811929621803434,0.5527056543339229,0.7338988477476278,6.200011313853376e-09,9
2025-03-08 12:31:15.862,94.8148148148148,0.1780442355482357,0.8845934490154347,1.0626379159879784,7.112036273047584e-09,9
2025-03-08 12:31:15.864,94.8148148148148,0.1742538179113625,1.1774134735006836,1.3516675230129984,8.021615866853727e-09,9
2025-03-08 12:31:15.866,94.8148148148148,0.1640149709359119,1.38939232625996,1.5534075289911713,8.928743361669753e-09,9
2025-03-08 12:31:15.868,94.8148148148148,0.135460936541887,1.4919056388296243,1.627366807396893,9.833414213863712e-09,9
2025-03-08 12:31:15.870,94.8148148148148,0.0767786627657885,1.4765113822860938,1.5532902773369877,1.0735621208097244e-08,9
2025-03-08 12:31:15.872,94.8148148148148,-0.0155872041006778,1.356372501382924,1.3407855298294948,1.163535090026463e-08,9
2025-03-08 12:31:15.874,94.8148148148148,-0.1315410317350781,1.161725006853756,1.030184207896797,1.2532582541282849e-08,9
2025-03-08 12:31:15.876,94.8148148148148,-0.2486242739264376,0.931041115223996,0.6824170742535018,1.3427289588142513e-08,9
2025-03-08 12:31:15.878,94.8148148148148,-0.3400714989020441,0.7007387367858755,0.3606674709667409,1.431944290811592e-08,9
2025-03-08 12:31:15.880,94.8148148148148,-0.3854789381566482,0.4968118496011793,0.1113331446287054,1.5209014256173222e-08,9
2025-03-08 12:31:15.882,94.8148148148148,-0.378276733168096,0.331308847576779,-0.0469676522970529,1.6095978658845325e-08,9
2025-03-08 12:31:15.884,94.8148148148148,-0.3265166463268446,0.2045144972702159,-0.1220019156183703,1.6980314844887957e-08,9
2025-03-08 12:31:15.886,94.8148148148148,-0.24785005427051,0.1106913646389537,-0.1371584560135041,1.7862003594870732e-08,9
2025-03-08 12:31:15.888,94.8148148148148,-0.1624199690178543,0.0435421157600647,-0.1188776194465193,1.8741024627840223e-08,9
2025-03-08 12:31:15.890,94.8148148148148,-0.0871197340767945,-0.001377304434355,-0.0884968045276755,1.9617353227006087e-08,9
2025-03-08 12:31:15.892,94.8148148148148,-0.0326307745326857,-0.0272980839253445,-0.0599286243510426,2.049095799553832e-08,9
2025-03-08 12:31:15.894,94.8148148148148,-0.002900240497607,-0.0379202473532247,-0.0408202536748092,2.1361800726770808e-08,9
2025-03-08 12:31:15.896,94.8148148148148,0.0039265360964466,-0.0381784868721672,-0.0342517165659078,2.2229838514734937e-08,9
2025-03-08 12:31:15.898,94.8148148148148,-0.0060850083369158,-0.033550346950702,-0.0396351210455509,2.3095027406931785e-08,9
2025-03-08 12:31:15.900,94.8148148148148,-0.0245764483913863,-0.0286473266252282,-0.0532235407140647,2.3957326431709342e-08,9
2025-03-08 12:31:15.901,94.8148148148148,-0.043055790016184,-0.0261767783105832,-0.0692323339258667,2.4816700663701123e-08,9
2025-03-08 12:31:15.903,94.8148148148148,-0.0550519260711659,-0.0268965559041679,-0.0819482474538039,2.56731221006721e-08,9
2025-03-08 12:31:15.905,94.8148148148148,-0.0577016821802355,-0.0304218150804014,-0.0881232626283084,2.6526567695269933e-08,9
2025-03-08 12:31:15.907,94.8148148148148,-0.0521591659512726,-0.0361968091095612,-0.0883557403584977,2.737701491302141e-08,9
2025-03-08 12:31:15.909,94.8148148148148,-0.0425965343335099,-0.0439359804530334,-0.0865322800678932,2.8224436265767236e-08,9
2025-03-08 12:31:15.911,94.8148148148148,-0.0341635532627055,-0.0533400655303987,-0.0875033840997767,2.9068794874085576e-08,9
2025-03-08 12:31:15.913,94.8148148148148,-0.0307410584035301,-0.0635085245236431,-0.0942493482705811,2.9910042919279333e-08,9
2025-03-08 12:31:15.915,94.8148148148148,-0.0334156340152851,-0.0727163335381974,-0.1061317329133072,3.0748123790953385e-08,9
2025-03-08 12:31:15.917,94.8148148148148,-0.0402769031434418,-0.078927043669264,-0.1192037121527121,3.1582977116093914e-08,9
2025-03-08 12:31:15.919,94.8148148148148,-0.0475476436019065,-0.0808313297042927,-0.1283787385985572,3.241454442621968e-08,9
2025-03-08 12:31:15.921,94.8148148148148,-0.0514757899586955,-0.0787633891558176,-0.1302389443592419,3.3242772871580063e-08,9
2025-03-08 12:31:15.923,94.8148148148148,-0.0501071168041573,-0.0748408824625249,-0.1249477644956267,3.406761546109146e-08,9
2025-03-08 12:31:15.925,94.8148148148148,-0.0441381650036179,-0.0721001482052075,-0.1162380784721487,3.488902814386964e-08,9
2025-03-08 12:31:15.927,94.8148148148148,-0.0364752283707735,-0.0730088615776353,-0.1094838552911746,3.570696546474088e-08,9
2025-03-08 12:31:15.929,94.8148148148148,-0.0307292876757595,-0.0781611846275714,-0.1088902377451026,3.6521376800180194e-08,9
2025-03-08 12:31:15.931,94.8148148148148,-0.0294006025940852,-0.0859126282788849,-0.1153129964015742,3.7332204509358106e-08,9
2025-03-08 12:31:15.933,94.8148148148148,-0.0326718064839391,-0.0931965023992904,-0.1258680744659632,3.8139384373515416e-08,9
2025-03-08 12:31:15.935,94.8148148148148,-0.0384099304821616,-0.0970904526140371,-0.1355001487021715,3.8942847916288916e-08,9
2025-03-08 12:31:15.937,94.8148148148148,-0.0433387096497976,-0.0962828002885752,-0.1396212755596274,3.97425256952006e-08,9
2025-03-08 12:31:15.939,94.8148148148148,-0.0447400661585168,-0.0916668047483034,-0.1364066365666573,4.0538350384567623e-08,9
2025-03-08 12:31:15.941,94.8148148148148,-0.0417924906883137,-0.0857992326024223,-0.1275914890347805,4.133025850130935e-08,9
2025-03-08 12:31:15.943,94.8148148148148,-0.0358695685671679,-0.0815772292401233,-0.1174465636823316,4.2118190063943816e-08,9
2025-03-08 12:31:15.944,94.8148148148148,-0.029689343943109,-0.0808519645996494,-0.1105410745750535,4.290208619228591e-08,9
2025-03-08 12:31:15.946,94.8148148148148,-0.0258222950238513,-0.0836469595966346,-0.1094690208054504,4.3681885339215295e-08,9
2025-03-08 12:31:15.948,94.8148148148148,-0.0253843114350163,-0.0882913364293264,-0.1136754141732178,4.445751930252063e-08,9
2025-03-08 12:31:15.950,94.8148148148148,-0.027582023898303,-0.0923432489075335,-0.1199250392056127,4.5228910334182905e-08,9
2025-03-08 12:31:15.952,94.8148148148148,-0.0302617910566066,-0.0938465329297703,-0.1241080904619869,4.599597047644588e-08,9
2025-03-08 12:31:15.954,94.8148148148148,-0.0310809364782027,-0.092321838080973,-0.1234025411257619,4.6758603677729164e-08,9
2025-03-08 12:31:15.956,94.8148148148148,-0.0286768614854321,-0.0889878871976353,-0.1176645153816024,4.7516710355265664e-08,9
2025-03-08 12:31:15.958,94.8148148148148,-0.0233092590646108,-0.0860574332476958,-0.109366459190978,4.827019313292896e-08,9
2025-03-08 12:31:15.960,94.8148148148148,-0.0167283404913872,-0.0854568860374743,-0.1021849936204395,4.9018961960138985e-08,9
2025-03-08 12:31:15.962,94.8148148148148,-0.0113297303516949,-0.0876958686643442,-0.0990253663236453,4.976293705667778e-08,9
2025-03-08 12:31:15.964,94.8148148148148,-0.0089566538478447,-0.0915619733266476,-0.1005183946735932,5.0502049022166465e-08,9
2025-03-08 12:31:15.966,94.8148148148148,-0.0099260215763565,-0.0948225171880334,-0.1047483064199608,5.1236236556368826e-08,9
2025-03-08 12:31:15.968,94.8148148148148,-0.0128124844520177,-0.0955114125992429,-0.1083236648407633,5.1965443022387976e-08,9
2025-03-08 12:31:15.970,94.8148148148148,-0.0151509576669255,-0.0930542601600456,-0.1082049857565847,5.268961318032664e-08,9
2025-03-08 12:31:15.972,94.8148148148148,-0.0147035367245157,-0.0886010481553089,-0.103304352985025,5.3408690933120664e-08,9
2025-03-08 12:31:15.974,94.8148148148148,-0.0106082743663212,-0.0843934264066089,-0.0950014691030262,5.4122618343414644e-08,9
2025-03-08 12:31:15.976,94.8148148148148,-0.0037927860251277,-0.0825306454648022,-0.0863232000849075,5.4831335835907e-08,9
2025-03-08 12:31:15.978,94.8148148148148,0.0035505815374356,-0.0838239331401564,-0.0802731204749705,5.553478332067934e-08,9
2025-03-08 12:31:15.980,94.8148148148148,0.0091185141037377,-0.0873694397554683,-0.0782506947826404,5.623290174826772e-08,9
2025-03-08 12:31:15.982,94.8148148148148,0.0116495451480043,-0.0910575979505127,-0.0794078221558751,5.692563438311392e-08,9
2025-03-08 12:31:15.984,94.8148148148148,0.0114784639946526,-0.0927000838756239,-0.0812213894260672,5.7612927169338424e-08,9
2025-03-08 12:31:15.985,94.8148148148148,0.0102358262676906,-0.0911183001704232,-0.0808822436345889,5.829472810736156e-08,9
2025-03-08 12:31:15.987,94.8148148148148,0.0098966604843849,-0.0866191609704847,-0.0767222704319983,5.897098620876652e-08,9
2025-03-08 12:31:15.989,94.8148148148148,0.011726726537619,-0.0807038644408168,-0.0689769081117499,5.96416507485583e-08,9
2025-03-08 12:31:15.991,94.8148148148148,0.015708288394303,-0.0752833678418009,-0.0595748499660678,6.030667101728329e-08,9
2025-03-08 12:31:15.993,94.8148148148148,0.0207199124514158,-0.0718415094470377,-0.0511213678481734,6.096599610225828e-08,9
2025-03-08 12:31:15.995,94.8148148148148,0.0252930612965718,-0.0708945598694915,-0.0456012697502213,6.16195740380663e-08,9
2025-03-08 12:31:15.997,94.8148148148148,0.0284617711346988,-0.0719039109418875,-0.0434419112747506,6.22673501500255e-08,9
2025-03-08 12:31:15.999,94.8148148148148,0.0302258053163208,-0.0736174524667273,-0.0433914188700386,6.290926525430607e-08,9
2025-03-08 12:31:16.001,94.8148148148148,0.0314213550530992,-0.0746758579714244,-0.0432542748718782,6.354525495966817e-08,9
2025-03-08 12:31:16.003,94.8148148148148,0.0331525512291517,-0.0742415683329467,-0.0410887893063897,6.41752510536402e-08,9
2025-03-08 12:31:16.005,94.8148148148148,0.0361622424882575,-0.0723986602890057,-0.0362361902963295,6.47991848279461e-08,9
2025-03-08 12:31:16.007,94.8148148148148,0.04048430974965,-0.070125343543848,-0.0296408066356328,6.5416990993395e-08,9
2025-03-08 12:31:16.009,94.8148148148148,0.0454910380527002,-0.0687880688385666,-0.0232968040100664,6.602861051593644e-08,9
2025-03-08 12:31:16.011,94.8148148148148,0.0502308768963518,-0.0693619805778619,-0.0191308772927839,6.663399147382988e-08,9
2025-03-08 12:31:16.013,94.8148148148148,0.0538679561224473,-0.0718055664542378,-0.0179373843023438,6.723308821380134e-08,9
2025-03-08 12:31:16.015,94.8148148148148,0.05604594988709,-0.0749805660061141,-0.0189343904064814,6.782585982250194e-08,9
2025-03-08 12:31:16.017,94.8148148148148,0.0570439479003671,-0.0771821986628777,-0.0201380253353023,6.841226887517609e-08,9
2025-03-08 12:31:16.019,94.8148148148148,0.057672964540882,-0.0769775303347987,-0.0193043406511489,6.89922808436211e-08,9
2025-03-08 12:31:16.021,94.8148148148148,0.058966106062241,-0.0739013580803185,-0.0149350271933365,6.956586399330386e-08,9
2025-03-08 12:31:16.023,94.8148148148148,0.0617884706951671,-0.0686695960602952,-0.0068809009120905,7.013298942945986e-08,9
2025-03-08 12:31:16.025,94.8148148148148,0.0665134760798434,-0.0628246093907904,0.0036890907217392,7.069363109948273e-08,9
2025-03-08 12:31:16.026,94.8148148148148,0.0728972301582293,-0.0580049121247038,0.0148925416249309,7.12477657395325e-08,9
2025-03-08 12:31:16.028,94.8148148148148,0.0802163613051172,-0.0552144809448504,0.0250021035254845,7.179537280066905e-08,9
2025-03-08 12:31:16.030,94.8148148148148,0.0876035152596453,-0.0544418936479228,0.033161844391332,7.23364343493602e-08,9
2025-03-08 12:31:16.032,94.8148148148148,0.0943992052612977,-0.0547653972640365,0.0396340304333698,7.287093485830795e-08,9
2025-03-08 12:31:16.034,94.8148148148148,0.1003484303541379,-0.0548433908906734,0.0455052615748098,7.339886068181756e-08,9
2025-03-08 12:31:16.036,94.8148148148148,0.1055925642484446,-0.0535556782549994,0.0520371077625967,7.39201990030563e-08,9
2025-03-08 12:31:16.038,94.8148148148148,0.110521671716973,-0.0505217164079971,0.0600001766883946,7.443493634628144e-08,9
2025-03-08 12:31:16.040,94.8148148148148,0.1155809235532347,-0.0462573863607667,0.0693237581263511,7.494305721035389e-08,9
2025-03-08 12:31:16.042,94.8148148148148,0.1210959903143577,-0.0418738110995981,0.0792223996653374,7.544454360910287e-08,9
2025-03-08 12:31:16.044,94.8148148148148,0.1271629654126851,-0.0384596322366033,0.0887035531406695,7.59393760934866e-08,9
2025-03-08 12:31:16.046,94.8148148148148,0.1336483007718045,-0.036492073814508,0.0971564464671806,7.642753626762506e-08,9
2025-03-08 12:31:16.048,94.8148148148148,0.1403156669197526,-0.0356215300961911,0.1046943559252334,7.690901018550646e-08,9
2025-03-08 12:31:16.050,94.8148148148148,0.1470196936212473,-0.0349294645390396,0.1120904478106461,7.738379163092834e-08,9
2025-03-08 12:31:16.052,94.8148148148148,0.1538399497768697,-0.0334479311301184,0.1203922370046143,7.7851884248156e-08,9
2025-03-08 12:31:16.054,94.8148148148148,0.1610524518505565,-0.0306017261982374,0.1304509436058646,7.831330180382082e-08,9
2025-03-08 12:31:16.056,94.8148148148148,0.168950224807315,-0.0263574133356011,0.1425930289655999,7.87680665346931e-08,9
2025-03-08 12:31:16.058,94.8148148148148,0.1776354017372493,-0.0210827324033053,0.1565528863172718,7.921620637382488e-08,9
2025-03-08 12:31:16.060,94.8148148148148,0.186924010505672,-0.0152704333134858,0.1716537936423144,7.965775235291336e-08,9
2025-03-08 12:31:16.062,94.8148148148148,0.1964250272621106,-0.0093128488541445,0.1871123943397703,8.009273728002345e-08,9
2025-03-08 12:31:16.064,94.8148148148148,0.2057405244764165,-0.0034381383532866,0.2023026015789141,8.052119601106485e-08,9
2025-03-08 12:31:16.066,94.8148148148148,0.2146609560094413,0.0022226520162533,0.2168838230509703,8.094316677322009e-08,9
2025-03-08 12:31:16.068,94.8148148148148,0.223241296545474,0.0075715818905321,0.230813093053659,8.135869259161039e-08,9
2025-03-08 12:31:16.069,94.8148148148148,0.2317248670887555,0.0125765381101462,0.2443016193950852,8.176782212281375e-08,9
2025-03-08 12:31:16.071,94.8148148148148,0.24037536419059,0.0173520961916906,0.2577276741112841,8.217060979469258e-08,9
2025-03-08 12:31:16.073,94.8148148148148,0.2493221174799724,0.0221655429639456,0.2714878736494366,8.256711553443563e-08,9
2025-03-08 12:31:16.075,94.8148148148148,0.258492528918692,0.0273239422669588,0.2858166838274342,8.295740431898607e-08,9
2025-03-08 12:31:16.077,94.8148148148148,0.2676357827633206,0.0330246998856509,0.3006606947211167,8.334154555203462e-08,9
2025-03-08 12:31:16.079,94.8148148148148,0.2764026936906733,0.0392807957955092,0.3156837010177181,8.371961215335017e-08,9
2025-03-08 12:31:16.081,94.8148148148148,0.2844559235172603,0.0459542285178435,0.3304103630726884,8.40916793259438e-08,9
2025-03-08 12:31:16.083,94.8148148148148,0.291590071318034,0.0528533447605527,0.3444436266603376,8.445782320557498e-08,9
2025-03-08 12:31:16.085,94.8148148148148,0.2978148189444561,0.0598386580147193,0.3576536870931291,8.481811984804366e-08,9
2025-03-08 12:31:16.087,94.8148148148148,0.303348629001112,0.0669018779272103,0.3702507165865178,8.51726449817316e-08,9
2025-03-08 12:31:16.089,94.8148148148148,0.308523827449229,0.0741858162753038,0.3827098528555774,8.55214745007655e-08,9
2025-03-08 12:31:16.091,94.8148148148148,0.3136617160888239,0.0819148295386948,0.3955767541809785,8.586468514631462e-08,9
2025-03-08 12:31:16.093,94.8148148148148,0.3189751283908765,0.0902417911533747,0.4092171274942492,8.620235477245489e-08,9
2025-03-08 12:31:16.095,94.8148148148148,0.3245185409406732,0.0990761951272005,0.423594943423857,8.653456211195332e-08,9
2025-03-08 12:31:16.097,94.8148148148148,0.3301839990091041,0.1079940340418792,0.4381782398503753,8.686138652848595e-08,9
2025-03-08 12:31:16.099,94.8148148148148,0.3357339381424609,0.1163150274319861,0.4520491718612493,8.718290828819727e-08,9
2025-03-08 12:31:16.101,94.8148148148148,0.3408529779710683,0.1233632559229255,0.4642164396945107,8.749920939203911e-08,9
2025-03-08 12:31:16.103,94.8148148148148,0.345201645055699,0.1288172210973588,0.4740190714611576,8.78103744654519e-08,9
2025-03-08 12:31:16.105,94.8148148148148,0.3484723662781098,0.1329565540191902,0.4814291250765012,8.811649097571559e-08,9
2025-03-08 12:31:16.107,94.8148148148148,0.3504599254078362,0.1366123405091669,0.487072470117921,8.841764816829364e-08,9
2025-03-08 12:31:16.109,94.8148148148148,0.3511393563907806,0.1407735271098772,0.4919130870845369,8.87139345339243e-08,9
2025-03-08 12:31:16.110,94.8148148148148,0.3506982367773185,0.1460259943810301,0.4967244341145604,8.900543427798452e-08,9
2025-03-08 12:31:16.112,94.8148148148148,0.3494493876590913,0.1521496553118211,0.5015992453197403,8.929222387433919e-08,9
2025-03-08 12:31:16.114,94.8148148148148,0.347612585884986,0.1581462822028795,0.5057590698676715,8.957436988470866e-08,9
2025-03-08 12:31:16.116,94.8148148148148,0.3450744840723451,0.1627199380099767,0.5077946233281461,8.985192862042754e-08,9
2025-03-08 12:31:16.118,94.8148148148148,0.3413003384954449,0.1649335313481475,0.5062340705683089,9.012494729958045e-08,9
2025-03-08 12:31:16.120,94.8148148148148,0.3355008844518212,0.1646357676193649,0.5001368522585955,9.039346579056843e-08,9
2025-03-08 12:31:16.122,94.8148148148148,0.3269953048547211,0.1624101296991836,0.4894056341667078,9.065751820102306e-08,9
2025-03-08 12:31:16.124,94.8148148148148,0.3155709744846898,0.1591281977578962,0.4746993712405365,9.091713419925983e-08,9
2025-03-08 12:31:16.126,94.8148148148148,0.3016222044980139,0.15542903091603,0.4570514337726749,9.11723404178908e-08,9
2025-03-08 12:31:16.128,94.8148148148148,0.2859776156270026,0.1514317991861972,0.4374096125337193,9.142316218416421e-08,9
2025-03-08 12:31:16.130,94.8148148148148,0.2695178456783746,0.1467896044288985,0.416307647213185,9.16696252982679e-08,9
2025-03-08 12:31:16.132,94.8148148148148,0.2528092694891308,0.14098542970708,0.3937948957191335,9.191175716817401e-08,9
2025-03-08 12:31:16.134,94.8148148148148,0.2359567329484834,0.1336752907396298,0.3696322196505179,9.214958675683678e-08,9
2025-03-08 12:31:16.136,94.8148148148148,0.2187331711054949,0.1249144097086091,0.3436477762177289,9.238314346481717e-08,9
2025-03-08 12:31:16.138,94.8148148148148,0.2008760273004895,0.1151991620273037,0.3160753841530712,9.261245571674336e-08,9
2025-03-08 12:31:16.140,94.8148148148148,0.1823579690797537,0.1053421047965491,0.2877002680922994,9.28375501310142e-08,9
2025-03-08 12:31:16.142,94.8148148148148,0.1634852626445469,0.096231468784593,0.2597169250083224,9.305845174171943e-08,9
2025-03-08 12:31:16.144,94.8148148148148,0.1447999603439812,0.0885295933730364,0.2333297466472182,9.327518517230053e-08,9
2025-03-08 12:31:16.146,94.8148148148148,0.1268668587792213,0.0823890516551378,0.2092561027223003,9.34877762156335e-08,9
2025-03-08 12:31:16.148,94.8148148148148,0.1100624053868009,0.0773206085699891,0.1873832056221817,9.36962531015816e-08,9
2025-03-08 12:31:16.150,94.8148148148148,0.0944659944460428,0.0723483978772389,0.1668145833872259,9.390064693757087e-08,9
2025-03-08 12:31:16.152,94.8148148148148,0.0799058565262915,0.0664534524587787,0.1463594994589457,9.410099132774956e-08,9
2025-03-08 12:31:16.153,94.8148148148148,0.0661366241059649,0.0591004953613958,0.1252373093475091,9.42973216606213e-08,9
2025-03-08 12:31:16.155,94.8148148148148,0.0530495734768393,0.0505361236317845,0.1035858863787766,9.448967464875463e-08,9
2025-03-08 12:31:16.157,94.8148148148148,0.04078803708166,0.0416548426827015,0.0824430684037699,9.467808838439101e-08,9
2025-03-08 12:31:16.159,94.8148148148148,0.0296903861077623,0.0335012460536985,0.0631918201541717,9.486260269397565e-08,9
2025-03-08 12:31:16.161,94.8148148148148,0.0200904269449229,0.0267120407460394,0.0468026550316989,9.504325927866228e-08,9
2025-03-08 12:31:16.163,94.8148148148148,0.012094513498859,0.0212179970192017,0.0333126972124019,9.522010126973986e-08,9
2025-03-08 12:31:16.165,94.8148148148148,0.0054611547698722,0.0163360055493821,0.0217973463788633,9.539317232605333e-08,9
2025-03-08 12:31:16.167,94.8148148148148,-0.0003510609541476,0.0111533981461665,0.0108025226279097,9.556251584596749e-08,9
2025-03-08 12:31:16.169,94.8148148148148,-0.0059740470715582,0.0049749867533131,-0.0009988755009871,9.572817487265936e-08,9
2025-03-08 12:31:16.171,94.8148148148148,-0.0118393119542472,-0.002390989600519,-0.0142301173587021,9.58901928573976e-08,9
2025-03-08 12:31:16.173,94.8148148148148,-0.0179519540647763,-0.0106010342478621,-0.0285528047461024,9.60486149721546e-08,9
2025-03-08 12:31:16.175,94.8148148148148,-0.023876649406938,-0.0189305639018999,-0.0428070303821073,9.620348937557595e-08,9
2025-03-08 12:31:16.177,94.8148148148148,-0.0289730505717583,-0.0264957784336744,-0.0554686467270462,9.635486777878992e-08,9
2025-03-08 12:31:16.179,94.8148148148148,-0.0327573367256245,-0.03249617942115,-0.0652533345214344,9.650280489500192e-08,9
2025-03-08 12:31:16.181,94.8148148148148,-0.035181399703996,-0.0364722551173957,-0.0716534738497003,9.664735687717029e-08,9
2025-03-08 12:31:16.183,94.8148148148148,-0.0366758313713268,-0.0385022732560529,-0.0751779243067788,9.67885794168592e-08,9
2025-03-08 12:31:16.185,94.8148148148148,-0.0379431020627101,-0.03919993143877,-0.0771428538275954,9.692652644107936e-08,9
2025-03-08 12:31:16.187,94.8148148148148,-0.0396176681525127,-0.0394554700163567,-0.0790729591368635,9.706125003167403e-08,9
2025-03-08 12:31:16.189,94.8148148148148,-0.0419730362649348,-0.0400329094733225,-0.0820057673442527,9.719280143416477e-08,9
2025-03-08 12:31:16.191,84.86187845303867,-0.044827008381801,-0.0412382661624521,-0.0860650967869186,9.732123240708157e-08,9
2025-03-08 12:31:16.193,84.86187845303867,-0.0476811135199505,-0.0428361350104056,-0.0905170714123182,9.744659613390123e-08,9
2025-03-08 12:31:16.194,84.86187845303867,-0.0499943652582495,-0.0442553010884815,-0.0942494898749668,9.756894729273399e-08,9
2025-03-08 12:31:16.196,84.86187845303867,-0.0514289608028481,-0.0449650225074845,-0.0963938074946957,9.768834121373214e-08,9
2025-03-08 12:31:16.198,84.86187845303867,-0.0519548161715134,-0.0448012969570589,-0.0967559379783667,9.780483223544827e-08,9
2025-03-08 12:31:16.200,84.86187845303867,-0.051810018820867,-0.0440443220367833,-0.0958541663774064,9.791847153687844e-08,9
2025-03-08 12:31:16.202,84.86187845303867,-0.0513894143749395,-0.0432043921060316,-0.0945936326675315,9.802930487494917e-08,9
2025-03-08 12:31:16.204,84.86187845303867,-0.0511188385936001,-0.0426783068402458,-0.0937969722767684,9.81373706523406e-08,9
2025-03-08 12:31:16.206,84.86187845303867,-0.0513180552524775,-0.0425390577688492,-0.0938569405072142,9.824269857378449e-08,9
2025-03-08 12:31:16.208,84.86187845303867,-0.052060165684304,-0.0426083863705053,-0.0946683801740491,9.83453090246412e-08,9
2025-03-08 12:31:16.210,84.86187845303867,-0.0531023008423251,-0.0427103715359883,-0.0958125011309982,9.844521333278725e-08,9
2025-03-08 12:31:16.212,84.86187845303867,-0.0539785307816072,-0.0428573130753488,-0.0968356732545946,9.854241508544345e-08,9
2025-03-08 12:31:16.214,84.86187845303867,-0.0542459124149908,-0.043222344989328,-0.0974680874657064,9.863691244851176e-08,9
2025-03-08 12:31:16.216,84.86187845303867,-0.0537459470779178,-0.0439678247083091,-0.0977136025288313,9.872870098681361e-08,9
2025-03-08 12:31:16.218,84.86187845303867,-0.0527143313105404,-0.0450935403267077,-0.0978077030681457,9.881777609477915e-08,9
2025-03-08 12:31:16.220,84.86187845303867,-0.0516651408646631,-0.046404866792016,-0.0980698397678759,9.890413418462735e-08,9
2025-03-08 12:31:16.222,84.86187845303867,-0.0511156838348179,-0.0476019140137173,-0.0987174306197254,9.89877723609312e-08,9
2025-03-08 12:31:16.224,84.86187845303867,-0.0513139792032913,-0.0484345007940113,-0.0997483134054356,9.906868712954965e-08,9
2025-03-08 12:31:16.226,84.86187845303867,-0.0521267306020371,-0.0488385551856034,-0.1009651198188997,9.914687319567657e-08,9
2025-03-08 12:31:16.228,84.86187845303867,-0.0531431011197252,-0.0489668714711003,-0.1021098072488609,9.922232326020537e-08,9
2025-03-08 12:31:16.230,84.86187845303867,-0.0539142793008194,-0.0490910627333415,-0.1030051773398281,9.929502909077681e-08,9
2025-03-08 12:31:16.232,84.86187845303867,-0.0541729971327291,-0.0494541493294214,-0.103626982444128,9.936498349215789e-08,9
2025-03-08 12:31:16.234,84.86187845303867,-0.05390807065053,-0.0501854873096389,-0.1040933946406578,9.943218246400053e-08,9
2025-03-08 12:31:16.235,84.86187845303867,-0.0532830042961368,-0.0513084732203972,-0.1045913148992277,9.949662685183746e-08,9
2025-03-08 12:31:16.237,84.86187845303867,-0.0525052933726567,-0.0527688182456813,-0.1052739496852118,9.955832306916399e-08,9
2025-03-08 12:31:16.239,84.86187845303867,-0.0517701973608412,-0.0544060639164754,-0.1061760999965905,9.961728286556968e-08,9
2025-03-08 12:31:16.241,84.86187845303867,-0.0512925858850739,-0.0558910405202594,-0.1071834657471884,9.967352244942015e-08,9
2025-03-08 12:31:16.243,84.86187845303867,-0.0513243438365751,-0.0567368329052812,-0.108061016694129,9.972706138262493e-08,9
2025-03-08 12:31:16.245,84.86187845303867,-0.0520704866434692,-0.0564528471096364,-0.1085231743286835,9.977792156889855e-08,9
2025-03-08 12:31:16.247,84.86187845303867,-0.0535410709661198,-0.0547873062762507,-0.1083282184738797,9.982612645293377e-08,9
2025-03-08 12:31:16.249,84.86187845303867,-0.0554636651615532,-0.0519122495213891,-0.1073757566067739,9.987170028924017e-08,9
2025-03-08 12:31:16.251,84.86187845303867,-0.0573473219410587,-0.0484176967721589,-0.1057648613506968,9.991466716651953e-08,9
2025-03-08 12:31:16.253,84.86187845303867,-0.0586797469351517,-0.0450936816500706,-0.103773271930665,9.99550496190717e-08,9
2025-03-08 12:31:16.255,84.86187845303867,-0.0591502962171683,-0.0426196245577254,-0.1017697647971844,9.999286713409301e-08,9
2025-03-08 12:31:16.257,84.86187845303867,-0.0587761396968936,-0.041336182140768,-0.1001121664951933,1.0002813528458797e-07,9
2025-03-08 12:31:16.259,84.86187845303867,-0.0578667280614365,-0.0411982760533518,-0.0990648493765586,1.0006086610274229e-07,9
2025-03-08 12:31:16.261,84.86187845303867,-0.0568560664935812,-0.0418833680858956,-0.098739280441554,1.0009106964092904e-07,9
2025-03-08 12:31:16.263,84.86187845303867,-0.0561037114782328,-0.0429614772631727,-0.0990650352299254,1.0011875600957065e-07,9
2025-03-08 12:31:16.265,84.86187845303867,-0.0557699303340703,-0.0440382867024874,-0.0998080641951162,1.0014393705246557e-07,9
2025-03-08 12:31:16.267,84.86187845303867,-0.0558152045202893,-0.0448250367585058,-0.1006400891462136,1.0016662712636569e-07,9
2025-03-08 12:31:16.269,84.86187845303867,-0.0560996258421361,-0.0451464946887897,-0.1012459691206658,1.001868427812297e-07,9
2025-03-08 12:31:16.271,84.86187845303867,-0.0565051607483829,-0.0449407999939863,-0.1014458100344372,1.0020460134370847e-07,9
2025-03-08 12:31:16.273,84.86187845303867,-0.0569996764278251,-0.0442895641357043,-0.1012890905135489,1.0021991860697985e-07,9
2025-03-08 12:31:16.275,84.86187845303867,-0.057605467399226,-0.0434483807704145,-0.1010536987309167,1.0023280607480175e-07,9
2025-03-08 12:31:16.277,84.86187845303867,-0.0583029298131774,-0.0427978059104172,-0.1011005868710392,1.0024326836576461e-07,9
2025-03-08 12:31:16.278,84.86187845303867,-0.0589537826101791,-0.0426697641813196,-0.1016233985349511,1.002513013182639e-07,9
2025-03-08 12:31:16.280,84.86187845303867,-0.0593221349972819,-0.0431152738167958,-0.102437261193747,1.0025689113231381e-07,9
2025-03-08 12:31:16.282,84.86187845303867,-0.0591952357978597,-0.0437783687889941,-0.1029734576527761,1.0026001473987737e-07,9
2025-03-08 12:31:16.284,84.86187845303867,-0.058521232011621,-0.0440231339223593,-0.1025442197198203,1.0026064148550256e-07,9
2025-03-08 12:31:16.286,84.86187845303867,-0.0574679630667895,-0.0432982673933103,-0.1007660849648601,1.0025873595816513e-07,9
2025-03-08 12:31:16.288,84.86187845303867,-0.0563684492631405,-0.0415232491313912,-0.0978915535819236,1.0025426149742204e-07,9
2025-03-08 12:31:16.290,84.86187845303867,-0.0555875937469214,-0.0392165163955934,-0.0948039659587098,1.0024718372435325e-07,9
2025-03-08 12:31:16.292,84.86187845303867,-0.0553702892492807,-0.0372421176299285,-0.092612263280073,1.0023747355105022e-07,9
2025-03-08 12:31:16.294,84.86187845303867,-0.0557256543115705,-0.0363251397848647,-0.0920506510701909,1.0022510943440973e-07,9
2025-03-08 12:31:16.296,84.86187845303867,-0.0563960317888213,-0.0366611765426537,-0.093057065904862,1.0021007886910501e-07,9
2025-03-08 12:31:16.298,84.86187845303867,-0.056945771752122,-0.0378708102138869,-0.0948164401904335,1.001923790323854e-07,9
2025-03-08 12:31:16.300,84.86187845303867,-0.056952277277919,-0.0392887735967653,-0.0962409097992856,1.0017201629065385e-07,9
2025-03-08 12:31:16.302,84.86187845303867,-0.0562051857474107,-0.0403577423835205,-0.0965627877764497,1.0014900432738867e-07,9
2025-03-08 12:31:16.304,84.86187845303867,-0.0547975028745255,-0.0408815738095039,-0.0956789370311525,1.0012336107696259e-07,9
2025-03-08 12:31:16.306,84.86187845303867,-0.053067160839855,-0.0410318408163125,-0.0940988626546279,1.0009510526074817e-07,9
2025-03-08 12:31:16.308,84.86187845303867,-0.0514462387109823,-0.0411487144156937,-0.0925948147205831,1.0006425373491827e-07,9
2025-03-08 12:31:16.310,84.86187845303867,-0.0503008106245508,-0.0414680837662711,-0.09176875654715,1.0003082070233717e-07,9
2025-03-08 12:31:16.312,84.86187845303867,-0.0498060745091231,-0.0419458670308223,-0.0917518042653064,9.99948190498769e-08,9
2025-03-08 12:31:16.314,84.86187845303867,-0.0498793990815981,-0.0423083748811867,-0.0921876372996069,9.995626300094979e-08,9
2025-03-08 12:31:16.316,84.86187845303867,-0.050207547382066,-0.0423040365980867,-0.0925114479841068,9.991517054954893e-08,9
2025-03-08 12:31:16.318,84.86187845303867,-0.0503933398238157,-0.0419591081127651,-0.0923523126469472,9.98715643372301e-08,9
2025-03-08 12:31:16.319,84.86187845303867,-0.0501746942727117,-0.0416234557886338,-0.0917980154798007,9.98254707631029e-08,9
2025-03-08 12:31:16.321,84.86187845303867,-0.0495886512681827,-0.0417715397059864,-0.0913600570631545,9.977691837764908e-08,9
2025-03-08 12:31:16.323,84.86187845303867,-0.0489587921075587,-0.0427215144932127,-0.0916801733023848,9.972593694723797e-08,9
2025-03-08 12:31:16.325,84.86187845303867,-0.0486998542919826,-0.0444654073996378,-0.093165128957197,9.967255770339473e-08,9
2025-03-08 12:31:16.327,84.86187845303867,-0.0490649583870132,-0.0466801004593986,-0.0957449266612974,9.961681404278485e-08,9
2025-03-08 12:31:16.329,84.86187845303867,-0.0499949828471285,-0.0488676524952578,-0.0988625037328782,9.955874148864785e-08,9
2025-03-08 12:31:16.331,84.86187845303867,-0.0511543766011461,-0.0505415846687607,-0.101695830288683,9.949837645148133e-08,9
2025-03-08 12:31:16.333,84.86187845303867,-0.0521273915331778,-0.0513926175697115,-0.1035198788005711,9.943575453532297e-08,9
2025-03-08 12:31:16.335,84.86187845303867,-0.0526668185010091,-0.0513830383611883,-0.104049727260014,9.93709097515436e-08,9
2025-03-08 12:31:16.337,84.86187845303867,-0.0528577109392216,-0.0507424365285677,-0.1036000185457506,9.9303875534583e-08,9
2025-03-08 12:31:16.339,84.86187845303867,-0.0530930095666699,-0.0498800762254843,-0.1029729574989616,9.923468731143881e-08,9
2025-03-08 12:31:16.341,84.86187845303867,-0.0538565169522184,-0.0492612307201816,-0.1031176199518319,9.916338534507196e-08,9
2025-03-08 12:31:16.343,84.86187845303867,-0.055431498401421,-0.049288958020283,-0.1047203292415001,9.909001620051393e-08,9
2025-03-08 12:31:16.345,84.86187845303867,-0.0577147272829155,-0.0502097827539933,-0.1079243834048561,9.90146316736774e-08,9
2025-03-08 12:31:16.347,84.86187845303867,-0.0602518449643868,-0.0520528840829731,-0.1123046030060874,9.893728520583477e-08,9
2025-03-08 12:31:16.349,84.86187845303867,-0.0624643843166819,-0.0546093828015361,-0.1170736417215225,9.885802704869393e-08,9
2025-03-08 12:31:16.351,84.86187845303867,-0.0639297067021961,-0.0574541888816783,-0.1213837708672156,9.877690003367457e-08,9
2025-03-08 12:31:16.353,84.86187845303867,-0.064566980798622,-0.0600256707006943,-0.1245925274601994,9.869393745541616e-08,9
2025-03-08 12:31:16.355,84.86187845303867,-0.0646465512225514,-0.0617856450869747,-0.1264320729081907,9.860916349211929e-08,9
2025-03-08 12:31:16.357,84.86187845303867,-0.0646275303075863,-0.0624307458205849,-0.1270581533081453,9.85225952674064e-08,9
2025-03-08 12:31:16.359,84.86187845303867,-0.0649116907948662,-0.062043081900756,-0.1269546504130799,9.843424484419404e-08,9
2025-03-08 12:31:16.360,84.86187845303867,-0.0656448659259219,-0.0610627160416361,-0.1267074602137308,9.834411973786113e-08,9
2025-03-08 12:31:16.362,84.86187845303867,-0.0666653282268101,-0.0600775480072303,-0.1267427550386885,9.825222184208048e-08,9
2025-03-08 12:31:16.364,84.86187845303867,-0.0676159080704204,-0.0595522990272478,-0.1271680865118133,9.815854601990418e-08,9
2025-03-08 12:31:16.366,84.86187845303867,-0.0681605949109242,-0.059642439254175,-0.1278029142323828,9.806307995701469e-08,9
2025-03-08 12:31:16.368,84.86187845303867,-0.0681980652266547,-0.0601739693060565,-0.1283719152648519,9.796580597249557e-08,9
2025-03-08 12:31:16.370,84.86187845303867,-0.0679499990947611,-0.0607888811899811,-0.1287387616543355,9.786670410495038e-08,9
2025-03-08 12:31:16.372,84.86187845303867,-0.0678513009374285,-0.0611846498236795,-0.1290358327156177,9.77657549848649e-08,9
2025-03-08 12:31:16.374,84.86187845303867,-0.0682896327418846,-0.0613192229795609,-0.1296087382107564,9.766294126551763e-08,9
2025-03-08 12:31:16.376,84.86187845303867,-0.0693626095822387,-0.0614475167498173,-0.1308100093346054,9.755824742354756e-08,9
2025-03-08 12:31:16.378,84.86187845303867,-0.0708260989498991,-0.0619433930195593,-0.1327693755027346,9.745165879469737e-08,9
2025-03-08 12:31:16.380,84.86187845303867,-0.0722592136351217,-0.063014682897981,-0.1352737806428031,9.734316107623539e-08,9
2025-03-08 12:31:16.382,84.86187845303867,-0.0733020347888036,-0.0645175866659603,-0.137819506188538,9.723274101101085e-08,9
2025-03-08 12:31:16.384,84.86187845303867,-0.0738008270486245,-0.066016515088684,-0.1398172275174353,9.712038800699804e-08,9
2025-03-08 12:31:16.386,84.86187845303867,-0.0738169673446612,-0.0670529710873744,-0.1408698244419995,9.700609574596993e-08,9
2025-03-08 12:31:16.388,84.86187845303867,-0.0735641936668938,-0.0674295739431419,-0.1409936542023862,9.688986281745275e-08,9
2025-03-08 12:31:16.390,84.86187845303867,-0.0733387408688918,-0.0673065055098046,-0.1406451334999272,9.677169200268612e-08,9
2025-03-08 12:31:16.392,84.86187845303867,-0.0734433054764088,-0.0670555774514098,-0.1404987705466338,9.66515885933536e-08,9
2025-03-08 12:31:16.394,84.86187845303867,-0.0740726973794577,-0.0670063114768542,-0.1410788969797308,9.652955857417365e-08,9
2025-03-08 12:31:16.396,84.86187845303867,-0.0751748316805011,-0.0672887349939491,-0.1424634553428112,9.640560744995855e-08,9
2025-03-08 12:31:16.398,84.86187845303867,-0.0763814026900837,-0.0678669563268409,-0.1442482482804303,9.627974013384716e-08,9
2025-03-08 12:31:16.400,84.86187845303867,-0.0771107418612251,-0.0686778153051573,-0.1457884470560211,9.615196184674657e-08,9
2025-03-08 12:31:16.402,84.86187845303867,-0.0768381070026839,-0.0697152195520109,-0.1465532170635766,9.60222795355595e-08,9
2025-03-08 12:31:16.403,84.86187845303867,-0.0753955918171341,-0.0709874718527195,-0.146382954755371,9.58907030953684e-08,9
2025-03-08 12:31:16.405,84.86187845303867,-0.0731213483109539,-0.0724144513905612,-0.1455356913073209,9.57572458619864e-08,9
2025-03-08 12:31:16.407,84.86187845303867,-0.0707548919057606,-0.0737836292092568,-0.1445384132008372,9.56219242943014e-08,9
2025-03-08 12:31:16.409,84.86187845303867,-0.0691175779013563,-0.0748185442731329,-0.1439360147373387,9.548475708979632e-08,9
2025-03-08 12:31:16.411,84.86187845303867,-0.068739276058059,-0.0753151937939895,-0.1440543629270109,9.534576393192248e-08,9
2025-03-08 12:31:16.413,84.86187845303867,-0.0696274461288646,-0.07525049142426,-0.144877831193028,9.52049638256923e-08,9
2025-03-08 12:31:16.415,84.86187845303867,-0.0713037735158466,-0.0747797352840284,-0.1460834030448693,9.50623729359319e-08,9
2025-03-08 12:31:16.417,84.86187845303867,-0.0730808507601967,-0.074117412191458,-0.1471981578053922,9.491800222438024e-08,9
2025-03-08 12:31:16.419,84.86187845303867,-0.0744032483596362,-0.0733998891723295,-0.1478030329576358,9.47718557549128e-08,9
2025-03-08 12:31:16.421,84.86187845303867,-0.0750552226826728,-0.0726496658011199,-0.1477047844224588,9.46239307260981e-08,9
2025-03-08 12:31:16.423,84.86187845303867,-0.07515906886242,-0.0718550081680729,-0.1470139734319041,9.447421971087897e-08,9
2025-03-08 12:31:16.425,84.86187845303867,-0.0750249460997422,-0.0710685827767939,-0.1460934257255927,9.432271450633329e-08,9
2025-03-08 12:31:16.427,84.86187845303867,-0.074958774837636,-0.0704339732088284,-0.1453926453707026,9.41694101637459e-08,9
2025-03-08 12:31:16.429,84.86187845303867,-0.0751145215270167,-0.0701295137504485,-0.1452439331311818,9.401430773959833e-08,9
2025-03-08 12:31:16.431,84.86187845303867,-0.075446156949096,-0.0702778833243211,-0.1457239387068364,9.385741502651707e-08,9
2025-03-08 12:31:16.433,84.86187845303867,-0.0757694451494894,-0.0708831302482026,-0.1466524744278893,9.369874541791132e-08,9
2025-03-08 12:31:16.435,84.86187845303867,-0.0758800225899465,-0.071836927695844,-0.147716849885339,9.353831556775949e-08,9
2025-03-08 12:31:16.437,84.86187845303867,-0.075642354855793,-0.0729865201053905,-0.1486287750709841,9.33761425223851e-08,9
2025-03-08 12:31:16.439,84.86187845303867,-0.0750072236675588,-0.0742058479185765,-0.1492129721457513,9.32122408086804e-08,9
2025-03-08 12:31:16.441,84.86187845303867,-0.073993213683587,-0.0754080350069869,-0.1494011496697387,9.30466198938339e-08,9
2025-03-08 12:31:16.443,84.86187845303867,-0.0726933329289107,-0.0764945926850962,-0.1491878270281268,9.287928257248429e-08,9
2025-03-08 12:31:16.444,84.86187845303867,-0.071313316023375,-0.0773067324455519,-0.1486199503699138,9.271022492125158e-08,9
2025-03-08 12:31:16.446,84.86187845303867,-0.0701820711542019,-0.0776531502230676,-0.1478351238243737,9.253943811224957e-08,9
2025-03-08 12:31:16.448,84.86187845303867,-0.0696747583296426,-0.0774143193400026,-0.1470889806959035,9.23669115467015e-08,9
2025-03-08 12:31:16.450,84.86187845303867,-0.0700477718521631,-0.0766429496696875,-0.1466906251143289,9.21926359009856e-08,9
2025-03-08 12:31:16.452,84.86187845303867,-0.0712514809801544,-0.0755812593713859,-0.1468326444562582,9.201660443394116e-08,9
2025-03-08 12:31:16.454,84.86187845303867,-0.0728368045986281,-0.074576124150097,-0.1474128332978634,9.183881162708739e-08,9
2025-03-08 12:31:16.456,84.86187845303867,-0.0740716528638226,-0.0739152705150283,-0.1479868283257358,9.165924956252256e-08,9
2025-03-08 12:31:16.458,84.86187845303867,-0.0742816168098314,-0.0736284989883518,-0.1479100211411952,9.147790355869352e-08,9
2025-03-08 12:31:16.460,84.86187845303867,-0.0732577566285858,-0.0733420000921327,-0.1465996625031075,9.129474885537992e-08,9
2025-03-08 12:31:16.462,84.86187845303867,-0.0714721029115829,-0.0723078372446966,-0.1437798464417856,9.110974955823973e-08,9
2025-03-08 12:31:16.464,84.86187845303867,-0.0699225686545731,-0.0696633113769813,-0.1395857868687992,9.092286007859285e-08,9
2025-03-08 12:31:16.466,84.86187845303867,-0.0696545086856071,-0.06481672894928,-0.1344711450296439,9.073402848392574e-08,9
2025-03-08 12:31:16.468,84.86187845303867,-0.0712139067029692,-0.057749684003032,-0.1289634986163204,9.054320081772758e-08,9
2025-03-08 12:31:16.470,84.86187845303867,-0.0743384014910423,-0.0490742404650396,-0.123412550313005,9.03503254836839e-08,9
2025-03-08 12:31:16.472,84.86187845303867,-0.0780665442312967,-0.0398370674053731,-0.1179035203794993,9.01553569629329e-08,9
2025-03-08 12:31:16.474,84.86187845303867,-0.0812190976322667,-0.0311992463155594,-0.1124182530550541,8.99582583071149e-08,9
2025-03-08 12:31:16.476,84.86187845303867,-0.0829983176649927,-0.0241577122388271,-0.1071559394031188,8.975900205860188e-08,9
2025-03-08 12:31:16.478,84.86187845303867,-0.0833765662319286,-0.0194075056534492,-0.1027839818372838,8.955756952460129e-08,9
2025-03-08 12:31:16.480,84.86187845303867,-0.0830522777610125,-0.0173291091039744,-0.1003812973290306,8.935394863406204e-08,9
2025-03-08 12:31:16.482,84.86187845303867,-0.0829823751360725,-0.0179931491563364,-0.100975435293847,8.914813089183325e-08,9
2025-03-08 12:31:16.484,84.86187845303867,-0.0837290390900969,-0.0210624425310848,-0.1047913931361047,8.894010812327836e-08,9
2025-03-08 12:31:16.485,84.86187845303867,-0.0849733267242901,-0.0255722701664806,-0.1105455088574581,8.872986962328385e-08,9
2025-03-08 12:31:16.487,84.86187845303867,-0.0855001171800648,-0.029752996660757,-0.1152530261911321,8.85173999952131e-08,9
2025-03-08 12:31:16.489,84.86187845303867,-0.0837458422407932,-0.0311894886780992,-0.1149352436128209,8.830267766404655e-08,9
2025-03-08 12:31:16.491,84.86187845303867,-0.078678862942094,-0.027510588219592,-0.1061893642066724,8.808567402266228e-08,9
2025-03-08 12:31:16.493,84.86187845303867,-0.0705261715263844,-0.0174284304278454,-0.0879545153991062,8.786635332122958e-08,9
2025-03-08 12:31:16.495,84.86187845303867,-0.0608824011344016,-0.0015556475192143,-0.0624379625606986,8.764467343759135e-08,9
2025-03-08 12:31:16.497,84.86187845303867,-0.0520760655079437,0.0175790066495416,-0.034496973268821,8.742058750505292e-08,9
2025-03-08 12:31:16.499,84.86187845303867,-0.0461156284642917,0.0364129113784436,-0.0097026319965855,8.719404623313454e-08,9
2025-03-08 12:31:16.501,84.86187845303867,-0.0437908229916052,0.0516412026345736,0.0078504642783648,8.69650007248324e-08,9
2025-03-08 12:31:16.503,84.86187845303867,-0.0443860787697516,0.0612359220497602,0.0168499275278403,8.67334055109836e-08,9
2025-03-08 12:31:16.505,84.86187845303867,-0.0460828469852499,0.0647990351235117,0.0187162720511281,8.649922131289227e-08,9
2025-03-08 12:31:16.507,84.86187845303867,-0.0467909707704791,0.0632991572079557,0.0165082700286671,8.626241686030936e-08,9
2025-03-08 12:31:16.509,84.86187845303867,-0.0450389365266784,0.0584896799403966,0.0134508266528463,8.602296910425834e-08,9
2025-03-08 12:31:16.511,84.86187845303867,-0.0405989474517483,0.0522744655751139,0.0116756009549966,8.578086144317974e-08,9
2025-03-08 12:31:16.513,84.86187845303867,-0.0346097551157645,0.0461426770244943,0.0115330042835892,8.553608009576343e-08,9
2025-03-08 12:31:16.515,84.86187845303867,-0.0291037771458581,0.0407476802018961,0.0116439849580633,8.528860933844235e-08,9
2025-03-08 12:31:16.517,84.86187845303867,-0.026093525814933,0.0357756862466237,0.0096822418868987,8.503842672713327e-08,9
2025-03-08 12:31:16.519,84.86187845303867,-0.026629503836295,0.0302314081101902,0.0036019853370512,8.478549948307911e-08,9
2025-03-08 12:31:16.521,84.86187845303867,-0.0303047848010185,0.0230330672487697,-0.0072716368253943,8.452978294885817e-08,9
2025-03-08 12:31:16.523,84.86187845303867,-0.0354700663987984,0.013564816216144,-0.0219051697625432,8.427122146344732e-08,9
2025-03-08 12:31:16.525,84.86187845303867,-0.040069272885308,0.0018778421157314,-0.0381913506653368,8.400975123757623e-08,9
2025-03-08 12:31:16.527,84.86187845303867,-0.0427017010537894,-0.0114646715049053,-0.0541662928101297,8.37453040777225e-08,9
2025-03-08 12:31:16.528,84.86187845303867,-0.0433876958707135,-0.0256499401605836,-0.0690375566854886,8.347781052421788e-08,9
2025-03-08 12:31:16.530,84.86187845303867,-0.0436251576548294,-0.0397514046486292,-0.0833764833888426,8.320720140158797e-08,9
2025-03-08 12:31:16.532,84.86187845303867,-0.045655544671058,-0.0527270150948877,-0.0983824812773494,8.29334076951714e-08,9
2025-03-08 12:31:16.534,84.86187845303867,-0.0512663826808993,-0.0634735118290193,-0.1147398164116162,8.265635946553595e-08,9
2025-03-08 12:31:16.536,84.86187845303867,-0.0607301524399225,-0.071116589833093,-0.1318466645171403,8.237598478445126e-08,9
2025-03-08 12:31:16.538,84.86187845303867,-0.0724567071656749,-0.0754695822680834,-0.1479262119836717,8.209220946012003e-08,9
2025-03-08 12:31:16.540,84.86187845303867,-0.0835984800645088,-0.0773328871419253,-0.1609312900528134,8.180495784092078e-08,9
2025-03-08 12:31:16.542,84.86187845303867,-0.0913482891942195,-0.0783148569872603,-0.1696630693434966,8.151415451138465e-08,9
2025-03-08 12:31:16.544,84.86187845303867,-0.0942804920508777,-0.0801718846055537,-0.1744523001685942,8.121972647829488e-08,9
2025-03-08 12:31:16.546,84.86187845303867,-0.0930366856082752,-0.08401899457509,-0.1770556040758424,8.092160548052663e-08,9
2025-03-08 12:31:16.548,84.86187845303867,-0.0899819602191174,-0.0898535796806204,-0.1798354641825959,8.061973007271884e-08,9
2025-03-08 12:31:16.550,84.86187845303867,-0.0879878657190164,-0.0966224600899714,-0.1846102504678259,8.031404704412712e-08,9
2025-03-08 12:31:16.552,84.86187845303867,-0.0889611889021028,-0.1027405728837212,-0.1917016867898138,8.00045117628657e-08,9
2025-03-08 12:31:16.554,84.86187845303867,-0.092886743515022,-0.1067577524552733,-0.1996444212873267,7.9691087331621e-08,9
2025-03-08 12:31:16.556,84.86187845303867,-0.0978939073183392,-0.1078661364140748,-0.2057599693431218,7.937374291905916e-08,9
2025-03-08 12:31:16.558,84.86187845303867,-0.1013109388768108,-0.1061016942883882,-0.2074125590692112,7.905245208988954e-08,9
2025-03-08 12:31:16.560,84.86187845303867,-0.1011310870596737,-0.1022749401014978,-0.2034059533736315,7.872719208046864e-08,9
2025-03-08 12:31:16.562,84.86187845303867,-0.0971053953704866,-0.097722465348592,-0.1948277872605036,7.839794446981911e-08,9
2025-03-08 12:31:16.564,84.86187845303867,-0.0909200913481626,-0.0939145299522608,-0.1848345481856899,7.80646967029629e-08,9
2025-03-08 12:31:16.566,84.86187845303867,-0.0854093779071874,-0.0919608803360117,-0.177370185474867,7.772744307227995e-08,9
2025-03-08 12:31:16.568,84.86187845303867,-0.0831927373536296,-0.0921978752617782,-0.1753905401835722,7.738618375391123e-08,9
2025-03-08 12:31:16.569,84.86187845303867,-0.0853669394719536,-0.0941158577040338,-0.1794827250633834,7.704092145433963e-08,9
2025-03-08 12:31:16.571,84.86187845303867,-0.0908895523647394,-0.0967052117724308,-0.1875946923261963,7.669165654730412e-08,9
2025-03-08 12:31:16.573,84.86187845303867,-0.0970060329913628,-0.0989947434022417,-0.1960007048719893,7.633838247720608e-08,9
2025-03-08 12:31:16.575,84.86187845303867,-0.1005492788795348,-0.1004321786052772,-0.2009813862482118,7.59810832559211e-08,9
2025-03-08 12:31:16.577,84.86187845303867,-0.0994711901171444,-0.1009137789578852,-0.2003848981266187,7.56197341748463e-08,9
2025-03-08 12:31:16.579,84.86187845303867,-0.0938694372504458,-0.1005363740366508,-0.1944057406351731,7.525430575762093e-08,9
2025-03-08 12:31:16.581,84.86187845303867,-0.0860673796588163,-0.0993288874940163,-0.1853961968074555,7.488476986028358e-08,9
2025-03-08 12:31:16.583,84.86187845303867,-0.0797405428963631,-0.0972567684713928,-0.1769972413370328,7.451110602868776e-08,9
2025-03-08 12:31:16.585,84.86187845303867,-0.078443010371827,-0.0946696683936559,-0.1731126090520542,7.413330611459812e-08,9
2025-03-08 12:31:16.587,84.86187845303867,-0.0840809339837005,-0.0931017246943298,-0.1771825892767001,7.375137589683992e-08,9
2025-03-08 12:31:16.589,84.86187845303867,-0.0958554071435142,-0.0960475571413905,-0.191902895182744,7.336533373320024e-08,9
2025-03-08 12:31:16.591,84.86187845303867,-0.1099974648926667,-0.1091603760241388,-0.2191577720966457,7.29752073736374e-08,9
2025-03-08 12:31:16.593,84.86187845303867,-0.1204137487628755,-0.139320897195065,-0.2597345774047284,7.258103040763186e-08,9
2025-03-08 12:31:16.595,84.86187845303867,-0.1202220574354245,-0.1922957140334344,-0.3125177031764436,7.21828394372834e-08,9
2025-03-08 12:31:16.597,84.86187845303867,-0.1039376023488333,-0.2693655723105352,-0.3733031066342138,7.178067248075953e-08,9
2025-03-08 12:31:16.599,84.86187845303867,-0.0696983082150119,-0.3641879081836753,-0.4338861486577881,7.137456867075382e-08,9
2025-03-08 12:31:16.601,84.86187845303867,-0.020634663919737,-0.4615750667801476,-0.4822096632628709,7.09645690196624e-08,9
2025-03-08 12:31:16.603,84.86187845303867,0.0353723043142043,-0.5391797345704423,-0.5038073631349937,7.055071783173742e-08,9
2025-03-08 12:31:16.605,84.86187845303867,0.0877176704394124,-0.5716033858142161,-0.4838856485659406,7.01330642745005e-08,9
2025-03-08 12:31:16.607,84.86187845303867,0.1263233105207755,-0.5353900491787794,-0.409066672142718,6.971166364468038e-08,9
2025-03-08 12:31:16.609,84.86187845303867,0.1449996414178307,-0.4135601628165162,-0.2685604551509303,6.928657789393564e-08,9
2025-03-08 12:31:16.610,84.86187845303867,0.1436234059306152,-0.1992710841847692,-0.0556476122534525,6.885787503858173e-08,9
2025-03-08 12:31:16.612,84.86187845303867,0.1281124279044755,0.1013354846738744,0.2294479783361207,6.842562730458998e-08,9
2025-03-08 12:31:16.614,84.86187845303867,0.1079385123933971,0.4674844449378447,0.5754230228311918,6.798990829779231e-08,9
2025-03-08 12:31:16.616,84.86187845303867,0.0919865415809539,0.8643713473110053,0.9563579541076256,6.755078994387819e-08,9
2025-03-08 12:31:16.618,84.86187845303867,0.0844238878881708,1.2470656437860677,1.331489596581534,6.71083400955375e-08,9
2025-03-08 12:31:16.620,84.86187845303867,0.0823530483192931,1.567845206830674,1.6501983197401848,6.666262142585445e-08,9
2025-03-08 12:31:16.622,84.86187845303867,0.0763875829752482,1.7856044712860997,1.8619921185459756,6.621369173289174e-08,9
2025-03-08 12:31:16.624,84.86187845303867,0.054330623187418,1.8745895480116967,1.9289202352035897,6.576160535863977e-08,9
2025-03-08 12:31:16.626,84.86187845303867,0.0069756387549344,1.8295045119206428,1.8364802144253347,6.530641517192217e-08,9
2025-03-08 12:31:16.628,84.86187845303867,-0.0662678666411052,1.6655560507588087,1.5992882476243255,6.484817450300187e-08,9
2025-03-08 12:31:16.630,84.86187845303867,-0.1548782038144046,1.4141018000249252,1.2592236594657942,6.438693858879852e-08,9
2025-03-08 12:31:16.632,84.86187845303867,-0.2397336910011402,1.115551752442718,0.8758181244227072,6.392276540724505e-08,9
2025-03-08 12:31:16.634,84.86187845303867,-0.2999437377403571,0.8111192283133783,0.5111755532557648,6.34557160444846e-08,9
2025-03-08 12:31:16.636,84.86187845303867,-0.320889483779086,0.5351981202343502,0.2143086988272599,6.298585482515565e-08,9
2025-03-08 12:31:16.638,84.86187845303867,-0.2996616177341508,0.3104519858068248,0.0107904301392995,6.251324934030699e-08,9
2025-03-08 12:31:16.640,84.86187845303867,-0.2454933136387014,0.1467805552944439,-0.0987126965645897,6.203797026754073e-08,9
2025-03-08 12:31:16.642,84.86187845303867,-0.175422670929885,0.0432923280328326,-0.1321302813849361,6.156009064639785e-08,9
2025-03-08 12:31:16.644,84.86187845303867,-0.1076892157299812,-0.0087295849534049,-0.1164187394303003,6.107968433480403e-08,9
2025-03-08 12:31:16.646,84.86187845303867,-0.0560028146048874,-0.0230647216148119,-0.0790674752325589,6.059682385739215e-08,9
2025-03-08 12:31:16.648,84.86187845303867,-0.0267087426837917,-0.0157947170243373,-0.0425033990040156,6.01115784597591e-08,9
2025-03-08 12:31:16.650,84.86187845303867,-0.0190307007479847,-0.0021176190359009,-0.0211482593785862,5.962401338401125e-08,9
2025-03-08 12:31:16.652,84.86187845303867,-0.0272625333176735,0.0067878707085304,-0.0204746025069307,5.9134190986239364e-08,9
2025-03-08 12:31:16.653,84.86187845303867,-0.043526446240799,0.0056562544926358,-0.0378701319393972,5.8642173558370963e-08,9
2025-03-08 12:31:16.655,84.86187845303867,-0.0601800568286021,-0.0050734996531607,-0.0652534969498851,5.8148026879510123e-08,9
2025-03-08 12:31:16.657,84.86187845303867,-0.0715214850385237,-0.0213438237273978,-0.0928652494993683,5.765182285898272e-08,9
2025-03-08 12:31:16.659,84.86187845303867,-0.0747509729236409,-0.0382818539185802,-0.1130327678434427,5.715363956782549e-08,9
2025-03-08 12:31:16.661,84.86187845303867,-0.0701958367488538,-0.0524055301307147,-0.1226013081649396,5.665355790080769e-08,9
2025-03-08 12:31:16.663,84.86187845303867,-0.0607792645628058,-0.0624841405059448,-0.1232633466588092,5.615165587586237e-08,9
2025-03-08 12:31:16.665,84.86187845303867,-0.0507875053858026,-0.0691094760272595,-0.1198969233188281,5.5648003149925454e-08,9
2025-03-08 12:31:16.667,84.86187845303867,-0.0442120809586612,-0.0736109746483034,-0.1178229978210807,5.514265856337402e-08,9
2025-03-08 12:31:16.669,84.86187845303867,-0.0432045774248007,-0.077074543915592,-0.1202790638394217,5.463567209608485e-08,9
2025-03-08 12:31:16.671,84.86187845303867,-0.0472733209829186,-0.0799383233111971,-0.1272115870516997,5.41270903231833e-08,9
2025-03-08 12:31:16.673,84.86187845303867,-0.0536245755635883,-0.0821644050601138,-0.1357889236273174,5.361696267437055e-08,9
2025-03-08 12:31:16.675,84.86187845303867,-0.0585534640484513,-0.0836296705296568,-0.1421830778391794,5.310534557748857e-08,9
2025-03-08 12:31:16.677,84.86187845303867,-0.0592589253205157,-0.0843672269846818,-0.1436260958554867,5.259230296525305e-08,9
2025-03-08 12:31:16.679,84.86187845303867,-0.0551959055790902,-0.0845615145367378,-0.1397573639908178,5.207790368758519e-08,9
2025-03-08 12:31:16.681,84.86187845303867,-0.048275314390116,-0.0844410410966127,-0.13271629970476,5.156221777433749e-08,9
2025-03-08 12:31:16.683,84.86187845303867,-0.0418038142445973,-0.0842152908133662,-0.1260190496073019,5.104531348741591e-08,9
2025-03-08 12:31:16.685,84.86187845303867,-0.0387095875852096,-0.0840745769857053,-0.122784109413289,5.0527256035086323e-08,9
2025-03-08 12:31:16.687,84.86187845303867,-0.0399716952401208,-0.0842139981576181,-0.1241856384878558,5.0008107680890463e-08,9
2025-03-08 12:31:16.689,84.86187845303867,-0.0440717622659232,-0.0848642141299963,-0.1289359217069906,4.94879284773441e-08,9
2025-03-08 12:31:16.691,84.86187845303867,-0.0477816530504506,-0.086291359187297,-0.1340729577786991,4.8966777047269537e-08,9
2025-03-08 12:31:16.693,84.86187845303867,-0.0479225994878638,-0.0886840109561555,-0.1366065562577355,4.844471134526468e-08,9
2025-03-08 12:31:16.694,84.86187845303867,-0.0431783237008418,-0.0919266719100432,-0.135104941752953,4.79217896914726e-08,9
2025-03-08 12:31:16.696,84.86187845303867,-0.0349349255344395,-0.0954402432042593,-0.1303751152472647,4.739807233787855e-08,9
2025-03-08 12:31:16.698,84.86187845303867,-0.0266219863257474,-0.0983080702334155,-0.1249300034323256,4.687362351474668e-08,9
2025-03-08 12:31:16.700,84.86187845303867,-0.021908987565451,-0.0996928901226753,-0.1216018248821382,4.634851354761382e-08,9
2025-03-08 12:31:16.702,84.86187845303867,-0.0227931208189267,-0.0992825912612227,-0.1220756595308069,4.582282038432152e-08,9
2025-03-08 12:31:16.704,84.86187845303867,-0.0286306410618702,-0.0974505618636169,-0.1260811505822262,4.529662989059204e-08,9
2025-03-08 12:31:16.706,84.86187845303867,-0.0365458815812144,-0.0950340482843936,-0.1315798777201073,4.477003471301778e-08,9
2025-03-08 12:31:16.708,84.86187845303867,-0.0428721584134211,-0.0929183524943934,-0.1357904590009738,4.424313222644904e-08,9
2025-03-08 12:31:16.710,84.86187845303867,-0.0448250655614816,-0.0917145664468183,-0.1365395804106071,4.3716022593229325e-08,9
2025-03-08 12:31:16.712,84.86187845303867,-0.0416347482502463,-0.0916740695133416,-0.1333087665383456,4.318880780844933e-08,9
2025-03-08 12:31:16.714,84.86187845303867,-0.0347135338496712,-0.092755324162924,-0.127468807181349,4.266159180534311e-08,9
2025-03-08 12:31:16.716,84.86187845303867,-0.0268788859650748,-0.0946638273438914,-0.1215426628381105,4.2134480782636426e-08,9
2025-03-08 12:31:16.718,84.86187845303867,-0.0210206331037959,-0.0968077987682468,-0.1178283816887697,4.1607582532892326e-08,9
2025-03-08 12:31:16.720,84.86187845303867,-0.018799008092105,-0.0983136525320686,-0.1171126106542313,4.108100399729299e-08,9
2025-03-08 12:31:16.722,84.86187845303867,-0.0199478567143302,-0.0982778489652625,-0.1182256558871758,4.0554847344042544e-08,9
2025-03-08 12:31:16.724,84.86187845303867,-0.0225189306868276,-0.0962132112482696,-0.1187320923433718,4.0029205983891233e-08,9
2025-03-08 12:31:16.726,84.86187845303867,-0.0239621325837623,-0.09240135003582,-0.1163634333001691,3.950416238418527e-08,9
2025-03-08 12:31:16.728,84.86187845303867,-0.0224779197935715,-0.0878662911762018,-0.1103441620059563,3.897978884210557e-08,9
2025-03-08 12:31:16.730,84.86187845303867,-0.0179141874410781,-0.0839415164547177,-0.1018556553385339,3.84561507423762e-08,9
2025-03-08 12:31:16.732,84.86187845303867,-0.0117532111803599,-0.0816801362700246,-0.0934332992905462,3.793331027238981e-08,9
2025-03-08 12:31:16.734,84.86187845303867,-0.0062493393349844,-0.0814506013233875,-0.0876998928304286,3.741132826932615e-08,9
2025-03-08 12:31:16.736,84.86187845303867,-0.0032056593544343,-0.0829208853644815,-0.0861264971347588,3.6890263116235694e-08,9
2025-03-08 12:31:16.737,84.86187845303867,-0.0030223572323851,-0.0853658603317557,-0.0883881701595196,3.6370167506800946e-08,9
2025-03-08 12:31:16.739,84.86187845303867,-0.0044929027240524,-0.0880411802637376,-0.092534035756812,3.585108523460976e-08,9
2025-03-08 12:31:16.741,84.86187845303867,-0.0054465416314313,-0.090402156976674,-0.0958486516072401,3.5333050194708846e-08,9
2025-03-08 12:31:16.743,84.86187845303867,-0.0038942782763849,-0.0921326003426068,-0.0960268319380509,3.4816088510028714e-08,9
2025-03-08 12:31:16.745,84.86187845303867,0.0009405848205461,-0.0930794298136866,-0.092138798708282,3.4300222832410545e-08,9
2025-03-08 12:31:16.747,84.86187845303867,0.0082592806501595,-0.0931869166584395,-0.0849275901418205,3.378547656247297e-08,9
2025-03-08 12:31:16.749,84.86187845303867,0.0161616485160456,-0.0924746920950774,-0.0763129980874421,3.327187583393376e-08,9
2025-03-08 12:31:16.751,84.86187845303867,0.0226576170553271,-0.0910640533873365,-0.0684063911286363,3.2759448507555535e-08,9
2025-03-08 12:31:16.753,84.86187845303867,0.0266333811191135,-0.0892103130658696,-0.0625768869474011,3.224822112461647e-08,9
2025-03-08 12:31:16.755,84.86187845303867,0.0282552018625154,-0.0872663656253072,-0.0590111189300977,3.173821571527647e-08,9
2025-03-08 12:31:16.757,84.86187845303867,0.0286596116307028,-0.08554402832566,-0.0568843720581273,3.1229448131975626e-08,9
2025-03-08 12:31:16.759,84.86187845303867,0.0292084878817854,-0.084143601501584,-0.0549350692592234,3.0721928504032566e-08,9
2025-03-08 12:31:16.761,84.86187845303867,0.0308063212213909,-0.0828961205642124,-0.0520897553477766,3.0215663247066844e-08,9
2025-03-08 12:31:16.763,84.86187845303867,0.0336521158636641,-0.0815154244290159,-0.0478632649871662,2.9710657510868057e-08,9
2025-03-08 12:31:16.765,84.86187845303867,0.0374399319768524,-0.0798789034755069,-0.0424389283240654,2.9206917122961915e-08,9
2025-03-08 12:31:16.767,84.86187845303867,0.04171993198431,-0.0781870734873909,-0.0364670986617026,2.870444956561925e-08,9
2025-03-08 12:31:16.769,84.86187845303867,0.0461223657270563,-0.0768074458946761,-0.0306850375693537,2.8203263984248737e-08,9
2025-03-08 12:31:16.771,84.86187845303867,0.0503885062134614,-0.0759044549932704,-0.0255159063622532,2.770337064003586e-08,9
2025-03-08 12:31:16.773,84.86187845303867,0.0543567869343869,-0.0751988869013382,-0.0208420577277753,2.720478047622775e-08,9
2025-03-08 12:31:16.775,84.86187845303867,0.0580081735943031,-0.0741010251871116,-0.0160928095902405,2.6707505313178466e-08,9
2025-03-08 12:31:16.777,84.86187845303867,0.0615048896905339,-0.0721207294569021,-0.0106157980879318,2.6211558667042563e-08,9
2025-03-08 12:31:16.778,84.86187845303867,0.0651237927762362,-0.0692346602682826,-0.0041108262083936,2.5716956688768812e-08,9
2025-03-08 12:31:16.780,84.86187845303867,0.0691144378879775,-0.0659610623546707,0.0031534164050154,2.5223718598406335e-08,9
2025-03-08 12:31:16.782,84.86187845303867,0.0736016643680984,-0.0631157863197304,0.0104859185524867,2.4731866351337742e-08,9
2025-03-08 12:31:16.784,84.86187845303867,0.0785948500386021,-0.0613984089192691,0.0171964813374436,2.4241423883427413e-08,9
2025-03-08 12:31:16.786,84.86187845303867,0.0840527298680952,-0.0610180700068468,0.0230346998688858,2.375241659456608e-08,9
2025-03-08 12:31:16.788,84.86187845303867,0.0899172944847038,-0.0615424827599588,0.0283748515521718,2.326487140865749e-08,9
2025-03-08 12:31:16.790,84.86187845303867,0.0960980157181308,-0.0620609641687457,0.0340370911668623,2.2778817164668793e-08,9
2025-03-08 12:31:16.792,84.86187845303867,0.1024638939244693,-0.0616010463747519,0.0408628868844368,2.229428485968998e-08,9
2025-03-08 12:31:16.794,84.86187845303867,0.1088865876426115,-0.0595869851106532,0.049299641507044,2.1811307450062597e-08,9
2025-03-08 12:31:16.796,84.86187845303867,0.1152992480721529,-0.0560850161292926,0.059214270517515,2.1329919166511315e-08,9
2025-03-08 12:31:16.798,84.86187845303867,0.1217066706979919,-0.0516969684687177,0.070009740419061,2.0850154441833082e-08,9
2025-03-08 12:31:16.800,84.86187845303867,0.12814070946244,-0.0471724228861614,0.0809683244434784,2.0372046707912365e-08,9
2025-03-08 12:31:16.802,84.86187845303867,0.1346184479870504,-0.0429792577081741,0.091639227898785,1.9895627540692072e-08,9
2025-03-08 12:31:16.804,84.86187845303867,0.1411491362210672,-0.0390969836366611,0.1020521900058623,1.942092666168484e-08,9
2025-03-08 12:31:16.806,84.86187845303867,0.1477695692650731,-0.0351508827841311,0.112618723701856,1.894797290398678e-08,9
2025-03-08 12:31:16.808,84.86187845303867,0.1545566679154869,-0.0307791333519248,0.1237775715337418,1.847679564186885e-08,9
2025-03-08 12:31:16.810,84.86187845303867,0.1616108400882913,-0.0259744105181607,0.1356364662190408,1.8007425910878178e-08,9
2025-03-08 12:31:16.812,84.86187845303867,0.1690469223039401,-0.0211551963228392,0.1478917622552425,1.7539896783867606e-08,9
2025-03-08 12:31:16.814,84.86187845303867,0.1769938844453683,-0.0168898618906043,0.1601040584448547,1.7074243202068232e-08,9
2025-03-08 12:31:16.816,84.86187845303867,0.1855547323914927,-0.0134432154029868,0.1721115525326755,1.6610501823319392e-08,9
2025-03-08 12:31:16.818,84.86187845303867,0.1947181316666561,-0.0104836723904955,0.1842344945383978,1.6148711301172793e-08,9
2025-03-08 12:31:16.819,84.86187845303867,0.2042980412748227,-0.0072073037879141,0.1970907725229425,1.5688912952594413e-08,9
2025-03-08 12:31:16.821,84.86187845303867,0.2139773350550682,-0.0028205854016108,0.2111567844823262,1.5231151345198084e-08,9
2025-03-08 12:31:16.823,84.86187845303867,0.2234360451820112,0.0029671727704311,0.2264032525483005,1.4775474200536305e-08,9
2025-03-08 12:31:16.825,84.86187845303867,0.2324727174512557,0.0098014853036806,0.2422742370624924,1.4321931302287332e-08,9
2025-03-08 12:31:16.827,84.86187845303867,0.2410530819616604,0.0169702084853478,0.2580233244115242,1.3870572689514736e-08,9
2025-03-08 12:31:16.829,84.86187845303867,0.2492891295767844,0.0238712436292278,0.2731604068016138,1.3421446906944256e-08,9
2025-03-08 12:31:16.831,84.86187845303867,0.2573770453458089,0.0303089675515205,0.2876860461390101,1.2974600122928797e-08,9
2025-03-08 12:31:16.833,84.86187845303867,0.2655065723939876,0.036456680603555,0.3019632859314327,1.2530076543768037e-08,9
2025-03-08 12:31:16.835,84.86187845303867,0.2737607438131013,0.0426007245442124,0.3163615010353496,1.2087920093864396e-08,9
2025-03-08 12:31:16.837,84.86187845303867,0.282058913831066,0.0489035718912522,0.3309625181752357,1.164817697421223e-08,9
2025-03-08 12:31:16.839,84.86187845303867,0.2901934752122623,0.0553358294172357,0.3455293368522119,1.1210898327811123e-08,9
2025-03-08 12:31:16.841,84.86187845303867,0.297949184905946,0.0617619426982855,0.3597111595604872,1.0776141900777924e-08,9
2025-03-08 12:31:16.843,84.86187845303867,0.3052307007332618,0.0680634597662064,0.3732941921422922,1.0343971756715621e-08,9
2025-03-08 12:31:16.845,84.86187845303867,0.3121125669945926,0.0741965804414285,0.3863091787325187,9.91445599799458e-09,9
2025-03-08 12:31:16.847,84.86187845303867,0.3187722141745987,0.0801627215159167,0.3989349666379784,9.487663549443507e-09,9
2025-03-08 12:31:16.849,84.86187845303867,0.3253474854960034,0.085940287413734,0.4112878035352866,9.063661512131651e-09,9
2025-03-08 12:31:16.851,84.86187845303867,0.3318207460410959,0.0914460519371654,0.4232668283232017,8.642514009346645e-09,9
2025-03-08 12:31:16.853,84.86187845303867,0.3380085294956341,0.0965801998525431,0.4345887594460465,8.224282280413614e-09,9
2025-03-08 12:31:16.855,84.86187845303867,0.3436447605348345,0.1013572397907273,0.4450020301855312,7.809024987280679e-09,9
2025-03-08 12:31:16.857,84.86187845303867,0.3484862276200792,0.106034363457056,0.4545206206809318,7.396797918124595e-09,9
2025-03-08 12:31:16.859,84.86187845303867,0.3523903394178448,0.1111054461524771,0.4634958148833681,6.987653226013155e-09,9
2025-03-08 12:31:16.861,84.86187845303867,0.355353635527943,0.1171198153765601,0.4724734798946323,6.581639119573391e-09,9
2025-03-08 12:31:16.862,84.86187845303867,0.3574986904356929,0.1244295250873484,0.4819282441767054,6.1788008525316695e-09,9
2025-03-08 12:31:16.864,84.86187845303867,0.3589932264951594,0.1330102211487137,0.4920034759717258,5.779183047884425e-09,9
2025-03-08 12:31:16.866,84.86187845303867,0.3599174324128218,0.1424281817650059,0.5023456422075633,5.382832517829051e-09,9
2025-03-08 12:31:16.868,84.86187845303867,0.3601344411396511,0.1519458564452238,0.512080325345887,4.9898004609018984e-09,9
2025-03-08 12:31:16.870,84.86187845303867,0.3592322737706176,0.160716578547357,0.5199488798262737,4.600143416952322e-09,9
2025-03-08 12:31:16.872,84.86187845303867,0.3565943859591362,0.1679946164585831,0.5245890296687962,4.213923220981271e-09,9
2025-03-08 12:31:16.874,84.86187845303867,0.3516069163756674,0.1732857506793714,0.5248926940277143,3.8312066913809975e-09,9
2025-03-08 12:31:16.876,84.86187845303867,0.3439170143784187,0.176407370561504,0.5203244116083633,3.4520655143540956e-09,9
2025-03-08 12:31:16.878,84.86187845303867,0.3335920236022657,0.1774759825341541,0.5110680324835304,3.076576104243085e-09,9
2025-03-08 12:31:16.880,84.86187845303867,0.3210837296237324,0.1768341923621796,0.4979179480111557,2.704818910238555e-09,9
2025-03-08 12:31:16.882,84.86187845303867,0.3070378053735295,0.1749034341226809,0.4819412652143294,2.3368770393013967e-09,9
2025-03-08 12:31:16.884,84.86187845303867,0.2920750030987362,0.171990385558196,0.4640654140890051,1.97283471325916e-09,9
2025-03-08 12:31:16.886,84.86187845303867,0.2766486250634565,0.1681589246877898,0.4448075749133402,1.6127763085775664e-09,9
2025-03-08 12:31:16.888,84.86187845303867,0.2610045119597833,0.1632764800713123,0.4242810169265558,1.2567863603981035e-09,9
2025-03-08 12:31:16.890,84.86187845303867,0.2452107634291602,0.1572121014638034,0.4024228895119749,9.049502730950018e-10,9
2025-03-08 12:31:16.892,84.86187845303867,0.2292202025059756,0.1500284412187243,0.3792486680506564,5.573550022402624e-10,9
2025-03-08 12:31:16.894,84.86187845303867,0.2129565692789179,0.1420180376829019,0.3549746309805394,2.1408894285204156e-10,9
2025-03-08 12:31:16.896,84.86187845303867,0.1964185479976838,0.1335747468100829,0.329993318514468,-1.2475930727223614e-10,9
2025-03-08 12:31:16.898,84.86187845303867,0.1797572673047187,0.1250135487896499,0.3047708394949764,-4.59103038782618e-10,9
2025-03-08 12:31:16.900,84.86187845303867,0.1632631408089329,0.1164561825032239,0.279719346418835,-7.88859708061771e-10,9
2025-03-08 12:31:16.902,84.86187845303867,0.1472528683853556,0.1078245615558214,0.2550774527650818,-1.1139526866424872e-09,9
2025-03-08 12:31:16.903,84.86187845303867,0.1319311173280476,0.0989160404302677,0.2308471803037712,-1.4343120197091822e-09,9
2025-03-08 12:31:16.905,84.86187845303867,0.1173196106715151,0.0895177203933754,0.2068373533280003,-1.7498741707865163e-09,9
2025-03-08 12:31:16.907,84.86187845303867,0.1032901896848459,0.0795315034928509,0.182821715149656,-2.0605812166847196e-09,9
2025-03-08 12:31:16.909,84.86187845303867,0.0896772327328745,0.0690810480204783,0.1587583024260855,-2.366380221722792e-09,9
2025-03-08 12:31:16.911,84.86187845303867,0.0764157770400898,0.0585518509296439,0.134967649340387,-2.6672232905428366e-09,9
2025-03-08 12:31:16.913,84.86187845303867,0.0636403727001393,0.0485222384640292,0.1121626322359765,-2.963068181078848e-09,9
2025-03-08 12:31:16.915,84.86187845303867,0.051679355445831,0.0395963528557833,0.0912757290809851,-3.2538788753086554e-09,9
2025-03-08 12:31:16.917,84.86187845303867,0.0409142792002123,0.0322065537479297,0.0731208534400724,-3.539625550742835e-09,9
2025-03-08 12:31:16.919,84.86187845303867,0.0315628721453264,0.0264574735667551,0.0580203659168718,-3.820283825609944e-09,9
2025-03-08 12:31:16.921,84.86187845303867,0.0235315674250492,0.0220487210599302,0.0455803083982457,-4.095833520601936e-09,9
2025-03-08 12:31:16.923,84.86187845303867,0.0164594590473748,0.0183056961429535,0.034765174806162,-4.366257266884989e-09,9
2025-03-08 12:31:16.925,84.86187845303867,0.0099254838388806,0.0143694571113297,0.0242949602653502,-4.631539231966054e-09,9
2025-03-08 12:31:16.927,84.86187845303867,0.0036635828262964,0.0095485295455998,0.0132121313881581,-4.891664208085301e-09,9
2025-03-08 12:31:16.929,84.86187845303867,-0.0023456307634805,0.0036912929340524,0.0013456808938891,-5.146617293281941e-09,9
2025-03-08 12:31:16.931,84.86187845303867,-0.007922370519666,-0.0026597004712433,-0.0105820525543332,-5.3963843230495235e-09,9
2025-03-08 12:31:16.933,84.86187845303867,-0.0128164744027073,-0.0084785922932439,-0.021295048544007,-5.640953102498573e-09,9
2025-03-08 12:31:16.935,84.86187845303867,-0.0168528437549474,-0.0127496447542808,-0.0296024706459757,-5.880315335047359e-09,9
2025-03-08 12:31:16.937,84.86187845303867,-0.0200355413526812,-0.0149786437261792,-0.0350141675128039,-6.114468858221889e-09,9
2025-03-08 12:31:16.939,84.86187845303867,-0.0225672998673737,-0.0154468745516014,-0.0380141571583258,-6.343419463391838e-09,9
2025-03-08 12:31:16.941,84.86187845303867,-0.0247771265110526,-0.0150798139987613,-0.0398569235574469,-6.5671815023723045e-09,9
2025-03-08 12:31:16.943,84.86187845303867,-0.0269798505633252,-0.015017657359317,-0.0419974912738295,-6.785776846722333e-09,9
2025-03-08 12:31:16.944,84.86187845303867,-0.0293165583020939,-0.016130018517209,-0.0454465604638325,-6.999232374866687e-09,9
2025-03-08 12:31:16.946,84.86187845303867,-0.0316636286419993,-0.0187104453277597,-0.0503740578975275,-7.207576667884536e-09,9
2025-03-08 12:31:16.948,84.86187845303867,-0.0337010545220684,-0.0224402924912878,-0.0561413312203935,-7.410836783009781e-09,9
2025-03-08 12:31:16.950,84.86187845303867,-0.0351382241139698,-0.0265598673892195,-0.06169807599462,-7.609035849829453e-09,9
2025-03-08 12:31:16.952,84.86187845303867,-0.0359622970407865,-0.0301366703597082,-0.0660989521885011,-7.802191959996691e-09,9
2025-03-08 12:31:16.954,84.86187845303867,-0.0365273699535102,-0.0323584573567607,-0.0688858124078999,-7.990318545375364e-09,9
2025-03-08 12:31:16.956,84.86187845303867,-0.0373971292448477,-0.0328002214172554,-0.0701973360761872,-8.173426172671276e-09,9
2025-03-08 12:31:16.958,84.86187845303867,-0.0390157434048396,-0.0315843649892741,-0.0706000941212594,-8.351525365674657e-09,9
2025-03-08 12:31:16.960,84.86187845303867,-0.0413939940808598,-0.0293532097318846,-0.0707471898408065,-8.5246296884737e-09,9
2025-03-08 12:31:16.962,84.86187845303867,-0.0440074445342905,-0.027052398488534,-0.0710598293373146,-8.692758075190413e-09,9
2025-03-08 12:31:16.964,79.79220779220779,-0.0460058045601345,-0.0256188586471498,-0.0716246497993764,-8.855935617664407e-09,9
2025-03-08 12:31:16.966,79.79220779220779,-0.0466465470086859,-0.0257005468984052,-0.0723470807788689,-9.01419274565632e-09,9
2025-03-08 12:31:16.968,79.79220779220779,-0.0457048227537934,-0.0274966592421877,-0.0732014691599442,-9.167563473329e-09,9
2025-03-08 12:31:16.970,79.79220779220779,-0.0436250443759778,-0.0307364689107999,-0.0743615007596925,-9.3160836711748e-09,9
2025-03-08 12:31:16.972,79.79220779220779,-0.0413522036637768,-0.0347671820580885,-0.0761193735161513,-9.459790135061476e-09,9
2025-03-08 12:31:16.974,79.79220779220779,-0.0399482979711529,-0.0387183325065752,-0.0786666185949906,-9.598720822332448e-09,9
2025-03-08 12:31:16.976,79.79220779220779,-0.0401678751735158,-0.0417216301819271,-0.0818894937856958,-9.73291619269839e-09,9
2025-03-08 12:31:16.978,79.79220779220779,-0.0421626152627928,-0.0431580866394584,-0.0853206906293425,-9.86242121989297e-09,9
2025-03-08 12:31:16.980,79.79220779220779,-0.0454265074865382,-0.0428813073208217,-0.0883078038177661,-9.987287471284007e-09,9
2025-03-08 12:31:16.982,79.79220779220779,-0.048984492931641,-0.0413386632843791,-0.0903231455063275,-1.0107574774617498e-08,9
2025-03-08 12:31:16.984,79.79220779220779,-0.0517295170206516,-0.0394972653189347,-0.0912267719186507,-1.022335223014791e-08,9
2025-03-08 12:31:16.986,79.79220779220779,-0.0527886672902869,-0.0385242008269854,-0.0913128580018906,-1.0334698392659352e-08,9
2025-03-08 12:31:16.987,79.79220779220779,-0.0518251132873621,-0.0392913106569722,-0.0911164141507433,-1.044170036893462e-08,9
2025-03-08 12:31:16.989,79.79220779220779,-0.0491964282779184,-0.0419063736182508,-0.0911027924319125,-1.0544451733328614e-08,9
2025-03-08 12:31:16.991,79.79220779220779,-0.045886761955935,-0.0455205001821099,-0.0914072529985256,-1.0643049699369148e-08,9
2025-03-08 12:31:16.993,79.79220779220779,-0.0431703433592094,-0.0485854597552719,-0.0917557942859757,-1.0737592457281969e-08,9
2025-03-08 12:31:16.995,79.79220779220779,-0.0420944950237001,-0.0495284969789369,-0.0916229834700738,-1.082817748435853e-08,9
2025-03-08 12:31:16.997,79.79220779220779,-0.0430308411107113,-0.0475335929677277,-0.0905644258337308,-1.0914901019408432e-08,9
2025-03-08 12:31:16.999,79.79220779220779,-0.0455653505987911,-0.0429728056478016,-0.0885381482930934,-1.099785829530719e-08,9
2025-03-08 12:31:17.001,79.79220779220779,-0.0487908735538795,-0.037219543159351,-0.0860104090640601,-1.1077143946047242e-08,9
2025-03-08 12:31:17.003,79.79220779220779,-0.0517857224584418,-0.0319909859417548,-0.0837767010715058,-1.1152852220047564e-08,9
2025-03-08 12:31:17.005,79.79220779220779,-0.0539694051893575,-0.0286458222691464,-0.0826152204614222,-1.1225076977334944e-08,9
2025-03-08 12:31:17.007,79.79220779220779,-0.0551837703839485,-0.0277865055850147,-0.0829702693045555,-1.1293911715826786e-08,9
2025-03-08 12:31:17.009,79.79220779220779,-0.0555676858019623,-0.0292260002778825,-0.0847936797396319,-1.1359449969504277e-08,9
2025-03-08 12:31:17.011,79.79220779220779,-0.0553842234111417,-0.0321801919753602,-0.087564409358013,-1.1421786309348556e-08,9
2025-03-08 12:31:17.013,79.79220779220779,-0.0549073793805688,-0.0355564134589544,-0.0904637871136652,-1.1481017889607129e-08,9
2025-03-08 12:31:17.015,79.79220779220779,-0.0543800055850788,-0.0382837243017191,-0.0926637244629951,-1.1537246164542753e-08,9
2025-03-08 12:31:17.017,79.79220779220779,-0.0539980953943297,-0.0396249139453057,-0.0936230042260968,-1.1590578250117411e-08,9
2025-03-08 12:31:17.019,79.79220779220779,-0.0538841387976747,-0.0393672464422027,-0.0932513804491399,-1.164112751532638e-08,9
2025-03-08 12:31:17.021,79.79220779220779,-0.0540548572960048,-0.0378184600482957,-0.0918733128867747,-1.1689013254331098e-08,9
2025-03-08 12:31:17.023,79.79220779220779,-0.0544123861359972,-0.0356261407559244,-0.0900385227711126,-1.1734359522015311e-08,9
2025-03-08 12:31:17.025,79.79220779220779,-0.0547762499948587,-0.0335044099681375,-0.0882806561749275,-1.1777293347579992e-08,9
2025-03-08 12:31:17.027,79.79220779220779,-0.0549528900859945,-0.0319689566719416,-0.0869218432947987,-1.1817942644093798e-08,9
2025-03-08 12:31:17.028,79.79220779220779,-0.0548257142238386,-0.0311802030301113,-0.0860059141096062,-1.1856434262569341e-08,9
2025-03-08 12:31:17.030,79.79220779220779,-0.0544319351888422,-0.0309587410029336,-0.0853906733658312,-1.1892892738325397e-08,9
2025-03-08 12:31:17.032,79.79220779220779,-0.0539720611541756,-0.0309415355788549,-0.0849135942312047,-1.1927440201752592e-08,9
2025-03-08 12:31:17.034,79.79220779220779,-0.0537076265376754,-0.0307606628912622,-0.0844682872597666,-1.1960197621157592e-08,9
2025-03-08 12:31:17.036,79.79220779220779,-0.0537808260483262,-0.0301453470460318,-0.0839261712644389,-1.1991287096900586e-08,9
2025-03-08 12:31:17.038,79.79220779220779,-0.0540882483037271,-0.0289478453444316,-0.0830360921589361,-1.2020834447551592e-08,9
2025-03-08 12:31:17.040,79.79220779220779,-0.0543302507665606,-0.0271588430085934,-0.0814890926231918,-1.2048971020529471e-08,9
2025-03-08 12:31:17.042,79.79220779220779,-0.0542115106118121,-0.0249507527839581,-0.0791622625762445,-1.2075833806976431e-08,9
2025-03-08 12:31:17.044,79.79220779220779,-0.0536400849051661,-0.0227101846055166,-0.076350269021795,-1.2101563601285356e-08,9
2025-03-08 12:31:17.046,79.79220779220779,-0.0527872914758047,-0.0209788439803223,-0.073766135301545,-1.2126301795360676e-08,9
2025-03-08 12:31:17.048,79.79220779220779,-0.0519811948402285,-0.0202675751170729,-0.0722487701449441,-1.215018696979918e-08,9
2025-03-08 12:31:17.050,79.79220779220779,-0.0515100278865492,-0.020807541167341,-0.0723175695916812,-1.2173352449508251e-08,9
2025-03-08 12:31:17.052,79.79220779220779,-0.0514585503329054,-0.0223750734023638,-0.073833624626482,-1.2195925496241061e-08,9
2025-03-08 12:31:17.054,79.79220779220779,-0.0516724001450102,-0.0243221284400675,-0.075994529826331,-1.2218028133798982e-08,9
2025-03-08 12:31:17.056,79.79220779220779,-0.0518607648551441,-0.0258491486927388,-0.0777099151313686,-1.2239779050861668e-08,9
2025-03-08 12:31:17.058,79.79220779220779,-0.0517645615474505,-0.0264045556554114,-0.0781691191218134,-1.226129578127286e-08,9
2025-03-08 12:31:17.060,79.79220779220779,-0.0512861062831884,-0.0259874998206806,-0.0772736083581216,-1.2282696434583549e-08,9
2025-03-08 12:31:17.062,79.79220779220779,-0.0505139599499311,-0.0251606721482839,-0.0756746346963331,-1.2304100491233485e-08,9
2025-03-08 12:31:17.064,79.79220779220779,-0.0496567272801902,-0.0247387907932529,-0.07439552102966,-1.2325628421221404e-08,9
2025-03-08 12:31:17.066,79.79220779220779,-0.0489509995011347,-0.0253135529981025,-0.0742645558264646,-1.2347400089814386e-08,9
2025-03-08 12:31:17.068,79.79220779220779,-0.0485884191779901,-0.0268912206418845,-0.0754796435225776,-1.2369532158153216e-08,9
2025-03-08 12:31:17.069,79.79220779220779,-0.0486594026513563,-0.0288702315198708,-0.0775296382424519,-1.2392135019774576e-08,9
2025-03-08 12:31:17.071,79.79220779220779,-0.0491048322566737,-0.0303853170901527,-0.0794901537716427,-1.2415310130800916e-08,9
2025-03-08 12:31:17.073,79.79220779220779,-0.0497047229570747,-0.0308110169781335,-0.0805157446992702,-1.2439148697407944e-08,9
2025-03-08 12:31:17.075,79.79220779220779,-0.0501544590705812,-0.0301059567757176,-0.0802604209450851,-1.24637324161907e-08,9
2025-03-08 12:31:17.077,79.79220779220779,-0.0502326818813295,-0.0287819545521736,-0.079014641876956,-1.2489136292838188e-08,9
2025-03-08 12:31:17.079,79.79220779220779,-0.0499698765108644,-0.0275489398701841,-0.0775188221904603,-1.251543268858615e-08,9
2025-03-08 12:31:17.081,79.79220779220779,-0.049678564187629,-0.0269159991827991,-0.0765945695685671,-1.254269507094545e-08,9
2025-03-08 12:31:17.083,79.79220779220779,-0.0497831719047452,-0.0270222875349344,-0.07680546603909,-1.257099992419837e-08,9
2025-03-08 12:31:17.085,79.79220779220779,-0.0505389957121309,-0.02774946835419,-0.0782884710622126,-1.2600426065055535e-08,9
2025-03-08 12:31:17.087,79.79220779220779,-0.0518193953081059,-0.0289455852143634,-0.0807649878945969,-1.2631051817316583e-08,9
2025-03-08 12:31:17.089,79.79220779220779,-0.0531150332767456,-0.0305451166640364,-0.0836601576640609,-1.2662951379414833e-08,9
2025-03-08 12:31:17.091,79.79220779220779,-0.0537698379425644,-0.0325058964906542,-0.0862757424919424,-1.2696191745198072e-08,9
2025-03-08 12:31:17.093,79.79220779220779,-0.0533413830130971,-0.0346681963008176,-0.0880095877120298,-1.2730830820453304e-08,9
2025-03-08 12:31:17.095,79.79220779220779,-0.0518849596566665,-0.0367090813041468,-0.0885940497223007,-1.276691656067664e-08,9
2025-03-08 12:31:17.097,79.79220779220779,-0.0499834005524029,-0.0382603395091069,-0.0882437492199059,-1.2804486652278693e-08,9
2025-03-08 12:31:17.099,79.79220779220779,-0.048484333908971,-0.0390950915513283,-0.0875794350422627,-1.2843568530881477e-08,9
2025-03-08 12:31:17.101,79.79220779220779,-0.0480837140026914,-0.0392277660281372,-0.0873114900422449,-1.2884179970242162e-08,9
2025-03-08 12:31:17.103,79.79220779220779,-0.0489917319915505,-0.0388599815484277,-0.0878517239622945,-1.2926330636791292e-08,9
2025-03-08 12:31:17.105,79.79220779220779,-0.050864459549436,-0.0382438126027296,-0.0891082829516069,-1.2970024688434188e-08,9
2025-03-08 12:31:17.107,79.79220779220779,-0.053018204582663,-0.0375877198340732,-0.0906059355622796,-1.3015263859357686e-08,9
2025-03-08 12:31:17.109,79.79220779220779,-0.054782711602435,-0.0370553213816877,-0.0918380444651389,-1.3062049960872384e-08,9
2025-03-08 12:31:17.111,79.79220779220779,-0.0558008797333517,-0.0367952225498683,-0.0925961141173274,-1.3110385791301758e-08,9
2025-03-08 12:31:17.112,79.79220779220779,-0.0561496321517538,-0.0369204920040468,-0.0930701363821711,-1.3160274148626805e-08,9
2025-03-08 12:31:17.114,79.79220779220779,-0.0562528444787717,-0.0374437332179293,-0.0936965903575568,-1.3211715557128774e-08,9
2025-03-08 12:31:17.116,79.79220779220779,-0.056629749016392,-0.0382474725943737,-0.0948772347302447,-1.3264705936947062e-08,9
2025-03-08 12:31:17.118,79.79220779220779,-0.0575888782407727,-0.0391378077373264,-0.0967266995495496,-1.3319235501364466e-08,9
2025-03-08 12:31:17.120,79.79220779220779,-0.0590264997672292,-0.0399481021411312,-0.0989746158972164,-1.3375289628627964e-08,9
2025-03-08 12:31:17.122,79.79220779220779,-0.0604595783523085,-0.0406270706696257,-0.1010866633834311,-1.3432851496964971e-08,9
2025-03-08 12:31:17.124,79.79220779220779,-0.0613037351207795,-0.0412666714430469,-0.1025704212669409,-1.3491905358690237e-08,9
2025-03-08 12:31:17.126,79.79220779220779,-0.0612544716270705,-0.0420534083714488,-0.1033078950438371,-1.3552438978346488e-08,9
2025-03-08 12:31:17.128,79.79220779220779,-0.0605366724882068,-0.0431512249971863,-0.103687912907251,-1.36144441118965e-08,9
2025-03-08 12:31:17.130,79.79220779220779,-0.0598407212930833,-0.0445570519581607,-0.1043977891023288,-1.3677914725398478e-08,9
2025-03-08 12:31:17.132,79.79220779220779,-0.059957435736547,-0.0460077237994615,-0.1059651758617217,-1.3742843592823658e-08,9
2025-03-08 12:31:17.134,79.79220779220779,-0.0613212943723745,-0.0470301692222992,-0.1083514804102296,-1.3809218619283461e-08,9
2025-03-08 12:31:17.136,79.79220779220779,-0.063732976082674,-0.0471646701198852,-0.1108976634848802,-1.3877020412487313e-08,9
2025-03-08 12:31:17.138,79.79220779220779,-0.0664340386296159,-0.0462526619507236,-0.1126867182795555,-1.3946222128191969e-08,9
2025-03-08 12:31:17.140,79.79220779220779,-0.0685060126510942,-0.0445891092955335,-0.1130951400119425,-1.4016791599549922e-08,9
2025-03-08 12:31:17.142,79.79220779220779,-0.0693623355370943,-0.0428234390014403,-0.1121857929455377,-1.4088694773616186e-08,9
2025-03-08 12:31:17.144,79.79220779220779,-0.0690346141022423,-0.0416824257801364,-0.1107170586476596,-1.4161899142829796e-08,9
2025-03-08 12:31:17.146,79.79220779220779,-0.0680966758642549,-0.0416849019040171,-0.1097815969433088,-1.4236376289253172e-08,9
2025-03-08 12:31:17.148,79.79220779220779,-0.0673040984544074,-0.0429697880734492,-0.1102739061746459,-1.4312103350693692e-08,9
2025-03-08 12:31:17.150,79.79220779220779,-0.0671681963404116,-0.045278426825405,-0.1124466433262798,-1.4389063572927822e-08,9
2025-03-08 12:31:17.152,79.79220779220779,-0.0676824212849269,-0.0480772436994154,-0.1157596856591549,-1.4467245977720645e-08,9
2025-03-08 12:31:17.153,79.79220779220779,-0.0683341276201469,-0.0507570974937724,-0.1190912462620067,-1.4546643922620548e-08,9
2025-03-08 12:31:17.155,79.79220779220779,-0.0684024511175819,-0.0528251445741478,-0.1212276172512941,-1.4627252432643131e-08,9
2025-03-08 12:31:17.157,79.79220779220779,-0.0673943218654614,-0.0540378917868863,-0.1214322355731686,-1.4709064721581037e-08,9
2025-03-08 12:31:17.159,79.79220779220779,-0.0653808687379083,-0.054457625584999,-0.1198385165935493,-1.4792068919467452e-08,9
2025-03-08 12:31:17.161,79.79220779220779,-0.0630338358020396,-0.0544090095628315,-0.1174428680206342,-1.4876246200735748e-08,9
2025-03-08 12:31:17.163,79.79220779220779,-0.061316103952217,-0.0543248001299661,-0.1156409271892221,-1.4961571025421078e-08,9
2025-03-08 12:31:17.165,79.79220779220779,-0.0609715150854577,-0.0545418968538559,-0.1155134355625385,-1.5048013264304744e-08,9
2025-03-08 12:31:17.167,79.79220779220779,-0.0620938109932655,-0.055155596648296,-0.1172494318124694,-1.513554111704777e-08,9
2025-03-08 12:31:17.169,79.79220779220779,-0.064051870930872,-0.0559826227712516,-0.1200345184030973,-1.5224123469049842e-08,9
2025-03-08 12:31:17.171,79.79220779220779,-0.0658583530609647,-0.0566136536275484,-0.1224720318619898,-1.5313730790572577e-08,9
2025-03-08 12:31:17.173,79.79220779220779,-0.0667652879928722,-0.0565565466586274,-0.1233218602297838,-1.540433447592903e-08,9
2025-03-08 12:31:17.175,79.79220779220779,-0.0666863863281748,-0.055488804501078,-0.1221752167700625,-1.5495905139594912e-08,9
2025-03-08 12:31:17.177,79.79220779220779,-0.0661712614605791,-0.0535283664285854,-0.1196996541987864,-1.5588410642128708e-08,9
2025-03-08 12:31:17.179,79.79220779220779,-0.0659977142951353,-0.0513050448886671,-0.1173027859157918,-1.5681814579454162e-08,9
2025-03-08 12:31:17.181,79.79220779220779,-0.0666990011725941,-0.049691311833909,-0.1163903402362107,-1.577607571034582e-08,9
2025-03-08 12:31:17.183,79.79220779220779,-0.068311225496155,-0.0493244563620131,-0.1176357096457805,-1.587114843476295e-08,9
2025-03-08 12:31:17.185,79.79220779220779,-0.0704135712325434,-0.0502495222454282,-0.1206631218388125,-1.5966984128628013e-08,9
2025-03-08 12:31:17.187,79.79220779220779,-0.0723657734120418,-0.0519211776264948,-0.1242869799359077,-1.6063532920024454e-08,9
2025-03-08 12:31:17.189,79.79220779220779,-0.0736035056564601,-0.0535240873123828,-0.1271276223333262,-1.6160745294907272e-08,9
2025-03-08 12:31:17.191,79.79220779220779,-0.073861322856951,-0.0543785867655733,-0.1282399393881738,-1.6258572822815196e-08,9
2025-03-08 12:31:17.193,79.79220779220779,-0.0732195257745857,-0.0542193870172244,-0.1274389429309176,-1.6356967509121953e-08,9
2025-03-08 12:31:17.194,79.79220779220779,-0.0719640650156682,-0.053264943207637,-0.1252290387619877,-1.645587987354167e-08,9
2025-03-08 12:31:17.196,79.79220779220779,-0.0703852772814511,-0.0520852147389631,-0.1224705230269214,-1.6555256536177233e-08,9
2025-03-08 12:31:17.198,79.79220779220779,-0.0686864323482883,-0.0513127491804289,-0.1199992130802378,-1.6655038403378793e-08,9
2025-03-08 12:31:17.200,79.79220779220779,-0.0670584955724825,-0.0513024793527165,-0.1183610070699525,-1.6755160267839304e-08,9
2025-03-08 12:31:17.202,79.79220779220779,-0.06580761108133,-0.0519261888724397,-0.1177338326876685,-1.6855551946643514e-08,9
2025-03-08 12:31:17.204,79.79220779220779,-0.0653529267994164,-0.0526711876124461,-0.1180241476816766,-1.6956140344210742e-08,9
2025-03-08 12:31:17.206,79.79220779220779,-0.0660131668030571,-0.053023107859892,-0.1190363083944349,-1.705685141642909e-08,9
2025-03-08 12:31:17.208,79.79220779220779,-0.0677105494526223,-0.0528671829144487,-0.120577766503798,-1.7157611188119743e-08,9
2025-03-08 12:31:17.210,79.79220779220779,-0.0698627735489456,-0.0525851060308818,-0.1224479141129829,-1.7258345669730034e-08,9
2025-03-08 12:31:17.212,79.79220779220779,-0.0716332010855039,-0.0527562770149348,-0.1243895130744876,-1.7358980272001113e-08,9
2025-03-08 12:31:17.214,79.79220779220779,-0.0724083747366887,-0.0536985831186063,-0.1261069933466658,-1.745943963296712e-08,9
2025-03-08 12:31:17.216,79.79220779220779,-0.0721536605667196,-0.0552108411107657,-0.1273645377571624,-1.7559648516959173e-08,9
2025-03-08 12:31:17.218,79.79220779220779,-0.0713865435745025,-0.056710442049084,-0.1280970223226149,-1.7659533826284962e-08,9
2025-03-08 12:31:17.220,79.79220779220779,-0.0708104564529803,-0.0576483140492397,-0.1284588077975662,-1.7759027100580582e-08,9
2025-03-08 12:31:17.222,79.79220779220779,-0.0708837366841789,-0.0578740245498275,-0.1287577990618032,-1.7858066535631e-08,9
2025-03-08 12:31:17.224,79.79220779220779,-0.0715882354709588,-0.0576845778947366,-0.1292728516549871,-1.795659779987267e-08,9
2025-03-08 12:31:17.226,79.79220779220779,-0.0724829613394145,-0.0575714491517804,-0.1300544492009772,-1.8054573623393116e-08,9
2025-03-08 12:31:17.228,79.79220779220779,-0.0729636187285761,-0.0579122728033539,-0.1308759306727671,-1.81519527917849e-08,9
2025-03-08 12:31:17.230,79.79220779220779,-0.072589610135128,-0.0588231768956712,-0.1314128266602666,-1.824869932901196e-08,9
2025-03-08 12:31:17.232,79.79220779220779,-0.0713388915982949,-0.0601947619715022,-0.1315336937643338,-1.8344782157869e-08,9
2025-03-08 12:31:17.234,79.79220779220779,-0.0696646789374065,-0.0618173652060006,-0.1314820849610321,-1.8440174793085757e-08,9
2025-03-08 12:31:17.236,79.79220779220779,-0.0682991762853134,-0.0635056863346649,-0.131804904072754,-1.8534854412355058e-08,9
2025-03-08 12:31:17.237,79.79220779220779,-0.0678930423450313,-0.0651600771011624,-0.1330531614961499,-1.8628800276256232e-08,9
2025-03-08 12:31:17.239,79.79220779220779,-0.0686922977373525,-0.0667373653196915,-0.1354297056372605,-1.8721992355457387e-08,9
2025-03-08 12:31:17.241,79.79220779220779,-0.0704282053104407,-0.0681729784875318,-0.1386012268478196,-1.8814411288808232e-08,9
2025-03-08 12:31:17.243,79.79220779220779,-0.0724550228998628,-0.0693313381870959,-0.141786404583555,-1.8906040134113943e-08,9
2025-03-08 12:31:17.245,79.79220779220779,-0.0740411042745215,-0.0700106022526507,-0.1440517504973372,-1.8996867310287262e-08,9
2025-03-08 12:31:17.247,79.79220779220779,-0.0746804151077636,-0.0699689854039018,-0.144649445018753,-1.9086889424658193e-08,9
2025-03-08 12:31:17.249,79.79220779220779,-0.0743101423699317,-0.0689518566000153,-0.1432620440826889,-1.9176112662651343e-08,9
2025-03-08 12:31:17.251,79.79220779220779,-0.0733495549975384,-0.0667256738417686,-0.1400752745986787,-1.926455198257755e-08,9
2025-03-08 12:31:17.253,79.79220779220779,-0.0725394942043246,-0.0630993588411205,-0.1356388994461941,-1.9352228194336136e-08,9
2025-03-08 12:31:17.255,79.79220779220779,-0.0726557445200839,-0.0579053797773364,-0.1305611712931295,-1.943916367192088e-08,9
2025-03-08 12:31:17.257,79.79220779220779,-0.0742128638540011,-0.05098900445606,-0.1252019158385843,-1.9525377659133404e-08,9
2025-03-08 12:31:17.259,79.79220779220779,-0.0772489610318565,-0.0423078397029049,-0.1195568487507445,-1.9610881997347412e-08,9
2025-03-08 12:31:17.261,79.79220779220779,-0.0812560663902165,-0.0321521960561564,-0.1134083109444141,-1.969567795248097e-08,9
2025-03-08 12:31:17.263,79.79220779220779,-0.0853137310975325,-0.0213422858804521,-0.1066560659951799,-1.9779754728059742e-08,9
2025-03-08 12:31:17.265,79.79220779220779,-0.0884367964300654,-0.011217564448831,-0.0996544104761945,-1.9863090023573145e-08,9
2025-03-08 12:31:17.267,79.79220779220779,-0.0900354253775232,-0.0033493175066075,-0.0933847931165227,-1.9945652487398283e-08,9
2025-03-08 12:31:17.269,79.79220779220779,-0.0902664521582638,0.0009211448076706,-0.0893453582413659,-2.0027405295193475e-08,9
2025-03-08 12:31:17.271,79.79220779220779,-0.0900334878316901,0.0009180699778088,-0.089115469385548,-2.010830973865733e-08,9
2025-03-08 12:31:17.273,79.79220779220779,-0.0905374999821274,-0.003112404047728,-0.0936499561555701,-2.0188327913691224e-08,9
2025-03-08 12:31:17.275,79.79220779220779,-0.0925467546176279,-0.0099398325384567,-0.1024866398250108,-2.026742428084374e-08,9
2025-03-08 12:31:17.277,79.79220779220779,-0.0957776783242305,-0.0174297248961259,-0.1132074564038379,-2.0345566553423617e-08,9
2025-03-08 12:31:17.278,79.79220779220779,-0.0987837008549193,-0.0228018971498672,-0.1215856517103889,-2.0422726510419456e-08,9
2025-03-08 12:31:17.280,79.79220779220779,-0.0995072745172399,-0.0232052596558835,-0.1227125884402382,-2.0498880876371272e-08,9
2025-03-08 12:31:17.282,79.79220779220779,-0.096282716365042,-0.0166492161209797,-0.1129319873661336,-2.057401181269834e-08,9
2025-03-08 12:31:17.284,79.79220779220779,-0.0887782893503309,-0.0029952253954812,-0.0917735702779015,-2.064810632321477e-08,9
2025-03-08 12:31:17.286,79.79220779220779,-0.0783237366695279,0.0155941417565771,-0.0627296511063072,-2.0721154184675808e-08,9
2025-03-08 12:31:17.288,79.79220779220779,-0.0673643754361358,0.0352378984126097,-0.0321265338559145,-2.0793144688577305e-08,9
2025-03-08 12:31:17.290,79.79220779220779,-0.0582935928416571,0.0518325670567175,-0.0064610832160955,-2.0864063117542624e-08,9
2025-03-08 12:31:17.292,79.79220779220779,-0.0523292307066165,0.0626855698812722,0.0103562811816789,-2.093388818544958e-08,9
2025-03-08 12:31:17.294,79.79220779220779,-0.0490876642045021,0.067377855720936,0.0182901329768692,-2.100259156370905e-08,9
2025-03-08 12:31:17.296,79.79220779220779,-0.0470367515882897,0.0674573113285755,0.0204205006408603,-2.1070139991600518e-08,9
2025-03-08 12:31:17.298,79.79220779220779,-0.0444497073189827,0.0652812247120269,0.0208314576992588,-2.11364992957548e-08,9
2025-03-08 12:31:17.300,79.79220779220779,-0.0402770362166529,0.0627251156472361,0.0224480191036033,-2.120163846692453e-08,9
2025-03-08 12:31:17.302,79.79220779220779,-0.0345646813063931,0.0603984990753653,0.0258337567834046,-2.126553176605696e-08,9
2025-03-08 12:31:17.304,79.79220779220779,-0.0283712003555659,0.0576525871325486,0.0292813251310581,-2.1328158083231633e-08,9
2025-03-08 12:31:17.306,79.79220779220779,-0.0233067635739397,0.0532675263698632,0.0299607005098695,-2.1389498592954324e-08,9
2025-03-08 12:31:17.308,79.79220779220779,-0.0208499589053237,0.046385951495057,0.0255359296940265,-2.1449534673811342e-08,9
2025-03-08 12:31:17.310,79.79220779220779,-0.0216582255644706,0.0371210475645097,0.0154627585198322,-2.150824741486301e-08,9
2025-03-08 12:31:17.312,79.79220779220779,-0.0251877251036909,0.0264531264554243,0.0012653372949943,-2.1565618515298727e-08,9
2025-03-08 12:31:17.314,79.79220779220779,-0.0298959362562763,0.0155132977079488,-0.0143827031938068,-2.1621631302891704e-08,9
2025-03-08 12:31:17.316,79.79220779220779,-0.0340102642829129,0.0048007433533359,-0.029209586189695,-2.167627070693477e-08,9
2025-03-08 12:31:17.318,79.79220779220779,-0.0364808772712405,-0.0060835746577402,-0.0425645178311391,-2.1729522074086567e-08,9
2025-03-08 12:31:17.320,79.79220779220779,-0.0375847915172318,-0.0179967842011272,-0.0555816422795783,-2.1781369765612157e-08,9
2025-03-08 12:31:17.321,79.79220779220779,-0.0388271671188495,-0.0314081930231748,-0.0702354273626568,-2.183179666110496e-08,9
2025-03-08 12:31:17.323,79.79220779220779,-0.0421627430320728,-0.0457106515506912,-0.0878734624480869,-2.188078494385139e-08,9
2025-03-08 12:31:17.325,79.79220779220779,-0.0489097045150548,-0.0591742236713605,-0.1080839966746946,-2.1928317505750384e-08,9
2025-03-08 12:31:17.327,79.79220779220779,-0.0588979787286599,-0.0696588061691252,-0.1285568539907182,-2.1974378763717986e-08,9
2025-03-08 12:31:17.329,79.79220779220779,-0.0703246716383947,-0.0757255097672775,-0.1460502510964916,-2.2018954010335253e-08,9
2025-03-08 12:31:17.331,79.79220779220779,-0.0804714417394487,-0.0775025207590329,-0.1579740327944586,-2.206202736910357e-08,9
2025-03-08 12:31:17.333,79.79220779220779,-0.0869712111810378,-0.0767816285020505,-0.1637529106018316,-2.210357931248603e-08,9
2025-03-08 12:31:17.335,79.79220779220779,-0.0889620708992606,-0.0762564473902352,-0.1652185898510742,-2.2143584994568487e-08,9
2025-03-08 12:31:17.337,79.79220779220779,-0.0875009536556121,-0.0782721792328299,-0.1657732051069051,-2.2182014284310693e-08,9
2025-03-08 12:31:17.339,79.79220779220779,-0.0850196470054007,-0.083706893475479,-0.168726613358726,-2.2218833686349356e-08,9
2025-03-08 12:31:17.341,79.79220779220779,-0.0841066057899334,-0.091553725599195,-0.1756604049168468,-2.2254009725604532e-08,9
2025-03-08 12:31:17.343,79.79220779220779,-0.0862132617976991,-0.0994293149786867,-0.1856426509370395,-2.228751307367245e-08,9
2025-03-08 12:31:17.345,79.79220779220779,-0.0909147269675392,-0.1047451788284613,-0.1956599805727977,-2.23193226437259e-08,9
2025-03-08 12:31:17.347,79.79220779220779,-0.0961121629379979,-0.1059351135643413,-0.2020473518859761,-2.2349428898882932e-08,9
2025-03-08 12:31:17.349,79.79220779220779,-0.0991189371387659,-0.1031439844491176,-0.202262997580574,-2.2377835691436053e-08,9
2025-03-08 12:31:17.351,79.79220779220779,-0.0981088404056099,-0.098097340191265,-0.1962062572113365,-2.240456020410127e-08,9
2025-03-08 12:31:17.353,79.79220779220779,-0.0931773471333202,-0.0932668962159342,-0.1864443206030188,-2.242963100021563e-08,9
2025-03-08 12:31:17.355,79.79220779220779,-0.0864323530316758,-0.0907414083204064,-0.1771738392595301,-2.2453084623112293e-08,9
2025-03-08 12:31:17.357,79.79220779220779,-0.0810196180520166,-0.0913267066974275,-0.1723464033150585,-2.2474961424040676e-08,9
2025-03-08 12:31:17.359,79.79220779220779,-0.0795423858388585,-0.0942984316338143,-0.1738408966886235,-2.2495301282990287e-08,9
2025-03-08 12:31:17.361,79.79220779220779,-0.0826673685221797,-0.0979129542417354,-0.1805804026132446,-2.2514139722483572e-08,9
2025-03-08 12:31:17.362,79.79220779220779,-0.0886540306128662,-0.1003744741477124,-0.1890285852247178,-2.253150481663429e-08,9
2025-03-08 12:31:17.364,79.79220779220779,-0.0941107527796836,-0.1007227067859622,-0.1948335406328641,-2.2547415372219017e-08,9
2025-03-08 12:31:17.366,79.79220779220779,-0.09565324108756,-0.0992110130702462,-0.1948643358285766,-2.256188093121256e-08,9
