Timestamp,GSR_Filtered,PPG_Filtered,FMSQ
2025-03-08 12:31:16.501,0.0001644697036233,-2.624737431745777,9
2025-03-08 12:31:16.509,0.0001840892771982,-2.439373299496493,9
2025-03-08 12:31:16.517,0.000205353438802,-2.25729124273032,9
2025-03-08 12:31:16.525,0.0002281911389382,-2.0799749180129883,9
2025-03-08 12:31:16.532,0.0002524672570915,-1.908417920571952,9
2025-03-08 12:31:16.540,0.000277978361973,-1.7431135857068163,9
2025-03-08 12:31:16.548,0.0003044517613857,-1.5840646815925756,9
2025-03-08 12:31:16.556,0.0003315481702442,-1.43081234983983,9
2025-03-08 12:31:16.564,0.0003588680474068,-1.2824828958311385,9
2025-03-08 12:31:16.572,0.000385961381928,-1.1378503496452996,9
2025-03-08 12:31:16.579,0.000412340489369,-0.9954121383989204,9
2025-03-08 12:31:16.587,0.0004374952170692,-0.8534747550204256,9
2025-03-08 12:31:16.595,0.0004609098374467,-0.7102459955150473,9
2025-03-08 12:31:16.603,0.0004820808213496,-0.5639301803070211,9
2025-03-08 12:31:16.611,0.0005005346439832,-0.4128227790443859,9
2025-03-08 12:31:16.618,0.0005158447978094,-0.2554010102227182,9
2025-03-08 12:31:16.626,0.0005276472498231,-0.0904072581715868,9
2025-03-08 12:31:16.634,0.0005356536492012,0.0830774985422022,9
2025-03-08 12:31:16.642,0.0005396616663005,0.2655726588875787,9
2025-03-08 12:31:16.650,0.0005395619624801,0.4571513712785373,9
2025-03-08 12:31:16.657,0.0005353414736244,0.6574098848311732,9
2025-03-08 12:31:16.665,0.0005270829221625,0.8654540225539578,9
2025-03-08 12:31:16.673,0.0005149607185403,1.0799034538404602,9
2025-03-08 12:31:16.681,0.0004992336372083,1.298913940499551,9
2025-03-08 12:31:16.689,0.0004802348252114,1.5202171889199516,9
2025-03-08 12:31:16.697,0.0004583598123854,1.7411773700466562,9
2025-03-08 12:31:16.704,0.0004340532417199,1.958862784965752,9
2025-03-08 12:31:16.712,0.0004077950275701,2.170130575888431,9
2025-03-08 12:31:16.720,0.0003800865823716,2.3717218293120976,9
2025-03-08 12:31:16.728,0.0003514376367298,2.560363911482958,9
2025-03-08 12:31:16.736,0.0003223540201589,2.732876442913012,9
2025-03-08 12:31:16.743,0.0002933265896583,2.886276991883776,9
2025-03-08 12:31:16.751,0.0002648213330242,3.017882382203246,9
2025-03-08 12:31:16.759,0.0002372705840474,3.1254014978776663,9
2025-03-08 12:31:16.767,0.0002110652922375,3.2070156447910496,9
2025-03-08 12:31:16.775,0.000186548358938,3.261442903355592,9
2025-03-08 12:31:16.782,0.0001640091128491,3.287983473601829,9
2025-03-08 12:31:16.790,0.0001436790019779,3.286543760917608,9
2025-03-08 12:31:16.798,0.0001257285372113,3.257637846740048,9
2025-03-08 12:31:16.806,0.0001102654788063,3.202365991128399,9
2025-03-08 12:31:16.814,9.733424163649198e-05,3.1223708754344237,9
2025-03-08 12:31:16.822,8.691650798373409e-05,3.019773364906244,9
2025-03-08 12:31:16.829,7.893305392876317e-05,2.8970906015116618,9
2025-03-08 12:31:16.837,7.324679099842504e-05,2.7571401670188926,9
2025-03-08 12:31:16.845,6.966699626945901e-05,2.602934818293793,9
2025-03-08 12:31:16.853,6.79546713048797e-05,2.4375728248278,9
2025-03-08 12:31:16.861,6.782894493350571e-05,2.264129181039609,9
2025-03-08 12:31:16.868,6.897440426423615e-05,2.085552896626916,9
2025-03-08 12:31:16.876,7.104919015994093e-05,1.904575190686896,9
2025-03-08 12:31:16.884,7.369364885919261e-05,1.723632759757483,9
2025-03-08 12:31:16.892,7.653932651394126e-05,1.5448094049802803,9
2025-03-08 12:31:16.900,7.921812713230235e-05,1.369798246629544,9
2025-03-08 12:31:16.907,8.137148890502877e-05,1.199885585241863,9
2025-03-08 12:31:16.915,8.265944465284648e-05,1.0359562499051196,9
2025-03-08 12:31:16.923,8.276942200829496e-05,0.8785190756433496,9
2025-03-08 12:31:16.931,8.142460876466305e-05,0.7277500533751021,9
2025-03-08 12:31:16.939,7.839165735207864e-05,0.5835497808950918,9
2025-03-08 12:31:16.947,7.348745564780888e-05,0.4456111821841649,9
2025-03-08 12:31:16.954,6.658468851113414e-05,0.3134931002425909,9
2025-03-08 12:31:16.962,5.7615957643797e-05,0.1866953230123403,9
2025-03-08 12:31:16.970,4.65762814627097e-05,0.0647308633561089,9
2025-03-08 12:31:16.978,3.352384096221144e-05,-0.0528081559337529,9
2025-03-08 12:31:16.986,1.8578884480363107e-05,-0.1661939296938379,9
2025-03-08 12:31:16.993,1.9207663420107e-06,-0.2755177817452638,9
2025-03-08 12:31:17.001,-1.6216840921225732e-05,-0.3806575601963528,9
2025-03-08 12:31:17.009,-3.555247439332979e-05,-0.4812580029669703,9
2025-03-08 12:31:17.017,-5.576503260908701e-05,-0.5767237714069992,9
2025-03-08 12:31:17.025,-7.650339850164501e-05,-0.6662243363607121,9
2025-03-08 12:31:17.032,-9.739731439269688e-05,-0.7487095833550441,9
2025-03-08 12:31:17.040,-0.000118069195042,-0.8229348663169094,9
2025-03-08 12:31:17.048,-0.0001381464643525,-0.8874942334990731,9
2025-03-08 12:31:17.056,-0.0001572739225873,-0.9408606087492086,9
2025-03-08 12:31:17.064,-0.0001751256061563,-0.9814317735590314,9
2025-03-08 12:31:17.072,-0.0001914155929159,-1.0075810194519614,9
2025-03-08 12:31:17.079,-0.0002059072350846,-1.017711312683788,9
2025-03-08 12:31:17.087,-0.0002184203693664,-1.0103117424366324,9
2025-03-08 12:31:17.095,-0.0002288361571616,-0.984014929695393,9
2025-03-08 12:31:17.103,-0.0002370993450254,-0.937653980283509,9
2025-03-08 12:31:17.111,-0.0002432178942815,-0.8703174936593757,9
2025-03-08 12:31:17.118,-0.0002472600811908,-0.7814011032492254,9
2025-03-08 12:31:17.126,-0.0002493492896052,-0.6706540280326945,9
2025-03-08 12:31:17.134,-0.0002496567967961,-0.5382191539980536,9
2025-03-08 12:31:17.142,-0.0002483928981397,-0.3846652287998092,9
2025-03-08 12:31:17.150,-0.0002457967513117,-0.2110098340229481,9
2025-03-08 12:31:17.157,-0.0002421253694453,-0.0187318938610364,9
2025-03-08 12:31:17.165,-0.000237642255512,0.1902274010325594,9
2025-03-08 12:31:17.173,-0.0002326062234305,0.413476200913721,9
2025-03-08 12:31:17.181,-0.0002272609714115,0.6481968174209127,9
2025-03-08 12:31:17.189,-0.0002218259499368,0.8911840635919005,9
2025-03-08 12:31:17.197,-0.0002164889999719,1.1388969372370474,9
2025-03-08 12:31:17.204,-0.0002114011287843,1.3875229074755326,9
2025-03-08 12:31:17.212,-0.0002066736461631,1.6330534560634709,9
2025-03-08 12:31:17.220,-0.0002023777171481,1.8713689140142125,9
2025-03-08 12:31:17.228,-0.0001985462264339,2.0983300648748475,9
2025-03-08 12:31:17.236,-0.0001951777218718,2.309873510253715,9
2025-03-08 12:31:17.243,-0.0001922421132775,2.502107466584468,9
2025-03-08 12:31:17.251,-0.000189687728895,2.671404533304185,9
2025-03-08 12:31:17.259,-0.0001874492637666,2.814488066908075,9
2025-03-08 12:31:17.267,-0.0001854561063493,2.928509106255427,9
2025-03-08 12:31:17.275,-0.000183640524024,3.01111128891005,9
2025-03-08 12:31:17.282,-0.0001819452242425,3.060481827537183,9
2025-03-08 12:31:17.290,-0.000180329861432,3.0753873236767424,9
2025-03-08 12:31:17.298,-0.0001787761072034,3.055193926098001,9
2025-03-08 12:31:17.306,-0.00017729094135,2.9998720383945057,9
2025-03-08 12:31:17.314,-0.0001759078737233,2.909986399572397,9
2025-03-08 12:31:17.322,-0.0001746858955006,2.786672867297576,9
2025-03-08 12:31:17.329,-0.0001737060898735,2.631603605214548,9
2025-03-08 12:31:17.337,-0.0001730660010818,2.4469426091567192,9
2025-03-08 12:31:17.345,-0.0001728720516709,2.235293613259816,9
2025-03-08 12:31:17.353,-0.0001732304734264,1.9996424127889003,9
2025-03-08 12:31:17.361,-0.0001742373340791,1.743295537909429,9
2025-03-08 12:31:17.368,-0.0001759682954312,1.4698170194824736,9
2025-03-08 12:31:17.376,-0.0001784687627255,1.1829647193939272,9
2025-03-08 12:31:17.384,-0.0001817450996588,0.8866273842459371,9
2025-03-08 12:31:17.392,-0.0001857575740062,0.584763261541795,9
2025-03-08 12:31:17.400,-0.0001904156433341,0.281340826130349,9
2025-03-08 12:31:17.407,-0.0001955760794612,-0.0197180764684375,9
2025-03-08 12:31:17.415,-0.0002010442665599,-0.3145925435612908,9
2025-03-08 12:31:17.423,-0.0002065788050133,-0.5996143742994444,9
2025-03-08 12:31:17.431,-0.0002118993397965,-0.8713173089382095,9
2025-03-08 12:31:17.439,-0.0002166973370969,-1.1264837546724429,9
2025-03-08 12:31:17.447,-0.0002206493617415,-1.3621888965245637,9
2025-03-08 12:31:17.454,-0.0002234322446451,-1.5758419075839485,9
2025-03-08 12:31:17.462,-0.0002247393661346,-1.7652237338505266,9
2025-03-08 12:31:17.470,-0.0002242971381071,-1.928520678778257,9
2025-03-08 12:31:17.478,-0.0002218806838055,-2.0643528075023654,9
2025-03-08 12:31:17.486,-0.0002173277236483,-2.171796078894774,9
2025-03-08 12:31:17.493,-0.0002105497933352,-2.2503971198369346,9
2025-03-08 12:31:17.501,-0.0002015401214235,-2.300179682317689,9
2025-03-08 12:31:17.509,-0.0001903777176301,-2.321642059368071,9
2025-03-08 12:31:17.517,-0.0001772274195454,-2.3157450623761755,9
2025-03-08 12:31:17.525,-0.0001623358104905,-2.2838905519297183,9
2025-03-08 12:31:17.532,-0.0001460230867038,-2.2278909275449585,9
2025-03-08 12:31:17.540,-0.000128671146426,-2.149930373070599,9
2025-03-08 12:31:17.548,-0.0001107083946768,-2.0525189807673603,9
2025-03-08 12:31:17.556,-9.259197768486772e-05,-1.938441101851363,9
2025-03-08 12:31:17.564,-7.478835159577076e-05,-1.810699369203393,9
2025-03-08 12:31:17.572,-5.775323463142389e-05,-1.6724557989101192,9
2025-03-08 12:31:17.579,-4.1912074628948666e-05,-1.526971212124039,9
2025-03-08 12:31:17.587,-2.76421592674962e-05,-1.377543962235336,9
2025-03-08 12:31:17.595,-1.5257381152090045e-05,-1.2274486611071835,9
2025-03-08 12:31:17.603,-4.996448880589964e-06,-1.0798753417568463,9
2025-03-08 12:31:17.611,2.984952942792151e-06,-0.9378693413033344,9
2025-03-08 12:31:17.618,8.617853372026985e-06,-0.8042721841639334,9
2025-03-08 12:31:17.626,1.1919607429544623e-05,-0.6816638991646294,9
2025-03-08 12:31:17.634,1.2989741120231484e-05,-0.5723074786219802,9
2025-03-08 12:31:17.642,1.2002545236463415e-05,-0.4780965155462343,9
2025-03-08 12:31:17.650,9.197095181345665e-06,-0.4005073663448105,9
2025-03-08 12:31:17.657,4.8654519228547335e-06,-0.3405574287941485,9
2025-03-08 12:31:17.665,-6.602270712290396e-07,-0.298771272490189,9
2025-03-08 12:31:17.673,-7.0210419153678206e-06,-0.2751564047336474,9
2025-03-08 12:31:17.681,-1.384467404384883e-05,-0.2691903985280638,9
2025-03-08 12:31:17.689,-2.075830047043484e-05,-0.279820946800051,9
2025-03-08 12:31:17.697,-2.7400805286585477e-05,-0.3054801287330512,9
2025-03-08 12:31:17.704,-3.3434045118154417e-05,-0.3441137739056297,9
2025-03-08 12:31:17.712,-3.855293912203852e-05,-0.3932262950368296,9
2025-03-08 12:31:17.720,-4.249414155888968e-05,-0.4499407561137502,9
2025-03-08 12:31:17.728,-4.504304025727677e-05,-0.5110732889006526,9
2025-03-08 12:31:17.736,-4.603883375701314e-05,-0.5732203115180006,9
2025-03-08 12:31:17.743,-4.53774847625866e-05,-0.6328563788503139,9
2025-03-08 12:31:17.751,-4.30124281268727e-05,-0.6864399379918826,9
2025-03-08 12:31:17.759,-3.895302716295025e-05,-0.7305237944189564,9
2025-03-08 12:31:17.767,-3.3260910945688385e-05,-0.7618667319704981,9
2025-03-08 12:31:17.775,-2.604446024734981e-05,-0.7775424890515379,9
2025-03-08 12:31:17.782,-1.745181543199365e-05,-0.7750421959685134,9
2025-03-08 12:31:17.790,-7.662844607737128e-06,-0.7523664462958748,9
2025-03-08 12:31:17.798,3.1194673082352286e-06,-0.708103424244237,9
2025-03-08 12:31:17.806,1.4677767142147131e-05,-0.6414899405265189,9
2025-03-08 12:31:17.814,2.6788834912757083e-05,-0.5524528228684302,9
2025-03-08 12:31:17.822,3.923153456629989e-05,-0.4416288306625677,9
2025-03-08 12:31:17.829,5.179398906998582e-05,-0.3103620746585914,9
2025-03-08 12:31:17.837,6.427980486388062e-05,-0.1606787772303482,9
2025-03-08 12:31:17.845,7.651318973776205e-05,0.0047599384455781,9
2025-03-08 12:31:17.853,8.834281858210411e-05,0.1827257340412809,9
2025-03-08 12:31:17.861,9.964432595477836e-05,0.3695089949400308,9
2025-03-08 12:31:17.868,0.0001103213524833,0.5610201861891375,9
2025-03-08 12:31:17.876,0.0001203051444077,0.7529033023565009,9
2025-03-08 12:31:17.884,0.0001295527986294,0.94065773600285,9
2025-03-08 12:31:17.892,0.0001380443471806,1.1197646757718616,9
2025-03-08 12:31:17.900,0.0001457789594685,1.2858140701642722,9
2025-03-08 12:31:17.907,0.000152770583006,1.434628251430277,9
2025-03-08 12:31:17.915,0.0001590433429773,1.5623784932984095,9
2025-03-08 12:31:17.923,0.0001646270015336,1.6656910598500922,9
2025-03-08 12:31:17.931,0.0001695527617956,1.7417396738700035,9
2025-03-08 12:31:17.939,0.0001738496886406,1.7883217780509684,9
2025-03-08 12:31:17.947,0.0001775419800835,1.8039164739896685,9
2025-03-08 12:31:17.954,0.0001806472269299,1.7877225983850134,9
2025-03-08 12:31:17.962,0.0001831756563676,1.7396760270330418,9
2025-03-08 12:31:17.970,0.0001851302313421,1.6604459705017955,9
2025-03-08 12:31:17.978,0.0001865074222736,1.5514107176847745,9
2025-03-08 12:31:17.986,0.0001872984700657,1.4146139672286129,9
2025-03-08 12:31:17.993,0.0001874909852369,1.2527035332061187,9
2025-03-08 12:31:18.001,0.0001870707667221,1.0688547906045125,9
2025-03-08 12:31:18.009,0.0001860237757465,0.8666817076349242,9
2025-03-08 12:31:18.017,0.0001843382487809,0.650138664928018,9
2025-03-08 12:31:18.025,0.0001820069562148,0.4234164582128991,9
2025-03-08 12:31:18.032,0.000179029607881,0.1908359027636858,9
2025-03-08 12:31:18.040,0.0001754153865145,-0.0432576923720094,9
2025-03-08 12:31:18.048,0.0001711855568256,-0.2745962053484594,9
2025-03-08 12:31:18.056,0.0001663760398096,-0.4990839522326596,9
2025-03-08 12:31:18.064,0.0001610397635823,-0.7128843625720033,9
2025-03-08 12:31:18.072,0.0001552485297646,-0.9124963942843654,9
2025-03-08 12:31:18.079,0.0001490940944482,-1.094819462567017,9
2025-03-08 12:31:18.087,0.0001426881670849,-1.2572061083557522,9
2025-03-08 12:31:18.095,0.0001361610815142,-1.397502063258205,9
2025-03-08 12:31:18.103,0.000129658988037,-1.514073767863452,9
2025-03-08 12:31:18.111,0.0001233395414003,-1.6058237570789076,9
2025-03-08 12:31:18.118,0.0001173661899697,-1.6721946285835272,9
2025-03-08 12:31:18.126,0.0001119012791575,-1.7131625447545409,9
2025-03-08 12:31:18.134,0.0001070982637531,-1.729221365114589,9
2025-03-08 12:31:18.142,0.0001030933991173,-1.7213585447355484,9
2025-03-08 12:31:18.150,9.99973685317491e-05,-1.691023853321779,9
2025-03-08 12:31:18.158,9.788739801311734e-05,-1.6400917810800737,9
2025-03-08 12:31:18.165,9.68004753472746e-05,-1.5708182390217929,9
2025-03-08 12:31:18.173,9.672827780077534e-05,-1.4857918906465049,9
2025-03-08 12:31:18.181,9.761429914885104e-05,-1.3878802300807982,9
2025-03-08 12:31:18.189,9.935347671062538e-05,-1.2801703972976617,9
2025-03-08 12:31:18.197,0.0001017944038758,-1.165904721527204,9
2025-03-08 12:31:18.204,0.0001047440118562,-1.0484111164450816,9
2025-03-08 12:31:18.212,0.000107974433139,-0.9310287089237832,9
2025-03-08 12:31:18.220,0.00011123162459,-0.8170294543145569,9
2025-03-08 12:31:18.228,0.0001142452337708,-0.7095369569136527,9
2025-03-08 12:31:18.236,0.0001167391400485,-0.611444244022205,9
2025-03-08 12:31:18.243,0.0001184420935253,-0.5253327851458556,9
2025-03-08 12:31:18.251,0.0001190979095635,-0.453395532775733,9
2025-03-08 12:31:18.259,0.000118474753436,-0.3973671094841052,9
2025-03-08 12:31:18.267,0.0001163731643359,-0.358464415346438,9
2025-03-08 12:31:18.275,0.0001126326074374,-0.3373408482586374,9
2025-03-08 12:31:18.283,0.0001071364801461,-0.3340570152568423,9
2025-03-08 12:31:18.290,9.981560610838888e-05,-0.3480702825046469,9
2025-03-08 12:31:18.298,9.065031599828472e-05,-0.3782447925624717,9
2025-03-08 12:31:18.306,7.967123715861549e-05,-0.42288270211819,9
2025-03-08 12:31:18.314,6.695889613612318e-05,-0.4797763967422685,9
2025-03-08 12:31:18.322,5.264219172700225e-05,-0.5462803639387651,9
2025-03-08 12:31:18.329,3.689574973219822e-05,-0.61940031089131,9
2025-03-08 12:31:18.337,1.993615093226098e-05,-0.6958960809075133,9
2025-03-08 12:31:18.345,2.0170417617644838e-06,-0.7723940539616571,9
2025-03-08 12:31:18.353,-1.6576814141852437e-05,-0.845504116713384,9
2025-03-08 12:31:18.361,-3.553642886982762e-05,-0.91193603855579,9
2025-03-08 12:31:18.368,-5.453627223827434e-05,-0.9686102258314956,9
2025-03-08 12:31:18.376,-7.32425627326989e-05,-1.0127583152215185,9
2025-03-08 12:31:18.384,-9.132195758051052e-05,-1.0420098217974376,9
2025-03-08 12:31:18.392,-0.0001084503850438,-1.054461961059057,9
2025-03-08 12:31:18.400,-0.0001243217122756,-1.048730706699721,9
2025-03-08 12:31:18.408,-0.0001386559130605,-1.0239820477763375,9
2025-03-08 12:31:18.415,-0.0001512063949948,-0.979943232911588,9
2025-03-08 12:31:18.423,-0.0001617661551676,-0.9168945307558956,9
2025-03-08 12:31:18.431,-0.0001701724682447,-0.8356427042391096,9
2025-03-08 12:31:18.439,-0.000176309905856,-0.7374779956414741,9
2025-03-08 12:31:18.447,-0.0001801116514198,-0.6241169412949281,9
2025-03-08 12:31:18.454,-0.0001815592606406,-0.4976337563518607,9
2025-03-08 12:31:18.462,-0.0001806811521033,-0.3603833233393343,9
2025-03-08 12:31:18.470,-0.0001775501597179,-0.2149189624821246,9
2025-03-08 12:31:18.478,-0.0001722804515443,-0.0639081537254198,9
2025-03-08 12:31:18.486,-0.0001650240442396,0.0899507677482473,9
2025-03-08 12:31:18.493,-0.0001559670439872,0.2440081907045738,9
2025-03-08 12:31:18.501,-0.0001453256538377,0.3957367023417887,9
2025-03-08 12:31:18.509,-0.0001333419323775,0.5427965277879854,9
2025-03-08 12:31:18.517,-0.0001202792736448,0.6830914921194428,9
2025-03-08 12:31:18.525,-0.0001064175828182,0.8148145414439036,9
2025-03-08 12:31:18.533,-9.204812669297416e-05,0.9364822840557484,9
2025-03-08 12:31:18.540,-7.746804353595458e-05,1.0469583501976316,9
2025-03-08 12:31:18.548,-6.297452404361349e-05,1.14546560981075,9
2025-03-08 12:31:18.556,-4.8858736687325785e-05,1.2315874492941803,9
2025-03-08 12:31:18.564,-3.539964382268389e-05,1.3052584311928388,9
2025-03-08 12:31:18.572,-2.285790127936438e-05,1.366744793624622,9
2025-03-08 12:31:18.579,-1.1470050315031311e-05,1.4166154263006954,9
2025-03-08 12:31:18.587,-1.4432218591160336e-06,1.455704197587304,9
2025-03-08 12:31:18.595,7.04942222392167e-06,1.4850647832868955,9
2025-03-08 12:31:18.603,1.3872314782996697e-05,1.5059194255773227,9
2025-03-08 12:31:18.611,1.8930040593909507e-05,1.5196032908317472,9
2025-03-08 12:31:18.618,2.216874605748103e-05,1.5275062667243535,9
2025-03-08 12:31:18.626,2.357635426104948e-05,1.5310141211056807,9
2025-03-08 12:31:18.634,2.318156786019072e-05,1.5314509301402526,9
2025-03-08 12:31:18.642,2.105170294764185e-05,1.5300245828324504,9
2025-03-08 12:31:18.650,1.7289488737177e-05,1.5277770121934875,9
2025-03-08 12:31:18.658,1.2029045184515026e-05,1.525540622262924,9
2025-03-08 12:31:18.665,5.431267129465304e-06,1.5239021950829732,9
2025-03-08 12:31:18.673,-2.321199521386442e-06,1.5231753755298356,9
2025-03-08 12:31:18.681,-1.102926740979844e-05,1.523382638435089,9
2025-03-08 12:31:18.689,-2.0482929670696798e-05,1.5242474364962662,9
2025-03-08 12:31:18.697,-3.046694010611344e-05,1.525197007543723,9
2025-03-08 12:31:18.704,-4.076658399058395e-05,1.5253760840528876,9
2025-03-08 12:31:18.712,-5.117342677769696e-05,1.523671491459121,9
2025-03-08 12:31:18.720,-6.149086204962927e-05,1.5187473381302254,9
2025-03-08 12:31:18.728,-7.153921825244111e-05,1.5090901836191646,9
2025-03-08 12:31:18.736,-8.116015276022494e-05,1.4930632221451057,9
2025-03-08 12:31:18.743,-9.022007273848052e-05,1.468968140295512,9
2025-03-08 12:31:18.751,-9.861237515404154e-05,1.4351129154240077,9
2025-03-08 12:31:18.759,-0.0001062583917531,1.389883439340007,9
2025-03-08 12:31:18.767,-0.0001131070464281,1.3318165159814668,9
2025-03-08 12:31:18.775,-0.0001191333540717,1.2596715286203355,9
2025-03-08 12:31:18.783,-0.0001243359854437,1.1724979302027847,9
2025-03-08 12:31:18.790,-0.0001287341794577,1.0696956970815468,9
2025-03-08 12:31:18.798,-0.0001323642999395,0.9510660110556476,9
2025-03-08 12:31:18.806,-0.0001352763087382,0.8168496992033808,9
2025-03-08 12:31:18.814,-0.0001375303646194,0.6677513552957969,9
2025-03-08 12:31:18.822,-0.0001391936705951,0.5049475656965525,9
2025-03-08 12:31:18.829,-0.0001403376080525,0.3300782338131828,9
2025-03-08 12:31:18.837,-0.0001410351408071,0.1452206125008949,9
2025-03-08 12:31:18.845,-0.0001413584486257,-0.0471537027076687,9
2025-03-08 12:31:18.853,-0.0001413767379965,-0.2442379031235928,9
2025-03-08 12:31:18.861,-0.000141154165744,-0.4429636279864329,9
2025-03-08 12:31:18.868,-0.0001407478122832,-0.6400868973378963,9
2025-03-08 12:31:18.876,-0.0001402056772268,-0.8322834243948053,9
2025-03-08 12:31:18.884,-0.0001395647395241,-1.0162498585019837,9
2025-03-08 12:31:18.892,-0.0001388492019988,-1.1888070709190477,9
2025-03-08 12:31:18.900,-0.0001380691003445,-1.347001313362328,9
2025-03-08 12:31:18.908,-0.0001372194871957,-1.4881989890206326,9
2025-03-08 12:31:18.915,-0.0001362803998626,-1.6101709083523168,9
2025-03-08 12:31:18.923,-0.000135217785513,-1.711162274061734,9
2025-03-08 12:31:18.931,-0.0001339854910029,-1.78994524523737,9
2025-03-08 12:31:18.939,-0.0001325283283603,-1.845851740145371,9
2025-03-08 12:31:18.947,-0.0001307861060239,-1.878785102850888,9
2025-03-08 12:31:18.954,-0.0001286983843972,-1.8892103218247516,9
2025-03-08 12:31:18.962,-0.000126209599664,-1.8781235852142515,9
2025-03-08 12:31:18.970,-0.0001232741308513,-1.84700302121972,9
2025-03-08 12:31:18.978,-0.0001198608743227,-1.7977434324499737,9
2025-03-08 12:31:18.986,-0.0001159569379833,-1.7325786148149556,9
2025-03-08 12:31:18.993,-0.0001115701731357,-1.653995381265854,9
2025-03-08 12:31:19.001,-0.0001067304104028,-1.564643632860894,9
2025-03-08 12:31:19.009,-0.0001014894183936,-1.467246712715288,9
2025-03-08 12:31:19.017,-9.591971098517192e-05,-1.3645158635760937,9
2025-03-08 12:31:19.025,-9.011236530265718e-05,-1.259071947280528,9
2025-03-08 12:31:19.033,-8.417399839475745e-05,-1.1533767614249946,9
2025-03-08 12:31:19.040,-7.822303318202917e-05,-1.049675405074329,9
2025-03-08 12:31:19.048,-7.238538767736075e-05,-0.949950299895099,9
2025-03-08 12:31:19.056,-6.678973317247714e-05,-0.8558867497342334,9
2025-03-08 12:31:19.064,-6.156246747653149e-05,-0.7688493781160155,9
2025-03-08 12:31:19.072,-5.682253857850439e-05,-0.6898684434685269,9
2025-03-08 12:31:19.079,-5.267625386444473e-05,-0.6196348874202208,9
2025-03-08 12:31:19.087,-4.921224285202866e-05,-0.5585029907609126,9
2025-03-08 12:31:19.095,-4.649680401521966e-05,-0.5064996531908651,9
2025-03-08 12:31:19.103,-4.456992309363831e-05,-0.4633395327482925,9
2025-03-08 12:31:19.111,-4.344225437895082e-05,-0.4284455337306924,9
2025-03-08 12:31:19.118,-4.30932839128841e-05,-0.4009743727341191,9
2025-03-08 12:31:19.126,-4.3470767122877904e-05,-0.3798471368031794,9
2025-03-08 12:31:19.134,-4.449140397448436e-05,-0.3637848335618807,9
2025-03-08 12:31:19.142,-4.60426184840833e-05,-0.351348888033245,9
2025-03-08 12:31:19.150,-4.7985258618043934e-05,-0.3409863561684756,9
2025-03-08 12:31:19.158,-5.015702958850169e-05,-0.3310793261534535,9
2025-03-08 12:31:19.165,-5.237650761296685e-05,-0.3199976176572717,9
2025-03-08 12:31:19.173,-5.444762570290927e-05,-0.3061535278602763,9
2025-03-08 12:31:19.181,-5.616455277291191e-05,-0.2880570666833504,9
2025-03-08 12:31:19.189,-5.73168909060242e-05,-0.2643699131426822,9
2025-03-08 12:31:19.197,-5.769509256914369e-05,-0.2339562325382393,9
2025-03-08 12:31:19.204,-5.7095960573672526e-05,-0.1959285230085466,9
2025-03-08 12:31:19.212,-5.532806312563786e-05,-0.149686797404401,9
2025-03-08 12:31:19.220,-5.22168988244035e-05,-0.094949632053158,9
2025-03-08 12:31:19.228,-4.760968256541101e-05,-0.031775904770673,9
2025-03-08 12:31:19.236,-4.137966976024672e-05,0.0394236236095862,9
2025-03-08 12:31:19.243,-3.3429969705647724e-05,0.1178853828782065,9
2025-03-08 12:31:19.251,-2.369680962999584e-05,0.2025028867418782,9
2025-03-08 12:31:19.259,-1.215219843509505e-05,0.2918473131280287,9
2025-03-08 12:31:19.267,1.194092741951333e-06,0.3841983890614455,9
2025-03-08 12:31:19.275,1.6293354455758054e-05,0.4775849859873826,9
2025-03-08 12:31:19.283,3.305770744482562e-05,0.5698346360367715,9
2025-03-08 12:31:19.290,5.136092935493656e-05,0.658630979694629,9
2025-03-08 12:31:19.298,7.104038075651304e-05,0.741577938616382,9
2025-03-08 12:31:19.306,9.189997629186912e-05,0.81626917023021,9
2025-03-08 12:31:19.314,0.0001137140534714,0.880361107080684,9
2025-03-08 12:31:19.322,0.0001362319134569,0.9316476291502817,9
2025-03-08 12:31:19.329,0.0001591827579741,0.9681341898355208,9
2025-03-08 12:31:19.337,0.0001822807460732,0.9881090472792412,9
2025-03-08 12:31:19.345,0.0002052299558256,0.9902091655206192,9
2025-03-08 12:31:19.353,0.0002277291333779,0.9734783570895672,9
2025-03-08 12:31:19.361,0.0002494761954281,0.9374153484200416,9
2025-03-08 12:31:19.368,0.0002701724950941,0.8820096706691176,9
2025-03-08 12:31:19.376,0.0002895268769213,0.8077636194857004,9
2025-03-08 12:31:19.384,0.0003072595555084,0.7156989884097655,9
2025-03-08 12:31:19.392,0.0003231058641896,0.6073478467786074,9
2025-03-08 12:31:19.400,0.0003368199359857,0.4847272723826905,9
2025-03-08 12:31:19.408,0.0003481783895564,0.3502986198320185,9
2025-03-08 12:31:19.415,0.0003569840780832,0.2069125648976756,9
2025-03-08 12:31:19.423,0.0003630699081823,0.0577417739577233,9
2025-03-08 12:31:19.431,0.000366302674084,-0.093796430109365,9
2025-03-08 12:31:19.439,0.0003665868197175,-0.244124634875567,9
2025-03-08 12:31:19.447,0.0003638680415181,-0.3895941264151333,9
2025-03-08 12:31:19.454,0.0003581366444038,-0.5265748321972844,9
2025-03-08 12:31:19.462,0.0003494305438882,-0.6515434946420754,9
2025-03-08 12:31:19.470,0.0003378377835786,-0.7611674719710471,9
2025-03-08 12:31:19.478,0.0003234984244638,-0.8523820157966453,9
2025-03-08 12:31:19.486,0.000306605650834,-0.922459395177537,9
2025-03-08 12:31:19.493,0.0002874059096303,-0.9690687579876875,9
2025-03-08 12:31:19.501,0.0002661978595737,-0.9903260852223236,9
2025-03-08 12:31:19.509,0.000243329880851,-0.9848339610816644,9
2025-03-08 12:31:19.517,0.0002191959121003,-0.9517111313320552,9
2025-03-08 12:31:19.525,0.0001942294508686,-0.8906119596137636,9
2025-03-08 12:31:19.533,0.0001688956765071,-0.8017359439755838,9
2025-03-08 12:31:19.540,0.0001436818168031,-0.6858274639701429,9
2025-03-08 12:31:19.548,0.0001190860446636,-0.5441659288636441,9
2025-03-08 12:31:19.556,9.560530845906578e-05,-0.3785465117056028,9
2025-03-08 12:31:19.564,7.372254287877145e-05,-0.1912516873467281,9
2025-03-08 12:31:19.572,5.389369787189158e-05,0.0149861594122455,9
2025-03-08 12:31:19.579,3.653500547355533e-05,0.2370307311520556,9
2025-03-08 12:31:19.587,2.20109006408512e-05,0.4713960263408643,9
2025-03-08 12:31:19.595,1.0623011466598338e-05,0.7143082733883693,9
2025-03-08 12:31:19.603,2.6006211333295344e-06,0.961774977042614,9
2025-03-08 12:31:19.611,-1.9070122013222476e-06,1.209660286610615,9
2025-03-08 12:31:19.618,-2.8361004511606545e-06,1.4537656641728534,9
2025-03-08 12:31:19.626,-2.1118663176426121e-07,1.689914556941713,9
2025-03-08 12:31:19.634,5.854840841516733e-06,1.914039489022318,9
2025-03-08 12:31:19.642,1.5163699488463944e-05,2.1222697207583665,9
2025-03-08 12:31:19.650,2.7437583917916144e-05,2.311017410325241,9
2025-03-08 12:31:19.658,4.232775796578086e-05,2.47706006754907,9
2025-03-08 12:31:19.665,5.942554038999084e-05,2.617617010104118,9
2025-03-08 12:31:19.673,7.827525481330456e-05,2.73041750151739,9
2025-03-08 12:31:19.681,9.838863944012416e-05,2.813758257527496,9
2025-03-08 12:31:19.689,0.0001192601631059,2.866548062733039,9
2025-03-08 12:31:19.697,0.000140382668893,2.888337379840564,9
2025-03-08 12:31:19.704,0.0001612627555721,2.8793311082662605,9
2025-03-08 12:31:19.712,0.0001814352981484,2.84038309578794,9
2025-03-08 12:31:19.720,0.0002004765096427,2.77297163616606,9
2025-03-08 12:31:19.728,0.0002180149927933,2.679155972473237,9
2025-03-08 12:31:19.736,0.000233740344416,2.5615147167278827,9
2025-03-08 12:31:19.743,0.0002474090310211,2.4230680193864167,9
2025-03-08 12:31:19.751,0.0002588474122059,2.2671861958258366,9
2025-03-08 12:31:19.759,0.0002679519349694,2.097488257690311,9
2025-03-08 12:31:19.767,0.0002746866562534,1.917734330096783,9
2025-03-08 12:31:19.775,0.0002790783576094,1.7317162080611763,9
2025-03-08 12:31:19.783,0.0002812095825922,1.5431502956735086,9
2025-03-08 12:31:19.790,0.0002812099760336,1.355576892922324,9
2025-03-08 12:31:19.798,0.0002792463700444,1.1722692906873466,9
2025-03-08 12:31:19.806,0.000275512136527,0.996155464053125,9
2025-03-08 12:31:19.814,0.0002702163609497,0.8297543801684251,9
2025-03-08 12:31:19.822,0.0002635733650916,0.6751281193172722,9
2025-03-08 12:31:19.829,0.0002557930461669,0.5338502086236606,9
2025-03-08 12:31:19.837,0.0002470724309311,0.4069898526786659,9
2025-03-08 12:31:19.845,0.0002375887565391,0.2951111741641709,9
2025-03-08 12:31:19.853,0.0002274942775261,0.1982861888839908,9
2025-03-08 12:31:19.861,0.0002169128794059,0.1161200419459731,9
2025-03-08 12:31:19.868,0.0002059384796241,0.0477870038664876,9
2025-03-08 12:31:19.876,0.0001946351275796,-0.0079241778778744,9
2025-03-08 12:31:19.884,0.0001830386711589,-0.0525568154453841,9
2025-03-08 12:31:19.892,0.0001711598160445,-0.0879257907796143,9
2025-03-08 12:31:19.900,0.0001589883441912,-0.1160510307684355,9
2025-03-08 12:31:19.908,0.0001464981826883,-0.1390859537135672,9
2025-03-08 12:31:19.915,0.0001336529571176,-0.1592420367764326,9
2025-03-08 12:31:19.923,0.000120411660531,-0.1787109180516203,9
2025-03-08 12:31:19.931,0.0001067341202719,-0.1995857987150227,9
2025-03-08 12:31:19.939,9.258600583771804e-05,-0.2237843009572449,9
2025-03-08 12:31:19.947,7.794315390314702e-05,-0.2529753107213464,9
2025-03-08 12:31:19.954,6.279501178257373e-05,-0.2885126365473103,9
2025-03-08 12:31:19.962,4.714706473841762e-05,-0.3313784982504012,9
2025-03-08 12:31:19.970,3.102221220905054e-05,-0.382139880218183,9
2025-03-08 12:31:19.978,1.4461134813147746e-05,-0.4409206098278735,9
2025-03-08 12:31:19.986,-2.478288456126606e-06,-0.5073916241972574,9
2025-03-08 12:31:19.993,-1.9722460858740505e-05,-0.5807812485248046,9
2025-03-08 12:31:20.001,-3.7184368836769776e-05,-0.6599064243340651,9
2025-03-08 12:31:20.009,-5.476655782821676e-05,-0.7432247252128942,9
2025-03-08 12:31:20.017,-7.236456519744534e-05,-0.8289057503941486,9
2025-03-08 12:31:20.025,-8.987054908014628e-05,-0.9149191970931764,9
2025-03-08 12:31:20.033,-0.000107176848722,-0.9991357027751988,9
2025-03-08 12:31:20.040,-0.0001241792506867,-1.079435535629348,9
2025-03-08 12:31:20.048,-0.0001407798051085,-1.1538194904800887,9
2025-03-08 12:31:20.056,-0.000156889110314,-1.2205159834616106,9
2025-03-08 12:31:20.064,-0.0001724280392527,-1.2780783663297,9
2025-03-08 12:31:20.072,-0.0001873289159001,-1.3254669019586267,9
2025-03-08 12:31:20.079,-0.0002015361832031,-1.362110622485192,9
2025-03-08 12:31:20.087,-0.0002150066489146,-1.3879453628545375,9
2025-03-08 12:31:20.095,-0.0002277094299677,-1.403425535076195,9
2025-03-08 12:31:20.103,-0.0002396257038027,-1.4095085892420811,9
2025-03-08 12:31:20.111,-0.0002507483178552,-1.407612515242243,9
2025-03-08 12:31:20.118,-0.000261081246926,-1.3995481074728466,9
2025-03-08 12:31:20.126,-0.0002706388567766,-1.3874289856808522,9
2025-03-08 12:31:20.134,-0.0002794449414728,-1.373563484299373,9
2025-03-08 12:31:20.142,-0.0002875315443125,-1.3603334402288396,9
2025-03-08 12:31:20.150,-0.0002949376161637,-1.3500655845145717,9
2025-03-08 12:31:20.158,-0.0003017075726518,-1.3449016516619212,9
2025-03-08 12:31:20.165,-0.0003078897836066,-1.346673451626184,9
2025-03-08 12:31:20.173,-0.0003135350023988,-1.3567890026709435,9
2025-03-08 12:31:20.181,-0.0003186947423559,-1.376135401370416,9
2025-03-08 12:31:20.189,-0.0003234196202815,-1.405003421073223,9
2025-03-08 12:31:20.197,-0.0003277576940581,-1.4430379109267062,9
2025-03-08 12:31:20.204,-0.0003317528229242,-1.489216958916269,9
2025-03-08 12:31:20.212,-0.0003354430954781,-1.5418615358136618,9
2025-03-08 12:31:20.220,-0.0003388594148181,-1.598676003258828,9
2025-03-08 12:31:20.228,-0.0003420243785726,-1.6568184985099803,9
2025-03-08 12:31:20.236,-0.000344951596997,-1.7129988515850434,9
2025-03-08 12:31:20.243,-0.0003476455339103,-1.7636003980443091,9
2025-03-08 12:31:20.251,-0.000350101858414,-1.8048208727506208,9
2025-03-08 12:31:20.259,-0.0003523082081169,-1.8328265609503145,9
2025-03-08 12:31:20.267,-0.0003542452232226,-1.843913105078262,9
2025-03-08 12:31:20.275,-0.0003558877172981,-1.8346658854979636,9
2025-03-08 12:31:20.283,-0.0003572058740782,-1.8021127703164312,9
2025-03-08 12:31:20.290,-0.0003581663656883,-1.74386229847303,9
2025-03-08 12:31:20.298,-0.0003587332765194,-1.6582210183246031,9
2025-03-08 12:31:20.306,-0.000358868732035,-1.5442847069755998,9
2025-03-08 12:31:20.314,-0.0003585332089376,-1.401999467862345,9
2025-03-08 12:31:20.322,-0.0003576856173766,-1.2321901522764016,9
2025-03-08 12:31:20.329,-0.0003562833350187,-1.0365550777154318,9
2025-03-08 12:31:20.337,-0.0003542824032506,-0.8176275332010345,9
2025-03-08 12:31:20.345,-0.0003516380784609,-0.578705994967087,9
2025-03-08 12:31:20.353,-0.0003483058887767,-0.3237562674103468,9
2025-03-08 12:31:20.361,-0.0003442432908672,-0.0572898690991154,9
2025-03-08 12:31:20.368,-0.0003394119568809,0.2157761352819361,9
2025-03-08 12:31:20.376,-0.0003337806513451,0.4902720325379076,9
2025-03-08 12:31:20.384,-0.000327328585279,0.7609349252865091,9
2025-03-08 12:31:20.392,-0.0003200490633329,1.022568560516661,9
2025-03-08 12:31:20.400,-0.0003119531730054,1.2701975691747964,9
2025-03-08 12:31:20.408,-0.0003030732063895,1.4992106671763992,9
2025-03-08 12:31:20.415,-0.0002934654594044,1.7054880718511256,9
2025-03-08 12:31:20.423,-0.0002832120338195,1.8855092271879288,9
2025-03-08 12:31:20.431,-0.000272421298485,2.036437846925201,9
2025-03-08 12:31:20.439,-0.0002612267694782,2.1561822374014907,9
2025-03-08 12:31:20.447,-0.0002497843321911,2.243429838052528,9
2025-03-08 12:31:20.454,-0.0002382679014412,2.29765591404563,9
2025-03-08 12:31:20.462,-0.0002268637477816,2.319107337850016,9
2025-03-08 12:31:20.470,-0.0002157637958387,2.308763360168301,9
2025-03-08 12:31:20.478,-0.0002051582430419,2.268276123880199,9
2025-03-08 12:31:20.486,-0.000195227876543,2.1998943367947392,9
2025-03-08 12:31:20.494,-0.0001861364900149,2.106373924537281,9
2025-03-08 12:31:20.501,-0.0001780238114954,1.9908796046251445,9
2025-03-08 12:31:20.509,-0.0001709993267955,1.8568811757998689,9
2025-03-08 12:31:20.517,-0.0001651373077144,1.70804796743519,9
2025-03-08 12:31:20.525,-0.000160473253567,1.5481444344144557,9
2025-03-08 12:31:20.533,-0.0001570018685125,1.3809294083265464,9
2025-03-08 12:31:20.540,-0.0001546766375834,1.21006110175787,9
2025-03-08 12:31:20.548,-0.0001534110173121,1.0390096500785515,9
2025-03-08 12:31:20.556,-0.0001530812144949,0.8709787660321091,9
2025-03-08 12:31:20.564,-0.000153530479188,0.7088379431346388,9
2025-03-08 12:31:20.572,-0.0001545747613689,0.5550665193468692,9
2025-03-08 12:31:20.579,-0.000156009465022,0.4117107470412796,9
2025-03-08 12:31:20.587,-0.0001576169063994,0.2803547734581073,9
2025-03-08 12:31:20.595,-0.0001591739928494,0.1621061106659853,9
2025-03-08 12:31:20.603,-0.000160459620374,0.0575957782925872,9
2025-03-08 12:31:20.611,-0.0001612613441876,-0.0330071461808957,9
2025-03-08 12:31:20.619,-0.000161380982295,-0.1099673191465873,9
2025-03-08 12:31:20.626,-0.000160638941284,-0.1739425159377604,9
2025-03-08 12:31:20.634,-0.0001588771923579,-0.2259323574293493,9
2025-03-08 12:31:20.642,-0.0001559609667644,-0.2672185948593992,9
2025-03-08 12:31:20.650,-0.000151779369489,-0.2992995859511031,9
2025-03-08 12:31:20.658,-0.0001462452021768,-0.3238219319537361,9
2025-03-08 12:31:20.665,-0.0001392943160986,-0.3425124656077441,9
2025-03-08 12:31:20.673,-0.0001308847840934,-0.3571138406395557,9
2025-03-08 12:31:20.681,-0.0001209961124724,-0.3693268327259911,9
2025-03-08 12:31:20.689,-0.0001096286368483,-0.3807620948641667,9
2025-03-08 12:31:20.697,-9.680317404042775e-05,-0.3929035193532357,9
2025-03-08 12:31:20.704,-8.256094147268171e-05,-0.407084577205805,9
2025-03-08 12:31:20.712,-6.69637096142034e-05,-0.424478092333877,9
2025-03-08 12:31:20.720,-5.00941235455024e-05,-0.4460989371876775,9
2025-03-08 12:31:20.728,-3.205610942858339e-05,-0.4728181882368766,9
2025-03-08 12:31:20.736,-1.2975251524401849e-05,-0.5053864248101332,9
2025-03-08 12:31:20.744,7.001025031083359e-06,-0.5444631451834515,9
2025-03-08 12:31:20.751,2.7703676740827865e-05,-0.5906487420272225,9
2025-03-08 12:31:20.759,4.89428837488914e-05,-0.6445151518084898,9
2025-03-08 12:31:20.767,7.050968410039356e-05,-0.7066312042201449,9
2025-03-08 12:31:20.775,9.217852309702224e-05,-0.7775788910533492,9
2025-03-08 12:31:20.783,0.0001137108023588,-0.8579572829473802,9
2025-03-08 12:31:20.790,0.0001348594658775,-0.9483716507515147,9
2025-03-08 12:31:20.798,0.0001553745722395,-1.0494064580976743,9
2025-03-08 12:31:20.806,0.0001750096759394,-1.1615822058801344,9
2025-03-08 12:31:20.814,0.0001935287245852,-1.285297520646732,9
2025-03-08 12:31:20.822,0.0002107131226339,-1.420759264868781,9
2025-03-08 12:31:20.829,0.0002263686184028,-1.5679046861278425,9
2025-03-08 12:31:20.837,0.0002403317039357,-1.7263206099673156,9
2025-03-08 12:31:20.845,0.0002524752455663,-1.895165341875402,9
2025-03-08 12:31:20.853,0.0002627130770693,-2.073099236330693,9
2025-03-08 12:31:20.861,0.0002710032963155,-2.258229807254529,9
2025-03-08 12:31:20.869,0.0002773500346313,-2.4480768131073187,9
2025-03-08 12:31:20.876,0.0002818035394318,-2.639561985113408,9
2025-03-08 12:31:20.884,0.0002844585230343,-2.8290270186774307,9
2025-03-08 12:31:20.892,0.0002854508494056,-3.0122821592582567,9
2025-03-08 12:31:20.900,0.0002849527098548,-3.184686233996666,9
2025-03-08 12:31:20.908,0.0002831664565334,-3.3412573679622977,9
2025-03-08 12:31:20.915,0.0002803172515603,-3.4768119499201813,9
2025-03-08 12:31:20.923,0.000276644718825,-3.586127760823174,9
2025-03-08 12:31:20.931,0.0002723938899193,-3.6641256413274,9
2025-03-08 12:31:20.939,0.0002678058687097,-3.70606274539552,9
2025-03-08 12:31:20.947,0.0002631087170873,-3.707729391418889,9
2025-03-08 12:31:20.954,0.0002585090525702,-3.6656408538062863,9
2025-03-08 12:31:20.962,0.0002541847815829,-3.577215190515552,9
2025-03-08 12:31:20.970,0.0002502793167883,-3.440928403101393,9
2025-03-08 12:31:20.978,0.0002468975549223,-3.2564388786774248,9
2025-03-08 12:31:20.986,0.0002441038136796,-3.024674153015031,9
2025-03-08 12:31:20.994,0.0002419218359778,-2.747874525203284,9
2025-03-08 12:31:21.001,0.0002403368677934,-2.429589877286493,9
2025-03-08 12:31:21.009,0.0002392997040823,-2.0746280990957806,9
2025-03-08 12:31:21.017,0.0002387324787496,-1.6889556604218003,9
2025-03-08 12:31:21.025,0.0002385358538473,-1.279552988922724,9
2025-03-08 12:31:21.033,0.000238597153142,-0.8542293059192329,9
2025-03-08 12:31:21.040,0.0002387989117124,-0.4214033666341689,9
2025-03-08 12:31:21.048,0.0002390273009843,0.0101419221113087,9
2025-03-08 12:31:21.056,0.0002391799374382,0.4315218409571797,9
2025-03-08 12:31:21.064,0.0002391726682154,0.8340191889816606,9
2025-03-08 12:31:21.072,0.0002389450219871,1.20935028545356,9
2025-03-08 12:31:21.079,0.0002384641056996,1.549917440836361,9
2025-03-08 12:31:21.087,0.0002377268125997,1.8490383018029275,9
2025-03-08 12:31:21.095,0.0002367602818666,2.101143546791216,9
2025-03-08 12:31:21.103,0.000235620613339,2.301935886102872,9
2025-03-08 12:31:21.111,0.0002343898908625,2.4485051082295324,9
2025-03-08 12:31:21.119,0.0002331716055041,2.539395891630668,9
2025-03-08 12:31:21.126,0.0002320846046569,2.574627134948753,9
2025-03-08 12:31:21.134,0.0002312557472888,2.555663514538806,9
2025-03-08 12:31:21.142,0.0002308115407591,2.4853417416573524,9
2025-03-08 12:31:21.150,0.000230869166007,2.367755489367029,9
2025-03-08 12:31:21.158,0.0002315274281862,2.208104166571728,9
2025-03-08 12:31:21.165,0.000232858248372,2.012511645741484,9
2025-03-08 12:31:21.173,0.000234899304462,1.7878217303109705,9
2025-03-08 12:31:21.181,0.0002376483435074,1.541377605678827,9
2025-03-08 12:31:21.189,0.0002410595695897,1.280792772233304,9
2025-03-08 12:31:21.197,0.0002450423999294,1.013721013855641,9
2025-03-08 12:31:21.204,0.0002494627684456,0.7476328037877447,9
2025-03-08 12:31:21.212,0.0002541470089053,0.4896051816637062,9
2025-03-08 12:31:21.220,0.0002588881729519,0.2461315469330762,9
2025-03-08 12:31:21.228,0.0002634544725228,0.0229570123092152,9
2025-03-08 12:31:21.236,0.0002675994074573,-0.1750560336463282,9
2025-03-08 12:31:21.244,0.0002710730397746,-0.3440286624943998,9
2025-03-08 12:31:21.251,0.0002736337977686,-0.4811302290758837,9
2025-03-08 12:31:21.259,0.0002750601513637,-0.5846064309436594,9
2025-03-08 12:31:21.267,0.0002751615179942,-0.6537711404125908,9
2025-03-08 12:31:21.275,0.0002737878355794,-0.6889638986767342,9
2025-03-08 12:31:21.283,0.0002708373513887,-0.6914762163789234,9
2025-03-08 12:31:21.290,0.0002662622972669,-0.6634509227520802,9
2025-03-08 12:31:21.298,0.0002600722404171,-0.6077596968218117,9
2025-03-08 12:31:21.306,0.0002523350108667,-0.5278645605995892,9
2025-03-08 12:31:21.314,0.0002431752101578,-0.4276694895567807,9
2025-03-08 12:31:21.322,0.0002327703993972,-0.3113683910180907,9
2025-03-08 12:31:21.329,0.0002213451476779,-0.1832955262796979,9
2025-03-08 12:31:21.337,0.0002091631934367,-0.0477840289797554,9
2025-03-08 12:31:21.345,0.0001965180311948,0.090962476529681,9
2025-03-08 12:31:21.353,0.000183722284147,0.2289810072804055,9
2025-03-08 12:31:21.361,0.0001710962591534,0.3626399898249687,9
2025-03-08 12:31:21.369,0.0001589561047988,0.4887077258483482,9
2025-03-08 12:31:21.376,0.0001476020053023,0.6043978753968392,9
2025-03-08 12:31:21.384,0.0001373068431278,0.7073925506790296,9
2025-03-08 12:31:21.392,0.0001283057510761,0.7958448258841219,9
2025-03-08 12:31:21.400,0.0001207869503163,0.8683635399416599,9
2025-03-08 12:31:21.408,0.0001148842341241,0.9239841162282773,9
2025-03-08 12:31:21.415,0.0001106714079521,0.9621296746151092,9
2025-03-08 12:31:21.423,0.0001081589348847,0.9825669266187712,9
2025-03-08 12:31:21.431,0.0001072929616994,0.985361224035251,9
2025-03-08 12:31:21.439,0.0001079568150822,0.9708347108548092,9
2025-03-08 12:31:21.447,0.0001099749607595,0.9395308644597244,9
2025-03-08 12:31:21.454,0.0001131193115155,0.8921878710098202,9
2025-03-08 12:31:21.462,0.00011711765484,0.829722329006553,9
2025-03-08 12:31:21.470,0.0001216638509963,0.7532237792801084,9
2025-03-08 12:31:21.478,0.0001264293399145,0.663959579154165,9
2025-03-08 12:31:21.486,0.000131075415918,0.5633887279840202,9
2025-03-08 12:31:21.494,0.0001352657074602,0.4531824605091276,9
2025-03-08 12:31:21.501,0.0001386783348956,0.3352487969107258,9
2025-03-08 12:31:21.509,0.0001410172884833,0.2117578047029421,9
2025-03-08 12:31:21.517,0.0001420226462265,0.085164097887395,9
2025-03-08 12:31:21.525,0.0001414793249341,-0.0417769379331,9
2025-03-08 12:31:21.533,0.0001392241249505,-0.1660025730487183,9
2025-03-08 12:31:21.540,0.000135150890199,-0.2841489122660624,9
2025-03-08 12:31:21.548,0.0001292136684807,-0.3925725071869752,9
2025-03-08 12:31:21.556,0.0001214278353838,-0.4873895318675517,9
2025-03-08 12:31:21.564,0.0001118692383211,-0.5645339536166373,9
2025-03-08 12:31:21.572,0.0001006715014985,-0.6198352802502269,9
2025-03-08 12:31:21.579,8.802168477405273e-05,-0.6491154672351297,9
2025-03-08 12:31:21.587,7.415451007520275e-05,-0.648303450574714,9
2025-03-08 12:31:21.595,5.934537308464407e-05,-0.6135645873176387,9
2025-03-08 12:31:21.603,4.390235559901256e-05,-0.5414411077084871,9
2025-03-08 12:31:21.611,2.81574491220479e-05,-0.4289985933774188,9
2025-03-08 12:31:21.619,1.2457194819003243e-05,-0.2739725786794355,9
2025-03-08 12:31:21.626,-2.8470594349453e-06,-0.0749087059030402,9
2025-03-08 12:31:21.634,-1.7409086321962154e-05,0.1687104869611072,9
2025-03-08 12:31:21.642,-3.089769123067165e-05,0.456359064031561,9
2025-03-08 12:31:21.650,-4.3006405808480015e-05,0.7863880168828871,9
2025-03-08 12:31:21.658,-5.346275088277082e-05,1.1559782114814694,9
2025-03-08 12:31:21.665,-6.203683642304995e-05,1.5611306505377007,9
2025-03-08 12:31:21.673,-6.85490245757807e-05,1.9966973325181825,9
2025-03-08 12:31:21.681,-7.287633158262964e-05,2.456454323972628,9
2025-03-08 12:31:21.689,-7.495723321616484e-05,2.933216820071048,9
2025-03-08 12:31:21.697,-7.479460454427258e-05,3.4189940318539054,9
2025-03-08 12:31:21.704,-7.245664540541559e-05,3.905179796422793,9
2025-03-08 12:31:21.712,-6.807575730012002e-05,4.382772956249364,9
2025-03-08 12:31:21.720,-6.184541285373364e-05,4.842619904508328,9
2025-03-08 12:31:21.728,-5.401510678801427e-05,5.27567035732952,9
2025-03-08 12:31:21.736,-4.48835194403947e-05,5.673236494110866,9
2025-03-08 12:31:21.744,-3.479007096027659e-05,6.027245183021412,9
2025-03-08 12:31:21.751,-2.4105098489720032e-05,6.330473127487747,9
2025-03-08 12:31:21.759,-1.3218949768182856e-05,6.576755440219469,9
2025-03-08 12:31:21.767,-2.530353879265314e-06,6.7611593409090025,9
2025-03-08 12:31:21.775,7.565499866144207e-06,6.880116302406666,9
2025-03-08 12:31:21.783,1.66886825705362e-05,6.93150791803689,9
2025-03-08 12:31:21.790,2.4485526326139505e-05,6.914702890620455,9
2025-03-08 12:31:21.798,3.063841642159745e-05,6.830544719771163,9
2025-03-08 12:31:21.806,3.487397666884744e-05,6.6812917783251695,9
2025-03-08 12:31:21.814,3.696937314601869e-05,6.470513429093707,9
2025-03-08 12:31:21.822,3.675659414449315e-05,6.202947553031445,9
2025-03-08 12:31:21.829,3.412469142957261e-05,5.884326257606879,9
2025-03-08 12:31:21.837,2.9020076748086497e-05,5.521177544673458,9
2025-03-08 12:31:21.845,2.144503571378178e-05,5.120611304625605,9
2025-03-08 12:31:21.853,1.1454636496223338e-05,4.690098163708692,9
2025-03-08 12:31:21.861,-8.478012605400198e-07,4.23724946633665,9
2025-03-08 12:31:21.869,-1.5316501753303908e-05,3.769606068864362,9
2025-03-08 12:31:21.876,-3.177006077002883e-05,3.294442719366437,9
2025-03-08 12:31:21.884,-4.999899349747608e-05,2.818593676017244,9
2025-03-08 12:31:21.892,-6.977362764997476e-05,2.348303954350455,9
2025-03-08 12:31:21.900,-9.085194727509238e-05,1.889109269163955,9
2025-03-08 12:31:21.908,-0.0001129870039019,1.4457464283092163,9
2025-03-08 12:31:21.915,-0.0001359335372721,1.0220947195104322,9
2025-03-08 12:31:21.923,-0.0001594534982556,0.621147768933334,9
2025-03-08 12:31:21.931,-0.0001833202532692,0.2450144703763624,9
2025-03-08 12:31:21.939,-0.0002073213538466,-0.1050531221049797,9
2025-03-08 12:31:21.947,-0.00023125985945,-0.4286076139711154,9
2025-03-08 12:31:21.954,-0.000254954316585,-0.7259329550915967,9
2025-03-08 12:31:21.962,-0.0002782376297039,-0.997953563613965,9
2025-03-08 12:31:21.970,-0.0003009551879718,-1.2461298399739298,9
2025-03-08 12:31:21.978,-0.000322962701,-1.4723443394796407,9
2025-03-08 12:31:21.986,-0.0003441242118971,-1.6787830934920474,9
2025-03-08 12:31:21.994,-0.0003643106823267,-1.8678166563924556,9
2025-03-08 12:31:22.001,-0.000383399407368,-2.041885380100632,9
2025-03-08 12:31:22.009,-0.0004012743703148,-2.2033931666251045,9
2025-03-08 12:31:22.017,-0.0004178275273718,-2.354613520012016,9
2025-03-08 12:31:22.025,-0.0004329609323057,-2.497611116656347,9
2025-03-08 12:31:22.033,-0.0004465895665224,-2.6341813481231435,9
2025-03-08 12:31:22.040,-0.0004586447017879,-2.765809384440608,9
2025-03-08 12:31:22.048,-0.0004690775569601,-2.8936492925907675,9
2025-03-08 12:31:22.056,-0.0004778629278922,-3.0185226711485664,9
2025-03-08 12:31:22.064,-0.0004850024238738,-3.140935183080509,9
2025-03-08 12:31:22.072,-0.0004905269601203,-3.2611083482920176,9
2025-03-08 12:31:22.079,-0.0004944982084879,-3.379023069043299,9
2025-03-08 12:31:22.087,-0.0004970087759647,-3.4944706832002344,9
2025-03-08 12:31:22.095,-0.0004981809745108,-3.6071069417004655,9
2025-03-08 12:31:22.103,-0.0004981641741695,-3.716504233908879,9
2025-03-08 12:31:22.111,-0.0004971308663103,-3.822197656158405,9
2025-03-08 12:31:22.119,-0.0004952716593621,-3.923721125815665,9
2025-03-08 12:31:22.126,-0.0004927894603938,-4.020630648979124,9
2025-03-08 12:31:22.134,-0.0004898930834951,-4.112512989790248,9
2025-03-08 12:31:22.142,-0.0004867905170489,-4.1989792750839054,9
2025-03-08 12:31:22.150,-0.0004836821003971,-4.279644397121739,9
2025-03-08 12:31:22.158,-0.0004807538926322,-4.354094344193758,9
2025-03-08 12:31:22.165,-0.0004781715398594,-4.421844696605207,9
2025-03-08 12:31:22.173,-0.0004760749511563,-4.4822943915542695,9
2025-03-08 12:31:22.181,-0.0004745740750991,-4.534679421258595,9
2025-03-08 12:31:22.189,-0.0004737460277543,-4.57803134260892,9
2025-03-08 12:31:22.197,-0.0004736337596764,-4.611145324976252,9
2025-03-08 12:31:22.204,-0.0004742463645531,-4.632561952899236,9
2025-03-08 12:31:22.212,-0.0004755610271912,-4.6405661704646,9
2025-03-08 12:31:22.220,-0.0004775264857104,-4.633205674951534,9
2025-03-08 12:31:22.228,-0.0004800677465708,-4.608329833428596,9
2025-03-08 12:31:22.236,-0.0004830916562341,-4.5636489091876165,9
2025-03-08 12:31:22.244,-0.0004864928359179,-4.4968121362475575,9
2025-03-08 12:31:22.251,-0.0004901594722587,-4.405502038680722,9
2025-03-08 12:31:22.259,-0.0004939785390991,-4.287541402108172,9
2025-03-08 12:31:22.267,-0.0004978401560206,-4.141008494314526,9
2025-03-08 12:31:22.275,-0.000501640903436,-3.964355519190196,9
2025-03-08 12:31:22.283,-0.0005052859974674,-3.7565248909476048,9
2025-03-08 12:31:22.290,-0.0005086903112383,-3.5170577520145536,9
2025-03-08 12:31:22.298,-0.0005117783305211,-3.2461892421630205,9
2025-03-08 12:31:22.306,-0.0005144832340468,-2.94492536190512,9
2025-03-08 12:31:22.314,-0.0005167453672278,-2.6150968496423563,9
2025-03-08 12:31:22.322,-0.0005185104198515,-2.259386284843585,9
2025-03-08 12:31:22.329,-0.0005197276202668,-1.8813256027040368,9
2025-03-08 12:31:22.337,-0.0005203482205941,-1.4852623180600013,9
2025-03-08 12:31:22.345,-0.0005203244725133,-1.0762939667703575,9
2025-03-08 12:31:22.353,-0.0005196091936859,-0.660171542335658,9
2025-03-08 12:31:22.361,-0.000518155927231,-0.2431739968290051,9
2025-03-08 12:31:22.369,-0.0005159196271728,0.168042848754462,9
2025-03-08 12:31:22.376,-0.0005128577638603,0.5666184197366807,9
2025-03-08 12:31:22.384,-0.0005089317151932,0.945674851973426,9
2025-03-08 12:31:22.392,-0.0005041082800483,1.2985131930766065,9
2025-03-08 12:31:22.400,-0.0004983611337495,1.6188110480453688,9
2025-03-08 12:31:22.408,-0.0004916720636557,1.9008140242763605,9
2025-03-08 12:31:22.415,-0.0004840318754964,2.1395133586049573,9
2025-03-08 12:31:22.423,-0.0004754409234794,2.330802538880131,9
2025-03-08 12:31:22.431,-0.0004659092646562,2.4716065553672184,9
2025-03-08 12:31:22.439,-0.0004554564594271,2.5599785907778663,9
2025-03-08 12:31:22.447,-0.0004441110350832,2.595160405059212,9
2025-03-08 12:31:22.454,-0.0004319096083967,2.5776042869460856,9
2025-03-08 12:31:22.462,-0.0004188956505935,2.5089561117757357,9
2025-03-08 12:31:22.470,-0.0004051178973417,2.3920006565406102,9
2025-03-08 12:31:22.478,-0.0003906284573719,2.23057179604334,9
2025-03-08 12:31:22.486,-0.0003754807316795,2.0294314848073247,9
2025-03-08 12:31:22.494,-0.0003597272962258,1.7941224864319685,9
2025-03-08 12:31:22.501,-0.0003434179135545,1.530800625856706,9
2025-03-08 12:31:22.509,-0.0003265978207824,1.2460528985295982,9
2025-03-08 12:31:22.517,-0.0003093063953801,0.9467080686237428,9
2025-03-08 12:31:22.525,-0.0002915762374989,0.6396464264270988,9
2025-03-08 12:31:22.533,-0.0002734326533835,0.3316151567577446,9
2025-03-08 12:31:22.540,-0.0002548935032865,0.0290553054375724,9
2025-03-08 12:31:22.548,-0.0002359693898154,-0.2620543599629692,9
2025-03-08 12:31:22.556,-0.0002166641852374,-0.5363321815554551,9
2025-03-08 12:31:22.564,-0.0001969759049727,-0.7891037499323023,9
2025-03-08 12:31:22.572,-0.0001768979189011,-1.0164850882614758,9
2025-03-08 12:31:22.579,-0.0001564204524888,-1.2154377837989592,9
2025-03-08 12:31:22.587,-0.0001355322771408,-1.3837961259005958,9
2025-03-08 12:31:22.595,-0.0001142224481671,-1.5202674141542505,9
2025-03-08 12:31:22.603,-9.248194352445156e-05,-1.6244076051185274,9
2025-03-08 12:31:22.611,-7.030508712311373e-05,-1.6965753172125415,9
2025-03-08 12:31:22.619,-4.769068299488567e-05,-1.7378678540787251,9
2025-03-08 12:31:22.626,-2.4642816592267776e-05,-1.7500432925321183,9
2025-03-08 12:31:22.634,-1.1712877346573616e-06,-1.735432792432876,9
2025-03-08 12:31:22.642,2.270836580701233e-05,-1.696847131701768,9
2025-03-08 12:31:22.650,4.697529121832125e-05,-1.637481084457688,9
2025-03-08 12:31:22.658,7.160419107301281e-05,-1.5608186982271497,9
2025-03-08 12:31:22.665,9.656657520297108e-05,-1.4705418561063488,9
2025-03-08 12:31:22.673,0.0001218322550025,-1.3704438051660242,9
2025-03-08 12:31:22.681,0.0001473708879421,-1.2643486603257714,9
2025-03-08 12:31:22.689,0.000173153358347,-1.1560373074236974,9
2025-03-08 12:31:22.697,0.0001991527928363,-1.0491796709633694,9
2025-03-08 12:31:22.704,0.0002253450549064,-0.9472730089036138,9
2025-03-08 12:31:22.712,0.0002517086398654,-0.8535857604063435,9
2025-03-08 12:31:22.720,0.000278223986279,-0.7711064925532424,9
2025-03-08 12:31:22.728,0.0003048723072448,-0.7024976368829919,9
2025-03-08 12:31:22.736,0.0003316340984143,-0.650053931180487,9
2025-03-08 12:31:22.744,0.0003584874980688,-0.6156657392338353,9
2025-03-08 12:31:22.751,0.0003854066784677,-0.6007876677185338,9
2025-03-08 12:31:22.759,0.0004123604502721,-0.6064130938780817,9
2025-03-08 12:31:22.767,0.0004393112501483,-0.6330553212670338,9
2025-03-08 12:31:22.775,0.0004662146351041,-0.680736063765965,9
2025-03-08 12:31:22.783,0.0004930193275379,-0.7489818122050668,9
2025-03-08 12:31:22.790,0.0005196677682726,-0.8368283844477895,9
2025-03-08 12:31:22.798,0.0005460970671376,-0.9428336460697434,9
2025-03-08 12:31:22.806,0.0005722402044159,-1.065098076360094,9
2025-03-08 12:31:22.814,0.0005980273348294,-1.2012926036313611,9
2025-03-08 12:31:22.822,0.0006233870789645,-1.3486929894621766,9
2025-03-08 12:31:22.830,0.0006482477525165,-1.504220022212072,9
2025-03-08 12:31:22.837,0.0006725385678847,-1.6644848757480015,9
2025-03-08 12:31:22.845,0.0006961909101166,-1.8258391666463427,9
2025-03-08 12:31:22.853,0.0007191397939381,-1.984429456264484,9
2025-03-08 12:31:22.861,0.0007413255379394,-2.136256142786164,9
2025-03-08 12:31:22.869,0.0007626955931626,-2.277236824935273,9
2025-03-08 12:31:22.876,0.0007832063993451,-2.4032742562308047,9
2025-03-08 12:31:22.884,0.0008028251258439,-2.510328924945009,9
2025-03-08 12:31:22.892,0.0008215311530372,-2.5944960833400854,9
2025-03-08 12:31:22.900,0.0008393171435109,-2.652086714108827,9
2025-03-08 12:31:22.908,0.0008561895547877,-2.679711477463562,9
2025-03-08 12:31:22.915,0.0008721684771901,-2.6743661597740127,9
2025-03-08 12:31:22.923,0.0008872867414894,-2.633516593016948,9
2025-03-08 12:31:22.931,0.0009015883089078,-2.555180497904053,9
2025-03-08 12:31:22.939,0.0009151260065136,-2.4380032913298915,9
2025-03-08 12:31:22.947,0.0009279587032433,-2.281324648675337,9
2025-03-08 12:31:22.955,0.0009401480565952,-2.0852325591440604,9
2025-03-08 12:31:22.962,0.0009517550100582,-1.85060176998813,9
2025-03-08 12:31:22.970,0.0009628362723749,-1.5791138784621332,9
2025-03-08 12:31:22.978,0.0009734410376479,-1.2732568825538364,9
2025-03-08 12:31:22.986,0.0009836081996271,-0.9363027151474996,9
2025-03-08 12:31:22.994,0.0009933642747289,-0.5722621179112956,9
2025-03-08 12:31:23.001,0.0010027221779482,-0.1858171034013565,9
2025-03-08 12:31:23.009,0.0010116809062359,0.2177678548295737,9
2025-03-08 12:31:23.017,0.0010202261011085,0.6327539275349878,9
2025-03-08 12:31:23.025,0.0010283314021542,1.053052609923524,9
2025-03-08 12:31:23.033,0.0010359604546632,1.4723636244840543,9
2025-03-08 12:31:23.040,0.0010430693782576,1.8843221762940052,9
2025-03-08 12:31:23.048,0.0010496094410675,2.282651276644816,9
2025-03-08 12:31:23.056,0.0010555296407375,2.6613145356414893,9
2025-03-08 12:31:23.064,0.0010607788938207,3.014664621900181,9
2025-03-08 12:31:23.072,0.0010653075888189,3.337582533459017,9
2025-03-08 12:31:23.080,0.0010690683634736,3.6256029627428488,9
2025-03-08 12:31:23.087,0.0010720161088263,3.875021401461767,9
2025-03-08 12:31:23.095,0.0010741073434832,4.082979224145432,9
2025-03-08 12:31:23.103,0.0010752991909323,4.24752379039121,9
2025-03-08 12:31:23.111,0.001075548204914,4.367641573991887,9
2025-03-08 12:31:23.119,0.0010748092454729,4.443263404649716,9
2025-03-08 12:31:23.126,0.0010730345573299,4.475242026497474,9
2025-03-08 12:31:23.134,0.0010701731676356,4.465303265713034,9
2025-03-08 12:31:23.142,0.0010661706921401,4.415973095541069,9
2025-03-08 12:31:23.150,0.0010609695974312,4.330483747950718,9
2025-03-08 12:31:23.158,0.001054509913849,4.212662719535017,9
2025-03-08 12:31:23.165,0.0010467303522819,4.066809033853778,9
2025-03-08 12:31:23.173,0.0010375697630089,3.897561433878314,9
2025-03-08 12:31:23.181,0.001026968873805,3.709763273761405,9
2025-03-08 12:31:23.189,0.0010148722367533,3.5083287589871386,9
2025-03-08 12:31:23.197,0.0010012302975603,3.298114861137194,9
2025-03-08 12:31:23.205,0.0009860014915888,3.0838027292848587,9
2025-03-08 12:31:23.212,0.0009691542680981,2.869791761644395,9
2025-03-08 12:31:23.220,0.0009506689359052,2.6601087256532105,9
2025-03-08 12:31:23.228,0.0009305392123581,2.4583334747351677,9
2025-03-08 12:31:23.236,0.0009087733653718,2.2675419737201903,9
2025-03-08 12:31:23.244,0.0008853948786928,2.0902665865567114,9
2025-03-08 12:31:23.251,0.0008604426296641,1.9284729640925748,9
2025-03-08 12:31:23.259,0.0008339706222126,1.783552436051978,9
2025-03-08 12:31:23.267,0.0008060473544048,1.6563285670954095,9
2025-03-08 12:31:23.275,0.0007767549189223,1.547076457648661,9
2025-03-08 12:31:23.283,0.0007461879343551,1.4555534066192115,9
2025-03-08 12:31:23.290,0.0007144523857375,1.3810396410967285,9
2025-03-08 12:31:23.298,0.0006816644169327,1.3223878938703693,9
2025-03-08 12:31:23.306,0.0006479490668771,1.278080626181544,9
2025-03-08 12:31:23.314,0.0006134388880882,1.2462936312550366,9
2025-03-08 12:31:23.322,0.000578272355635,1.224964622725076,9
2025-03-08 12:31:23.330,0.0005425919900856,1.2118652408414772,9
2025-03-08 12:31:23.337,0.0005065421762543,1.2046747375453155,9
2025-03-08 12:31:23.345,0.0004702667272479,1.2010534668053214,9
2025-03-08 12:31:23.353,0.0004339062716253,1.1987142383388698,9
2025-03-08 12:31:23.361,0.0003975955058385,1.1954896105039432,9
2025-03-08 12:31:23.369,0.0003614602794556,1.1893933125510705,9
2025-03-08 12:31:23.376,0.0003256144241783,1.1786742004264743,9
2025-03-08 12:31:23.384,0.0002901562540999,1.161861457780001,9
2025-03-08 12:31:23.392,0.000255164774829,1.1378001377911,9
2025-03-08 12:31:23.400,0.0002206958063964,1.1056765739912138,9
2025-03-08 12:31:23.408,0.000186778372779,1.0650336340940991,9
2025-03-08 12:31:23.415,0.0001534117846431,1.0157762128892347,9
2025-03-08 12:31:23.423,0.0001205638397612,0.9581677237140006,9
2025-03-08 12:31:23.431,8.817050636777813e-05,0.8928186221360135,9
2025-03-08 12:31:23.439,5.613734793220793e-05,0.8206681571297922,9
2025-03-08 12:31:23.447,2.434280619118972e-05,0.7429605845961169,9
2025-03-08 12:31:23.455,-7.356690231580317e-06,0.6612170022719728,9
2025-03-08 12:31:23.462,-3.911995768171596e-05,0.5772037944458744,9
2025-03-08 12:31:23.470,-7.111291086447336e-05,0.4928984402477588,9
2025-03-08 12:31:23.478,-0.0001034994332065,0.4104531809610867,9
2025-03-08 12:31:23.486,-0.0001364317844403,0.3321568064504937,9
2025-03-08 12:31:23.494,-0.000170041175435,0.2603946487679727,9
2025-03-08 12:31:23.501,-0.0002044291869749,0.1976067809287677,9
2025-03-08 12:31:23.509,-0.0002396606695099,0.1462444048762787,9
2025-03-08 12:31:23.517,-0.000275758650308,0.1087244568666192,9
2025-03-08 12:31:23.525,-0.0003127016188891,0.0873825440726879,9
2025-03-08 12:31:23.533,-0.0003504233770998,0.0844244397536414,9
2025-03-08 12:31:23.540,-0.0003888154354767,0.1018764911233685,9
2025-03-08 12:31:23.548,-0.0004277317221286,0.1415354166495156,9
2025-03-08 12:31:23.556,-0.0004669951639575,0.2049180752831403,9
2025-03-08 12:31:23.564,-0.0005064055433456,0.2932118817421543,9
2025-03-08 12:31:23.572,-0.0005457479769327,0.4072266396761964,9
2025-03-08 12:31:23.580,-0.0005848014228682,0.5473486970152073,9
2025-03-08 12:31:23.587,-0.000623346752418,0.7134985188199652,9
2025-03-08 12:31:23.595,-0.0006611740494852,0.905093029192762,9
2025-03-08 12:31:23.603,-0.0006980888922615,1.1210143753938224,9
2025-03-08 12:31:23.611,-0.0007339174354008,1.3595870645508976,9
2025-03-08 12:31:23.619,-0.0007685101705327,1.6185656445236476,9
2025-03-08 12:31:23.626,-0.0008017443084591,1.8951351702789612,9
2025-03-08 12:31:23.634,-0.0008335248007165,2.185926557632683,9
2025-03-08 12:31:23.642,-0.0008637841006733,2.487048550751421,9
2025-03-08 12:31:23.650,-0.0008924808459329,2.794137427147941,9
2025-03-08 12:31:23.658,-0.0009195977026345,3.10242477644034,9
2025-03-08 12:31:23.665,-0.0009451386272494,3.406822785619145,9
2025-03-08 12:31:23.673,-0.0009691257760996,3.7020255232677086,9
2025-03-08 12:31:23.681,-0.0009915962547721,3.982623808433697,9
2025-03-08 12:31:23.689,-0.0010125988753428,4.243230427457621,9
2025-03-08 12:31:23.697,-0.0010321910835521,4.478611759449862,9
2025-03-08 12:31:23.705,-0.0010504362135017,4.683821320089584,9
2025-03-08 12:31:23.712,-0.0010674012033822,4.854330370052203,9
2025-03-08 12:31:23.720,-0.0010831548567771,4.986150595586258,9
2025-03-08 12:31:23.728,-0.0010977666654739,5.075943980235203,9
2025-03-08 12:31:23.736,-0.0011113061273708,5.121115352742359,9
2025-03-08 12:31:23.744,-0.0011238424132135,5.119883699717076,9
2025-03-08 12:31:23.751,-0.0011354441876098,5.071329141420757,9
2025-03-08 12:31:23.759,-0.0011461793911881,4.975413445583015,9
2025-03-08 12:31:23.767,-0.001156114832077,4.832973050881988,9
2025-03-08 12:31:23.775,-0.0011653154950027,4.645684734008804,9
2025-03-08 12:31:23.783,-0.0011738435464427,4.416005221043311,9
2025-03-08 12:31:23.790,-0.001181757093362,4.147087152723383,9
2025-03-08 12:31:23.798,-0.0011891088299001,3.8426748062397382,9
2025-03-08 12:31:23.806,-0.0011959447583785,3.5069838060200365,9
2025-03-08 12:31:23.814,-0.0012023031780879,3.1445696902989777,9
2025-03-08 12:31:23.822,-0.0012082140985427,2.76019062113715,9
2025-03-08 12:31:23.830,-0.0012136991786821,2.35866972075787,9
2025-03-08 12:31:23.837,-0.0012187722393687,1.9447624713937683,9
2025-03-08 12:31:23.845,-0.0012234403352472,1.523034312444685,9
2025-03-08 12:31:23.853,-0.0012277052955716,1.0977530017735817,9
2025-03-08 12:31:23.861,-0.0012315655705778,0.6727994958753019,9
2025-03-08 12:31:23.869,-0.0012350181688902,0.2516000922473195,9
2025-03-08 12:31:23.876,-0.0012380604340153,-0.1629185690552491,9
2025-03-08 12:31:23.884,-0.0012406913771403,-0.5683512575965252,9
2025-03-08 12:31:23.892,-0.001242912286186,-0.9628134722592872,9
2025-03-08 12:31:23.900,-0.0012447264045328,-1.3449202615691769,9
2025-03-08 12:31:23.908,-0.0012461376158111,-1.7137474458146067,9
2025-03-08 12:31:23.915,-0.0012471482358487,-2.0687788986290325,9
2025-03-08 12:31:23.923,-0.0012477561425543,-2.4098440472451355,9
2025-03-08 12:31:23.931,-0.0012479515430761,-2.737049976405745,9
2025-03-08 12:31:23.939,-0.0012477136969442,-3.050712474402612,9
2025-03-08 12:31:23.947,-0.0012470079092176,-3.3512900661852667,9
2025-03-08 12:31:23.955,-0.001245783091808,-3.639324579192224,9
2025-03-08 12:31:23.962,-0.0012439701675683,-3.91539113217292,9
2025-03-08 12:31:23.970,-0.0012414815639685,-4.180059676493947,9
2025-03-08 12:31:23.978,-0.0012382120050876,-4.4338693994136325,9
2025-03-08 12:31:23.986,-0.0012340407417413,-4.677316457521685,9
2025-03-08 12:31:23.994,-0.0012288352437932,-4.91085467339844,9
2025-03-08 12:31:24.001,-0.0012224562246265,-5.134908017684307,9
2025-03-08 12:31:24.009,-0.0012147637148288,-5.3498929296155495,9
2025-03-08 12:31:24.017,-0.0012056238045531,-5.556247830646327,9
2025-03-08 12:31:24.025,-0.0011949156612697,-5.754466602997138,9
2025-03-08 12:31:24.033,-0.0011825384826347,-5.9451323903729625,9
2025-03-08 12:31:24.040,-0.0011684181188524,-6.128947877547819,9
2025-03-08 12:31:24.048,-0.0011525131635073,-6.306758247896922,9
2025-03-08 12:31:24.056,-0.0011348203564944,-6.479563311162166,9
2025-03-08 12:31:24.064,-0.0011153791682159,-6.648515823928464,9
2025-03-08 12:31:24.072,-0.0010942754423986,-6.814903758947969,9
2025-03-08 12:31:24.080,-0.0010716439601275,-6.980115171052136,9
2025-03-08 12:31:24.087,-0.0010476697340219,-7.145585311358724,9
2025-03-08 12:31:24.095,-0.0010225877442757,-7.312726719852316,9
2025-03-08 12:31:24.103,-0.0009966807285894,-7.482844145737959,9
2025-03-08 12:31:24.111,-0.0009702746128,-7.657037266592633,9
2025-03-08 12:31:24.119,-0.0009437312695485,-7.836095250538009,9
2025-03-08 12:31:24.126,-0.0009174385064009,-8.02038816745494,9
2025-03-08 12:31:24.134,-0.0008917974631208,-8.209761034778323,9
2025-03-08 12:31:24.142,-0.0008672078897769,-8.403436808126749,9
2025-03-08 12:31:24.150,-0.0008440520315947,-8.59993483077892,9
2025-03-08 12:31:24.158,-0.0008226780091368,-8.797011089406816,9
2025-03-08 12:31:24.165,-0.0008033836269909,-8.991626064740812,9
2025-03-08 12:31:24.173,-0.0007864014935365,-9.179945026630149,9
2025-03-08 12:31:24.181,-0.000771886237103,-9.357374344238982,9
2025-03-08 12:31:24.189,-0.0007599044948973,-9.518635823588482,9
2025-03-08 12:31:24.197,-0.0007504282359347,-9.657879317663166,9
2025-03-08 12:31:24.205,-0.0007433318402053,-9.768831961266317,9
2025-03-08 12:31:24.212,-0.0007383931746624,-9.844980456213053,9
2025-03-08 12:31:24.220,-0.0007352986877034,-9.879780969795014,9
2025-03-08 12:31:24.228,-0.0007336523171338,-9.866889509596689,9
2025-03-08 12:31:24.236,-0.0007329878020632,-9.800404200877402,9
2025-03-08 12:31:24.244,-0.0007327838231244,-9.67510981655169,9
2025-03-08 12:31:24.251,-0.0007324812749812,-9.486714276773265,9
2025-03-08 12:31:24.259,-0.0007315019047112,-9.232066698136704,9
2025-03-08 12:31:24.267,-0.0007292675324774,-8.909346948722636,9
2025-03-08 12:31:24.275,-0.0007252191072804,-8.518217538096422,9
2025-03-08 12:31:24.283,-0.0007188349314697,-8.059929995204577,9
2025-03-08 12:31:24.290,-0.0007096474902034,-7.537379592476931,9
2025-03-08 12:31:24.298,-0.0006972584216844,-6.955104276463667,9
2025-03-08 12:31:24.306,-0.0006813512517761,-6.319225873570087,9
2025-03-08 12:31:24.314,-0.0006617015944896,-5.637333965147457,9
2025-03-08 12:31:24.322,-0.0006381845891562,-4.918315183320406,9
2025-03-08 12:31:24.330,-0.000610779409662,-4.172132979563738,9
2025-03-08 12:31:24.337,-0.0005795707469177,-3.4095650687007986,9
2025-03-08 12:31:24.345,-0.0005447472357437,-2.6419076557902703,9
2025-03-08 12:31:24.353,-0.0005065968745216,-1.8806571213765853,9
2025-03-08 12:31:24.361,-0.0004654995664757,-1.137180991131708,9
2025-03-08 12:31:24.369,-0.0004219169766315,-0.422390680187695,9
2025-03-08 12:31:24.376,-0.0003763799381562,0.2535713764190624,9
2025-03-08 12:31:24.384,-0.000329473674043,0.881618060618893,9
2025-03-08 12:31:24.392,-0.0002818211428914,1.4539663004761243,9
2025-03-08 12:31:24.400,-0.0002340648618546,1.964338779230652,9
2025-03-08 12:31:24.408,-0.0001868475959544,2.408111398893509,9
2025-03-08 12:31:24.415,-0.0001407923484674,2.782401861022417,9
2025-03-08 12:31:24.423,-9.64821648927582e-05,3.086097541965424,9
2025-03-08 12:31:24.431,-5.4440369581635614e-05,3.319823676253835,9
2025-03-08 12:31:24.439,-1.511195628861471e-05,3.485855513254687,9
2025-03-08 12:31:24.447,2.115309519368996e-05,3.5879804012584877,9
2025-03-08 12:31:24.455,5.411383074670993e-05,3.631317554452776,9
2025-03-08 12:31:24.462,8.364899902209004e-05,3.622104505984571,9
2025-03-08 12:31:24.470,0.0001097638320296,3.567459933100748,9
2025-03-08 12:31:24.478,0.0001325924850225,3.47513269001984,9
2025-03-08 12:31:24.486,0.0001523958498515,3.353246564237902,9
2025-03-08 12:31:24.494,0.0001695546598988,3.210049565845659,9
2025-03-08 12:31:24.501,0.0001845580363355,3.0536755600171674,9
2025-03-08 12:31:24.509,0.0001979878689653,2.891924855423643,9
2025-03-08 12:31:24.517,0.000210499662114,2.732069059382133,9
2025-03-08 12:31:24.525,0.0002228006672508,2.5806841917204677,9
2025-03-08 12:31:24.533,0.0002356262274656,2.443514790330236,9
2025-03-08 12:31:24.540,0.0002497152726724,2.3253706007092747,9
2025-03-08 12:31:24.548,0.0002657858729452,2.2300564517062607,9
2025-03-08 12:31:24.556,0.0002845117339972,2.160335082430179,9
2025-03-08 12:31:24.564,0.0003065005243783,2.117921978257252,9
2025-03-08 12:31:24.572,0.0003322749331958,2.1035106608372764,9
2025-03-08 12:31:24.580,0.0003622573190948,2.116826319120985,9
2025-03-08 12:31:24.587,0.0003967586886795,2.1567051321402446,9
2025-03-08 12:31:24.595,0.0004359725332077,2.221196097965469,9
2025-03-08 12:31:24.603,0.0004799737792831,2.307681644216062,9
2025-03-08 12:31:24.611,0.0005287228070662,2.413012775069217,9
2025-03-08 12:31:24.619,0.000582074195254,2.533654052367011,9
2025-03-08 12:31:24.626,0.0006397895925646,2.665833371645966,9
2025-03-08 12:31:24.634,0.0007015539016098,2.8056913318587737,9
2025-03-08 12:31:24.642,0.0007669937958228,2.949425046579048,9
2025-03-08 12:31:24.650,0.0008356974816416,3.093421517179693,9
2025-03-08 12:31:24.658,0.0009072345860418,3.2343761767969865,9
2025-03-08 12:31:24.665,0.000981175111235,3.369392896509232,9
2025-03-08 12:31:24.673,0.0010571065457968,3.4960625919840096,9
2025-03-08 12:31:24.681,0.0011346484213624,3.612518539148331,9
2025-03-08 12:31:24.689,0.0012134638217933,3.7174675461648814,9
2025-03-08 12:31:24.697,0.0012932675659198,3.810197169521335,9
2025-03-08 12:31:24.705,0.0013738309830348,3.890560138556009,9
2025-03-08 12:31:24.712,0.0014549833724428,3.958938016582209,9
2025-03-08 12:31:24.720,0.0015366103761081,4.016186855266168,9
2025-03-08 12:31:24.728,0.001618649589904,4.063568190023186,9
2025-03-08 12:31:24.736,0.0017010837889691,4.10266918159306,9
2025-03-08 12:31:24.744,0.0017839321428626,4.13531602927364,9
2025-03-08 12:31:24.751,0.0018672397467342,4.163484951018514,9
2025-03-08 12:31:24.759,0.0019510657073354,4.189215025381714,9
2025-03-08 12:31:24.767,0.0020354699332749,4.21452700099298,9
2025-03-08 12:31:24.775,0.0021204987460606,4.241351787714721,9
2025-03-08 12:31:24.783,0.0022061695067742,4.271471748117325,9
2025-03-08 12:31:24.790,0.0022924546586513,4.306477122066823,9
2025-03-08 12:31:24.798,0.0023792658754403,4.347738971096377,9
2025-03-08 12:31:24.806,0.0024664392887877,4.396398968093963,9
2025-03-08 12:31:24.814,0.0025537229593286,4.453375240865595,9
2025-03-08 12:31:24.822,0.0026407678235092,4.5193823762293865,9
2025-03-08 12:31:24.830,0.002727123297783,4.594962681467526,9
2025-03-08 12:31:24.837,0.0028122385593138,4.680524956437851,9
2025-03-08 12:31:24.845,0.0028954702573039,4.776386415012696,9
2025-03-08 12:31:24.853,0.0029760970614428,4.882813054974697,9
2025-03-08 12:31:24.861,0.0030533410241033,5.000053741910792,9
2025-03-08 12:31:24.869,0.0031263952068095,5.12836356437836,9
2025-03-08 12:31:24.876,0.0031944564285606,5.268012643616007,9
2025-03-08 12:31:24.884,0.0032567614237232,5.419277535626511,9
2025-03-08 12:31:24.892,0.0033126242488307,5.582413620488426,9
2025-03-08 12:31:24.900,0.0033614725118777,5.757608383016949,9
2025-03-08 12:31:24.908,0.0034028799394506,5.944917171358696,9
2025-03-08 12:31:24.915,0.0034365929519424,6.1441847613531335,9
2025-03-08 12:31:24.923,0.0034625492729404,6.354957704577036,9
2025-03-08 12:31:24.931,0.0034808871145065,6.576393826993126,9
2025-03-08 12:31:24.939,0.0034919440867136,6.80717621174035,9
2025-03-08 12:31:24.947,0.0034962456061509,7.045439419086307,9
2025-03-08 12:31:24.955,0.0034944831753609,7.28871549749814,9
2025-03-08 12:31:24.962,0.0034874834485058,7.533906510081181,9
2025-03-08 12:31:24.970,0.0034761694745493,7.777288887379014,9
2025-03-08 12:31:24.978,0.0034615159061977,8.014553021993212,9
2025-03-08 12:31:24.986,0.0034445002643512,8.240879287484661,9
2025-03-08 12:31:24.994,0.0034260525362701,8.45104926678721,9
2025-03-08 12:31:25.001,0.0034070054655097,8.639588598858705,9
2025-03-08 12:31:25.009,0.0033880478955467,8.80093567768643,9
2025-03-08 12:31:25.017,0.0033696834692599,8.929628628221199,9
2025-03-08 12:31:25.025,0.0033521968188653,9.020501669531017,9
2025-03-08 12:31:25.033,0.0033356290587863,9.068881238921715,9
2025-03-08 12:31:25.041,0.003319763938242,9.070772118859423,9
2025-03-08 12:31:25.048,0.0033041254881824,9.023024256080085,9
2025-03-08 12:31:25.056,0.0032879874529701,8.923471923395686,9
2025-03-08 12:31:25.064,0.0032703942431309,8.771038256113393,9
2025-03-08 12:31:25.072,0.0032501926056044,8.565799889422811,9
2025-03-08 12:31:25.080,0.0032260727306106,8.309008322178368,9
2025-03-08 12:31:25.087,0.0031966171334729,8.003066635671223,9
2025-03-08 12:31:25.095,0.0031603553614065,7.651462213593321,9
2025-03-08 12:31:25.103,0.0031158223637705,7.258658061357129,9
2025-03-08 12:31:25.111,0.0030616182277638,6.829947135668487,9
2025-03-08 12:31:25.119,0.0029964669241422,6.371275699387635,9
2025-03-08 12:31:25.126,0.0029192717327551,5.889043048798127,9
2025-03-08 12:31:25.134,0.002829165131621,5.389885968216963,9
2025-03-08 12:31:25.142,0.0027255511392576,4.880456913557014,9
2025-03-08 12:31:25.150,0.0026081383968755,4.367205190487213,9
2025-03-08 12:31:25.158,0.002476962655556,3.8561702647356015,9
2025-03-08 12:31:25.166,0.002332397760073,3.352795819451223,9
2025-03-08 12:31:25.173,0.0021751546466979,2.861772259181762,9
2025-03-08 12:31:25.181,0.0020062682734246,2.38691406208132,9
2025-03-08 12:31:25.189,0.0018270727908076,1.931076732341205,9
2025-03-08 12:31:25.197,0.0016391656599413,1.4961161697872614,9
2025-03-08 12:31:25.205,0.0014443618302708,1.0828911609260348,9
2025-03-08 12:31:25.212,0.0012446394804375,0.6913075446103268,9
2025-03-08 12:31:25.220,0.0010420791723106,0.3204005626936645,9
2025-03-08 12:31:25.228,0.0008387985563372,-0.0315498972187838,9
2025-03-08 12:31:25.236,0.0006368849813255,-0.3668779189407858,9
2025-03-08 12:31:25.244,0.0004383284767077,-0.6883718247126538,9
2025-03-08 12:31:25.251,0.0002449575721722,-0.9991044480729304,9
2025-03-08 12:31:25.259,5.838031101377372e-05,-1.3022618405044109,9
2025-03-08 12:31:25.267,-0.0001200673785261,-1.6009784263104156,9
2025-03-08 12:31:25.275,-0.0002893640577591,-1.898185764213739,9
2025-03-08 12:31:25.283,-0.0004488343446066,-2.1964808526383504,9
2025-03-08 12:31:25.291,-0.0005981685342053,-2.498018434775397,9
2025-03-08 12:31:25.298,-0.0007374296089785,-2.8044301435262797,9
2025-03-08 12:31:25.306,-0.0008670474752941,-3.116771702713964,9
2025-03-08 12:31:25.314,-0.0009878007421753,-3.435497888196124,9
2025-03-08 12:31:25.322,-0.0011007867879363,-3.760463652317445,9
2025-03-08 12:31:25.330,-0.0012073812472913,-4.090948803938486,9
2025-03-08 12:31:25.337,-0.0013091883947173,-4.4257029556453125,9
2025-03-08 12:31:25.345,-0.001407984187345,-4.763007099767903,9
2025-03-08 12:31:25.353,-0.0015056539554155,-5.100748115380533,9
2025-03-08 12:31:25.361,-0.0016041268820952,-5.436502668300317,9
2025-03-08 12:31:25.369,-0.0017053094680815,-5.767627256991126,9
2025-03-08 12:31:25.376,-0.0018110201005332,-6.091351489525765,9
2025-03-08 12:31:25.384,-0.0019229266588089,-6.404871973600088,9
2025-03-08 12:31:25.392,-0.0020424888665639,-6.705444411120316,9
2025-03-08 12:31:25.400,-0.0021709069149121,-6.9904715921536855,9
2025-03-08 12:31:25.408,-0.0023090777395326,-7.257584994821691,9
2025-03-08 12:31:25.416,-0.0024575601781807,-7.504717657940489,9
2025-03-08 12:31:25.423,-0.002616550016405,-7.730165953988409,9
2025-03-08 12:31:25.431,-0.0027858656518768,-7.932637906420672,9
2025-03-08 12:31:25.439,-0.0029649448021533,-8.111285822758017,9
2025-03-08 12:31:25.447,-0.0031528523777138,-8.265721307085606,9
2025-03-08 12:31:25.455,-0.0033482993654997,-8.396011215548908,9
2025-03-08 12:31:25.462,-0.0035496723179986,-8.502653839207582,9
2025-03-08 12:31:25.470,-0.0037550727926779,-8.586535508262989,9
2025-03-08 12:31:25.478,-0.0039623658124661,-8.648868837715964,9
2025-03-08 12:31:25.486,-0.0041692361148599,-8.691114886325103,9
2025-03-08 12:31:25.494,-0.0043732506376182,-8.714892492476832,9
2025-03-08 12:31:25.501,-0.0045719253911603,-8.721878911920149,9
2025-03-08 12:31:25.509,-0.0047627946382766,-8.713706558875161,9
2025-03-08 12:31:25.517,-0.0049434801500644,-8.691861102078159,9
2025-03-08 12:31:25.525,-0.0051117582069744,-8.657586358632969,9
2025-03-08 12:31:25.533,-0.0052656219553047,-8.611801337598038,9
2025-03-08 12:31:25.541,-0.0054033367365042,-8.555034400339178,9
2025-03-08 12:31:25.548,-0.0055234861041499,-8.487378831324417,9
2025-03-08 12:31:25.556,-0.0056250064316184,-8.408473177387014,9
2025-03-08 12:31:25.564,-0.0057072082837799,-8.317508559453717,9
2025-03-08 12:31:25.572,-0.0057697830905714,-8.213263842565818,9
2025-03-08 12:31:25.580,-0.0058127941524173,-8.094168127289953,9
2025-03-08 12:31:25.587,-0.0058366516556114,-7.958388564334919,9
2025-03-08 12:31:25.595,-0.0058420721805903,-7.803940070214485,9
2025-03-08 12:31:25.603,-0.0058300241114945,-7.628812219487716,9
2025-03-08 12:31:25.611,-0.0058016613343841,-7.431107492593757,9
2025-03-08 12:31:25.619,-0.0057582485604904,-7.20918424083994,9
2025-03-08 12:31:25.626,-0.0057010824261966,-6.961797248362286,9
2025-03-08 12:31:25.634,-0.005631413059622,-6.688228663303104,9
2025-03-08 12:31:25.642,-0.0055503709143652,-6.38840235441148,9
2025-03-08 12:31:25.650,-0.0054589032966989,-6.062975416479656,9
2025-03-08 12:31:25.658,-0.0053577242478949,-5.713401563176217,9
2025-03-08 12:31:25.666,-0.0052472804729244,-5.341962450741193,9
2025-03-08 12:31:25.673,-0.0051277349957853,-4.951764496663932,9
2025-03-08 12:31:25.681,-0.0049989692695449,-4.546700410875794,9
2025-03-08 12:31:25.689,-0.0048606036273494,-4.131376355495118,9
2025-03-08 12:31:25.697,-0.0047120352525218,-3.71100730200286,9
2025-03-08 12:31:25.705,-0.0045524922632995,-3.291284670334432,9
2025-03-08 12:31:25.712,-0.0043811020055104,-2.8782216266355727,9
2025-03-08 12:31:25.720,-0.0041969711559606,-2.477982412420386,9
2025-03-08 12:31:25.728,-0.0039992747026839,-2.09670272220825,9
2025-03-08 12:31:25.736,-0.0037873502768787,-1.740308404207517,9
2025-03-08 12:31:25.744,-0.0035607937164988,-1.4143396205999563,9
2025-03-08 12:31:25.751,-0.0033195512213466,-1.1237870963915142,9
2025-03-08 12:31:25.759,-0.0030640030810239,-0.872946270491258,9
2025-03-08 12:31:25.767,-0.0027950337731219,-0.6652941282788758,9
2025-03-08 12:31:25.775,-0.0025140833024571,-0.5033923401803286,9
2025-03-08 12:31:25.783,-0.0022231750693528,-0.3888191457670701,9
2025-03-08 12:31:25.791,-0.0019249164122235,-0.322131274277439,9
2025-03-08 12:31:25.798,-0.0016224693378019,-0.3028561188621523,9
2025-03-08 12:31:25.806,-0.0013194908304285,-0.3295134004052756,9
2025-03-08 12:31:25.814,-0.0010200443990715,-0.3996646751091537,9
2025-03-08 12:31:25.822,-0.0007284868956446,-0.5099882653920362,9
2025-03-08 12:31:25.830,-0.0004493366978015,-0.6563765327275333,9
2025-03-08 12:31:25.837,-0.0001871306761238,-0.83405186359895,9
2025-03-08 12:31:25.845,5.372224414539908e-05,-1.0376972977107235,9
2025-03-08 12:31:25.853,0.0002690835674399,-1.261597385443521,9
2025-03-08 12:31:25.861,0.0004552174042822,-1.4997846275120583,9
2025-03-08 12:31:25.869,0.0006089072535963,-1.746186745847993,9
2025-03-08 12:31:25.876,0.0007275536472246,-1.994770085523807,9
2025-03-08 12:31:25.884,0.0008092502271665,-2.239674669254214,9
2025-03-08 12:31:25.892,0.0008528370270795,-2.475336823115189,9
2025-03-08 12:31:25.900,0.0008579307477024,-2.696595859875478,9
2025-03-08 12:31:25.908,0.0008249326355192,-2.8987820329012277,9
2025-03-08 12:31:25.916,0.0007550152201826,-3.077783839220311,9
2025-03-08 12:31:25.923,0.0006500896584993,-3.230093725731785,9
2025-03-08 12:31:25.931,0.000512755785035,-3.3528322978498903,9
2025-03-08 12:31:25.939,0.0003462372143369,-3.4437521931707926,9
2025-03-08 12:31:25.947,0.0001543040219099,-3.50122379839265,9
2025-03-08 12:31:25.955,-5.881432185749893e-05,-3.524205877339538,9
2025-03-08 12:31:25.962,-0.0002885229905923,-3.512204857038279,9
2025-03-08 12:31:25.970,-0.0005299600365924,-3.4652269093275123,9
2025-03-08 12:31:25.978,-0.0007780961798728,-3.38372701208838,9
2025-03-08 12:31:25.986,-0.0010278337588626,-3.26855885865034,9
2025-03-08 12:31:25.994,-0.0012741027283755,-3.120928831459848,9
2025-03-08 12:31:26.001,-0.0015119518327519,-2.94235633134395,9
2025-03-08 12:31:26.009,-0.0017366332862839,-2.7346416492507037,9
2025-03-08 12:31:26.017,-0.0019436794950922,-2.4998413897910425,9
2025-03-08 12:31:26.025,-0.0021289705844452,-2.2402503146895576,9
2025-03-08 12:31:26.033,-0.0022887917658932,-1.95838747636124,9
2025-03-08 12:31:26.041,-0.0024198798957127,-1.6569837584268927,9
2025-03-08 12:31:26.048,-0.0025194589455153,-1.3389675173225328,9
2025-03-08 12:31:26.056,-0.0025852645249903,-1.0074449824406628,9
2025-03-08 12:31:26.064,-0.0026155580417692,-0.6656724307727786,9
2025-03-08 12:31:26.072,-0.0026091315077458,-0.3170178661129747,9
2025-03-08 12:31:26.080,-0.0025653043513753,0.0350890761078684,9
2025-03-08 12:31:26.087,-0.0024839138207075,0.3872191119952721,9
2025-03-08 12:31:26.095,-0.0023653006089096,0.7360160684578596,9
2025-03-08 12:31:26.103,-0.0022102911551263,1.078278135647278,9
2025-03-08 12:31:26.111,-0.0020201776638072,1.4110443179703729,9
2025-03-08 12:31:26.119,-0.0017966963169524,1.7316820217615767,9
2025-03-08 12:31:26.126,-0.0015420035570056,2.0379712532153573,9
2025-03-08 12:31:26.134,-0.0012586498162357,2.3281807660607385,9
2025-03-08 12:31:26.142,-0.0009495497225001,2.60113168968378,9
2025-03-08 12:31:26.150,-0.0006179476310898,2.856244649839056,9
2025-03-08 12:31:26.158,-0.0002673773295083,3.0935671084522536,9
2025-03-08 12:31:26.166,9.8385026391421e-05,3.3137785301523155,9
2025-03-08 12:31:26.173,0.0004753752355443,3.518171969921759,9
2025-03-08 12:31:26.181,0.0008595024684379,3.708611718022449,9
2025-03-08 12:31:26.189,0.0012466168490198,3.887467689802365,9
2025-03-08 12:31:26.197,0.0016325815411924,4.057528262083905,9
2025-03-08 12:31:26.205,0.002013347108477,4.221894187615046,9
2025-03-08 12:31:26.212,0.0023850255709547,4.38385702721524,9
2025-03-08 12:31:26.220,0.0027439614453956,4.546766205943065,9
2025-03-08 12:31:26.228,0.0030867970750264,4.713889321226136,9
2025-03-08 12:31:26.236,0.0034105297315178,4.888270709246349,9
2025-03-08 12:31:26.244,0.0037125583333702,5.072593504553673,9
2025-03-08 12:31:26.251,0.0039907181633973,5.269050485663274,9
2025-03-08 12:31:26.259,0.0042433026136668,5.479228856010316,9
2025-03-08 12:31:26.267,0.0044690716523996,5.7040137398751245,9
2025-03-08 12:31:26.275,0.0046672473305926,5.943514570313019,9
2025-03-08 12:31:26.283,0.0048374971946773,6.1970177297046405,9
2025-03-08 12:31:26.291,0.0049799069342237,6.462967815202371,9
2025-03-08 12:31:26.298,0.005094943953764,6.73897879686098,9
2025-03-08 12:31:26.306,0.0051834137879937,7.021875175061732,9
2025-03-08 12:31:26.314,0.0052464113783824,7.307762083878345,9
2025-03-08 12:31:26.322,0.0052852692285412,7.592122185409321,9
2025-03-08 12:31:26.330,0.0053015043753363,7.869936213006316,9
2025-03-08 12:31:26.337,0.0052967659479693,8.135823195597263,9
2025-03-08 12:31:26.345,0.0052727848509573,8.384195755243596,9
2025-03-08 12:31:26.353,0.0052313268453294,8.609425413116925,9
2025-03-08 12:31:26.361,0.0051741500588928,8.806012546955396,9
2025-03-08 12:31:26.369,0.0051029677392625,8.96875549841208,9
2025-03-08 12:31:26.376,0.0050194168548333,9.092913324054258,9
2025-03-08 12:31:26.384,0.0049250329404344,9.174356821372868,9
2025-03-08 12:31:26.392,0.0048212313884201,9.209702749837012,9
2025-03-08 12:31:26.400,0.0047092952109861,9.19642661918902,9
2025-03-08 12:31:26.408,0.0045903691306783,9.132950044593178,9
2025-03-08 12:31:26.416,0.0044654596671446,9.018699474205237,9
2025-03-08 12:31:26.423,0.0043354406737614,8.854134064907427,9
2025-03-08 12:31:26.431,0.004201063574775,8.640741581410717,9
2025-03-08 12:31:26.439,0.0040629714140592,8.381002372744986,9
2025-03-08 12:31:26.447,0.0039217157621503,8.078322680980309,9
2025-03-08 12:31:26.455,0.0037777755033332,7.736939698726231,9
2025-03-08 12:31:26.462,0.0036315765035867,7.361801852406319,9
2025-03-08 12:31:26.470,0.003483511141437,6.958428689340011,9
2025-03-08 12:31:26.478,0.0033339566963656,6.5327554395209,9
2025-03-08 12:31:26.486,0.0031832916711311,6.0909677733620775,9
2025-03-08 12:31:26.494,0.0030319092924483,5.639332470156209,9
2025-03-08 12:31:26.501,0.0028802276671149,5.1840296563880175,9
2025-03-08 12:31:26.509,0.002728696320768,4.73099199327909,9
2025-03-08 12:31:26.517,0.0025777990774706,4.2857557214481785,9
2025-03-08 12:31:26.525,0.0024280534386569,3.8533278414243584,9
2025-03-08 12:31:26.533,0.0022800067869524,3.438072958910819,9
2025-03-08 12:31:26.541,0.0021342298721694,3.043622496669972,9
2025-03-08 12:31:26.548,0.0019913081338821,2.6728081208724115,9
2025-03-08 12:31:26.556,0.0018518314704189,2.3276203984491555,9
2025-03-08 12:31:26.564,0.0017163830668452,2.0091929302413694,9
2025-03-08 12:31:26.572,0.001585527857478,1.7178115075381957,9
2025-03-08 12:31:26.580,0.0014598011613318,1.4529472124640128,9
2025-03-08 12:31:26.587,0.0013396980173796,1.213311813426897,9
2025-03-08 12:31:26.595,0.00122566374876,0.9969332864547538,9
2025-03-08 12:31:26.603,0.0011180862780458,0.8012488189289704,9
2025-03-08 12:31:26.611,0.001017290688968,0.6232122249086188,9
2025-03-08 12:31:26.619,0.0009235364715004,0.4594123239646393,9
2025-03-08 12:31:26.626,0.0008370177724655,0.3061985159793405,9
2025-03-08 12:31:26.634,0.0007578667815873,0.1598095399588976,9
2025-03-08 12:31:26.642,0.0006861601091847,0.0165012637494882,9
2025-03-08 12:31:26.650,0.0006219276732945,-0.1273306521505527,9
2025-03-08 12:31:26.658,0.0005651632546311,-0.2750372089238696,9
2025-03-08 12:31:26.666,0.0005158355664997,-0.4296152833348492,9
2025-03-08 12:31:26.673,0.0004738984992827,-0.5936227052231456,9
2025-03-08 12:31:26.681,0.0004392991954202,-0.7691115950987306,9
2025-03-08 12:31:26.689,0.0004119828134537,-0.9575815112451882,9
2025-03-08 12:31:26.697,0.0003918932166647,-1.1599530122620354,9
2025-03-08 12:31:26.705,0.0003789692990479,-1.3765612558875162,9
2025-03-08 12:31:26.712,0.0003731371531006,-1.6071682923231192,9
2025-03-08 12:31:26.720,0.0003742987073687,-1.8509918393386504,9
2025-03-08 12:31:26.728,0.0003823177610844,-2.106747614005728,9
2025-03-08 12:31:26.736,0.0003970045259759,-2.3727017977599454,9
2025-03-08 12:31:26.744,0.0004180998938695,-2.646729967744617,9
2025-03-08 12:31:26.751,0.0004452606872786,-2.926378862408584,9
2025-03-08 12:31:26.759,0.0004780470894488,-3.2089276700420246,9
2025-03-08 12:31:26.767,0.0005159132935946,-3.491446117770283,9
2025-03-08 12:31:26.775,0.0005582021991427,-3.7708474456872585,9
2025-03-08 12:31:26.783,0.0006041447502256,-4.043935295033078,9
2025-03-08 12:31:26.791,0.0006528642758537,-4.307444521038827,9
2025-03-08 12:31:26.798,0.0007033859600047,-4.558076860671955,9
2025-03-08 12:31:26.806,0.0007546513383462,-4.792533155683221,9
2025-03-08 12:31:26.814,0.0008055374707022,-5.0075443811694775,9
2025-03-08 12:31:26.822,0.0008548801636464,-5.19990400759516,9
2025-03-08 12:31:26.830,0.000901500336102,-5.3665042029292405,9
2025-03-08 12:31:26.837,0.0009442323983092,-5.504378063703467,9
2025-03-08 12:31:26.845,0.0009819534207629,-5.610749478701644,9
2025-03-08 12:31:26.853,0.001013611910806,-5.683091424121853,9
2025-03-08 12:31:26.861,0.0010382551262863,-5.7191925231652885,9
2025-03-08 12:31:26.869,0.0010550539644936,-5.717230645951312,9
2025-03-08 12:31:26.876,0.0010633245425604,-5.675851259545754,9
2025-03-08 12:31:26.884,0.0010625456593467,-5.594247252300066,9
2025-03-08 12:31:26.892,0.0010523714511298,-5.472236139672126,9
2025-03-08 12:31:26.900,0.0010326387548268,-5.310329989462398,9
2025-03-08 12:31:26.908,0.0010033689559094,-5.109793147999173,9
2025-03-08 12:31:26.916,0.0009647643819823,-4.87268294932718,9
2025-03-08 12:31:26.923,0.000917199578085,-4.601869062608679,9
2025-03-08 12:31:26.931,0.0008612080569534,-4.3010279612837135,9
2025-03-08 12:31:26.939,0.0007974653479776,-3.9746101289520617,9
2025-03-08 12:31:26.947,0.0007267693429952,-3.627778967043324,9
2025-03-08 12:31:26.955,0.0006500190061989,-3.266321830177193,9
2025-03-08 12:31:26.962,0.0005681924429982,-2.8965350701198447,9
2025-03-08 12:31:26.970,0.0004823251222352,-2.525086310093751,9
2025-03-08 12:31:26.978,0.0003934887806359,-2.15885831174037,9
2025-03-08 12:31:26.986,0.0003027712817049,-1.8047796807683645,9
2025-03-08 12:31:26.994,0.0002112575047288,-1.469648256898516,9
2025-03-08 12:31:27.001,0.0001200112280976,-1.1599533441573786,9
2025-03-08 12:31:27.009,3.005795395424117e-05,-0.8817029675053045,9
2025-03-08 12:31:27.017,-5.763130872728959e-05,-0.640262106943402,9
2025-03-08 12:31:27.025,-0.000142155160733,-0.4402073812520051,9
2025-03-08 12:31:27.033,-0.0002226955578237,-0.2852029577829817,9
2025-03-08 12:31:27.041,-0.0002985298186275,-0.1779015900418386,9
2025-03-08 12:31:27.048,-0.0003690404841473,-0.119873680723106,9
2025-03-08 12:31:27.056,-0.0004337226354592,-0.1115661932072733,9
2025-03-08 12:31:27.064,-0.0004921883713297,-0.1522921522204783,9
2025-03-08 12:31:27.072,-0.0005441683099675,-0.2402504450748547,9
2025-03-08 12:31:27.080,-0.0005895101692578,-0.3725747092012954,9
2025-03-08 12:31:27.087,-0.0006281746606424,-0.545409301937672,9
2025-03-08 12:31:27.095,-0.0006602290817618,-0.75400970538227,9
2025-03-08 12:31:27.103,-0.000685839088669,-0.9928642164128584,9
2025-03-08 12:31:27.111,-0.0007052591567762,-1.2558333968197768,9
2025-03-08 12:31:27.119,-0.0007188222275214,-1.5363034969275873,9
2025-03-08 12:31:27.126,-0.0007269290262152,-1.827349900358628,9
2025-03-08 12:31:27.134,-0.0007300375290335,-2.1219065429071176,9
2025-03-08 12:31:27.142,-0.0007286530223388,-2.412937207401674,9
2025-03-08 12:31:27.150,-0.0007233191095609,-2.6936045694364985,9
2025-03-08 12:31:27.158,-0.0007146098766176,-2.9574328639412304,9
2025-03-08 12:31:27.166,-0.0007031232443862,-3.198460079443147,9
2025-03-08 12:31:27.173,-0.0006894753579347,-3.411375703511895,9
2025-03-08 12:31:27.181,-0.0006742957414082,-3.5916402833951584,9
2025-03-08 12:31:27.189,-0.0006582229135295,-3.735583463345805,9
2025-03-08 12:31:27.197,-0.0006419001912265,-3.840477722299149,9
2025-03-08 12:31:27.205,-0.0006259714618333,-3.904585741579709,9
2025-03-08 12:31:27.212,-0.00061107674501,-3.927180143300984,9
2025-03-08 12:31:27.220,-0.0005978473907517,-3.908535215285277,9
2025-03-08 12:31:27.228,-0.0005869007893674,-3.8498911453171223,9
2025-03-08 12:31:27.236,-0.0005788345238802,-3.753392200946071,9
2025-03-08 12:31:27.244,-0.0005742199715546,-3.622001182009045,9
2025-03-08 12:31:27.251,-0.0005735954316947,-3.4593932978912902,9
2025-03-08 12:31:27.259,-0.0005774588937703,-3.269833319259846,9
2025-03-08 12:31:27.267,-0.000586260551039,-3.058040358558663,9
2025-03-08 12:31:27.275,-0.0006003951171009,-2.829044896276142,9
2025-03-08 12:31:27.283,-0.0006201939470489,-2.5880426773709413,9
2025-03-08 12:31:27.291,-0.0006459169447856,-2.340249877761421,9
2025-03-08 12:31:27.298,-0.0006777442745295,-2.090763531944858,9
2025-03-08 12:31:27.306,-0.0007157679700809,-1.8444306745995984,9
2025-03-08 12:31:27.314,-0.0007599836292363,-1.6057290343255388,9
2025-03-08 12:31:27.322,-0.0008102824970413,-1.3786614759269409,9
2025-03-08 12:31:27.330,-0.0008664443835045,-1.1666657664320998,9
2025-03-08 12:31:27.337,-0.0009281320032482,-0.9725406848930764,9
2025-03-08 12:31:27.345,-0.0009948874323425,-0.7983890461474407,9
2025-03-08 12:31:27.353,-0.0010661314314231,-0.6455778886886361,9
2025-03-08 12:31:27.361,-0.0011411663663107,-0.5147158870008711,9
2025-03-08 12:31:27.369,-0.0012191833494418,-0.405647962764242,9
2025-03-08 12:31:27.377,-0.0012992740355837,-0.3174670422870267,9
2025-03-08 12:31:27.384,-0.0013804472711045,-0.2485428886564259,9
2025-03-08 12:31:27.392,-0.0014616505442246,-0.1965678780093495,9
2025-03-08 12:31:27.400,-0.0015417959081244,-0.1586194473269495,9
2025-03-08 12:31:27.408,-0.0016197897436282,-0.1312386845248604,9
2025-03-08 12:31:27.416,-0.0016945654174255,-0.1105241480486975,9
2025-03-08 12:31:27.423,-0.0017651176091351,-0.0922395045436402,9
2025-03-08 12:31:27.431,-0.0018305368470396,-0.0719329915848027,9
2025-03-08 12:31:27.439,-0.0018900426304974,-0.045066092489744,9
2025-03-08 12:31:27.447,-0.0019430134612894,-0.0071482030788719,9
2025-03-08 12:31:27.455,-0.0019890121852695,0.0461264696233281,9
2025-03-08 12:31:27.462,-0.0020278052621042,0.1187439544318053,9
2025-03-08 12:31:27.470,-0.0020593749023419,0.2142419299909509,9
2025-03-08 12:31:27.478,-0.0020839233796934,0.33559195230234,9
2025-03-08 12:31:27.486,-0.0021018691917019,0.4850967207081721,9
2025-03-08 12:31:27.494,-0.0021138350899228,0.6643061312728284,9
2025-03-08 12:31:27.502,-0.0021206283410512,0.8739551544342435,9
2025-03-08 12:31:27.509,-0.0021232139083935,1.113925669934482,9
2025-03-08 12:31:27.517,-0.0021226815262867,1.3832333643110544,9
2025-03-08 12:31:27.525,-0.0021202078438196,1.6800397291961815,9
2025-03-08 12:31:27.533,-0.0021170149398753,2.0016881815675043,9
2025-03-08 12:31:27.541,-0.0021143266044439,2.344762438825498,9
2025-03-08 12:31:27.548,-0.002113323879819,2.705164576633876,9
2025-03-08 12:31:27.556,-0.0021151014393411,3.078209697974178,9
2025-03-08 12:31:27.564,-0.0021206264014722,3.458733839505479,9
2025-03-08 12:31:27.572,-0.0021307011235749,3.841211608337269,9
2025-03-08 12:31:27.580,-0.0021459314183736,4.2198800466140485,9
2025-03-08 12:31:27.587,-0.0021667014864022,4.588865339185739,9
2025-03-08 12:31:27.595,-0.0021931566256718,4.94230920028107,9
2025-03-08 12:31:27.603,-0.0022251944493798,5.274492092721219,9
2025-03-08 12:31:27.611,-0.0022624649445106,5.579950831001948,9
2025-03-08 12:31:27.619,-0.0023043793006858,5.853588558640687,9
2025-03-08 12:31:27.627,-0.0023501270932192,6.09077551460417,9
2025-03-08 12:31:27.634,-0.0023987011475649,6.287439359168808,9
2025-03-08 12:31:27.642,-0.0024489292246599,6.440144081980308,9
2025-03-08 12:31:27.650,-0.0024995115038701,6.546156657089622,9
2025-03-08 12:31:27.658,-0.0025490626714108,6.603500658704451,9
2025-03-08 12:31:27.666,-0.0025961572407343,6.610996044616852,9
2025-03-08 12:31:27.673,-0.0026393765527146,6.568284302249011,9
2025-03-08 12:31:27.681,-0.0026773557673038,6.475838187041883,9
2025-03-08 12:31:27.689,-0.0027088291179035,6.334955405567074,9
2025-03-08 12:31:27.697,-0.0027326717854134,6.147735830570246,9
2025-03-08 12:31:27.705,-0.0027479369509959,5.917042189677971,9
2025-03-08 12:31:27.712,-0.002753886881322,5.646444632671676,9
2025-03-08 12:31:27.720,-0.0027500172651376,5.340150119936425,9
2025-03-08 12:31:27.728,-0.0027360744091757,5.002918130336003,9
2025-03-08 12:31:27.736,-0.0027120652427386,4.6399646922810565,9
2025-03-08 12:31:27.744,-0.0026782603272121,4.2568571352923,9
2025-03-08 12:31:27.752,-0.0026351902258223,3.8594022011530247,9
2025-03-08 12:31:27.759,-0.0025836356799284,3.453530233413076,9
2025-03-08 12:31:27.767,-0.0025246120589925,3.0451780976676304,9
2025-03-08 12:31:27.775,-0.0024593485039059,2.6401733062643378,9
2025-03-08 12:31:27.783,-0.0023892621071784,2.244121571744292,9
2025-03-08 12:31:27.791,-0.0023159274279133,1.8622997372106755,9
2025-03-08 12:31:27.798,-0.0022410416587475,1.49955577034734,9
2025-03-08 12:31:27.806,-0.0021663858342187,1.1602172949780905,9
2025-03-08 12:31:27.814,-0.0020937825572297,0.8480099900024282,9
2025-03-08 12:31:27.822,-0.0020250508016864,0.5659871112591047,9
2025-03-08 12:31:27.830,-0.0019619584385579,0.3164713683577663,9
2025-03-08 12:31:27.837,-0.0019061732409769,0.1010103817695604,9
2025-03-08 12:31:27.845,-0.0018592132262338,-0.0796530832104963,9
2025-03-08 12:31:27.853,-0.0018223972502048,-0.2255949916960236,9
2025-03-08 12:31:27.861,-0.001796796780078,-0.337707066700791,9
2025-03-08 12:31:27.869,-0.0017831897752837,-0.4176762543876592,9
2025-03-08 12:31:27.877,-0.0017820176519921,-0.4679462453028511,9
2025-03-08 12:31:27.884,-0.0017933464069879,-0.4916610885649958,9
2025-03-08 12:31:27.892,-0.0018168330982256,-0.4925914232387231,9
2025-03-08 12:31:27.900,-0.0018516989632065,-0.4750443791950288,9
2025-03-08 12:31:27.908,-0.0018967104653908,-0.4437587391101324,9
2025-03-08 12:31:27.916,-0.0019501695039073,-0.4037874775934049,9
2025-03-08 12:31:27.923,-0.0020099139384709,-0.360370279306193,9
2025-03-08 12:31:27.931,-0.0020733294934938,-0.3187990637826117,9
2025-03-08 12:31:27.939,-0.0021373740161554,-0.2842798911525367,9
2025-03-08 12:31:27.947,-0.0021986149671358,-0.2617948718600171,9
2025-03-08 12:31:27.955,-0.0022532809125901,-0.2559678351561609,9
2025-03-08 12:31:27.962,-0.002297327645382,-0.270937504616011,9
2025-03-08 12:31:27.970,-0.0023265193470864,-0.310241767739651,9
2025-03-08 12:31:27.978,-0.0023365248259202,-0.3767163103902672,9
2025-03-08 12:31:27.986,-0.0023230282419849,-0.4724104398985613,9
2025-03-08 12:31:27.994,-0.0022818528327929,-0.598522388316572,9
2025-03-08 12:31:28.002,-0.0022090950446484,-0.7553558171641709,9
2025-03-08 12:31:28.009,-0.0021012652927935,-0.942298668446685,9
2025-03-08 12:31:28.017,-0.0019554304668854,-1.1578249345646097,9
2025-03-08 12:31:28.025,-0.001769352393219,-1.39951935366583,9
2025-03-08 12:31:28.033,-0.0015416158401909,-1.6641244844549956,9
2025-03-08 12:31:28.041,-0.00127173936334,-1.9476090941390032,9
2025-03-08 12:31:28.048,-0.0009602623847037,-2.24525632707565,9
2025-03-08 12:31:28.056,-0.0006088024094393,-2.551769720901941,9
2025-03-08 12:31:28.064,-0.0002200771520087,-2.861394792555127,9
2025-03-08 12:31:28.072,0.0002021124974399,-3.168053603137419,9
2025-03-08 12:31:28.080,0.0006529413095698,-3.4654894001017182,9
2025-03-08 12:31:28.087,0.0011266612779064,-3.7474181146350936,9
2025-03-08 12:31:28.095,0.0016167447945067,-4.007683173389301,9
2025-03-08 12:31:28.103,0.0021160659867263,-4.2404098013196725,9
2025-03-08 12:31:28.111,0.0026171141656711,-4.440154789574663,9
2025-03-08 12:31:28.119,0.0031122306482528,-4.602047615175349,9
2025-03-08 12:31:28.127,0.0035938578018957,-4.721918848230659,9
2025-03-08 12:31:28.134,0.0040547875364343,-4.796411976071608,9
2025-03-08 12:31:28.142,0.0044883960476289,-4.823075116567864,9
2025-03-08 12:31:28.150,0.0048888524985495,-4.80042958776963,9
2025-03-08 12:31:28.158,0.0052512912792491,-4.728012941727539,9
2025-03-08 12:31:28.166,0.0055719401209957,-4.606394836414487,9
2025-03-08 12:31:28.173,0.0058481992804366,-4.437164981083489,9
2025-03-08 12:31:28.181,0.0060786699680633,-4.2228933155896815,9
2025-03-08 12:31:28.189,0.0062631329865911,-3.967063540576944,9
2025-03-08 12:31:28.197,0.0064024810390344,-3.673982063813177,9
2025-03-08 12:31:28.205,0.0064986102606623,-3.3486653212823785,9
2025-03-08 12:31:28.212,0.0065542781476587,-2.9967092209701183,9
2025-03-08 12:31:28.220,0.0065729361626164,-2.6241450983057995,9
2025-03-08 12:31:28.228,0.0065585458957666,-2.237287027593327,9
2025-03-08 12:31:28.236,0.00651538777925,-1.8425755750455977,9
2025-03-08 12:31:28.244,0.0064478710411079,-1.4464230914830534,9
2025-03-08 12:31:28.252,0.0063603529275569,-1.0550654290770018,9
2025-03-08 12:31:28.259,0.0062569743149985,-0.6744245454880421,9
2025-03-08 12:31:28.267,0.0061415177448385,-0.3099858593911622,9
2025-03-08 12:31:28.275,0.0060172926467253,0.0333065224916416,9
2025-03-08 12:31:28.283,0.0058870510454957,0.3511344372246685,9
2025-03-08 12:31:28.291,0.0057529354106475,0.6398687991639622,9
2025-03-08 12:31:28.298,0.0056164586322534,0.8966108007847553,9
2025-03-08 12:31:28.306,0.0054785145520058,1.1192116265624017,9
2025-03-08 12:31:28.314,0.0053394161594669,1.3062719149337831,9
2025-03-08 12:31:28.322,0.0051989575443527,1.4571228635743092,9
2025-03-08 12:31:28.330,0.0050564950042333,1.5717913776105938,9
2025-03-08 12:31:28.337,0.0049110423375032,1.6509519943334423,9
2025-03-08 12:31:28.345,0.0047613752436103,1.6958684793009746,9
2025-03-08 12:31:28.353,0.0046061398045421,1.708327986874192,9
2025-03-08 12:31:28.361,0.0044439601612489,1.69057053077145,9
2025-03-08 12:31:28.369,0.0042735407418194,1.6452162372204648,9
2025-03-08 12:31:28.377,0.0040937588106667,1.5751924739914345,9
2025-03-08 12:31:28.384,0.0039037437135853,1.4836624858740146,9
2025-03-08 12:31:28.392,0.0037029399469509,1.373956657201513,9
2025-03-08 12:31:28.400,0.003491152022645,1.249507018577223,9
2025-03-08 12:31:28.408,0.0032685700054287,1.1137851804812398,9
2025-03-08 12:31:28.416,0.0030357755409661,0.9702435641889856,9
2025-03-08 12:31:28.423,0.0027937291072641,0.8222596394062406,9
2025-03-08 12:31:28.431,0.0025437400268246,0.6730828699387399,9
2025-03-08 12:31:28.439,0.0022874214260847,0.5257841951014091,9
2025-03-08 12:31:28.447,0.0020266328278161,0.3832081044756535,9
2025-03-08 12:31:28.455,0.001763413420022,0.2479276573572333,9
2025-03-08 12:31:28.462,0.0014999092474253,0.1222031107860457,9
2025-03-08 12:31:28.470,0.0012382976029921,0.0079451059701716,9
2025-03-08 12:31:28.478,0.0009807117640764,-0.0933164197804691,9
2025-03-08 12:31:28.486,0.0007291689518183,-0.1804563142304386,9
2025-03-08 12:31:28.494,0.0004855040294385,-0.2527700118778687,9
2025-03-08 12:31:28.502,0.0002513110185365,-0.3099799168636536,9
2025-03-08 12:31:28.509,2.7894025663703876e-05,-0.3522314745504435,9
2025-03-08 12:31:28.517,-0.0001837713205544,-0.3800783837038161,9
2025-03-08 12:31:28.525,-0.0003830652626292,-0.3944568266685568,9
2025-03-08 12:31:28.533,-0.0005697398315604,-0.396649078702737,9
2025-03-08 12:31:28.541,-0.0007439232354766,-0.3882373681751068,9
2025-03-08 12:31:28.548,-0.0009061128254193,-0.3710493580684448,9
2025-03-08 12:31:28.556,-0.0010571568288185,-0.3470970650170121,9
2025-03-08 12:31:28.564,-0.0011982250983016,-0.3185113860314463,9
2025-03-08 12:31:28.572,-0.0013307692213835,-0.2874746343155286,9
2025-03-08 12:31:28.580,-0.0014564725317308,-0.2561535776349257,9
2025-03-08 12:31:28.587,-0.0015771908611566,-0.2266354243052227,9
2025-03-08 12:31:28.595,-0.0016948852300709,-0.2008690189630097,9
2025-03-08 12:31:28.603,-0.0018115480454336,-0.1806131961396865,9
2025-03-08 12:31:28.611,-0.0019291247516568,-0.1673937962869545,9
2025-03-08 12:31:28.619,-0.0020494332851623,-0.1624702918544457,9
2025-03-08 12:31:28.627,-0.002174084114518,-0.1668123436738858,9
2025-03-08 12:31:28.634,-0.0023044040332602,-0.1810859800421411,9
2025-03-08 12:31:28.642,-0.0024413671024729,-0.2056485411370279,9
2025-03-08 12:31:28.650,-0.0025855361443571,-0.24055112630866,9
2025-03-08 12:31:28.658,-0.0027370179664778,-0.2855470630514581,9
2025-03-08 12:31:28.666,-0.0028954350795251,-0.3401048971122498,9
2025-03-08 12:31:28.673,-0.0030599160720121,-0.4034245672922344,9
2025-03-08 12:31:28.681,-0.0032291060299076,-0.4744557326206651,9
2025-03-08 12:31:28.689,-0.003401197485712,-0.5519176013274708,9
2025-03-08 12:31:28.697,-0.0035739814463423,-0.6343200057681371,9
2025-03-08 12:31:28.705,-0.0037449171788282,-0.7199858230553139,9
2025-03-08 12:31:28.712,-0.0039112186768999,-0.8070751218520177,9
2025-03-08 12:31:28.720,-0.0040699550853458,-0.8936115982576994,9
2025-03-08 12:31:28.728,-0.0042181617904007,-0.9775119348731148,9
2025-03-08 12:31:28.736,-0.0043529583731793,-1.056618676588745,9
2025-03-08 12:31:28.744,-0.0044716691769795,-1.1287370795126297,9
2025-03-08 12:31:28.752,-0.0045719418840796,-1.1916761827703848,9
2025-03-08 12:31:28.759,-0.0046518592720175,-1.243294102994906,9
2025-03-08 12:31:28.767,-0.0047100392568065,-1.281547269154496,9
2025-03-08 12:31:28.775,-0.00474571842738,-1.3045429934768442,9
2025-03-08 12:31:28.783,-0.0047588145117977,-1.310594399763949,9
2025-03-08 12:31:28.791,-0.0047499636173811,-1.2982763039016172,9
2025-03-08 12:31:28.798,-0.0047205287258954,-1.2664801880297123,9
2025-03-08 12:31:28.806,-0.0046725768585417,-1.2144659791636785,9
2025-03-08 12:31:28.814,-0.0046088235593307,-1.1419079999907835,9
2025-03-08 12:31:28.822,-0.0045325448315516,-1.048932270796442,9
2025-03-08 12:31:28.830,-0.0044474583065404,-0.9361423615230094,9
2025-03-08 12:31:28.837,-0.0043575771019246,-0.8046312552413432,9
2025-03-08 12:31:28.845,-0.0042670414085297,-0.6559771975882919,9
2025-03-08 12:31:28.853,-0.0041799342219634,-0.4922222525776224,9
2025-03-08 12:31:28.861,-0.0041000887223465,-0.3158332151672384,9
2025-03-08 12:31:28.869,-0.0040308955288943,-0.1296455672597681,9
2025-03-08 12:31:28.877,-0.0039751183535732,0.0632077922912442,9
2025-03-08 12:31:28.884,-0.0039347264443407,0.2593803647491938,9
2025-03-08 12:31:28.892,-0.0039107517137858,0.455404971127283,9
2025-03-08 12:31:28.900,-0.0039031776833406,0.647791801981362,9
2025-03-08 12:31:28.908,-0.0039108663737184,0.8331273533736233,9
2025-03-08 12:31:28.916,-0.0039315280226423,1.0081699822129226,9
2025-03-08 12:31:28.923,-0.0039617370038839,1.1699380228606593,9
2025-03-08 12:31:28.931,-0.0039969956011755,1.31578683104149,9
2025-03-08 12:31:28.939,-0.0040318454391155,1.4434717456927564,9
2025-03-08 12:31:28.947,-0.004060024479433,1.55119476148227,9
2025-03-08 12:31:28.955,-0.0040746656270927,1.6376336433462126,9
2025-03-08 12:31:28.962,-0.004068531201791,1.7019532263707453,9
2025-03-08 12:31:28.970,-0.0040342758507159,1.743799649344277,9
2025-03-08 12:31:28.978,-0.0039647289676225,1.7632791826618677,9
2025-03-08 12:31:28.986,-0.0038531864301884,1.760924052599471,9
2025-03-08 12:31:28.994,-0.0036937005474242,1.7376481740253291,9
2025-03-08 12:31:29.002,-0.0034813565532126,1.694695950223466,9
2025-03-08 12:31:29.009,-0.0032125238072942,1.633587285647967,9
2025-03-08 12:31:29.017,-0.0028850701205206,1.5560617254596667,9
2025-03-08 12:31:29.025,-0.0024985283931658,1.4640242493520126,9
2025-03-08 12:31:29.033,-0.0020542061182579,1.3594947747203496,9
2025-03-08 12:31:29.041,-0.0015552302646396,1.2445629179696476,9
2025-03-08 12:31:29.048,-0.0010065225498827,1.1213490505011054,9
2025-03-08 12:31:29.056,-0.0004147030463932,0.9919721766044526,9
2025-03-08 12:31:29.064,0.000212076641497,0.8585246585550493,9
2025-03-08 12:31:29.072,0.0008643658057204,0.7230533318126313,9
2025-03-08 12:31:29.080,0.0015317040760151,0.5875461129357296,9
2025-03-08 12:31:29.087,0.0022029555388119,0.4539228337105168,9
2025-03-08 12:31:29.095,0.0028666718787283,0.3240287678807407,9
2025-03-08 12:31:29.103,0.003511466621726,0.1996291798837718,9
2025-03-08 12:31:29.111,0.0041263819534037,0.082403237627559,9
2025-03-08 12:31:29.119,0.0047012308255652,-0.0260642006508073,9
2025-03-08 12:31:29.127,0.0052268997733916,-0.1242941014923592,9
2025-03-08 12:31:29.134,0.0056956013679241,-0.2109288146018641,9
2025-03-08 12:31:29.142,0.0061010689022441,-0.2847519020541917,9
2025-03-08 12:31:29.150,0.0064386893720206,-0.3447119281486224,9
2025-03-08 12:31:29.158,0.0067055739047317,-0.3899493942837238,9
2025-03-08 12:31:29.166,0.0069005674661941,-0.4198255728694215,9
2025-03-08 12:31:29.173,0.0070242018902675,-0.4339516618428775,9
2025-03-08 12:31:29.181,0.0070785980113045,-0.4322164527550797,9
2025-03-08 12:31:29.189,0.007067323948033,-0.4148105778073595,9
2025-03-08 12:31:29.197,0.0069952174483492,-0.3822453702679289,9
2025-03-08 12:31:29.205,0.0068681807102962,-0.3353644358148802,9
2025-03-08 12:31:29.212,0.0066929562771861,-0.2753461902542901,9
2025-03-08 12:31:29.220,0.0064768924882489,-0.2036958780133442,9
2025-03-08 12:31:29.228,0.00622770658848,-0.1222259568876753,9
2025-03-08 12:31:29.236,0.0059532530222867,-0.0330242260365132,9
2025-03-08 12:31:29.244,0.0056613037141702,0.0615903182013826,9
2025-03-08 12:31:29.252,0.0053593463058133,0.1591232133165343,9
2025-03-08 12:31:29.259,0.0050544053752725,0.2569704116103382,9
2025-03-08 12:31:29.267,0.0047528906090908,0.3524921313744101,9
2025-03-08 12:31:29.275,0.0044604747467301,0.4430918328771084,9
2025-03-08 12:31:29.283,0.0041820029127611,0.5262969535358561,9
2025-03-08 12:31:29.291,0.0039214337667419,0.5998377197790705,9
2025-03-08 12:31:29.298,0.0036818118088293,0.6617202808278251,9
2025-03-08 12:31:29.306,0.00346526922609,0.7102906033386326,9
2025-03-08 12:31:29.314,0.0032730548437164,0.7442860255579186,9
2025-03-08 12:31:29.322,0.0031055870279758,0.7628720716056537,9
2025-03-08 12:31:29.330,0.0029625267848728,0.7656630210741278,9
2025-03-08 12:31:29.337,0.0028428668734878,0.752725742083019,9
2025-03-08 12:31:29.345,0.0027450325613249,0.7245673347851945,9
2025-03-08 12:31:29.353,0.0026669896835742,0.6821080968429909,9
2025-03-08 12:31:29.361,0.0026063558699079,0.6266421175348499,9
2025-03-08 12:31:29.369,0.0025605111103072,0.5597883554658456,9
2025-03-08 12:31:29.377,0.002526704206597,0.4834353070050691,9
2025-03-08 12:31:29.384,0.0025021520707957,0.399682316482282,9
2025-03-08 12:31:29.392,0.0024841292690839,0.3107802463805242,9
2025-03-08 12:31:29.400,0.0024700456824804,0.2190736895824267,9
2025-03-08 12:31:29.408,0.0024575106888042,0.1269462680931719,9
2025-03-08 12:31:29.416,0.0024443828766292,0.0367699334307127,9
2025-03-08 12:31:29.423,0.0024288049614338,-0.0491413402908354,9
2025-03-08 12:31:29.431,0.0024092242358132,-0.1285734329204804,9
2025-03-08 12:31:29.439,0.0023843994759155,-0.1994496474287533,9
2025-03-08 12:31:29.447,0.0023533956777172,-0.2598640876198334,9
2025-03-08 12:31:29.455,0.0023155682809791,-0.308110846267207,9
2025-03-08 12:31:29.462,0.0022705386784205,-0.342708857502784,9
2025-03-08 12:31:29.470,0.0022181628557891,-0.3624221492092752,9
2025-03-08 12:31:29.478,0.0021584950101026,-0.3662751864453311,9
2025-03-08 12:31:29.486,0.0020917479704124,-0.353563047027092,9
2025-03-08 12:31:29.494,0.0020182522104977,-0.3238563160414556,9
2025-03-08 12:31:29.502,0.0019384151983036,-0.2770008069084412,9
2025-03-08 12:31:29.509,0.001852682751623,-0.2131124724254567,9
2025-03-08 12:31:29.517,0.001761503937657,-0.1325681080352884,9
2025-03-08 12:31:29.525,0.001665300866883,-0.0359926216761729,9
2025-03-08 12:31:29.533,0.001564444504372,0.07575628345007,9
2025-03-08 12:31:29.541,0.001459237345648,0.2016052030433184,9
2025-03-08 12:31:29.548,0.0013499034586894,0.3402832171527162,9
2025-03-08 12:31:29.556,0.0012365859956924,0.490340652659867,9
2025-03-08 12:31:29.564,0.0011193518820404,0.6501680787144837,9
2025-03-08 12:31:29.572,0.0009982030347549,0.8180153219498162,9
2025-03-08 12:31:29.580,0.0008730931520038,0.9920103626996264,9
2025-03-08 12:31:29.587,0.000743948842753,1.170177995821111,9
2025-03-08 12:31:29.595,0.0006106936354814,1.350458130900335,9
2025-03-08 12:31:29.603,0.0004732732298563,1.5307235970572848,9
2025-03-08 12:31:29.611,0.0003316802582892,1.708797341525534,9
2025-03-08 12:31:29.619,0.0001859768455695,1.882468997917976,9
2025-03-08 12:31:29.627,3.631343572991278e-05,2.04951095994706,9
2025-03-08 12:31:29.634,-0.0001170573038366,2.207694309311014,9
2025-03-08 12:31:29.642,-0.0002737722426752,2.354805164944479,9
2025-03-08 12:31:29.650,-0.0004333554638437,2.4886621869586647,9
2025-03-08 12:31:29.658,-0.0005952216317179,2.6071360328995348,9
2025-03-08 12:31:29.666,-0.0007586844159957,2.7081714969456265,9
2025-03-08 12:31:29.673,-0.0009229690408222,2.7898128610046893,9
2025-03-08 12:31:29.681,-0.0010872278598917,2.8502326767421904,9
2025-03-08 12:31:29.689,-0.0012505578056416,2.887763832185734,9
2025-03-08 12:31:29.697,-0.0014120186121383,2.9009343990324066,9
2025-03-08 12:31:29.705,-0.0015706508596364,2.888504456356797,9
2025-03-08 12:31:29.713,-0.0017254931145872,2.8495038596895603,9
2025-03-08 12:31:29.720,-0.0018755977078646,2.783269757574672,9
2025-03-08 12:31:29.728,-0.0020200449650711,2.6894825271412715,9
2025-03-08 12:31:29.736,-0.0021579559424108,2.568198692932066,9
2025-03-08 12:31:29.744,-0.0022885039195967,2.4198793113667008,9
2025-03-08 12:31:29.752,-0.0024109250563975,2.245412257022528,9
2025-03-08 12:31:29.759,-0.0025245287052749,2.0461268496470364,9
2025-03-08 12:31:29.767,-0.002628707846491,1.8237993294556056,9
2025-03-08 12:31:29.775,-0.0027229499672406,1.580647841274162,9
2025-03-08 12:31:29.783,-0.0028068484898632,1.3193158352121748,9
2025-03-08 12:31:29.791,-0.0028801146245308,1.0428431241376583,9
2025-03-08 12:31:29.798,-0.0029425893059572,0.7546242311418869,9
2025-03-08 12:31:29.806,-0.0029942546758766,0.4583540856475977,9
2025-03-08 12:31:29.814,-0.0030352444087005,0.1579615698918366,9
2025-03-08 12:31:29.822,-0.0030658520762009,-0.1424681181132933,9
2025-03-08 12:31:29.830,-0.0030865367291449,-0.4387808196585051,9
2025-03-08 12:31:29.838,-0.0030979249477787,-0.7268484828392634,9
2025-03-08 12:31:29.845,-0.0031008087741539,-1.0026693743041055,9
2025-03-08 12:31:29.853,-0.0030961391485606,-1.2624703288678982,9
2025-03-08 12:31:29.861,-0.0030850146612453,-1.5028074825248128,9
2025-03-08 12:31:29.869,-0.0030686655555336,-1.7206616429453347,9
2025-03-08 12:31:29.877,-0.003048432996357,-1.9135243664373165,9
2025-03-08 12:31:29.884,-0.00302574369795,-2.079470956109697,9
2025-03-08 12:31:29.892,-0.0030020801226971,-2.21721697400817,9
2025-03-08 12:31:29.900,-0.0029789466342286,-2.3261554543703893,9
2025-03-08 12:31:29.908,-0.0029578322213448,-2.406372784368319,9
2025-03-08 12:31:29.916,-0.0029401707204793,-2.4586421334405104,9
2025-03-08 12:31:29.923,-0.0029272998540179,-2.484394297223143,9
2025-03-08 12:31:29.931,-0.0029204208201925,-2.4856668069063352,9
2025-03-08 12:31:29.939,-0.0029205605191262,-2.465033078750972,9
2025-03-08 12:31:29.947,-0.0029285386826845,-2.425514197048813,9
2025-03-08 12:31:29.955,-0.0029449421466756,-2.370476606044544,9
2025-03-08 12:31:29.963,-0.0029701082743172,-2.303519509985267,9
2025-03-08 12:31:29.970,-0.0030041191516317,-2.2283561325375003,9
2025-03-08 12:31:29.978,-0.0030468076553491,-2.148693167851086,9
2025-03-08 12:31:29.986,-0.0030977758368001,-2.0681127792447778,9
2025-03-08 12:31:29.994,-0.0031564252704942,-1.9899613857539968,9
2025-03-08 12:31:30.002,-0.003221998125459,-1.917249232674842,9
2025-03-08 12:31:30.009,-0.0032936268078496,-1.8525643697211776,9
2025-03-08 12:31:30.017,-0.0033703891833036,-1.7980041513273628,9
2025-03-08 12:31:30.025,-0.0034513657061042,-1.7551267176999437,9
2025-03-08 12:31:30.033,-0.0035356943348427,-1.7249241090574,9
2025-03-08 12:31:30.041,-0.0036226189455688,-1.7078177241448491,9
2025-03-08 12:31:30.048,-0.0037115270773704,-1.7036757986059294,9
2025-03-08 12:31:30.056,-0.0038019732578732,-1.711851513889538,9
2025-03-08 12:31:30.064,-0.0038936848433579,-1.731239330829441,9
2025-03-08 12:31:30.072,-0.003986548246529,-1.7603462514219086,9
2025-03-08 12:31:30.080,-0.0040805745735681,-1.7973740151306756,9
2025-03-08 12:31:30.088,-0.0041758449807996,-1.840307785400416,9
2025-03-08 12:31:30.095,-0.0042724373925453,-1.887006714761912,9
2025-03-08 12:31:30.103,-0.0043703374981118,-1.935291909824583,9
2025-03-08 12:31:30.111,-0.0044693381038682,-1.9830277431808208,9
2025-03-08 12:31:30.119,-0.0045689319396667,-2.0281931440222367,9
2025-03-08 12:31:30.127,-0.0046682039186123,-2.068940383454989,9
2025-03-08 12:31:30.134,-0.0047657296274037,-2.1036398714443867,9
2025-03-08 12:31:30.142,-0.0048594874604535,-2.130910501599561,9
2025-03-08 12:31:30.150,-0.0049467922782107,-2.1496360182589056,9
2025-03-08 12:31:30.158,-0.005024258742016,-2.158968657233185,9
2025-03-08 12:31:30.166,-0.005087802494849,-2.1583218804577498,9
2025-03-08 12:31:30.173,-0.0051326869223073,-2.1473543732847427,9
2025-03-08 12:31:30.181,-0.0051536218586807,-2.1259476130514314,9
2025-03-08 12:31:30.189,-0.0051449176426384,-2.0941792753697333,9
2025-03-08 12:31:30.197,-0.0051006931517764,-2.0522945576670213,9
2025-03-08 12:31:30.205,-0.0050151306174972,-2.000677214626118,9
2025-03-08 12:31:30.213,-0.0048827645639861,-1.9398217679284808,9
2025-03-08 12:31:30.220,-0.0046987882596522,-1.8703080165247,9
2025-03-08 12:31:30.228,-0.0044593589530766,-1.792778659499248,9
2025-03-08 12:31:30.236,-0.0041618826831433,-1.7079205588647424,9
2025-03-08 12:31:30.244,-0.0038052602781854,-1.6164499118357412,9
2025-03-08 12:31:30.252,-0.003390078024126,-1.51910136912947,9
2025-03-08 12:31:30.259,-0.0029187291957372,-1.4166209297085115,9
2025-03-08 12:31:30.267,-0.0023954560765743,-1.3097622666505284,9
2025-03-08 12:31:30.275,-0.0018263061490548,-1.1992859947243677,9
2025-03-08 12:31:30.283,-0.0012190007482502,-1.0859612771930034,9
2025-03-08 12:31:30.291,-0.0005827195734285,-0.9705690885220845,9
2025-03-08 12:31:30.298,7.219009537528941e-05,-0.8539064051758853,9
2025-03-08 12:31:30.306,0.0007345651664678,-0.7367905915660887,9
2025-03-08 12:31:30.314,0.0013928204072303,-0.6200632775046437,9
2025-03-08 12:31:30.322,0.0020353617850542,-0.5045930703994159,9
2025-03-08 12:31:30.330,0.0026509964255551,-0.3912764862565475,9
2025-03-08 12:31:30.338,0.0032293176417979,-0.2810365013266538,9
2025-03-08 12:31:30.345,0.003761046711167,-0.1748181234542463,9
2025-03-08 12:31:30.353,0.0042383172487431,-0.0735803817459702,9
2025-03-08 12:31:30.361,0.0046548925256563,0.0217158328965474,9
2025-03-08 12:31:30.369,0.0050063104526113,0.1101245466257408,9
2025-03-08 12:31:30.377,0.0052899548845781,0.1907363891715532,9
2025-03-08 12:31:30.384,0.0055050552631394,0.2627051936484569,9
2025-03-08 12:31:30.392,0.0056526194033179,0.3252791221952658,9
2025-03-08 12:31:30.400,0.0057353065132957,0.3778354331724692,9
2025-03-08 12:31:30.408,0.0057572493471196,0.4199174420193581,9
2025-03-08 12:31:30.416,0.005723835731087,0.4512716690579436,9
2025-03-08 12:31:30.423,0.0056414605546846,0.4718827051645254,9
2025-03-08 12:31:30.431,0.0055172596638484,0.4820030453989825,9
2025-03-08 12:31:30.439,0.0053588369482017,0.4821750975226668,9
2025-03-08 12:31:30.447,0.0051739953066003,0.4732427854014693,9
2025-03-08 12:31:30.455,0.0049704811547863,0.4563506207953446,9
2025-03-08 12:31:30.463,0.0047557507884331,0.4329287698567964,9
2025-03-08 12:31:30.470,0.0045367653561235,0.4046634361949003,9
2025-03-08 12:31:30.478,0.0043198195387826,0.3734527568048317,9
2025-03-08 12:31:30.486,0.0041104073285013,0.3413492965206985,9
2025-03-08 12:31:30.494,0.0039131265789369,0.3104910725624141,9
2025-03-08 12:31:30.502,0.0037316223234756,0.2830237928893415,9
2025-03-08 12:31:30.509,0.0035685673286584,0.2610176068576897,9
2025-03-08 12:31:30.517,0.0034256770578088,0.2463821066828518,9
2025-03-08 12:31:30.525,0.0033037551957869,0.2407835555960637,9
2025-03-08 12:31:30.533,0.0032027651277802,0.2455683401649603,9
2025-03-08 12:31:30.541,0.0031219222727469,0.2616964538003071,9
2025-03-08 12:31:30.548,0.0030598019471429,0.2896884345471201,9
2025-03-08 12:31:30.556,0.0030144574634799,0.3295886307635085,9
2025-03-08 12:31:30.564,0.0029835434158606,0.3809469849818075,9
2025-03-08 12:31:30.572,0.0029644395159309,0.4428207422036067,9
2025-03-08 12:31:30.580,0.0029543708584967,0.5137966387829956,9
2025-03-08 12:31:30.588,0.0029505210718186,0.5920332469823212,9
2025-03-08 12:31:30.595,0.0029501354103408,0.6753222692398897,9
2025-03-08 12:31:30.603,0.0029506114473897,0.7611667200049065,9
2025-03-08 12:31:30.611,0.0029495756060257,0.8468731261110634,9
2025-03-08 12:31:30.619,0.0029449443305908,0.9296541525528632,9
2025-03-08 12:31:30.627,0.0029349692546485,1.006737464693886,9
2025-03-08 12:31:30.634,0.0029182662583019,1.075476219762698,9
2025-03-08 12:31:30.642,0.0028938288194201,1.1334563798383823,9
2025-03-08 12:31:30.650,0.0028610265404169,1.1785960760291203,9
2025-03-08 12:31:30.658,0.0028195901687709,1.2092325284487386,9
2025-03-08 12:31:30.666,0.0027695848199588,1.2241925218065643,9
2025-03-08 12:31:30.673,0.0027113734441996,1.2228431279661478,9
2025-03-08 12:31:30.681,0.0026455728305047,1.205120230149371,9
2025-03-08 12:31:30.689,0.0025730045908138,1.1715334104504622,9
2025-03-08 12:31:30.697,0.0024946436070173,1.123146873566941,9
2025-03-08 12:31:30.705,0.0024115663522722,1.0615372415353026,9
2025-03-08 12:31:30.713,0.0023249013025985,0.9887302019802914,9
2025-03-08 12:31:30.720,0.0022357833353308,0.907119053699648,9
2025-03-08 12:31:30.728,0.0021453136062866,0.8193690930164863,9
2025-03-08 12:31:30.736,0.0020545259606301,0.7283124528555082,9
2025-03-08 12:31:30.744,0.0019643604916226,0.6368383927143537,9
2025-03-08 12:31:30.752,0.001875644429007,0.5477841178597661,9
2025-03-08 12:31:30.759,0.0017890801432329,0.4638309866024416,9
2025-03-08 12:31:30.767,0.0017052397273324,0.3874104792377263,9
2025-03-08 12:31:30.775,0.0016245653730356,0.320623605890472,9
2025-03-08 12:31:30.783,0.0015473745831363,0.2651765892773471,9
2025-03-08 12:31:30.791,0.0014738691613668,0.2223347403316727,9
2025-03-08 12:31:30.798,0.0014041469057847,0.1928955115073229,9
2025-03-08 12:31:30.806,0.0013382150039232,0.1771808140590524,9
2025-03-08 12:31:30.814,0.0012760042703014,0.1750478576822599,9
2025-03-08 12:31:30.822,0.0012173835367737,0.185917039469861,9
2025-03-08 12:31:30.830,0.0011621736473506,0.2088147956438497,9
2025-03-08 12:31:30.838,0.0011101605895633,0.2424288550043624,9
2025-03-08 12:31:30.845,0.0010611073304969,0.2851730173981731,9
2025-03-08 12:31:30.853,0.0010147639584947,0.3352584351123867,9
2025-03-08 12:31:30.861,0.000970875789962,0.3907683935732742,9
2025-03-08 12:31:30.869,0.0009291891916377,0.4497337437283635,9
2025-03-08 12:31:30.877,0.000889454988441,0.5102063934497658,9
2025-03-08 12:31:30.884,0.0008514294693919,0.5703285800326149,9
2025-03-08 12:31:30.892,0.0008148731623778,0.6283959884426764,9
2025-03-08 12:31:30.900,0.0007795477138539,0.6829131274376796,9
2025-03-08 12:31:30.908,0.0007452113647996,0.7326397117388183,9
2025-03-08 12:31:30.916,0.0007116136296779,0.7766271107412538,9
2025-03-08 12:31:30.923,0.0006784898325606,0.8142442044749764,9
