Timestamp,GSR_Filtered,PPG_Filtered
2025-07-25 16:53:47.654,-0.0028996719631344,-377.8804143806225
2025-07-25 16:53:47.662,-0.0027956275138958,-375.4489547924497
2025-07-25 16:53:47.670,-0.00269592816591,-372.108155416818
2025-07-25 16:53:47.678,-0.002599233084328,-367.9183509384523
2025-07-25 16:53:47.686,-0.0025042267642474,-362.9502236723558
2025-07-25 16:53:47.694,-0.0024096597540817,-357.28341930541234
2025-07-25 16:53:47.701,-0.0023143838441547,-351.00496807501787
2025-07-25 16:53:47.709,-0.0022173813846495,-344.2075681820259
2025-07-25 16:53:47.717,-0.0021177887026595,-336.987790779878
2025-07-25 16:53:47.725,-0.0020149137490711,-329.4442652791518
2025-07-25 16:53:47.733,-0.0019082481966243,-321.6759002403144
2025-07-25 16:53:47.740,-0.0017974742656116,-313.780189215879
2025-07-25 16:53:47.748,-0.001682466577904,-305.85164305437263
2025-07-25 16:53:47.756,-0.0015632893448824,-297.98038095216174
2025-07-25 16:53:47.764,-0.0014401891875222,-290.25090252154524
2025-07-25 16:53:47.772,-0.0013135838696181,-282.7410529325467
2025-07-25 16:53:47.779,-0.0011840472111887,-275.52118338005846
2025-07-25 16:53:47.787,-0.0010522904459853,-268.6535003112354
2025-07-25 16:53:47.795,-0.0009191402960253,-262.19158956256524
2025-07-25 16:53:47.803,-0.0007855140681609,-256.18009626017147
2025-07-25 16:53:47.811,-0.0006523921368975,-250.65453834745105
2025-07-25 16:53:47.819,-0.0005207882607349,-245.6412310342245
2025-07-25 16:53:47.826,-0.0003917182917983,-241.157301178203
2025-07-25 16:53:47.834,-0.0002661679784027,-237.2107742357736
2025-07-25 16:53:47.842,-0.0001450607177624,-233.8007213846497
2025-07-25 16:53:47.850,-2.9226284935845888e-05,-230.9174600453356
2025-07-25 16:53:47.858,8.062829610687315e-05,-228.54280661485805
2025-07-25 16:53:47.865,0.0001839445463494,-226.6503851500547
2025-07-25 16:53:47.873,0.000280333931708,-225.20599951420425
2025-07-25 16:53:47.881,0.0003695940632445,-224.16807882205964
2025-07-25 16:53:47.889,0.0004517191854564,-223.4882067545023
2025-07-25 16:53:47.897,0.0005269047338435,-223.11174448736875
2025-07-25 16:53:47.904,0.000595546000881,-222.97855472800975
2025-07-25 16:53:47.912,0.0006582310958369,-223.02383089868883
2025-07-25 16:53:47.920,0.0007157283790811,-223.17903112224985
2025-07-25 16:53:47.928,0.0007689684853686,-223.37291165624373
2025-07-25 16:53:47.936,0.0008190210792297,-223.5326491044723
2025-07-25 16:53:47.944,0.0008670666858397,-223.5850354361703
2025-07-25 16:53:47.951,0.0009143642423658,-223.45772489747768
2025-07-25 16:53:47.959,0.0009622152675189,-223.08050764328036
2025-07-25 16:53:47.967,0.001011925665703,-222.3865816683398
2025-07-25 16:53:47.975,0.0010647662089109,-221.31379265037447
2025-07-25 16:53:47.983,0.0011219327507914,-219.8058108428564
2025-07-25 16:53:47.990,0.0011845072502995,-217.81321529359548
2025-07-25 16:53:47.998,0.001253420720642,-215.29445843182012
2025-07-25 16:53:48.006,0.0013294192742266,-212.21668834697567
2025-07-25 16:53:48.014,0.0014130344944146,-208.55641161631647
2025-07-25 16:53:48.022,0.0015045594167178,-204.2999859221708
2025-07-25 16:53:48.029,0.0016040314097868,-199.44393841568973
2025-07-25 16:53:48.037,0.0017112231263967,-193.99511225104564
2025-07-25 16:53:48.045,0.0018256423991164,-187.97064935881247
2025-07-25 16:53:48.053,0.0019465415664283,-182.90587570607883
2025-07-25 16:53:48.061,0.0020729363823322,-177.1490652317321
2025-07-25 16:53:48.069,0.0022036344581067,-170.73268778964294
2025-07-25 16:53:48.076,0.0023372730314652,-163.696644813163
2025-07-25 16:53:48.084,0.0024723655751371,-156.08824155943074
2025-07-25 16:53:48.092,0.0026073561962271,-147.96214171837764
2025-07-25 16:53:48.100,0.0027406799545124,-139.38028650292188
2025-07-25 16:53:48.108,0.0028708263249848,-130.41175255757287
2025-07-25 16:53:48.115,0.002996402294921,-121.13251643062942
2025-07-25 16:53:48.123,0.0031161912301484,-111.62508868798392
2025-07-25 16:53:48.131,0.0032292037669086,-101.97797868164577
2025-07-25 16:53:48.139,0.0033347175170394,-92.28495209086984
2025-07-25 16:53:48.147,0.0034323031485889,-82.64404803655543
2025-07-25 16:53:48.154,0.0035218352964709,-73.15633103045022
2025-07-25 16:53:48.162,0.0036034877161328,-63.92436520396769
2025-07-25 16:53:48.170,0.0036777130856386,-55.05041381797959
2025-07-25 16:53:48.178,0.0037452088610529,-46.63438532104456
2025-07-25 16:53:48.186,0.0038068715423668,-38.77156721735067
2025-07-25 16:53:48.194,0.0038637424787518,-31.550209443610186
2025-07-25 16:53:48.201,0.0039169487669783,-25.049038295278443
2025-07-25 16:53:48.209,0.0039676428016588,-19.3347984748026
2025-07-25 16:53:48.217,0.0040169437003446,-14.45993281607846
2025-07-25 16:53:48.225,0.0040658833213762,-10.460515093243874
2025-07-25 16:53:48.233,0.0041153590551581,-7.35454986761631
2025-07-25 16:53:48.240,0.0041660950559262,-5.14074399914317
2025-07-25 16:53:48.248,0.0042186131115063,-3.797837443958434
2025-07-25 16:53:48.256,0.0042732139130665,-3.284557252200264
2025-07-25 16:53:48.264,0.0043299690190977,-3.540229907909692
2025-07-25 16:53:48.272,0.0043887232418064,-4.486055400094111
2025-07-25 16:53:48.279,0.0044491065108235,-6.027013948904919
2025-07-25 16:53:48.287,0.0045105535108497,-8.054345330319913
2025-07-25 16:53:48.295,0.0045723286103828,-10.448513168900584
2025-07-25 16:53:48.303,0.0046335529712487,-13.082543914151222
2025-07-25 16:53:48.311,0.0046932305028097,-15.825613520406405
2025-07-25 16:53:48.319,0.0047502696612464,-18.546744674756123
2025-07-25 16:53:48.326,0.0048034989464813,-21.11847389835105
2025-07-25 16:53:48.334,0.0048516751397236,-23.420350780275875
2025-07-25 16:53:48.342,0.0048934846967169,-25.342140541385824
2025-07-25 16:53:48.350,0.0049275401140089,-26.78661545144609
2025-07-25 16:53:48.358,0.0049523742533851,-27.671839599959284
2025-07-25 16:53:48.365,0.0049664362396042,-27.93287430628511
2025-07-25 16:53:48.373,0.0049680925493696,-27.52285708205355
2025-07-25 16:53:48.381,0.0049556364826645,-26.41343440983256
2025-07-25 16:53:48.389,0.0049273085972507,-24.594556393135196
2025-07-25 16:53:48.397,0.0048813299583456,-22.07366815120084
2025-07-25 16:53:48.404,0.0048159491384028,-18.874357231616216
2025-07-25 16:53:48.412,0.0047295027773857,-15.03453696248843
2025-07-25 16:53:48.420,0.004620488306073,-10.604261509136837
2025-07-25 16:53:48.428,0.0044876463478468,-5.643278798837098
2025-07-25 16:53:48.436,0.0043300494798244,-0.2184322725697836
2025-07-25 16:53:48.444,0.0041471934263015,5.598978097549217
2025-07-25 16:53:48.451,0.0039390862694364,11.735770319476035
2025-07-25 16:53:48.459,0.0037063308284604,18.119294419760603
2025-07-25 16:53:48.467,0.0034501949902367,24.679602453047305
2025-07-25 16:53:48.475,0.0031726645464465,31.35130595422936
2025-07-25 16:53:48.483,0.0028764731542723,38.07506930122916
2025-07-25 16:53:48.490,0.0025651045703432,44.79870577245723
2025-07-25 16:53:48.498,0.0022427633967472,51.47786197842489
2025-07-25 16:53:48.506,0.0019143121098352,58.07629499154778
2025-07-25 16:53:48.514,0.0015851738734955,64.56576403355282
2025-07-25 16:53:48.522,0.0012612023849002,70.92557420614924
2025-07-25 16:53:48.530,0.0009485217571506,77.1418227942955
2025-07-25 16:53:48.537,0.0006533412744045,83.20640860920895
2025-07-25 16:53:48.545,0.0003817516767083,89.11587128429086
2025-07-25 16:53:48.553,0.0001395111913204,94.87013013284654
2025-07-25 16:53:48.561,-6.816937814363696e-05,100.47119102275
2025-07-25 16:53:48.569,-0.0002368325759716,105.92188485212426
2025-07-25 16:53:48.576,-0.0003629610968377,111.22469305326948
2025-07-25 16:53:48.584,-0.000444135571473,116.38070486000244
2025-07-25 16:53:48.592,-0.0004791542679181,121.38873886422134
2025-07-25 16:53:48.600,-0.0004681071448099,126.2446488250429
2025-07-25 16:53:48.608,-0.0004123988264652,130.94082192101058
2025-07-25 16:53:48.615,-0.0003147177285248,135.46586759912412
2025-07-25 16:53:48.623,-0.0001789516379507,139.80448748338574
2025-07-25 16:53:48.631,-1.005333166429755e-05,143.9375116600066
2025-07-25 16:53:48.639,0.0001861370609396,147.84208385779152
2025-07-25 16:53:48.647,0.0004031036854919,151.49197707963805
2025-07-25 16:53:48.655,0.0006338895806642,154.85802142271274
2025-07-25 16:53:48.662,0.0008713424482091,157.90862642467837
2025-07-25 16:53:48.670,0.0011083597218771,160.6103806723995
2025-07-25 16:53:48.678,0.0013381217904822,162.92871121425583
2025-07-25 16:53:48.686,0.0015543035552962,164.82858443424547
2025-07-25 16:53:48.694,0.001751256281887,166.2752286943536
2025-07-25 16:53:48.701,0.0019241537306781,167.2348577034029
2025-07-25 16:53:48.709,0.0020690986518203,167.67537283275308
2025-07-25 16:53:48.717,0.0021831878275849,167.5670230597993
2025-07-25 16:53:48.725,0.0022645358926635,166.88300328939036
2025-07-25 16:53:48.733,0.0023122601198511,165.59997558656528
2025-07-25 16:53:48.740,0.0023264301927025,163.69850310178805
2025-07-25 16:53:48.748,0.0023079886066339,161.16339262930825
2025-07-25 16:53:48.756,0.0022586485440855,157.98394808756333
2025-07-25 16:53:48.764,0.0021807766327462,154.1541430129133
2025-07-25 16:53:48.772,0.0020772678329859,149.67272479977595
2025-07-25 16:53:48.780,0.0019514189269796,144.5432664908078
2025-07-25 16:53:48.787,0.0018068059121928,138.7741832489636
2025-07-25 16:53:48.795,0.0016471692231027,132.37873028917414
2025-07-25 16:53:48.803,0.0014763092697201,125.37499725584428
2025-07-25 16:53:48.811,0.001297993476848,117.78591115751252
2025-07-25 16:53:48.819,0.0011158750491328,109.63925639220976
2025-07-25 16:53:48.826,0.0009334231907484,100.9677164580622
2025-07-25 16:53:48.834,0.0007538643877167,91.8089379116091
2025-07-25 16:53:48.842,0.0005801343652781,82.20561319054869
2025-07-25 16:53:48.850,0.0004148402097634,72.20557514186727
2025-07-25 16:53:48.858,0.0002602318209315,61.86189248562665
2025-07-25 16:53:48.865,0.0001181815158948,51.23295194298845
2025-07-25 16:53:48.873,-9.829491230750755e-06,40.38250932457946
2025-07-25 16:53:48.881,-0.0001227187889672,29.379688560365413
2025-07-25 16:53:48.889,-0.0002198053651761,18.298904632130448
2025-07-25 16:53:48.897,-0.0003008075774586,7.219683941745736
2025-07-25 16:53:48.905,-0.0003658368132022,-3.773645818936801
2025-07-25 16:53:48.912,-0.000415386938805,-14.592424353964743
2025-07-25 16:53:48.920,-0.0004503193607543,-25.144312478482643
2025-07-25 16:53:48.928,-0.0004718433213859,-35.33415371846292
2025-07-25 16:53:48.936,-0.0004814910209002,-45.06506071952501
2025-07-25 16:53:48.944,-0.000481087266663,-54.23973494985253
2025-07-25 16:53:48.951,-0.0004727135402414,-62.76201717675018
2025-07-25 16:53:48.959,-0.0004586666148587,-70.53865278724201
2025-07-25 16:53:48.967,-0.0004414121474028,-77.48124067378839
2025-07-25 16:53:48.975,-0.0004235340080232,-83.5083179384707
2025-07-25 16:53:48.983,-0.0004076804857158,-88.54751627119335
2025-07-25 16:53:48.990,-0.0003965088731158,-92.53771102550148
2025-07-25 16:53:48.998,-0.0003926301689781,-95.431072412757
2025-07-25 16:53:49.006,-0.0003985555880709,-97.1949214692725
2025-07-25 16:53:49.014,-0.000416646196462,-97.81329279950548
2025-07-25 16:53:49.022,-0.0004490664806853,-97.2881122592034
2025-07-25 16:53:49.030,-0.0004977422856834,-95.63991069124364
2025-07-25 16:53:49.037,-0.0005643234019909,-92.90801382414
2025-07-25 16:53:49.045,-0.000650150988957,-89.15017216059773
2025-07-25 16:53:49.053,-0.0007562298627064,-84.44162139487881
2025-07-25 16:53:49.061,-0.0008832055612864,-78.87359168484807
2025-07-25 16:53:49.069,-0.0010313461980734,-72.55131104795731
2025-07-25 16:53:49.076,-0.0012005294304761,-65.59157248789599
2025-07-25 16:53:49.084,-0.0013902352577726,-58.119954709382746
2025-07-25 16:53:49.092,-0.0015995456802545,-50.267801340404105
2025-07-25 16:53:49.100,-0.0018271524289101,-42.16907280088393
2025-07-25 16:53:49.108,-0.0020713739752278,-33.957188156166296
2025-07-25 16:53:49.115,-0.002330182831143,-25.761971731456374
2025-07-25 16:53:49.123,-0.002601243734562,-17.70681153239626
2025-07-25 16:53:49.131,-0.0028819626857246,-9.906124409850047
2025-07-25 16:53:49.139,-0.0031695459952699,-2.46320729640648
2025-07-25 16:53:49.147,-0.0034610676461304,4.531464392023961
2025-07-25 16:53:49.155,-0.0037535425258031,11.001450089384196
2025-07-25 16:53:49.162,-0.0040440025496397,16.88504893846212
2025-07-25 16:53:49.170,-0.0043295723489764,22.13549687327637
2025-07-25 16:53:49.178,-0.0046075410377999,26.72067663175573
2025-07-25 16:53:49.186,-0.0048754267163357,30.62237961336403
2025-07-25 16:53:49.194,-0.0051310309032368,33.83517410155664
2025-07-25 16:53:49.201,-0.0053724808788668,36.36494679689853
2025-07-25 16:53:49.209,-0.0055982587527742,38.22719358544231
2025-07-25 16:53:49.217,-0.0058072168569913,39.44514103615964
2025-07-25 16:53:49.225,-0.0059985798108925,40.04778252530468
2025-07-25 16:53:49.233,-0.0061719342400081,40.06791242706009
2025-07-25 16:53:49.240,-0.0063272076136295,39.54023872619956
2025-07-25 16:53:49.248,-0.0064646380453253,38.49964883925156
2025-07-25 16:53:49.256,-0.0065847372209655,36.9796954799408
2025-07-25 16:53:49.264,-0.0066882488407385,35.01135924239027
2025-07-25 16:53:49.272,-0.0067761050265379,32.62213250590831
2025-07-25 16:53:49.280,-0.0068493830378422,29.83545572993226
2025-07-25 16:53:49.287,-0.0069092643736436,26.670522731278776
2025-07-25 16:53:49.295,-0.0069569979406304,23.142456640768412
2025-07-25 16:53:49.303,-0.006993868467571,19.262843368618224
2025-07-25 16:53:49.311,-0.0070211707738473,15.040594912818024
2025-07-25 16:53:49.319,-0.0070401898887523,10.48310100889218
2025-07-25 16:53:49.326,-0.0070521864055191,5.59761475951999
2025-07-25 16:53:49.334,-0.0070583859039665,0.392806422121738
2025-07-25 16:53:49.342,-0.0070599708917675,-5.1195899853380045
2025-07-25 16:53:49.350,-0.0070580735933145,-10.92311957925256
2025-07-25 16:53:49.358,-0.0070537680679181,-16.99502522492692
2025-07-25 16:53:49.365,-0.0070480604905329,-23.30482852895343
2025-07-25 16:53:49.373,-0.0070418768898844,-29.813156684281843
2025-07-25 16:53:49.381,-0.0070360481337719,-36.47089189340734
2025-07-25 16:53:49.389,-0.0070312923845853,-43.21870999197304
2025-07-25 16:53:49.397,-0.007028195532024,-49.98706172027797
2025-07-25 16:53:49.405,-0.0070271902371874,-56.69663413574206
2025-07-25 16:53:49.412,-0.0070285342655909,-63.25931122705857
2025-07-25 16:53:49.420,-0.0070322888216806,-69.57963224234607
2025-07-25 16:53:49.428,-0.0070382976560815,-75.55672406657887
2025-07-25 16:53:49.436,-0.0070461678026664,-81.08666084289483
2025-07-25 16:53:49.444,-0.0070552529120545,-86.06518080307376
2025-07-25 16:53:49.451,-0.007064640271052,-90.3906680581045
2025-07-25 16:53:49.459,-0.0070731426958316,-93.96728722923362
2025-07-25 16:53:49.467,-0.0070792964855777,-96.70814278011748
2025-07-25 16:53:49.475,-0.0070813664788961,-98.5383243155022
2025-07-25 16:53:49.483,-0.0070773590420804,-99.39769540707356
2025-07-25 16:53:49.490,-0.0070650436570648,-99.24328783577712
2025-07-25 16:53:49.498,-0.0070419836422439,-98.05117610694153
2025-07-25 16:53:49.506,-0.0070055762451902,-95.81772858943997
2025-07-25 16:53:49.514,-0.0069531017626793,-92.56016071613789
2025-07-25 16:53:49.522,-0.0068817805469402,-88.31635058162342
2025-07-25 16:53:49.530,-0.0067888359692962,-83.14391548108624
2025-07-25 16:53:49.537,-0.0066715608897893,-77.11858648937677
2025-07-25 16:53:49.545,-0.0065273851411438,-70.33195404328356
2025-07-25 16:53:49.553,-0.0063539420396974,-62.88868795333854
2025-07-25 16:53:49.561,-0.006149132798316,-54.90335828382403
2025-07-25 16:53:49.569,-0.0059111885839039,-46.49699790470659
2025-07-25 16:53:49.576,-0.0056387305008016,-37.79355293922433
2025-07-25 16:53:49.584,-0.0053308277795161,-28.91636432026332
2025-07-25 16:53:49.592,-0.0049870538590271,-19.98481337239561
2025-07-25 16:53:49.600,-0.0046075390341128,-11.111248299916404
2025-07-25 16:53:49.608,-0.0041930172344494,-2.398288399073152
2025-07-25 16:53:49.615,-0.0037448636469944,6.063419587833287
2025-07-25 16:53:49.623,-0.0032651194662733,14.196941780072848
2025-07-25 16:53:49.631,-0.0027565000505416,21.940265707609694
2025-07-25 16:53:49.639,-0.0022223830715072,29.24697002660569
2025-07-25 16:53:49.647,-0.0016667738202547,36.08636752351906
2025-07-25 16:53:49.655,-0.0010942457287373,42.44315010066797
2025-07-25 16:53:49.662,-0.0005098554277766,48.31657810220503
2025-07-25 16:53:49.670,8.096680231076299e-05,53.71926699505865
2025-07-25 16:53:49.678,0.000672548698441,58.67563211789509
2025-07-25 16:53:49.686,0.0012591257218761,63.220057162773486
2025-07-25 16:53:49.694,0.001835003295375,67.39485461157815
2025-07-25 16:53:49.701,0.0023947248984466,71.24808696014902
2025-07-25 16:53:49.709,0.0029332385743642,74.83131669033523
2025-07-25 16:53:49.717,0.0034460540758587,78.19735098207599
2025-07-25 16:53:49.725,0.0039293830169678,81.3980443345999
2025-07-25 16:53:49.733,0.0043802550165451,84.48221865220859
2025-07-25 16:53:49.740,0.004796603882166,87.49375586044967
2025-07-25 16:53:49.748,0.0051773193012247,90.46991258832202
2025-07-25 16:53:49.756,0.0055222611811169,93.4398997305262
2025-07-25 16:53:49.764,0.0058322356258164,96.42376174479055
2025-07-25 16:53:49.772,0.006108933445725,99.43158146628508
2025-07-25 16:53:49.780,0.0063548339643081,102.46302633489704
2025-07-25 16:53:49.787,0.0065730786458419,105.50724165294352
2025-07-25 16:53:49.795,0.0067673206626996,108.5430862657666
2025-07-25 16:53:49.803,0.0069415578145692,111.53969626636082
2025-07-25 16:53:49.811,0.007099957035839,114.45735324296376
2025-07-25 16:53:49.819,0.0072466789765396,117.2486253963319
2025-07-25 16:53:49.826,0.0073857108291213,119.85974267689002
2025-07-25 16:53:49.834,0.0075207148210587,122.23216103554688
2025-07-25 16:53:49.842,0.0076548987555754,124.30426604062548
2025-07-25 16:53:49.850,0.0077909137042991,126.01316256523369
2025-07-25 16:53:49.858,0.0079307823655167,127.2964950458002
2025-07-25 16:53:49.865,0.0080758597104693,128.09424198172388
2025-07-25 16:53:49.873,0.0082268255587409,128.35042891791454
2025-07-25 16:53:49.881,0.0083837069333198,128.01470619007276
2025-07-25 16:53:49.889,0.0085459266270738,127.04374132920896
2025-07-25 16:53:49.897,0.0087123734077492,125.40238135624703
2025-07-25 16:53:49.905,0.0088814886451964,123.06454735687824
2025-07-25 16:53:49.912,0.0090513637868183,120.0138327137772
2025-07-25 16:53:49.920,0.0092198430000708,116.2437870300602
2025-07-25 16:53:49.928,0.0093846254407765,111.75787976572288
2025-07-25 16:53:49.936,0.0095433620111588,106.56915041999908
2025-07-25 16:53:49.944,0.0096937422238988,100.6995650846821
2025-07-25 16:53:49.951,0.0098335679717546,94.17911164426818
2025-07-25 16:53:49.959,0.0099608125047559,87.0446770834857
2025-07-25 16:53:49.967,0.0100736643874021,79.3387596379695
2025-07-25 16:53:49.975,0.0101705572994905,71.1080753884389
2025-07-25 16:53:49.983,0.010250187162087,62.4021230157279
2025-07-25 16:53:49.990,0.0103115183498883,53.27177162871413
2025-07-25 16:53:49.998,0.0103537808742424,43.76793483873237
2025-07-25 16:53:50.006,0.0103764605055606,33.940389745451554
2025-07-25 16:53:50.014,0.0103792838674074,23.836792553897617
2025-07-25 16:53:50.022,0.0103622004880356,13.50193362080101
2025-07-25 16:53:50.030,0.0103253635370541,2.977264330158288
2025-07-25 16:53:50.037,0.0102691105294898,-7.699283243385441
2025-07-25 16:53:50.045,0.0101939447902535,-18.49317511402578
2025-07-25 16:53:50.053,0.0101005180459506,-29.372856622541654
2025-07-25 16:53:50.061,0.0099896141393096,-40.30905343784393
2025-07-25 16:53:50.069,0.0098621335274212,-51.2738232534305
2025-07-25 16:53:50.076,0.0097190779955273,-62.2394026839084
2025-07-25 16:53:50.084,0.0095615349504286,-73.1769067425529
2025-07-25 16:53:50.092,0.009390660689397,-84.05494962452396
2025-07-25 16:53:50.100,0.0092076620675948,-94.83826444222386
2025-07-25 16:53:50.108,0.0090137760175563,-105.4864052408283
2025-07-25 16:53:50.115,0.0088102465283341,-115.95261641541212
2025-07-25 16:53:50.123,0.0085982990409889,-126.18295214961336
2025-07-25 16:53:50.131,0.0083791126792722,-136.11572157151545
2025-07-25 16:53:50.139,0.0081537911470404,-145.6813241291096
2025-07-25 16:53:50.147,0.007923333373446,-154.80252463576616
2025-07-25 16:53:50.155,0.007688605066503,-163.39519915487872
2025-07-25 16:53:50.162,0.0074503123400971,-171.36956219551865
2025-07-25 16:53:50.170,0.0072089786265822,-178.63186354503432
2025-07-25 16:53:50.178,0.0069649261784979,-185.0865205488452
2025-07-25 16:53:50.186,0.0067182634737254,-190.6386298751888
2025-07-25 16:53:50.194,0.0064688796936937,-195.19678281500435
2025-07-25 16:53:50.201,0.0062164472189231,-198.67609083649717
2025-07-25 16:53:50.209,0.0059604328894624,-201.00131408735
2025-07-25 16:53:50.217,0.0057001186043366,-202.1099752362352
2025-07-25 16:53:50.225,0.0054346315431853,-201.9553347044729
2025-07-25 16:53:50.233,0.0051629837432399,-200.5091010700669
2025-07-25 16:53:50.240,0.0048841199962705,-197.76375229122772
2025-07-25 16:53:50.248,0.0045969722594441,-193.73434948139663
2025-07-25 16:53:50.256,0.0043005181759197,-188.45973544602
2025-07-25 16:53:50.264,0.0039938408895705,-182.0030253429382
2025-07-25 16:53:50.272,0.0036761870901333,-174.45131699089237
2025-07-25 16:53:50.280,0.0033470201987428,-165.91457379002452
2025-07-25 16:53:50.287,0.0030060658727801,-156.52366391670574
2025-07-25 16:53:50.295,0.0026533475570416,-146.42757483683832
2025-07-25 16:53:50.303,0.0022892105190566,-135.78986086158554
2025-07-25 16:53:50.311,0.0019143335158689,-124.78442117446887
2025-07-25 16:53:50.319,0.0015297278491567,-113.5907435374512
2025-07-25 16:53:50.326,0.0011367241311739,-102.38878159889296
2025-07-25 16:53:50.334,0.0007369477113943,-91.35365869345412
2025-07-25 16:53:50.342,0.0003322843819617,-80.65040650021646
2025-07-25 16:53:50.350,-7.516144773534357e-05,-70.42895215980938
2025-07-25 16:53:50.358,-0.0004831135599252,-60.81956234424096
2025-07-25 16:53:50.365,-0.0008891730802222,-51.928937542482736
2025-07-25 16:53:50.373,-0.0012908675121145,-43.837124989712514
2025-07-25 16:53:50.381,-0.001685697638913,-36.59538525614455
2025-07-25 16:53:50.389,-0.0020711809393021,-30.22510719211534
2025-07-25 16:53:50.397,-0.0024448909172758,-24.71782090984089
2025-07-25 16:53:50.405,-0.0028044924282499,-20.036311255605497
2025-07-25 16:53:50.412,-0.0031477735988303,-16.11678727596558
2025-07-25 16:53:50.420,-0.0034726753177721,-12.872018796896237
2025-07-25 16:53:50.428,-0.0037773195354374,-10.195311400884323
2025-07-25 16:53:50.436,-0.0040600376414448,-7.965157448546478
2025-07-25 16:53:50.444,-0.0043193998982898,-6.050374648956379
2025-07-25 16:53:50.451,-0.0045542463758725,-4.315525989497864
2025-07-25 16:53:50.459,-0.0047637192485996,-2.626406179685933
2025-07-25 16:53:50.467,-0.0049472958016214,-0.8553803410254938
2025-07-25 16:53:50.475,-0.0051048210556087,1.1136297216592397
2025-07-25 16:53:50.483,-0.0052365385360991,3.380698301127162
2025-07-25 16:53:50.490,-0.0053431173909981,6.026148740857038
2025-07-25 16:53:50.498,-0.005425673841844,9.10763592231998
2025-07-25 16:53:50.506,-0.0054857848814179,12.658151130911252
2025-07-25 16:53:50.514,-0.0055254922270944,16.685002553589342
2025-07-25 16:53:50.522,-0.0055472948031858,21.16978382019988
2025-07-25 16:53:50.530,-0.0055541283774283,26.069302791896707
2025-07-25 16:53:50.537,-0.0055493313122966,31.31740506339851
2025-07-25 16:53:50.545,-0.0055365957243322,36.82759306795886
2025-07-25 16:53:50.553,-0.0055199037771791,42.49631368741354
2025-07-25 16:53:50.561,-0.0055034493776626,48.20676597728479
2025-07-25 16:53:50.569,-0.0054915461171769,53.83306675142614
2025-07-25 16:53:50.576,-0.005488522907702,59.24460568624737
2025-07-25 16:53:50.584,-0.0054986095151436,64.31042328996517
2025-07-25 16:53:50.592,-0.0055258151406213,68.90345418217699
2025-07-25 16:53:50.600,-0.005573804233451,72.90449396133717
2025-07-25 16:53:50.608,-0.0056457746175862,76.20576950943061
2025-07-25 16:53:50.615,-0.0057443435230583,78.7140186169164
2025-07-25 16:53:50.623,-0.0058714470504615,80.3530137911283
2025-07-25 16:53:50.631,-0.006028257941491,81.06549534620876
2025-07-25 16:53:50.639,-0.0062151254101394,80.81450856891894
2025-07-25 16:53:50.647,-0.0064315393758744,79.58416710570528
2025-07-25 16:53:50.655,-0.0066761199352539,77.37988801381931
2025-07-25 16:53:50.662,-0.0069466316023952,74.22816168583981
2025-07-25 16:53:50.670,-0.0072400209963574,70.17593098639338
2025-07-25 16:53:50.678,-0.0075524762830331,65.28965783324198
2025-07-25 16:53:50.686,-0.0078795066190959,59.654152147888354
2025-07-25 16:53:50.694,-0.0082160398666084,53.37122833923358
2025-07-25 16:53:50.701,-0.0085565367362752,46.55823966628389
2025-07-25 16:53:50.709,-0.0088951191736913,39.34652279592533
2025-07-25 16:53:50.717,-0.0092257103001083,31.8797656533999
2025-07-25 16:53:50.725,-0.0095421826859156,24.31229324795886
2025-07-25 16:53:50.733,-0.0098385112215512,16.807250365104043
2025-07-25 16:53:50.740,-0.0101089263757787,9.534648401839652
2025-07-25 16:53:50.748,-0.0103480632734256,2.669237379455235
2025-07-25 16:53:50.756,-0.0105511018863979,-3.611835934533535
2025-07-25 16:53:50.764,-0.0107138937449434,-9.131616546469
2025-07-25 16:53:50.772,-0.010833070895039,-13.716196637600529
2025-07-25 16:53:50.780,-0.0109061333057395,-17.197840098363336
2025-07-25 16:53:50.787,-0.0109315115637579,-19.418356168395206
2025-07-25 16:53:50.795,-0.0109086024988169,-20.23267716983847
2025-07-25 16:53:50.803,-0.010837776350756,-19.51256955042742
2025-07-25 16:53:50.811,-0.0107203551336021,-17.150383043651605
2025-07-25 16:53:50.819,-0.0105585628446059,-13.062721941807654
2025-07-25 16:53:50.826,-0.0103554490518599,-7.193907377379153
2025-07-25 16:53:50.834,-0.0101147882383777,0.4809082049911902
2025-07-25 16:53:50.842,-0.0098409581488775,9.953112647383234
2025-07-25 16:53:50.850,-0.0095388012211182,21.17862129386256
2025-07-25 16:53:50.858,-0.0092134738566937,34.07659348436134
2025-07-25 16:53:50.865,-0.0088702887106709,48.528970480957625
2025-07-25 16:53:50.873,-0.0085145553424727,64.38090158915578
2025-07-25 16:53:50.881,-0.0081514244945238,81.44209764969351
2025-07-25 16:53:50.889,-0.007785740980351,99.4891227608454
2025-07-25 16:53:50.897,-0.0074219097060536,118.26860720215812
2025-07-25 16:53:50.905,-0.0070637787806169,137.50133788235658
2025-07-25 16:53:50.912,-0.0067145430885095,156.88715773031515
2025-07-25 16:53:50.920,-0.0063766711666964,176.1105825517459
2025-07-25 16:53:50.928,-0.0060518576859992,194.84702309699503
2025-07-25 16:53:50.936,-0.0057410031423293,212.76948147372056
2025-07-25 16:53:50.944,-0.0054442214523522,229.55557464876557
2025-07-25 16:53:50.951,-0.0051608750797479,244.89472373907807
2025-07-25 16:53:50.959,-0.0048896361879941,258.495336315295
2025-07-25 16:53:50.967,-0.0046285712155129,270.0918003656579
2025-07-25 16:53:50.975,-0.0043752453333165,279.4511033182861
2025-07-25 16:53:50.983,-0.0041268426356289,286.3788880855351
2025-07-25 16:53:50.990,-0.0038802976746047,290.72476098812024
2025-07-25 16:53:50.998,-0.0036324338999055,292.3866741327846
2025-07-25 16:53:51.006,-0.0033801044322273,291.31421778583933
2025-07-25 16:53:51.014,-0.0031203303123154,287.51067683112467
2025-07-25 16:53:51.022,-0.0028504311231037,281.03372971879867
2025-07-25 16:53:51.030,-0.0025681429176433,271.9946984629354
2025-07-25 16:53:51.037,-0.0022717187466174,260.5562941760267
2025-07-25 16:53:51.045,-0.0019600076932131,246.9288441608616
2025-07-25 16:53:51.053,-0.0016325091864106,231.365033364614
2025-07-25 16:53:51.061,-0.0012894005420598,214.15324440720667
2025-07-25 16:53:51.069,-0.0009315371179991,195.6096353634404
2025-07-25 16:53:51.076,-0.000560425912429,176.06915129202355
2025-07-25 16:53:51.084,-0.000178174631586,155.8757215655976
2025-07-25 16:53:51.092,0.000212580846571,135.37194679981968
2025-07-25 16:53:51.100,0.0006087669769335,114.88862233673076
2025-07-25 16:53:51.108,0.0010069767740344,94.7344754718426
2025-07-25 16:53:51.115,0.0014035830018415,75.18650736092945
2025-07-25 16:53:51.123,0.001794855225855,56.48132567349115
2025-07-25 16:53:51.131,0.002177075541035,38.80783003526024
2025-07-25 16:53:51.139,0.002546647990619,22.30156984632265
2025-07-25 16:53:51.147,0.0029001971739313,7.0410347810235
2025-07-25 16:53:51.155,0.0032346522950572,-6.9539354574635786
2025-07-25 16:53:51.162,0.0035473138809131,-19.72152053407612
2025-07-25 16:53:51.170,0.0038359014972045,-31.3550586359448
2025-07-25 16:53:51.178,0.0040985819195114,-41.99804080211362
2025-07-25 16:53:51.186,0.0043339783253048,-51.83713845399149
2025-07-25 16:53:51.194,0.0045411621371157,-61.09352787369029
2025-07-25 16:53:51.201,0.0047196301254678,-70.01284994309462
2025-07-25 16:53:51.209,0.0048692701919197,-78.85420317777775
2025-07-25 16:53:51.217,0.0049903198180894,-87.87860998766129
2025-07-25 16:53:51.225,0.0050833214579323,-97.33741802005828
2025-07-25 16:53:51.233,0.0051490791490627,-107.46109921230126
2025-07-25 16:53:51.240,0.0051886202454564,-118.44888875072682
2025-07-25 16:53:51.248,0.0052031653509262,-130.4596656990395
2025-07-25 16:53:51.256,0.0051941083214829,-143.60441909949813
2025-07-25 16:53:51.264,0.0051630068242436,-157.9405715063565
2025-07-25 16:53:51.272,0.0051115826471444,-173.46835064973118
2025-07-25 16:53:51.280,0.0050417299237591,-190.12931394447395
2025-07-25 16:53:51.287,0.004955528728957,-207.80704409922845
2025-07-25 16:53:51.295,0.0048552610569322,-226.3299505588304
2025-07-25 16:53:51.303,0.0047434258975637,-245.47603358307495
2025-07-25 16:53:51.311,0.0046227499337503,-264.97939762331583
2025-07-25 16:53:51.319,0.0044961903859618,-284.53824026077064
2025-07-25 16:53:51.326,0.0043669268606029,-303.8239940898863
2025-07-25 16:53:51.334,0.0042383397200561,-322.49126313958755
2025-07-25 16:53:51.342,0.0041139733569542,-340.1881740617108
2025-07-25 16:53:51.350,0.0039974836974466,-356.5667564360759
2025-07-25 16:53:51.358,0.0038925702223873,-371.29297684002165
2025-07-25 16:53:51.366,0.0038028937494887,-384.056077952801
2025-07-25 16:53:51.373,0.0037319821288597,-394.5769161873302
2025-07-25 16:53:51.381,0.0036831268430854,-402.6150472436505
2025-07-25 16:53:51.389,0.0036592742383565,-407.9743753696922
2025-07-25 16:53:51.397,0.0036629157064157,-410.5072548250479
2025-07-25 16:53:51.405,0.0036959815608761,-410.1170064382552
2025-07-25 16:53:51.412,0.003759743574639,-406.7588836455789
2025-07-25 16:53:51.420,0.0038547311340606,-400.4395868627682
2025-07-25 16:53:51.428,0.003980665701776,-391.2154790374898
2025-07-25 16:53:51.436,0.004136417750995,-379.1896961862136
2025-07-25 16:53:51.444,0.0043199895553477,-364.5083730261972
2025-07-25 16:53:51.451,0.0045285262612217,-347.35621490302174
2025-07-25 16:53:51.459,0.0047583565839793,-327.95164358957635
2025-07-25 16:53:51.467,0.0050050632191193,-306.54172770666247
2025-07-25 16:53:51.475,0.005263581621067,-283.3970808490511
2025-07-25 16:53:51.483,0.0055283242806292,-258.8068749478323
2025-07-25 16:53:51.491,0.0057933262092401,-233.0740762013045
2025-07-25 16:53:51.498,0.0060524061546889,-206.51096930274127
2025-07-25 16:53:51.506,0.0062993371975747,-179.43499571098843
2025-07-25 16:53:51.514,0.006528019842408,-152.16489602247623
2025-07-25 16:53:51.522,0.0067326505442726,-125.01711733194612
2025-07-25 16:53:51.530,0.0069078788184907,-98.30242550704683
2025-07-25 16:53:51.537,0.0070489466784707,-72.32265065946989
2025-07-25 16:53:51.545,0.0071518051413259,-47.36749226754131
2025-07-25 16:53:51.553,0.0072132039249159,-23.71131826029789
2025-07-25 16:53:51.561,0.0072307521813436,-1.609909162764659
2025-07-25 16:53:51.569,0.0072029500093331,18.70287720553161
2025-07-25 16:53:51.576,0.0071291922851393,37.01851485350734
2025-07-25 16:53:51.584,0.0070097478063909,53.15725338141773
2025-07-25 16:53:51.592,0.0068457178158329,66.97152290586234
2025-07-25 16:53:51.600,0.0066389787501014,78.34919456296538
2025-07-25 16:53:51.608,0.0063921144953164,87.21656408661465
2025-07-25 16:53:51.616,0.0061083432699826,93.54090698542632
2025-07-25 16:53:51.623,0.0057914432974972,97.33244493326688
2025-07-25 16:53:51.631,0.0054456798363992,98.64556529928284
2025-07-25 16:53:51.639,0.0050757343831756,97.57914941721084
2025-07-25 16:53:51.647,0.0046866353967789,94.27588956006262
2025-07-25 16:53:51.655,0.0042836889116701,88.92050839056172
2025-07-25 16:53:51.662,0.0038724069462002,81.73683614138194
2025-07-25 16:53:51.670,0.0034584316959795,72.98374765564597
2025-07-25 16:53:51.678,0.0030474541072496,62.95001093028195
2025-07-25 16:53:51.686,0.0026451264335694,51.94814796259863
2025-07-25 16:53:51.694,0.0022569695810956,40.30745461088913
2025-07-25 16:53:51.701,0.0018882771896226,28.366366328816795
2025-07-25 16:53:51.709,0.0015440192485486,16.4643890536475
2025-07-25 16:53:51.717,0.0012287484707038,4.933837863156407
2025-07-25 16:53:51.725,0.0009465126222646,-5.908360496002421
2025-07-25 16:53:51.733,0.0007007756269612,-15.768541693743956
2025-07-25 16:53:51.741,0.0004943496823777,-24.383601448245976
2025-07-25 16:53:51.748,0.0003293399598089,-31.527479371753348
2025-07-25 16:53:51.756,0.0002071027449222,-37.01661589218679
2025-07-25 16:53:51.764,0.0001282171558418,-40.71420076566279
2025-07-25 16:53:51.772,9.24699568279771e-05,-42.53306970825447
2025-07-25 16:53:51.780,9.885260973194491e-05,-42.43714887379628
2025-07-25 16:53:51.787,0.0001455696587007,-40.44139401663011
2025-07-25 16:53:51.795,0.0002300577980759,-36.6102207810977
2025-07-25 16:53:51.803,0.0003490154092319,-31.05447303167143
2025-07-25 16:53:51.811,0.0004984428381352,-23.927025658698778
2025-07-25 16:53:51.819,0.0006736941064257,-15.417164914758796
2025-07-25 16:53:51.826,0.0008695409782179,-5.74393110229657
2025-07-25 16:53:51.834,0.00108025023156,4.851356457826288
2025-07-25 16:53:51.842,0.0012996745867201,16.113145295991888
2025-07-25 16:53:51.850,0.0015213570939364,27.78000190525881
2025-07-25 16:53:51.858,0.0017386479715202,39.592997603031584
2025-07-25 16:53:51.866,0.0019448319972584,51.30385766411162
2025-07-25 16:53:51.873,0.0021332636976819,62.68261480240244
2025-07-25 16:53:51.881,0.0022975068354066,73.52452842725963
2025-07-25 16:53:51.889,0.0024314740712833,83.656059177711
2025-07-25 16:53:51.897,0.0025295622068962,92.9397227505772
2025-07-25 16:53:51.905,0.0025867782830918,101.27768655034087
2025-07-25 16:53:51.912,0.0025988522214541,108.61401568856124
2025-07-25 16:53:51.920,0.0025623325927654,114.93551981277436
2025-07-25 16:53:51.928,0.0024746632191304,120.2711976254585
2025-07-25 16:53:51.936,0.0023342394604711,124.69032028675213
2025-07-25 16:53:51.944,0.0021404441088495,128.2992367913213
2025-07-25 16:53:51.951,0.0018936637132203,131.23702261101118
2025-07-25 16:53:51.959,0.0015952867574371,133.67012631093894
2025-07-25 16:53:51.967,0.0012476853513362,135.78619658684354
2025-07-25 16:53:51.975,0.0008541819881385,137.78729355948616
2025-07-25 16:53:51.983,0.0004190025353789,139.88270273322937
2025-07-25 16:53:51.991,-5.278395497519822e-05,142.2815775097211
2025-07-25 16:53:51.998,-0.0005553386875107,145.18563644798616
2025-07-25 16:53:52.006,-0.0010821404255075,148.78213466540433
2025-07-25 16:53:52.014,-0.0016260874626306,153.23731519328544
2025-07-25 16:53:52.022,-0.0021796147970979,158.69052633806854
2025-07-25 16:53:52.030,-0.0027348263386126,165.2491660892106
2025-07-25 16:53:52.037,-0.0032836410249095,172.98458563308404
2025-07-25 16:53:52.045,-0.0038179507399268,181.9290526484731
2025-07-25 16:53:52.053,-0.004329787110345,192.0738429625575
2025-07-25 16:53:52.061,-0.0048114937064055,203.3684977744797
2025-07-25 16:53:52.069,-0.0052558998238791,215.72125377284996
2025-07-25 16:53:52.076,-0.005656491739943,229.00062505246885
2025-07-25 16:53:52.084,-0.0060075770290656,243.03808826201092
2025-07-25 16:53:52.092,-0.0063044371933074,257.6317953938326
2025-07-25 16:53:52.100,-0.006543463571006,272.55121193031454
2025-07-25 16:53:52.108,-0.0067222713599215,287.5425520479689
2025-07-25 16:53:52.116,-0.0068397867482452,302.3348580930894
2025-07-25 16:53:52.123,-0.006896302627286,316.6465498431497
2025-07-25 16:53:52.131,-0.0068934990976496,330.1922517416296
2025-07-25 16:53:52.139,-0.0068344258891461,342.6896951002795
2025-07-25 16:53:52.147,-0.0067234448832327,353.8664888775189
2025-07-25 16:53:52.155,-0.0065661322154435,363.4665582543104
2025-07-25 16:53:52.162,-0.0063691409519545,371.2560651244048
2025-07-25 16:53:52.170,-0.0061400269685463,377.0286479862404
2025-07-25 16:53:52.178,-0.0058870422493544,380.6098488353507
2025-07-25 16:53:52.186,-0.0056189012162673,381.86062924658125
2025-07-25 16:53:52.194,-0.005344526773644,380.6799145209552
2025-07-25 16:53:52.201,-0.0050727834561754,377.00614133964905
2025-07-25 16:53:52.209,-0.0048122054712584,370.817818935176
2025-07-25 16:53:52.217,-0.0045707276724361,362.1331448694268
2025-07-25 16:53:52.225,-0.0043554276584739,351.008743029554
2025-07-25 16:53:52.233,-0.0041722872027723,337.53761278679013
2025-07-25 16:53:52.241,-0.0040259809811693,321.8463942166838
2025-07-25 16:53:52.248,-0.0039197000306562,304.09206500795915
2025-07-25 16:53:52.256,-0.0038550165133105,284.45819054925096
2025-07-25 16:53:52.264,-0.0038317951855117,263.1508501142669
2025-07-25 16:53:52.272,-0.0038481555475709,240.3943595260919
2025-07-25 16:53:52.280,-0.0039004870482827,216.42690464717413
2025-07-25 16:53:52.287,-0.0039835179996725,191.49619101365735
2025-07-25 16:53:52.295,-0.0040904371283089,165.8552034440463
2025-07-25 16:53:52.303,-0.0042130651045191,139.75815607472012
2025-07-25 16:53:52.311,-0.004342072020776,113.45669861973089
2025-07-25 16:53:52.319,-0.0044672355859531,87.19642935976167
2025-07-25 16:53:52.326,-0.0045777336883378,61.213750085649565
2025-07-25 16:53:52.334,-0.0046624639263909,35.73308359621643
2025-07-25 16:53:52.342,-0.004710381717438,10.96446098901131
2025-07-25 16:53:52.350,-0.0047108476916661,-12.89852555799647
2025-07-25 16:53:52.358,-0.0046539742934666,-35.68041806792773
2025-07-25 16:53:52.366,-0.0045309608858908,-57.22525628636816
2025-07-25 16:53:52.373,-0.0043344062425255,-77.3976334295613
2025-07-25 16:53:52.381,-0.0040585872090588,-96.08346913997696
2025-07-25 16:53:52.389,-0.0036996926909378,-113.1905229904298
2025-07-25 16:53:52.397,-0.0032560031784029,-128.64866798750754
2025-07-25 16:53:52.405,-0.0027280078652289,-142.40993797434913
2025-07-25 16:53:52.412,-0.0021184539532569,-154.44835642130172
2025-07-25 16:53:52.420,-0.0014323256649557,-164.75954780573136
2025-07-25 16:53:52.428,-0.0006767534335385,-173.360127724655
2025-07-25 16:53:52.436,0.0001391435758384,-180.28686513320045
2025-07-25 16:53:52.444,0.0010044760921796,-185.59561045192984
2025-07-25 16:53:52.451,0.0019068568556729,-189.3599869709809
2025-07-25 16:53:52.459,0.0028327166710314,-191.66984955566295
2025-07-25 16:53:52.467,0.0037676533050351,-192.629523137913
2025-07-25 16:53:52.475,0.0046968010678629,-192.355842613821
2025-07-25 16:53:52.483,0.0056052083881175,-190.97602433872592
2025-07-25 16:53:52.491,0.0064782108097838,-188.62540642689157
2025-07-25 16:53:52.498,0.0073017877089159,-185.445099875596
2025-07-25 16:53:52.506,0.0080628925862167,-181.5795948810175
2025-07-25 16:53:52.514,0.0087497487484843,-177.17436669532665
2025-07-25 16:53:52.522,0.0093521041573489,-172.3735233853193
2025-07-25 16:53:52.530,0.009861440920882,-167.31753448106207
2025-07-25 16:53:52.537,0.0102711362741778,-162.14107540672782
2025-07-25 16:53:52.545,0.0105765730189052,-156.971018365196
2025-07-25 16:53:52.553,0.0107751983588167,-151.92459644070655
2025-07-25 16:53:52.561,0.010866530955891,-147.10776430979365
2025-07-25 16:53:52.569,0.0108521169271765,-142.61377611618275
2025-07-25 16:53:52.576,0.010735436464067,-138.52199861914696
2025-07-25 16:53:52.584,0.0105217637930916,-134.8969754445038
2025-07-25 16:53:52.592,0.010217984316204,-131.78775594203552
2025-07-25 16:53:52.600,0.0098323739794837,-129.22749963255387
2025-07-25 16:53:52.608,0.0093743471754922,-127.23336443187068
2025-07-25 16:53:52.616,0.008854180660704,-125.80668374224348
2025-07-25 16:53:52.623,0.0082827219336164,-124.93343411441356
2025-07-25 16:53:52.631,0.0076710912062879,-124.58499153235364
2025-07-25 16:53:52.639,0.0070303864881817,-124.7191704841854
2025-07-25 16:53:52.647,0.0063714013226612,-125.28153586443156
2025-07-25 16:53:52.655,0.0057043642718509,-126.2069733877284
2025-07-25 16:53:52.662,0.0050387083066069,-127.4214995439774
2025-07-25 16:53:52.670,0.0043828769250412,-128.84428714106843
2025-07-25 16:53:52.678,0.003744172229224,-130.38987712088078
2025-07-25 16:53:52.686,0.0031286484237835,-131.97054158025244
2025-07-25 16:53:52.694,0.0025410523514358,-133.49875681306838
2025-07-25 16:53:52.701,0.0019848108696946,-134.8897388165538
2025-07-25 16:53:52.709,0.0014620631796188,-136.06398726661496
2025-07-25 16:53:52.717,0.0009737346304427,-136.94977774748216
2025-07-25 16:53:52.725,0.0005196470247576,-137.48553638558212
2025-07-25 16:53:52.733,9.865912691886212e-05,-137.62202642030982
2025-07-25 16:53:52.741,-0.0002911699039934,-137.3242731351547
2025-07-25 16:53:52.748,-0.000652401971982,-136.57315250217914
2025-07-25 16:53:52.756,-0.0009880342847584,-135.36657040645906
2025-07-25 16:53:52.764,-0.0013013139109472,-133.7201639368874
2025-07-25 16:53:52.772,-0.0015955594682924,-131.66746440702124
2025-07-25 16:53:52.780,-0.0018739958074192,-129.2594738279281
2025-07-25 16:53:52.787,-0.0021396065088869,-126.5636226256696
2025-07-25 16:53:52.795,-0.0023950079830499,-123.66209635416875
2025-07-25 16:53:52.803,-0.0026423480728305,-120.64954256265672
2025-07-25 16:53:52.811,-0.002883231381345,-117.63019504837617
2025-07-25 16:53:52.819,-0.0031186729892195,-114.71448031409852
2025-07-25 16:53:52.826,-0.0033490815472669,-112.01519868806211
2025-07-25 16:53:52.834,-0.0035742717256808,-109.64339854753824
2025-07-25 16:53:52.842,-0.0037935046989567,-107.70408461171333
2025-07-25 16:53:52.850,-0.0040055540000343,-106.29191859497764
2025-07-25 16:53:52.858,-0.004208792954349,-105.48708113681148
2025-07-25 16:53:52.866,-0.0044012990763818,-105.3514667430547
2025-07-25 16:53:52.873,-0.0045809701905943,-105.925377888499
2025-07-25 16:53:52.881,-0.0047456465763918,-107.22487040998378
2025-07-25 16:53:52.889,-0.0048932331947626,-109.23988038521216
2025-07-25 16:53:52.897,-0.0050218161172987,-111.93323385866545
2025-07-25 16:53:52.905,-0.0051297676813267,-115.24060644798924
2025-07-25 16:53:52.912,-0.0052158356108028,-119.07146173147066
2025-07-25 16:53:52.920,-0.0052792122885541,-123.31095724790106
2025-07-25 16:53:52.928,-0.005319581448298,-127.8227668801304
2025-07-25 16:53:52.936,-0.0053371407225777,-132.45273026235336
2025-07-25 16:53:52.944,-0.0053325996878765,-137.03320543489698
2025-07-25 16:53:52.951,-0.0053071542004571,-141.38797182747774
2025-07-25 16:53:52.959,-0.0052624388550575,-145.3375080465108
2025-07-25 16:53:52.967,-0.0052004603577015,-148.70445380686672
2025-07-25 16:53:52.975,-0.0051235155138972,-151.31905826731438
2025-07-25 16:53:52.983,-0.0050340983060755,-153.02441822775302
2025-07-25 16:53:52.991,-0.0049348010131319,-153.6813189914054
2025-07-25 16:53:52.998,-0.0048282144099864,-153.17250769875716
2025-07-25 16:53:53.006,-0.0047168317886194,-151.40625277567514
2025-07-25 16:53:53.014,-0.0046029609887033,-148.31907266880137
2025-07-25 16:53:53.022,-0.0044886479939488,-143.87755086737715
2025-07-25 16:53:53.030,-0.0043756150412791,-138.07919074041018
2025-07-25 16:53:53.037,-0.0042652155503092,-130.95230125742705
2025-07-25 16:53:53.045,-0.0041584073845664,-122.55494151128585
2025-07-25 16:53:53.053,-0.0040557449559761,-112.9729865113434
2025-07-25 16:53:53.061,-0.0039573895782577,-102.31740751877253
2025-07-25 16:53:53.069,-0.0038631364441948,-90.72088603908026
2025-07-25 16:53:53.076,-0.0037724557865267,-78.3339005442195
2025-07-25 16:53:53.084,-0.003684545234102,-65.3204384688663
2025-07-25 16:53:53.092,-0.0035983901040674,-51.85349275123363
2025-07-25 16:53:53.100,-0.0035128283513681,-38.11050223049213
2025-07-25 16:53:53.108,-0.0034266170468954,-24.268888924265493
2025-07-25 16:53:53.116,-0.0033384975160616,-10.501833196481948
2025-07-25 16:53:53.123,-0.0032472566706868,3.0255890964624363
2025-07-25 16:53:53.131,-0.0031517826307622,16.15980424480879
2025-07-25 16:53:53.139,-0.0030511133587917,28.761593559722428
2025-07-25 16:53:53.147,-0.0029444775477841,40.70834729822984
2025-07-25 16:53:53.155,-0.0028313272986742,51.895691333286415
2025-07-25 16:53:53.162,-0.0027113621903264,62.23848352387725
2025-07-25 16:53:53.170,-0.0025845442937231,71.67120032265443
2025-07-25 16:53:53.178,-0.0024511036737505,80.14775511862487
2025-07-25 16:53:53.186,-0.0023115340487232,87.64080736699184
2025-07-25 16:53:53.194,-0.0021665785080584,94.1406351338551
2025-07-25 16:53:53.201,-0.0020172054817007,99.65365295185612
2025-07-25 16:53:53.209,-0.0018645755535157,104.20066177637308
2025-07-25 16:53:53.217,-0.0017100002473516,107.81491853321576
2025-07-25 16:53:53.225,-0.0015548944967561,110.5401096561954
2025-07-25 16:53:53.233,-0.0014007249723729,112.42830668803543
2025-07-25 16:53:53.241,-0.0012489566655009,113.5379731264856
2025-07-25 16:53:53.248,-0.0011010000751659,113.93208095095132
2025-07-25 16:53:53.256,-0.0009581610551664,113.676383367722
2025-07-25 16:53:53.264,-0.0008215949649011,112.83787791577356
2025-07-25 16:53:53.272,-0.0006922664020618,111.48348175256716
2025-07-25 16:53:53.280,-0.0005709155929385,109.67892917936334
2025-07-25 16:53:53.287,-0.0004580324725267,107.48789068357964
2025-07-25 16:53:53.295,-0.0003538394927864,104.97130332105488
2025-07-25 16:53:53.303,-0.0002582840978814,102.1868944168054
2025-07-25 16:53:53.311,-0.0001710415120391,99.18887453898134
2025-07-25 16:53:53.319,-9.152806782920316e-05,96.0277716252564
2025-07-25 16:53:53.326,-1.892488185258109e-05,92.75037605134742
2025-07-25 16:53:53.334,4.778873516436083e-05,89.39976626951504
2025-07-25 16:53:53.342,0.00010979324244,86.01538625684476
2025-07-25 16:53:53.350,0.0001683798737226,82.63314915595416
2025-07-25 16:53:53.358,0.0002248968389486,79.2855458462383
2025-07-25 16:53:53.366,0.0002806931839659,76.0017423789986
2025-07-25 16:53:53.373,0.0003370628554144,72.8076558434686
2025-07-25 16:53:53.381,0.0003951914182995,69.7260039005269
2025-07-25 16:53:53.389,0.0004561076904221,66.77632855045505
2025-07-25 16:53:53.397,0.000520642414693,63.97499936592017
2025-07-25 16:53:53.405,0.000589395962661,61.335205168866736
2025-07-25 16:53:53.412,0.0006627167563443,58.86694578878074
2025-07-25 16:53:53.420,0.0007406915022975,56.57703701795285
2025-07-25 16:53:53.428,0.0008231475837903,54.46914215822068
2025-07-25 16:53:53.436,0.0009096672554795,52.54384268183022
2025-07-25 16:53:53.444,0.0009996126843046,50.79875861597342
2025-07-25 16:53:53.451,0.0010921603182609,49.22872646731637
2025-07-25 16:53:53.459,0.0011863425531938,47.82603903232974
2025-07-25 16:53:53.467,0.0012810943360047,46.58074752812006
2025-07-25 16:53:53.475,0.001375302266117,45.48102238820564
2025-07-25 16:53:53.483,0.001467853858229,44.51356507084148
2025-07-25 16:53:53.491,0.0015576847883459,43.66405958918039
2025-07-25 16:53:53.498,0.0016438221223498,42.91764943014998
2025-07-25 16:53:53.506,0.0017254217536268,42.25942327302317
2025-07-25 16:53:53.514,0.001801798580012,41.67489157872144
2025-07-25 16:53:53.522,0.0018724483236796,41.15043575943909
2025-07-25 16:53:53.530,0.0019370603272932,40.67371225408854
2025-07-25 16:53:53.537,0.0019955211100557,40.233995372169645
2025-07-25 16:53:53.545,0.002047908854466,39.822445126341904
2025-07-25 16:53:53.553,0.0020944792700857,39.432289318470346
2025-07-25 16:53:53.561,0.0021356435185736,39.058912719182494
2025-07-25 16:53:53.569,0.002171939197697,38.699850117978166
2025-07-25 16:53:53.576,0.0022039957678918,38.35468414553654
2025-07-25 16:53:53.584,0.002232496143829,38.024852908325386
2025-07-25 16:53:53.592,0.0022581363842475,37.71337645513211
2025-07-25 16:53:53.600,0.0022815855312414,37.424514739962845
2025-07-25 16:53:53.608,0.0023034477179115,37.16337287464544
2025-07-25 16:53:53.616,0.0023242286325399,36.9354718967531
2025-07-25 16:53:53.623,0.0023443082252649,36.74630485197543
2025-07-25 16:53:53.631,0.0023639211500594,36.600898585850885
2025-07-25 16:53:53.639,0.0023831458639407,36.50340120316656
2025-07-25 16:53:53.647,0.0024019026081325,36.45671370475381
2025-07-25 16:53:53.655,0.0024199598030195,36.4621819472058
2025-07-25 16:53:53.662,0.0024369478465021,36.51936195425894
2025-07-25 16:53:53.670,0.0024523789630842,36.62586794697102
2025-07-25 16:53:53.678,0.0024656715756512,36.77730847587187
2025-07-25 16:53:53.686,0.0024761776407565,36.96731194520863
2025-07-25 16:53:53.694,0.0024832114956101,37.18763881152606
2025-07-25 16:53:53.701,0.0024860789687379,37.42837399088156
2025-07-25 16:53:53.709,0.0024841057243192,37.678189676416245
2025-07-25 16:53:53.717,0.0024766639664687,37.92466598334877
2025-07-25 16:53:53.725,0.0024631967161918,38.15465470551132
2025-07-25 16:53:53.733,0.0024432389613964,38.35467005849375
2025-07-25 16:53:53.741,0.0024164351196972,38.51128964334627
2025-07-25 16:53:53.748,0.0023825524029877,38.61154901223725
2025-07-25 16:53:53.756,0.0023414897904754,38.64331414891398
2025-07-25 16:53:53.764,0.002293282449349,38.59561785361664
2025-07-25 16:53:53.772,0.0022381016356357,38.4589483615792
2025-07-25 16:53:53.780,0.0021762503149178,38.225481394163744
2025-07-25 16:53:53.787,0.0021081548889353,37.88925006213526
2025-07-25 16:53:53.795,0.0020343534757371,37.44625039583518
2025-07-25 16:53:53.803,0.0019554811738637,36.89448353654006
2025-07-25 16:53:53.811,0.0018722526804293,36.23393856760653
2025-07-25 16:53:53.819,0.0017854426136886,35.46652240774471
2025-07-25 16:53:53.826,0.0016958639683928,34.59594499578752
2025-07-25 16:53:53.834,0.0016043452614367,33.62756908756
2025-07-25 16:53:53.842,0.0015117070307529,32.568234343443585
2025-07-25 16:53:53.850,0.0014187384051515,31.42606505553705
2025-07-25 16:53:53.858,0.0013261744676733,30.210269949119184
2025-07-25 16:53:53.866,0.0012346751185717,28.93094114194371
2025-07-25 16:53:53.873,0.0011448061828425,27.59885773117654
2025-07-25 16:53:53.881,0.0010570236423628,26.225297784647367
2025-07-25 16:53:53.889,0.0009716620169871,24.82186091385298
2025-07-25 16:53:53.897,0.0008889279193498,23.400302246032783
2025-07-25 16:53:53.905,0.0008088995860309,21.972377593715898
2025-07-25 16:53:53.912,0.0007315327850777,20.549698993023235
2025-07-25 16:53:53.920,0.0006566730026055,19.1435995440752
2025-07-25 16:53:53.928,0.000584073271099,17.765006585014763
2025-07-25 16:53:53.936,0.0005134164726118,16.424322570852254
2025-07-25 16:53:53.944,0.0004443405544791,15.131313492831564
2025-07-25 16:53:53.951,0.0003764649627925,13.895005151788837
2025-07-25 16:53:53.959,0.0003094167316456,12.72358800822633
2025-07-25 16:53:53.967,0.0002428549386039,11.624331630719611
2025-07-25 16:53:53.975,0.0001764925298906,10.6035099452896
2025-07-25 16:53:53.983,0.0001101147886424,9.66633856455804
2025-07-25 16:53:53.991,4.359395117140911e-05,8.816925467047273
2025-07-25 16:53:53.998,-2.3100343396887056e-05,8.058236220702458
2025-07-25 16:53:54.006,-8.989495501441478e-05,7.392074805982815
2025-07-25 16:53:54.014,-0.0001566115992072,6.819080883201345
2025-07-25 16:53:54.022,-0.0002229697009108,6.33874404792826
2025-07-25 16:53:54.030,-0.0002885936739278,5.949435215488808
2025-07-25 16:53:54.037,-0.0003530243391758,5.648454780794907
2025-07-25 16:53:54.045,-0.0004157339333328,5.432096648096842
2025-07-25 16:53:54.053,-0.0004761439348208,5.2957266676361
2025-07-25 16:53:54.061,-0.0005336447805023,5.23387350531604
2025-07-25 16:53:54.069,-0.0005876164747849,5.240329550855296
2025-07-25 16:53:54.076,-0.0006374491114895,5.30825916697957
2025-07-25 16:53:54.084,-0.000682562433049,5.430311406208983
2025-07-25 16:53:54.092,-0.0007224237342072,5.598734266676099
2025-07-25 16:53:54.100,-0.0007565636476738,5.805487611358363
2025-07-25 16:53:54.108,-0.0007845895471722,6.042352026108976
2025-07-25 16:53:54.116,-0.0008061964178783,6.301031138279033
2025-07-25 16:53:54.123,-0.0008211751247392,6.573245261220408
2025-07-25 16:53:54.131,-0.0008294181282193,6.850814670240018
2025-07-25 16:53:54.139,-0.0008309228509771,7.125731347942786
2025-07-25 16:53:54.147,-0.000825793018606,7.390218653812965
2025-07-25 16:53:54.155,-0.0008142383096766,7.636779061789895
2025-07-25 16:53:54.162,-0.0007965725287947,7.858230844126422
2025-07-25 16:53:54.170,-0.0007732103046463,8.04773531212931
2025-07-25 16:53:54.178,-0.0007446621027444,8.198816886974557
2025-07-25 16:53:54.186,-0.0007115272193531,8.305378790540379
2025-07-25 16:53:54.194,-0.0006744844317442,8.361717445894062
2025-07-25 16:53:54.201,-0.0006342800936256,8.362538704451849
2025-07-25 16:53:54.209,-0.0005917136089981,8.30297874156689
2025-07-25 16:53:54.217,-0.0005476203223404,8.178631886618525
2025-07-25 16:53:54.225,-0.0005028519281723,7.985586815529886
2025-07-25 16:53:54.233,-0.0004582546318634,7.720471502695998
2025-07-25 16:53:54.241,-0.0004146456019509,7.380506197800405
2025-07-25 16:53:54.248,-0.0003727887267358,6.963562565282995
2025-07-25 16:53:54.256,-0.0003333711565808,6.468226106424323
2025-07-25 16:53:54.264,-0.0002969823768135,5.893858172740493
2025-07-25 16:53:54.272,-0.0002640974948483,5.240653349062082
2025-07-25 16:53:54.280,-0.0002350660380697,4.509687777469463
2025-07-25 16:53:54.287,-0.0002101069585525,3.7029541174379066
2025-07-25 16:53:54.295,-0.0001893099000965,2.8233792736879075
2025-07-25 16:53:54.303,-0.0001726422334797,1.874821731345583
2025-07-25 16:53:54.311,-0.0001599609539564,0.8620462624246175
2025-07-25 16:53:54.319,-0.0001510282752981,-0.2093251575636009
2025-07-25 16:53:54.327,-0.0001455296558727,-1.3328862285960523
2025-07-25 16:53:54.334,-0.0001430930467115,-2.5015418394972717
2025-07-25 16:53:54.342,-0.0001433083462695,-3.707623943633
2025-07-25 16:53:54.350,-0.000145746337147,-4.943024536033463
2025-07-25 16:53:54.358,-0.0001499766438773,-6.199341665256013
2025-07-25 16:53:54.366,-0.0001555843565213,-7.4680338401249
2025-07-25 16:53:54.373,-0.0001621849057656,-8.740577880778488
2025-07-25 16:53:54.381,-0.000169436670172,-10.008625221103747
2025-07-25 16:53:54.389,-0.000177050755589,-11.264151879178533
2025-07-25 16:53:54.397,-0.000184797443914,-12.499597740023525
2025-07-25 16:53:54.405,-0.0001925089613331,-13.707991395498182
2025-07-25 16:53:54.412,-0.0002000784327587,-14.883057508353504
2025-07-25 16:53:54.420,-0.0002074550869591,-16.019304458819107
2025-07-25 16:53:54.428,-0.0002146359012656,-17.112090841850513
2025-07-25 16:53:54.436,-0.0002216539707782,-18.157670164444248
2025-07-25 16:53:54.444,-0.0002285640277163,-19.15321380491716
2025-07-25 16:53:54.452,-0.0002354257448422,-20.096812907362303
2025-07-25 16:53:54.459,-0.0002422857312241,-20.987460370382856
2025-07-25 16:53:54.467,-0.0002491594591071,-21.825014435320664
2025-07-25 16:53:54.475,-0.0002560146916895,-22.610145584900103
2025-07-25 16:53:54.483,-0.0002627581923779,-23.34426854412961
2025-07-25 16:53:54.491,-0.0002692274321533,-24.02946116285091
2025-07-25 16:53:54.498,-0.0002751885928944,-24.66837189653216
2025-07-25 16:53:54.506,-0.0002803414795337,-25.26411753412964
2025-07-25 16:53:54.514,-0.0002843311818969,-25.820172784863427
2025-07-25 16:53:54.522,-0.0002867656021306,-26.34025334898719
2025-07-25 16:53:54.530,-0.0002872373807784,-26.82819416745305
2025-07-25 16:53:54.537,-0.0002853484146445,-27.28782467396079
2025-07-25 16:53:54.545,-0.0002807351119613,-27.722843062460694
2025-07-25 16:53:54.553,-0.0002730927014829,-28.136691830062517
2025-07-25 16:53:54.561,-0.000262197151379,-28.53243713967793
2025-07-25 16:53:54.569,-0.000247923473607,-28.912654829538567
2025-07-25 16:53:54.577,-0.0002302594221782,-29.279326127144124
2025-07-25 16:53:54.584,-0.0002093138776258,-29.63374625197681
2025-07-25 16:53:54.592,-0.0001853194961999,-29.976449072179516
2025-07-25 16:53:54.600,-0.0001586294424659,-30.307150788674253
2025-07-25 16:53:54.608,-0.0001297082575885,-30.62471524926765
2025-07-25 16:53:54.616,-9.9117182482015e-05,-30.92714295977052
2025-07-25 16:53:54.623,-6.749450764137951e-05,-31.21158519187999
2025-07-25 16:53:54.631,-3.553171240498871e-05,-31.474383832141797
2025-07-25 16:53:54.639,-3.946325758166261e-06,-31.711136818045546
2025-07-25 16:53:54.647,2.6547371343361617e-05,-31.91678820769524
2025-07-25 16:53:54.655,5.526852331024107e-05,-32.085741166112975
2025-07-25 16:53:54.662,8.159939588219773e-05,-32.21199145905032
2025-07-25 16:53:54.670,0.000105013184155,-32.28927845542537
2025-07-25 16:53:54.678,0.0001250984826143,-32.311250177484496
2025-07-25 16:53:54.686,0.000141579004932,-32.27163862206429
2025-07-25 16:53:54.694,0.0001543273753236,-32.164441416960074
2025-07-25 16:53:54.702,0.0001633722392031,-31.9841058686814
2025-07-25 16:53:54.709,0.0001688984297035,-31.725711574202204
2025-07-25 16:53:54.717,0.0001712403582042,-31.38514795873525
2025-07-25 16:53:54.725,0.0001708691287917,-30.95928330284525
2025-07-25 16:53:54.733,0.0001683741020935,-30.446121984269016
2025-07-25 16:53:54.741,0.0001644397772956,-29.844946756591685
2025-07-25 16:53:54.748,0.0001598189973215,-29.156442920286946
2025-07-25 16:53:54.756,0.0001553036586042,-28.382801236036784
2025-07-25 16:53:54.764,0.0001516942717949,-27.52779642607072
2025-07-25 16:53:54.772,0.0001497697936781,-26.596838154965525
2025-07-25 16:53:54.780,0.000150259104465,-25.596991521760955
2025-07-25 16:53:54.787,0.0001538153342807,-24.536964359589724
2025-07-25 16:53:54.795,0.000160993952602,-23.42705903668857
2025-07-25 16:53:54.803,0.0001722351702217,-22.279086979053744
2025-07-25 16:53:54.811,0.0001878508499141,-21.106244782496223
2025-07-25 16:53:54.819,0.0002080158629562,-19.92295154899791
2025-07-25 16:53:54.827,0.0002327637003464,-18.744647975095997
2025-07-25 16:53:54.834,0.0002619861163212,-17.58755874394694
2025-07-25 16:53:54.842,0.00029543656705,-16.468420920694253
2025-07-25 16:53:54.850,0.0003327371332878,-15.404182294419478
2025-07-25 16:53:54.858,0.0003733884786657,-14.411674897235953
2025-07-25 16:53:54.866,0.0004167822962527,-13.507270191351529
2025-07-25 16:53:54.873,0.0004622157511324,-12.70652356896303
2025-07-25 16:53:54.881,0.0005089076285519,-12.023816779136888
2025-07-25 16:53:54.889,0.0005560161150603,-11.472007608350747
2025-07-25 16:53:54.897,0.0006026582540616,-11.062096535901905
2025-07-25 16:53:54.905,0.0006479310872982,-10.802920117070574
2025-07-25 16:53:54.912,0.0006909343184917,-10.700880494172848
2025-07-25 16:53:54.920,0.0007307940519023,-10.75971970572184
2025-07-25 16:53:54.928,0.0007666868843933,-10.980346393692251
2025-07-25 16:53:54.936,0.0007978634934945,-11.360721159427728
2025-07-25 16:53:54.944,0.0008236708723796,-11.895805265722911
2025-07-25 16:53:54.952,0.0008435724048205,-12.577575704996676
2025-07-25 16:53:54.959,0.0008571649756374,-13.395107922215027
2025-07-25 16:53:54.967,0.0008641923168505,-14.334725750863493
2025-07-25 16:53:54.975,0.0008645538448562,-15.38021642632968
2025-07-25 16:53:54.983,0.0008583083108304,-16.5131069039228
2025-07-25 16:53:54.991,0.0008456716321944,-17.712996141507176
2025-07-25 16:53:54.998,0.0008270083838641,-18.95793652260786
2025-07-25 16:53:55.006,0.0008028167528058,-20.224856213094714
2025-07-25 16:53:55.014,0.0007737073580748,-21.49001299065296
2025-07-25 16:53:55.022,0.0007403770882069,-22.72946900220369
2025-07-25 16:53:55.030,0.0007035797343483,-23.919575043685576
2025-07-25 16:53:55.037,0.0006640954572777,-25.037452375378663
2025-07-25 16:53:55.045,0.0006227010089262,-26.061459831265346
2025-07-25 16:53:55.053,0.0005801423300169,-26.97163408513892
2025-07-25 16:53:55.061,0.0005371108288031,-27.75009141860283
2025-07-25 16:53:55.069,0.0004942243135435,-28.381380204616075
2025-07-25 16:53:55.077,0.0004520131507883,-28.852774568018013
2025-07-25 16:53:55.084,0.0004109117714707,-29.15450128491232
2025-07-25 16:53:55.092,0.0003712552313313,-29.27989388817264
2025-07-25 16:53:55.100,0.0003332802388269,-29.225470090910516
2025-07-25 16:53:55.108,0.0002971299318038,-28.9909309434946
2025-07-25 16:53:55.116,0.0002628616823741,-28.579082511808828
2025-07-25 16:53:55.123,0.0002304572581592,-27.99568320942449
2025-07-25 16:53:55.131,0.0001998346860884,-27.24922214304716
2025-07-25 16:53:55.139,0.0001708611154081,-26.35063585980447
2025-07-25 16:53:55.147,0.0001433658900112,-25.31297265224001
2025-07-25 16:53:55.155,0.0001171529920168,-24.15101502950636
2025-07-25 16:53:55.162,9.201208304985092e-05,-22.88087205502154
2025-07-25 16:53:55.170,6.772757441375212e-05,-21.519553941699183
2025-07-25 16:53:55.178,4.408546040378761e-05,-20.08454155773317
2025-07-25 16:53:55.186,2.0877962093161693e-05,-18.59336331942334
2025-07-25 16:53:55.194,-2.0937363137259105e-06,-17.06319134436421
2025-07-25 16:53:55.202,-2.5018262218270677e-05,-15.510467740820848
2025-07-25 16:53:55.209,-4.80739233537647e-05,-13.950570569594484
2025-07-25 16:53:55.217,-7.142925254044203e-05,-12.397527403108803
2025-07-25 16:53:55.225,-9.524376062908044e-05,-10.863782604293332
2025-07-25 16:53:55.233,-0.0001196683337842,-9.360022539792846
2025-07-25 16:53:55.241,-0.0001448446759224,-7.895061009551853
2025-07-25 16:53:55.248,-0.0001709033431224,-6.475785291631091
2025-07-25 16:53:55.256,-0.0001979602344242,-5.107161427320395
2025-07-25 16:53:55.264,-0.0002261117367074,-3.7922957472656766
2025-07-25 16:53:55.272,-0.0002554289137018,-2.532548183239669
2025-07-25 16:53:55.280,-0.000285951168932,-1.32769162738948
2025-07-25 16:53:55.287,-0.0003176798116253,-0.1761104949257318
2025-07-25 16:53:55.295,-0.000350571989158,0.9249692709746438
2025-07-25 16:53:55.303,-0.0003845354809588,1.9792272210524655
2025-07-25 16:53:55.311,-0.0004194248328467,2.990981393144706
2025-07-25 16:53:55.319,-0.0004550392908811,3.96491644838642
2025-07-25 16:53:55.327,-0.0004911230077895,4.905816096831356
2025-07-25 16:53:55.334,-0.0005273679665914,5.818308685822558
2025-07-25 16:53:55.342,-0.0005634198827961,6.706634308725442
2025-07-25 16:53:55.350,-0.0005988870149491,7.574441031089403
2025-07-25 16:53:55.358,-0.000633351463729,8.424616818356666
2025-07-25 16:53:55.366,-0.0006663822929896,9.25916248223783
2025-07-25 16:53:55.373,-0.0006975497041391,10.079109459427094
2025-07-25 16:53:55.381,-0.0007264395428301,10.884484540815048
2025-07-25 16:53:55.389,-0.0007526675814827,11.674321851151293
2025-07-25 16:53:55.397,-0.0007758931910751,12.446720523464862
2025-07-25 16:53:55.405,-0.0007958320690444,13.198944709822293
2025-07-25 16:53:55.412,-0.0008122676284447,13.92756090773362
2025-07-25 16:53:55.420,-0.0008250605958418,14.62860613959777
2025-07-25 16:53:55.428,-0.0008341563937495,15.297779369937803
2025-07-25 16:53:55.436,-0.0008395899640874,15.930647737597557
2025-07-25 16:53:55.444,-0.0008414877814677,16.52285875866686
2025-07-25 16:53:55.452,-0.0008400669540549,17.070349644457
2025-07-25 16:53:55.459,-0.0008356315527315,17.569545280318817
2025-07-25 16:53:55.467,-0.0008285665620791,18.01753720643283
2025-07-25 16:53:55.475,-0.0008193299599429,18.41223709124889
2025-07-25 16:53:55.483,-0.0008084433371012,18.75249963150104
2025-07-25 16:53:55.491,-0.0007964812429942,19.038211465620773
2025-07-25 16:53:55.498,-0.0007840592455459,19.27034444348085
2025-07-25 16:53:55.506,-0.0007718206147891,19.4509733360083
2025-07-25 16:53:55.514,-0.0007604215499965,19.58325967860665
2025-07-25 16:53:55.522,-0.0007505149277125,19.67140482701005
2025-07-25 16:53:55.530,-0.0007427326962332,19.7205763945388
2025-07-25 16:53:55.537,-0.0007376673139565,19.736812992085525
2025-07-25 16:53:55.545,-0.000735852934269,19.726912581023093
2025-07-25 16:53:55.553,-0.0007377472214109,19.698309764263392
2025-07-25 16:53:55.561,-0.0007437146623109,19.658946991639407
2025-07-25 16:53:55.569,-0.0007540120874466,19.617143980245537
2025-07-25 16:53:55.577,-0.0007687769775216,19.581468716219103
2025-07-25 16:53:55.584,-0.0007880190891321,19.56061230360796
2025-07-25 16:53:55.592,-0.0008116159094084,19.56326876440966
2025-07-25 16:53:55.600,-0.0008393123303364,19.59801978266224
2025-07-25 16:53:55.608,-0.0008707247176456,19.67322343160172
2025-07-25 16:53:55.616,-0.0009053493525604,19.796905216484102
2025-07-25 16:53:55.623,-0.0009425751194427,19.976649366539323
2025-07-25 16:53:55.631,-0.0009817002275694,20.21948824130082
2025-07-25 16:53:55.639,-0.0010219525768277,20.531787971257767
2025-07-25 16:53:55.647,-0.0010625131076988,20.919129000331235
2025-07-25 16:53:55.655,-0.0011025412353048,21.38618099279927
2025-07-25 16:53:55.662,-0.0011412013375214,21.93657255193169
2025-07-25 16:53:55.670,-0.0011776892143268,22.572757302646856
2025-07-25 16:53:55.678,-0.0012112574186037,23.295879040232037
2025-07-25 16:53:55.686,-0.0012412384221836,24.105639765231853
2025-07-25 16:53:55.694,-0.0012670647623922,25.00017543867067
2025-07-25 16:53:55.702,-0.0012882855350389,25.97594513554541
2025-07-25 16:53:55.709,-0.0013045787429873,27.027639888978044
2025-07-25 16:53:55.717,-0.0013157590751255,28.148117853127683
2025-07-25 16:53:55.725,-0.0013217807951932,29.328372432084976
2025-07-25 16:53:55.733,-0.0013227356361252,30.557539697084472
2025-07-25 16:53:55.741,-0.0013188458524715,31.82295072632401
2025-07-25 16:53:55.748,-0.0013104527658513,33.11023344166375
2025-07-25 16:53:55.756,-0.0012980012466431,34.40346709141674
2025-07-25 16:53:55.764,-0.0012820207248563,35.685390763586895
2025-07-25 16:53:55.772,-0.0012631035850013,36.93766525249709
2025-07-25 16:53:55.780,-0.0012418820944049,38.14118530821313
2025-07-25 16:53:55.787,-0.0012190051851384,39.276436866034174
2025-07-25 16:53:55.795,-0.0011951163519523,40.32389140959474
2025-07-25 16:53:55.803,-0.0011708336475381,41.264427318540136
2025-07-25 16:53:55.811,-0.0011467323668254,42.07976604969466
2025-07-25 16:53:55.819,-0.0011233306801172,42.75290944464269
2025-07-25 16:53:55.827,-0.0011010782885791,43.26856346494671
2025-07-25 16:53:55.834,-0.0010803480715059,43.61353331469009
2025-07-25 16:53:55.842,-0.0010614305627227,43.77707527084813
2025-07-25 16:53:55.850,-0.0010445309365725,43.7511916212628
2025-07-25 16:53:55.858,-0.00102976811871,43.53085688221485
2025-07-25 16:53:55.866,-0.0010171757331014,43.11416585960488
2025-07-25 16:53:55.873,-0.0010067047726942,42.50239700731839
2025-07-25 16:53:55.881,-0.0009982279826436,41.69998775962371
2025-07-25 16:53:55.889,-0.0009915458953084,40.71442188365504
2025-07-25 16:53:55.897,-0.0009863943244383,39.55603222531847
2025-07-25 16:53:55.905,-0.000982453059518,38.237725341812585
2025-07-25 16:53:55.912,-0.0009793555753611,36.774637296438826
2025-07-25 16:53:55.920,-0.0009766997065101,35.18373224367017
2025-07-25 16:53:55.928,-0.0009740592786722,33.48335729235671
2025-07-25 16:53:55.936,-0.000970996567235,31.69276846203991
2025-07-25 16:53:55.944,-0.0009670752391381,29.831643316716317
2025-07-25 16:53:55.952,-0.000961873281453,27.91959606190083
2025-07-25 16:53:55.959,-0.0009549954087568,25.97571053186656
2025-07-25 16:53:55.967,-0.0009460845027139,24.018105600665997
2025-07-25 16:53:55.975,-0.0009348316569914,22.06354616568133
2025-07-25 16:53:55.983,-0.0009209843794035,20.12711103163656
2025-07-25 16:53:55.991,-0.0009043525565566,18.221926832744288
2025-07-25 16:53:55.998,-0.0008848119844202,16.3589746483718
2025-07-25 16:53:56.006,-0.0008623055312405,14.54697328228952
2025-07-25 16:53:56.014,-0.000836842175075,12.79234038729186
2025-07-25 16:53:56.022,-0.0008084941736998,11.099229833277327
2025-07-25 16:53:56.030,-0.0007773925522877,9.469641045631462
2025-07-25 16:53:56.037,-0.0007437210851625,7.903593582394427
2025-07-25 16:53:56.045,-0.000707709080751,6.399358061456618
2025-07-25 16:53:56.053,-0.0006696234762011,4.953732768187794
2025-07-25 16:53:56.061,-0.0006297608546235,3.5623539313864385
2025-07-25 16:53:56.069,-0.0005884399096001,2.220026796679345
2025-07-25 16:53:56.077,-0.0005459946037201,0.9210642762572852
2025-07-25 16:53:56.084,-0.0005027679146526,-0.3403798853808398
2025-07-25 16:53:56.092,-0.0004591058041204,-1.569995836340775
2025-07-25 16:53:56.100,-0.0004153510002735,-2.7730315309565245
2025-07-25 16:53:56.108,-0.0003718363492798,-3.954045625415903
2025-07-25 16:53:56.116,-0.0003288777593428,-5.116707324836175
2025-07-25 16:53:56.123,-0.0002867669745509,-6.26364909250878
2025-07-25 16:53:56.131,-0.0002457644878925,-7.3963759163913245
2025-07-25 16:53:56.139,-0.0002060928988448,-8.515232523712
2025-07-25 16:53:56.147,-0.000167931058409,-9.61942760875165
2025-07-25 16:53:56.155,-0.0001314094151421,-10.70711186608137
2025-07-25 16:53:56.162,-9.660696238435392e-05,-11.775504484896372
2025-07-25 16:53:56.170,-6.355002348893921e-05,-12.821060846117462
2025-07-25 16:53:56.178,-3.2212872098727505e-05,-13.839672556626748
2025-07-25 16:53:56.186,-2.520019969495434e-06,-14.826889730761064
2025-07-25 16:53:56.194,2.5650005730747125e-05,-15.778154651290336
2025-07-25 16:53:56.202,5.245950246791296e-05,-16.68903565439034
2025-07-25 16:53:56.209,7.81051270794587e-05,-17.555450304618258
2025-07-25 16:53:56.217,0.0001028102508256,-18.37386764810189
2025-07-25 16:53:56.225,0.000126816344023,-19.141480517928795
2025-07-25 16:53:56.233,0.000150373690613,-19.85634044928506
2025-07-25 16:53:56.241,0.0001737318298272,-20.51744965305957
2025-07-25 16:53:56.248,0.000197130216964,-21.124806592612902
2025-07-25 16:53:56.256,0.0002207896801281,-21.67940390846053
2025-07-25 16:53:56.264,0.0002449052949777,-22.183179647973216
2025-07-25 16:53:56.272,0.0002696412281793,-22.638924894420093
2025-07-25 16:53:56.280,0.0002951278717963,-23.050152860527
2025-07-25 16:53:56.287,0.0003214612937219,-23.42093622078713
2025-07-25 16:53:56.295,0.0003487048187824,-23.755720814831665
2025-07-25 16:53:56.303,0.0003768925077562,-24.05912479265224
2025-07-25 16:53:56.311,0.0004060343477485,-24.33573275335943
2025-07-25 16:53:56.319,0.0004361229587785,-24.58989444652748
2025-07-25 16:53:56.327,0.0004671414816584,-24.82553717981814
2025-07-25 16:53:56.334,0.0004990721203708,-25.046000248465383
2025-07-25 16:53:56.342,0.0005319047192521,-25.2538985237714
2025-07-25 16:53:56.350,0.0005656448336346,-25.45102086912428
2025-07-25 16:53:56.358,0.0006003209284982,-25.63826735923801
2025-07-25 16:53:56.366,0.0006359904607174,-25.8156274349972
2025-07-25 16:53:56.373,0.0006727445863492,-25.982199216240065
2025-07-25 16:53:56.381,0.0007107111605009,-26.13624831035323
2025-07-25 16:53:56.389,0.0007500557112356,-26.27530268854557
2025-07-25 16:53:56.397,0.0007909802398175,-26.396278637015754
2025-07-25 16:53:56.405,0.0008337199507619,-26.49563149360691
2025-07-25 16:53:56.412,0.0008785381916556,-26.56952390189096
2025-07-25 16:53:56.420,0.0009257199020408,-26.614003687352533
2025-07-25 16:53:56.428,0.0009755638010369,-26.625183199386417
2025-07-25 16:53:56.436,0.0010283734990888,-26.599412064296352
2025-07-25 16:53:56.444,0.0010844477059016,-26.53343574014678
2025-07-25 16:53:56.452,0.0011440696424054,-26.424533027387582
2025-07-25 16:53:56.459,0.0012074956497891,-26.270626735798743
2025-07-25 16:53:56.467,0.0012749429432024,-26.070362994561066
2025-07-25 16:53:56.475,0.0013465765556606,-25.823156162067065
2025-07-25 16:53:56.483,0.0014224957090479,-25.52919788007193
2025-07-25 16:53:56.491,0.0015027200799199,-25.18943045396207
2025-07-25 16:53:56.498,0.0015871766957859,-24.80548635830657
2025-07-25 16:53:56.506,0.0016756884502357,-24.37959719618085
2025-07-25 16:53:56.514,0.0017679653298,-23.914476815856062
2025-07-25 16:53:56.522,0.00186359932255,-23.41318444880491
2025-07-25 16:53:56.530,0.0019620637021848,-22.87897462593512
2025-07-25 16:53:56.537,0.0020627171012028,-22.31514120901979
2025-07-25 16:53:56.545,0.0021648125823867,-21.72486310325714
2025-07-25 16:53:56.553,0.0022675117533102,-21.11105906923993
2025-07-25 16:53:56.561,0.0023699037690797,-20.47625852490865
2025-07-25 16:53:56.569,0.0024710288040237,-19.822494346519512
2025-07-25 16:53:56.577,0.0025699052489454,-19.15122249809417
2025-07-25 16:53:56.584,0.0026655595156315,-18.46327191865881
2025-07-25 16:53:56.592,0.0027570569486833,-17.758826564759417
2025-07-25 16:53:56.600,0.0028435320505643,-17.03743993538173
2025-07-25 16:53:56.608,0.0029242161059757,-16.298080888797006
2025-07-25 16:53:56.616,0.0029984603852131,-15.539208178917784
2025-07-25 16:53:56.623,0.0030657534130851,-14.75886996314307
2025-07-25 16:53:56.631,0.003125731271424,-13.954823621861667
2025-07-25 16:53:56.639,0.0031781804719042,-13.124670621476843
2025-07-25 16:53:56.647,0.0032230334968297,-12.266000859639403
2025-07-25 16:53:56.655,0.0032603576129955,-11.376540929885786
2025-07-25 16:53:56.662,0.0032903380064728,-10.454300980923191
2025-07-25 16:53:56.670,0.0033132566499939,-9.497715259897094
2025-07-25 16:53:56.678,0.0033294685878492,-8.505771961014908
2025-07-25 16:53:56.686,0.0033393774753802,-7.47812860685865
2025-07-25 16:53:56.694,0.0033434121661538,-6.41520984021412
2025-07-25 16:53:56.702,0.0033420058632621,-5.31828517865623
2025-07-25 16:53:56.709,0.0033355789367013,-4.189524962083351
2025-07-25 16:53:56.717,0.003324526119791,-3.032033379757938
2025-07-25 16:53:56.725,0.003309208520236,-1.84985807004553
2025-07-25 16:53:56.733,0.0032899506570447,-0.6479763180653318
2025-07-25 16:53:56.741,0.0032670424265264,0.567741681279294
2025-07-25 16:53:56.748,0.003240745444969,1.7905916766342826
2025-07-25 16:53:56.756,0.0032113027041232,3.0131152402327617
2025-07-25 16:53:56.764,0.0031789500773782,4.2271993687969305
2025-07-25 16:53:56.772,0.0031439280514771,5.424194304372812
2025-07-25 16:53:56.780,0.0031064921687952,6.595047859427456
2025-07-25 16:53:56.787,0.0030669210119597,7.730454256241095
2025-07-25 16:53:56.795,0.0030255210253149,8.821015129797837
2025-07-25 16:53:56.803,0.0029826278786854,9.857409894252289
2025-07-25 16:53:56.811,0.002938604347595,10.830572163754926
2025-07-25 16:53:56.819,0.0028938348704653,11.731868400310882
2025-07-25 16:53:56.827,0.0028487171531128,12.553274495969283
2025-07-25 16:53:56.834,0.0028036514158106,13.28754564448035
2025-07-25 16:53:56.842,0.0027590279961218,13.928374671753245
2025-07-25 16:53:56.850,0.0027152139559271,14.470534016802697
2025-07-25 16:53:56.858,0.00267253916912,14.909996811054931
2025-07-25 16:53:56.866,0.0026312822414776,15.244032998709276
2025-07-25 16:53:56.873,0.0025916566395298,15.471277157051675
2025-07-25 16:53:56.881,0.0025537975756,15.59176557772986
2025-07-25 16:53:56.889,0.0025177503980146,15.606941211093428
2025-07-25 16:53:56.897,0.0024834613050662,15.51962620207606
2025-07-25 16:53:56.905,0.0024507710546531,15.333962897933697
2025-07-25 16:53:56.912,0.0024194120528032,15.05532531992988
2025-07-25 16:53:56.920,0.0023890089280141,14.690204096297368
2025-07-25 16:53:56.928,0.0023590825453436,14.24606869339026
2025-07-25 16:53:56.936,0.0023290574152766,13.731211411729555
2025-07-25 16:53:56.944,0.0022982725679958,13.154578009365784
2025-07-25 16:53:56.952,0.0022659960748189,12.525589974764255
2025-07-25 16:53:56.959,0.0022314433438029,11.853963414385118
2025-07-25 16:53:56.967,0.0021937990164913,11.14952927924548
2025-07-25 16:53:56.975,0.0021522418285764,10.422059267402547
2025-07-25 16:53:56.983,0.0021059713322601,9.68110124236329
2025-07-25 16:53:56.991,0.0020542350338586,8.935827438233556
2025-07-25 16:53:56.998,0.0019963543249177,8.194898119447933
2025-07-25 16:53:57.006,0.0019317475895655,7.46634276112573
2025-07-25 16:53:57.014,0.0018599490547878,6.757460240015696
2025-07-25 16:53:57.022,0.0017806223025212,6.074738987921122
2025-07-25 16:53:57.030,0.0016935678341213,5.423797564683984
2025-07-25 16:53:57.037,0.0015987245519989,4.809345660792258
2025-07-25 16:53:57.045,0.0014961653676932,4.235165146065139
2025-07-25 16:53:57.053,0.0013860873461709,3.704110444655353
2025-07-25 16:53:57.061,0.0012687969676531,3.2181272354392503
2025-07-25 16:53:57.069,0.001144691303727,2.77828823786936
2025-07-25 16:53:57.077,0.0010142361166387,2.384844623912834
2025-07-25 16:53:57.084,0.0008779420570088,2.037291372692476
2025-07-25 16:53:57.092,0.0007363402946449,1.7344446418987494
2025-07-25 16:53:57.100,0.000589959096972,1.4745289724839672
2025-07-25 16:53:57.108,0.0004393029878374,1.255271890450549
2025-07-25 16:53:57.116,0.0002848360253884,1.0740032489158802
2025-07-25 16:53:57.123,0.0001269703574488,0.9277564885976604
2025-07-25 16:53:57.131,-3.393936736842954e-05,0.8133689003821867
2025-07-25 16:53:57.139,-0.0001975957664492,0.7275779599443376
2025-07-25 16:53:57.147,-0.000363753219261,0.6671108819616708
2025-07-25 16:53:57.155,-0.0005322080158883,0.6287647198434932
2025-07-25 16:53:57.162,-0.000702785293132,0.6094746197629686
2025-07-25 16:53:57.170,-0.0008753239485473,0.6063682206423853
2025-07-25 16:53:57.178,-0.0010496606571886,0.6168046636541217
2025-07-25 16:53:57.186,-0.0012256140070909,0.6383972211909335
2025-07-25 16:53:57.194,-0.0014029696752275,0.6690191589632536
2025-07-25 16:53:57.202,-0.0015814674566171,0.7067930853865281
2025-07-25 16:53:57.209,-0.0017607908011116,0.7500646956926512
2025-07-25 16:53:57.217,-0.0019405593851946,0.7973624587414048
2025-07-25 16:53:57.225,-0.0021203252392523,0.8473453984384356
2025-07-25 16:53:57.233,-0.002299572961065,0.8987416681808784
2025-07-25 16:53:57.241,-0.0024777243465256,0.9502810873569372
2025-07-25 16:53:57.248,-0.0026541473010891,1.0006251856519748
2025-07-25 16:53:57.256,-0.0028281683708842,1.0482985642412277
2025-07-25 16:53:57.264,-0.0029990878965694,1.0916255101942522
2025-07-25 16:53:57.272,-0.003166196697342,1.1286757658647453
2025-07-25 16:53:57.280,-0.0033287932352041,1.1572231326724025
2025-07-25 16:53:57.288,-0.0034862002953234,1.1747201585510536
2025-07-25 16:53:57.295,-0.0036377803156757,1.178291516900359
2025-07-25 16:53:57.303,-0.0037829486096755,1.164747854670874
2025-07-25 16:53:57.311,-0.0039211838567571,1.1306209179719149
2025-07-25 16:53:57.319,-0.0040520353956843,1.072219723097424
2025-07-25 16:53:57.327,-0.0041751270513965,0.985706501946042
2025-07-25 16:53:57.334,-0.0042901574654436,0.8671901803269924
2025-07-25 16:53:57.342,-0.0043968971884479,0.7128342985936452
2025-07-25 16:53:57.350,-0.0044951831295623,0.5189755922008732
2025-07-25 16:53:57.358,-0.0045849113076335,0.2822489367328462
2025-07-25 16:53:57.366,-0.0046660291064658,-0.0002859585447111
2025-07-25 16:53:57.373,-0.0047385282573606,-0.3310208440955247
2025-07-25 16:53:57.381,-0.0048024394951714,-0.7116828648391816
2025-07-25 16:53:57.389,-0.0048578293601351,-1.1432305205835018
2025-07-25 16:53:57.397,-0.0049047991298815,-1.625765599012692
2025-07-25 16:53:57.405,-0.0049434854994623,-2.15846444887313
2025-07-25 16:53:57.413,-0.0049740624157307,-2.739531267480272
2025-07-25 16:53:57.420,-0.004996743368559,-3.3661752963589864
2025-07-25 16:53:57.428,-0.0050117833830617,-4.034612978978067
2025-07-25 16:53:57.436,-0.0050194799288031,-4.740095262765768
2025-07-25 16:53:57.444,-0.0050201719798364,-5.47695935356249
2025-07-25 16:53:57.452,-0.0050142365377163,-6.238703387110256
2025-07-25 16:53:57.459,-0.005002082107391,-7.018081703588246
2025-07-25 16:53:57.467,-0.004984138944392,-7.807217730374299
2025-07-25 16:53:57.475,-0.0049608463411669,-8.597730923628086
2025-07-25 16:53:57.483,-0.004932637664654,-9.380873817039076
2025-07-25 16:53:57.491,-0.0048999241859559,-10.147675003499364
2025-07-25 16:53:57.498,-0.0048630789248177,-10.889083858190212
2025-07-25 16:53:57.506,-0.004822421766834,-11.596113013087672
2025-07-25 16:53:57.514,-0.0047782070049177,-12.25997500599822
2025-07-25 16:53:57.522,-0.0047306142288671,-12.872210124219196
2025-07-25 16:53:57.530,-0.0046797431619672,-13.424803200610908
2025-07-25 16:53:57.538,-0.0046256126700801,-13.910287942606448
2025-07-25 16:53:57.545,-0.0045681638448014,-14.3218382138862
2025-07-25 16:53:57.553,-0.0045072668570522,-14.653346463727289
2025-07-25 16:53:57.561,-0.0044427311586264,-14.899490126853683
2025-07-25 16:53:57.569,-0.0043743185142283,-15.055787226237657
2025-07-25 16:53:57.577,-0.0043017582605128,-15.118642561028956
2025-07-25 16:53:57.584,-0.0042247641181195,-15.085385748191634
2025-07-25 16:53:57.592,-0.0041430518340781,-14.95430204426514
2025-07-25 16:53:57.600,-0.0040563569220439,-14.724656367668382
2025-07-25 16:53:57.608,-0.0039644518070714,-14.39671035423413
2025-07-25 16:53:57.616,-0.0038671617737791,-13.971731695670275
2025-07-25 16:53:57.623,-0.0037643792693528,-13.45199451234775
2025-07-25 16:53:57.631,-0.0036560762992974,-12.840769163800974
2025-07-25 16:53:57.639,-0.0035423147983465,-12.142299748556912
2025-07-25 16:53:57.647,-0.0034232548929003,-11.36176761228842
2025-07-25 16:53:57.655,-0.0032991608789794,-10.505239468927083
2025-07-25 16:53:57.663,-0.0031704045638489,-9.57959922223622
2025-07-25 16:53:57.670,-0.0030374654546671,-8.592463221398615
2025-07-25 16:53:57.678,-0.0029009272231215,-7.552079451661688
2025-07-25 16:53:57.686,-0.0027614699777312,-6.467211999940606
2025-07-25 16:53:57.694,-0.0026198581380794,-5.347012984573707
2025-07-25 16:53:57.702,-0.002476924097029,-4.200884929195044
2025-07-25 16:53:57.709,-0.0023335482665565,-3.038337225365721
2025-07-25 16:53:57.717,-0.0021906363690846,-1.8688408109573411
2025-07-25 16:53:57.725,-0.0020490948884498,-0.7016854511903177
2025-07-25 16:53:57.733,-0.0019098055143776,0.4541559771307111
2025-07-25 16:53:57.741,-0.0017735993567024,1.5901520382712104
2025-07-25 16:53:57.748,-0.001641231785902,2.69832245419973
2025-07-25 16:53:57.756,-0.0015133589760188,3.771330022434512
2025-07-25 16:53:57.764,-0.0013905174663455,4.80255266746462
2025-07-25 16:53:57.772,-0.0012731081343246,5.786134583665939
2025-07-25 16:53:57.780,-0.0011613857362086,6.7170165111089855
2025-07-25 16:53:57.788,-0.0010554546536908,7.590946239101834
2025-07-25 16:53:57.795,-0.0009552708952283,8.404471361283756
2025-07-25 16:53:57.803,-0.0008606499159275,9.15491702358227
2025-07-25 16:53:57.811,-0.0007712794446311,9.840351847735583
2025-07-25 16:53:57.819,-0.0006867362150758,10.459545346890003
2025-07-25 16:53:57.827,-0.0006065053464234,11.011919981052053
2025-07-25 16:53:57.834,-0.0005300011482084,11.497500567445186
2025-07-25 16:53:57.842,-0.0004565882847522,11.916863130407586
2025-07-25 16:53:57.850,-0.0003856024476298,12.27108453400412
2025-07-25 16:53:57.858,-0.0003163699114898,12.561693482980068
2025-07-25 16:53:57.866,-0.0002482255752622,12.790622791749495
2025-07-25 16:53:57.873,-0.0001805293105341,12.960162275476968
2025-07-25 16:53:57.881,-0.0001126806402591,13.07291125917376
2025-07-25 16:53:57.889,-4.41319170477926e-05,13.131729559533367
2025-07-25 16:53:57.897,2.5599810726548063e-05,13.139685885137032
2025-07-25 16:53:57.905,9.692220446073428e-05,13.100002923770822
2025-07-25 16:53:57.913,0.0001701585009114,13.015998920909686
2025-07-25 16:53:57.920,0.0002455401724318,12.89102625533603
2025-07-25 16:53:57.928,0.0003232016991323,12.72840831508758
2025-07-25 16:53:57.936,0.0004031776596817,12.531376780509802
2025-07-25 16:53:57.944,0.0004854022816481,12.303012137262712
2025-07-25 16:53:57.952,0.0005697116428021,12.046190784318965
2025-07-25 16:53:57.959,0.0006558488036732,11.763542400781398
2025-07-25 16:53:57.967,0.0007434721188323,11.457421244058304
2025-07-25 16:53:57.975,0.0008321667451258,11.129894748875545
2025-07-25 16:53:57.983,0.0009214590174804,10.78275218371715
2025-07-25 16:53:57.991,0.001010833049759,10.417535221054823
2025-07-25 16:53:57.998,0.0010997487539727,10.035591130051507
2025-07-25 16:53:58.006,0.0011876604633687,9.638147959621604
2025-07-25 16:53:58.014,0.0012740354152007,9.226409611964598
2025-07-25 16:53:58.022,0.0013583714169159,8.801667188337952
2025-07-25 16:53:58.030,0.001440213053997,8.365421505615247
2025-07-25 16:53:58.038,0.0015191658236835,7.919510328694387
2025-07-25 16:53:58.045,0.0015949076653344,7.466232742739808
2025-07-25 16:53:58.053,0.0016671975460312,7.0084623084198405
2025-07-25 16:53:58.061,0.0017358809739851,6.549740308817881
2025-07-25 16:53:58.069,0.0018008924285863,6.094340599725499
2025-07-25 16:53:58.077,0.0018622547130534,5.647298373294104
2025-07-25 16:53:58.084,0.0019200752744497,5.21439654407954
2025-07-25 16:53:58.092,0.0019745396682612,4.8021054089938255
2025-07-25 16:53:58.100,0.0020259025264713,4.417473602728252
2025-07-25 16:53:58.108,0.0020744765459851,4.067971012208904
2025-07-25 16:53:58.116,0.0021206201135236,3.761287055478408
2025-07-25 16:53:58.123,0.0021647242177207,3.5050904023646208
2025-07-25 16:53:58.131,0.0022071992705852,3.306758660830797
2025-07-25 16:53:58.139,0.0022484623722264,3.173088637567888
2025-07-25 16:53:58.147,0.0022889254100978,3.109999387801881
2025-07-25 16:53:58.155,0.0023289841939619,3.122241302815376
2025-07-25 16:53:58.163,0.002369008604116,3.213124876732564
2025-07-25 16:53:58.170,0.0024093335147513,3.384282512725376
2025-07-25 16:53:58.178,0.0024502501306547,3.6354757767185446
2025-07-25 16:53:58.186,0.0024919974240446,3.96445892546012
2025-07-25 16:53:58.194,0.0025347535774475,4.36690740030861
2025-07-25 16:53:58.202,0.0025786276445399,4.836417387206149
2025-07-25 16:53:58.209,0.0026236519412612,5.36457961071083
2025-07-25 16:53:58.217,0.0026697758978115,5.941127381090121
2025-07-25 16:53:58.225,0.0027168621541681,6.554155688533058
2025-07-25 16:53:58.233,0.0027646855217378,7.19040499239228
2025-07-25 16:53:58.241,0.0028129351420579,7.83560044664877
2025-07-25 16:53:58.248,0.0028612199105782,8.474834787965111
2025-07-25 16:53:58.256,0.0029090770837604,9.09298112173014
2025-07-25 16:53:58.264,0.002955983913013,9.675120477258814
2025-07-25 16:53:58.272,0.0030013720818771,10.206968332561589
2025-07-25 16:53:58.280,0.0030446446336941,10.675284356705909
2025-07-25 16:53:58.288,0.0030851949643456,11.068250365844015
2025-07-25 16:53:58.295,0.0031224273242026,11.375802882584823
2025-07-25 16:53:58.303,0.0031557781323594,11.589908643717044
2025-07-25 16:53:58.311,0.0031847372630997,11.70477381210318
2025-07-25 16:53:58.319,0.0032088683290046,11.716980393309818
2025-07-25 16:53:58.327,0.0032278268729863,11.625546308069351
2025-07-25 16:53:58.334,0.0032413753356617,11.431908598792395
2025-07-25 16:53:58.342,0.003249393763787,11.139832221892334
2025-07-25 16:53:58.350,0.0032518855173517,10.755249666250878
2025-07-25 16:53:58.358,0.0032489776400693,10.286039114705204
2025-07-25 16:53:58.366,0.0032409159241146,9.741750919082728
2025-07-25 16:53:58.373,0.003228054945887,9.13329370819196
2025-07-25 16:53:58.381,0.003210843519076,8.472592446840876
2025-07-25 16:53:58.389,0.0031898061778183,7.77223120305009
2025-07-25 16:53:58.397,0.0031655214965595,7.045093281851235
2025-07-25 16:53:58.405,0.0031385982493394,6.304010793115014
2025-07-25 16:53:58.413,0.0031096505354557,5.561434699981081
2025-07-25 16:53:58.420,0.0030792729786081,4.82913501600523
2025-07-25 16:53:58.428,0.0030480169502755,4.1179391611528295
2025-07-25 16:53:58.436,0.0030163685623194,3.43751463145756
2025-07-25 16:53:58.444,0.0029847290067286,2.796200171722002
2025-07-25 16:53:58.452,0.0029533977347955,2.20088765700211
2025-07-25 16:53:58.459,0.0029225589758227,1.656954977950016
2025-07-25 16:53:58.467,0.0028922721935703,1.1682484675774925
2025-07-25 16:53:58.475,0.0028624672275631,0.7371118636873946
2025-07-25 16:53:58.483,0.0028329449542874,0.364457512820521
2025-07-25 16:53:58.491,0.0028033841774178,0.0498745112865892
2025-07-25 16:53:58.498,0.0027733550469115,-0.2082322464056493
2025-07-25 16:53:58.506,0.0027423387057304,-0.4124785919030936
2025-07-25 16:53:58.514,0.0027097522445541,-0.5663198631762708
2025-07-25 16:53:58.522,0.0026749775418934,-0.6738586192509292
2025-07-25 16:53:58.530,0.0026373922388526,-0.7396478049351459
2025-07-25 16:53:58.538,0.0025964009659158,-0.7684956068418848
2025-07-25 16:53:58.545,0.0025514650080126,-0.765277897103758
2025-07-25 16:53:58.553,0.0025021288350413,-0.7347637693366381
2025-07-25 16:53:58.561,0.0024480422611321,-0.6814592356299077
2025-07-25 16:53:58.569,0.0023889773426634,-0.6094736579693112
2025-07-25 16:53:58.577,0.0023248394469314,-0.5224129062690417
2025-07-25 16:53:58.584,0.0022556722190882,-0.4233025402740498
2025-07-25 16:53:58.592,0.0021816564395369,-0.3145434819543354
2025-07-25 16:53:58.600,0.0021031029994397,-0.1979016681500644
2025-07-25 16:53:58.608,0.0020204404370485,-0.0745320546455702
2025-07-25 16:53:58.616,0.0019341976708433,0.0549638977041987
2025-07-25 16:53:58.623,0.0018449827414669,0.1904494537658221
2025-07-25 16:53:58.631,0.0017534585431147,0.3321361250856142
2025-07-25 16:53:58.639,0.001660316685083,0.4804444172579117
2025-07-25 16:53:58.647,0.001566250773654,0.6358480230561362
2025-07-25 16:53:58.655,0.0014719305192437,0.7987088039242254
2025-07-25 16:53:58.663,0.0013779780814567,0.9691107807573376
2025-07-25 16:53:58.670,0.0012849479227747,1.1467019079511496
2025-07-25 16:53:58.678,0.0011933112032317,1.330552564581756
2025-07-25 16:53:58.686,0.0011034454693518,1.519039411700036
2025-07-25 16:53:58.694,0.0010156300412899,1.7097625042510698
2025-07-25 16:53:58.702,0.0009300470549032,1.899502308622375
2025-07-25 16:53:58.709,0.0008467876372564,2.084221598044128
2025-07-25 16:53:58.717,0.000765862279483,2.2591151496926223
2025-07-25 16:53:58.725,0.0006872141692964,2.4187078468285987
2025-07-25 16:53:58.733,0.0006107341019749,2.5569993097323422
2025-07-25 16:53:58.741,0.0005362756535844,2.667650664710141
2025-07-25 16:53:58.748,0.0004636695412002,2.744206642920273
2025-07-25 16:53:58.756,0.0003927363821987,2.7803440121453518
2025-07-25 16:53:58.764,0.0003232972889108,2.770135506340184
2025-07-25 16:53:58.772,0.0002551818917136,2.708317033623924
2025-07-25 16:53:58.780,0.0001882335415553,2.5905450990312238
2025-07-25 16:53:58.788,0.0001223116708895,2.4136311429580464
2025-07-25 16:53:58.795,5.729159206967391e-05,2.175739919336511
2025-07-25 16:53:58.803,-6.937696726835764e-06,1.8765401406901008
2025-07-25 16:53:58.811,-7.047693223325094e-05,1.5172973871734443
2025-07-25 16:53:58.819,-0.0001334203961986,1.1009016631836803
2025-07-25 16:53:58.827,-0.0001958593332762,0.6318248986508627
2025-07-25 16:53:58.834,-0.0002578843708448,0.1160070008914515
2025-07-25 16:53:58.842,-0.0003195865815739,-0.4393274052784569
2025-07-25 16:53:58.850,-0.0003810570579163,-1.0259158566313156
2025-07-25 16:53:58.858,-0.0004423849948397,-1.6347594869595532
2025-07-25 16:53:58.866,-0.0005036542938428,-2.2564669669507995
2025-07-25 16:53:58.873,-0.000564938704755,-2.881626463038472
2025-07-25 16:53:58.881,-0.0006262956256611,-3.501189394418596
2025-07-25 16:53:58.889,-0.0006877588770855,-4.106848831178365
2025-07-25 16:53:58.897,-0.0007493309294212,-4.691395289105015
2025-07-25 16:53:58.905,-0.0008109751115982,-5.249033435999304
2025-07-25 16:53:58.913,-0.0008726083269488,-5.775644783573809
2025-07-25 16:53:58.920,-0.0009340948565593,-6.268983715845625
2025-07-25 16:53:58.928,-0.0009952419333251,-6.728797085792712
2025-07-25 16:53:58.936,-0.0010557977987904,-7.156860955473977
2025-07-25 16:53:58.944,-0.0011154528325447,-7.556931698372251
2025-07-25 16:53:58.952,-0.0011738441385726,-7.934612454422292
2025-07-25 16:53:58.959,-0.0012305637986688,-8.297139656472051
2025-07-25 16:53:58.967,-0.0012851708601165,-8.65309786471096
2025-07-25 16:53:58.975,-0.0013372068998139,-9.012074292127007
2025-07-25 16:53:58.983,-0.0013862146329279,-9.384267029896394
2025-07-25 16:53:58.991,-0.0014317585952291,-9.78006295736849
2025-07-25 16:53:58.998,-0.0014734465818168,-10.209602548055528
2025-07-25 16:53:59.006,-0.0015109503558498,-10.682349202252713
2025-07-25 16:53:59.014,-0.0015440241208367,-11.206680337555984
2025-07-25 16:53:59.022,-0.0015725193352953,-11.789516289327365
2025-07-25 16:53:59.030,-0.0015963946728966,-12.436001198447448
2025-07-25 16:53:59.038,-0.0016157203292922,-13.149247612511802
2025-07-25 16:53:59.045,-0.0016306763593733,-13.930153638339384
2025-07-25 16:53:59.053,-0.0016415451607828,-14.777298306775217
2025-07-25 16:53:59.061,-0.0016486985864269,-15.686917498357026
2025-07-25 16:53:59.069,-0.0016525805387993,-16.652959487103896
2025-07-25 16:53:59.077,-0.0016536862540821,-17.66721604501614
2025-07-25 16:53:59.084,-0.001652539698781,-18.719522254614304
2025-07-25 16:53:59.092,-0.001649670498165,-19.79801581839766
2025-07-25 16:53:59.100,-0.0016455916684713,-20.88944481995019
2025-07-25 16:53:59.108,-0.0016407792824138,-21.97951164189885
2025-07-25 16:53:59.116,-0.0016356551322231,-23.05324011470258
2025-07-25 16:53:59.123,-0.0016305733948588,-24.095352957963765
2025-07-25 16:53:59.131,-0.0016258121023767,-25.090647144010973
2025-07-25 16:53:59.139,-0.0016215698034075,-26.024355885461915
2025-07-25 16:53:59.147,-0.0016179672540137,-26.88248741776329
2025-07-25 16:53:59.155,-0.0016150534624005,-27.652132488205563
2025-07-25 16:53:59.163,-0.0016128150522783,-28.32173434228337
2025-07-25 16:53:59.170,-0.0016111877486775,-28.88131689230996
2025-07-25 16:53:59.178,-0.0016100688273172,-29.322668555574595
2025-07-25 16:53:59.186,-0.0016093295644105,-29.63948087342101
2025-07-25 16:53:59.194,-0.0016088269897119,-29.82744240010872
2025-07-25 16:53:59.202,-0.0016084144858382,-29.88428943458527
2025-07-25 16:53:59.209,-0.0016079509454186,-29.80981594256029
2025-07-25 16:53:59.217,-0.001607308283944,-29.60584549802185
2025-07-25 16:53:59.225,-0.0016063771034057,-29.27616830904432
2025-07-25 16:53:59.233,-0.0016050702391087,-28.826446445922997
2025-07-25 16:53:59.241,-0.0016033238795281,-28.264090329394453
2025-07-25 16:53:59.248,-0.0016010960010226,-27.598109429224134
2025-07-25 16:53:59.256,-0.0015983620334958,-26.838940025715697
2025-07-25 16:53:59.264,-0.001595107966143,-25.998252840878504
2025-07-25 16:53:59.272,-0.0015913214953047,-25.08874337578619
2025-07-25 16:53:59.280,-0.0015869822540061,-24.12390790109404
2025-07-25 16:53:59.288,-0.0015820525179971,-23.11780822895876
2025-07-25 16:53:59.295,-0.0015764698888645,-22.08482862653857
2025-07-25 16:53:59.303,-0.0015701432282104,-21.039428483811516
2025-07-25 16:53:59.311,-0.0015629526378085,-19.99589458099117
2025-07-25 16:53:59.319,-0.0015547537134148,-18.96809696738585
2025-07-25 16:53:59.327,-0.0015453857691218,-17.969252524264892
2025-07-25 16:53:59.334,-0.001534683288196,-17.01170021449498
2025-07-25 16:53:59.342,-0.0015224895231687,-16.10669181417827
2025-07-25 16:53:59.350,-0.0015086709514015,-15.264201584996968
2025-07-25 16:53:59.358,-0.0014931311974664,-14.492757903109691
2025-07-25 16:53:59.366,-0.0014758230615742,-13.799299345137534
2025-07-25 16:53:59.373,-0.0014567574412003,-13.189057184826355
2025-07-25 16:53:59.381,-0.0014360081944061,-12.665465717819076
2025-07-25 16:53:59.389,-0.0014137123578858,-12.230101346935044
2025-07-25 16:53:59.397,-0.0013900655867407,-11.882650963886729
2025-07-25 16:53:59.405,-0.0013653132041154,-11.620909888740078
2025-07-25 16:53:59.413,-0.0013397377799984,-11.44080949739579
2025-07-25 16:53:59.420,-0.0013136445721451,-11.336474678449644
2025-07-25 16:53:59.428,-0.00128734629181,-11.300311381984814
2025-07-25 16:53:59.436,-0.0012611484272491,-11.32312469368345
2025-07-25 16:53:59.444,-0.0012353358889675,-11.394268006564989
2025-07-25 16:53:59.452,-0.0012101613007394,-11.501823874894994
2025-07-25 16:53:59.459,-0.0011858350837764,-11.632816922505963
2025-07-25 16:53:59.467,-0.0011625175768061,-11.773458656971894
2025-07-25 16:53:59.475,-0.0011403135745202,-11.909423162578044
2025-07-25 16:53:59.483,-0.0011192696156759,-12.026151407857276
2025-07-25 16:53:59.491,-0.0010993740806899,-12.10918035352865
2025-07-25 16:53:59.498,-0.0010805598176406,-12.144491265890265
2025-07-25 16:53:59.506,-0.0010627087855644,-12.118869739725108
2025-07-25 16:53:59.514,-0.0010456581696965,-12.020268054748447
2025-07-25 16:53:59.522,-0.0010292075121269,-11.83815880404988
2025-07-25 16:53:59.530,-0.001013126460874,-11.563867437398642
2025-07-25 16:53:59.538,-0.0009971627218067,-11.19087064960232
2025-07-25 16:53:59.545,-0.000981049811434,-10.71504756979622
2025-07-25 16:53:59.553,-0.0009645143638018,-10.134871551568615
2025-07-25 16:53:59.561,-0.0009472829902875,-9.45153200427311
2025-07-25 16:53:59.569,-0.0009290888705599,-8.668978021653265
2025-07-25 16:53:59.577,-0.0009096782825844,-7.793878367942949
2025-07-25 16:53:59.584,-0.0008888171996993,-6.835495465666685
2025-07-25 16:53:59.592,-0.0008662979652101,-5.805474199949474
2025-07-25 16:53:59.600,-0.0008419459355516,-4.717549451137372
2025-07-25 16:53:59.608,-0.0008156258712611,-3.5871791680120464
2025-07-25 16:53:59.616,-0.0007872477548155,-2.4311124091260696
2025-07-25 16:53:59.623,-0.0007567716297392,-1.2669040514890082
2025-07-25 16:53:59.631,-0.0007242109899672,-0.1123897610265594
2025-07-25 16:53:59.639,-0.0006896342055877,1.0148636786424938
2025-07-25 16:53:59.647,-0.0006531634589987,2.098116484524035
2025-07-25 16:53:59.655,-0.0006149707184025,3.122005564254384
2025-07-25 16:53:59.663,-0.000575270462941,4.0730686553816895
2025-07-25 16:53:59.670,-0.0005343092332202,4.940225994802143
2025-07-25 16:53:59.678,-0.0004923525252915,5.715203265331485
2025-07-25 16:53:59.686,-0.0004496699095306,6.392880702932484
2025-07-25 16:53:59.694,-0.0004065194503736,6.971554858514051
2025-07-25 16:53:59.702,-0.0003631325646939,7.453101590335276
2025-07-25 16:53:59.709,-0.0003197004532335,7.843031405186028
2025-07-25 16:53:59.717,-0.0002763631972678,8.150431242344867
2025-07-25 16:53:59.725,-0.0002332025049636,8.387790157297413
2025-07-25 16:53:59.733,-0.0001902388509865,8.570710039682876
2025-07-25 16:53:59.741,-0.0001474333425487,8.717506389068282
2025-07-25 16:53:59.748,-0.000104694153274,8.848708140851578
2025-07-25 16:53:59.756,-6.18869591153116e-05,8.986469427921742
2025-07-25 16:53:59.764,-1.884857583014777e-05,9.153909811310164
2025-07-25 16:53:59.772,2.4597101551733133e-05,9.37440273519829
2025-07-25 16:53:59.780,6.862178871082275e-05,9.6708345778416
2025-07-25 16:53:59.788,0.0001133750605075,10.06485851467881
2025-07-25 16:53:59.795,0.0001589670570542,10.576168350712578
2025-07-25 16:53:59.803,0.000205452490833,11.22181742881184
2025-07-25 16:53:59.811,0.0002528167189762,12.015606639569786
2025-07-25 16:53:59.819,0.0003009645442491,12.96756345597331
2025-07-25 16:53:59.827,0.0003497122891366,14.083530854348568
2025-07-25 16:53:59.834,0.0003987835527106,15.364881081917307
2025-07-25 16:53:59.842,0.0004478089129431,16.80836466781743
2025-07-25 16:53:59.850,0.0004963296814102,18.406100071180084
2025-07-25 16:53:59.858,0.0005438056568649,20.145704166732507
2025-07-25 16:53:59.866,0.0005896266631945,22.0105586416944
2025-07-25 16:53:59.873,0.0006331275004771,23.98020255956485
2025-07-25 16:53:59.881,0.0006736057901375,26.03083704840921
2025-07-25 16:53:59.889,0.0007103420618439,28.1359244647104
2025-07-25 16:53:59.897,0.0007426213162328,30.266861594590623
2025-07-25 16:53:59.905,0.000769755209415,32.3937045605434
2025-07-25 16:53:59.913,0.0007911039480849,34.48592213444804
2025-07-25 16:53:59.920,0.0008060969633868,36.51315410113171
2025-07-25 16:53:59.928,0.0008142514525796,38.445952112736286
2025-07-25 16:53:59.936,0.0008151879445239,40.25648202783855
2025-07-25 16:53:59.944,0.0008086421618507,41.91916891873169
2025-07-25 16:53:59.952,0.000794472622046,43.41126861522963
2025-07-25 16:53:59.959,0.0007726636430214,44.71335268208792
2025-07-25 16:53:59.967,0.0007433236958789,45.80969694498801
2025-07-25 16:53:59.975,0.0007066793766089,46.68856694255299
2025-07-25 16:53:59.983,0.0006630656401111,47.34239686940243
2025-07-25 16:53:59.991,0.0006129133108403,47.7678616013783
2025-07-25 16:53:59.998,0.000556735146311,47.96584420384472
2025-07-25 16:54:00.006,0.0004951117618552,47.94130388522928
2025-07-25 16:54:00.014,0.0004286785273337,47.70305165118111
2025-07-25 16:54:00.022,0.0003581142502702,47.26344292445893
2025-07-25 16:54:00.030,0.00028413215627,46.6379981047922
2025-07-25 16:54:00.038,0.0002074733390565,45.84496343005957
2025-07-25 16:54:00.045,0.0001289024572834,44.90482554132216
2025-07-25 16:54:00.053,4.920506910818435e-05,43.83979382823067
2025-07-25 16:54:00.061,-3.081429545320258e-05,42.67326492412863
2025-07-25 16:54:00.069,-0.0001103343755855,41.42928362734055
2025-07-25 16:54:00.077,-0.0001885207848452,40.1320140515605
2025-07-25 16:54:00.084,-0.0002645318785,38.80523396691186
2025-07-25 16:54:00.092,-0.0003375274820802,37.47186410414864
2025-07-25 16:54:00.100,-0.0004066806520172,36.15354268561889
2025-07-25 16:54:00.108,-0.0004711921369075,34.870253657512635
2025-07-25 16:54:00.116,-0.0005303067544193,33.64001508406321
2025-07-25 16:54:00.124,-0.0005833306322516,32.47863200014767
2025-07-25 16:54:00.131,-0.0006296482010351,31.39951579648421
2025-07-25 16:54:00.139,-0.0006687378615856,30.413570034420644
2025-07-25 16:54:00.147,-0.0007001853078772,29.529140556203227
2025-07-25 16:54:00.155,-0.0007236936182288,28.75202595938076
2025-07-25 16:54:00.163,-0.0007390894711558,28.08554301131067
2025-07-25 16:54:00.170,-0.0007463251505024,27.530640445834734
2025-07-25 16:54:00.178,-0.0007454763049706,27.08605384503737
2025-07-25 16:54:00.186,-0.0007367356864829,26.748493976215304
2025-07-25 16:54:00.194,-0.0007204033051271,26.512861009811296
2025-07-25 16:54:00.202,-0.0006968736080668,26.372477441386103
2025-07-25 16:54:00.209,-0.0006666204195382,26.31933321057569
2025-07-25 16:54:00.217,-0.000630180468441,26.34433736659229
2025-07-25 16:54:00.225,-0.0005881363527078,26.437571573406267
2025-07-25 16:54:00.233,-0.0005410996836367,26.588541669599657
2025-07-25 16:54:00.241,-0.0004896948877923,26.78642429296367
2025-07-25 16:54:00.249,-0.0004345438116094,27.020306163660777
2025-07-25 16:54:00.256,-0.0003762510441589,27.279413941554857
2025-07-25 16:54:00.264,-0.0003153898365955,27.553332621863746
2025-07-25 16:54:00.272,-0.0002524886163618,27.832210234394317
2025-07-25 16:54:00.280,-0.0001880183005219,28.106946221646904
2025-07-25 16:54:00.288,-0.0001223808640953,28.36936037183612
2025-07-25 16:54:00.295,-5.589986666648579e-05,28.6123386797465
2025-07-25 16:54:00.303,1.118622495967388e-05,28.82995212679707
2025-07-25 16:54:00.311,7.872717988535449e-05,29.017544247118455
2025-07-25 16:54:00.319,0.0001466602021383,29.17178360593393
2025-07-25 16:54:00.327,0.0002150051686231,29.29067805117893
2025-07-25 16:54:00.334,0.0002838561804282,29.37354883004849
2025-07-25 16:54:00.342,0.0003533698477743,29.420964315576924
2025-07-25 16:54:00.350,0.0004237507660662,29.43463500213768
2025-07-25 16:54:00.358,0.000495234626086,29.41727338811508
2025-07-25 16:54:00.366,0.0005680694155487,29.37242414827876
2025-07-25 16:54:00.374,0.0006424952853864,29.30427141833028
2025-07-25 16:54:00.381,0.0007187238659174,29.21743093536567
2025-07-25 16:54:00.389,0.0007969180397482,29.11673513319571
2025-07-25 16:54:00.397,0.0008771733229926,29.0070190812985
2025-07-25 16:54:00.405,0.0009595020325313,28.89291444205069
2025-07-25 16:54:00.413,0.00104382131365,28.77865751215272
2025-07-25 16:54:00.420,0.0011299458736127,28.66791605164752
2025-07-25 16:54:00.428,0.0012175859478487,28.56363814081909
2025-07-25 16:54:00.436,0.0013063506923266,28.46792488735556
2025-07-25 16:54:00.444,0.0013957569031471,28.381927554229996
2025-07-25 16:54:00.452,0.0014852426797233,28.305768677132274
2025-07-25 16:54:00.459,0.0015741853331152,28.23848603514154
2025-07-25 16:54:00.467,0.0016619225778305,28.177997942847476
2025-07-25 16:54:00.475,0.0017477759570412,28.121088231927587
2025-07-25 16:54:00.483,0.0018310755316796,28.063409446216568
2025-07-25 16:54:00.491,0.0019111849889688,27.999503126176027
2025-07-25 16:54:00.499,0.0019875263867043,27.922836531402258
2025-07-25 16:54:00.506,0.0020596037051327,27.82585566327962
2025-07-25 16:54:00.514,0.002127024230429,27.700054927375223
2025-07-25 16:54:00.522,0.0021895165871403,27.536064148499847
2025-07-25 16:54:00.530,0.0022469440892439,27.3237538642249
2025-07-25 16:54:00.538,0.0022993121500136,27.05235983422445
2025-07-25 16:54:00.545,0.0023467688562984,26.71062749109434
2025-07-25 16:54:00.553,0.0023895983886421,26.28697662109278
2025-07-25 16:54:00.561,0.0024282075875421,25.769685915826347
2025-07-25 16:54:00.569,0.0024631065020521,25.14709620668837
2025-07-25 16:54:00.577,0.002494884156587,24.407830221502667
2025-07-25 16:54:00.584,0.0025241810188052,23.541025637451916
2025-07-25 16:54:00.592,0.0025516597398332,22.536577110628723
2025-07-25 16:54:00.600,0.0025779756722548,21.38538191749184
2025-07-25 16:54:00.608,0.0026037484871764,20.079582925451835
2025-07-25 16:54:00.616,0.0026295359860832,18.612801883744726
2025-07-25 16:54:00.624,0.0026558109917601,16.980355534788668
2025-07-25 16:54:00.631,0.0026829419733117,15.179446812866678
2025-07-25 16:54:00.639,0.0027111777756403,13.209323431097111
2025-07-25 16:54:00.647,0.0027406365653406,11.07139646631466
2025-07-25 16:54:00.655,0.0027712989958051,8.769312146327465
2025-07-25 16:54:00.663,0.0028030056276462,6.308970941793457
2025-07-25 16:54:00.670,0.0028354586910136,3.698489281199018
2025-07-25 16:54:00.678,0.0028682282393451,0.9481007484390496
2025-07-25 16:54:00.686,0.0029007626095341,-1.9300045202547091
2025-07-25 16:54:00.694,0.0029324029404973,-4.921901377257875
2025-07-25 16:54:00.702,0.0029624013865896,-8.012208896287191
2025-07-25 16:54:00.709,0.0029899425935984,-11.18442151273288
2025-07-25 16:54:00.717,0.0030141679116177,-14.42128371181944
2025-07-25 16:54:00.725,0.0030342016579663,-17.705197438272506
2025-07-25 16:54:00.733,0.0030491785609752,-21.01864920485184
2025-07-25 16:54:00.741,0.0030582713871482,-24.344642112608117
2025-07-25 16:54:00.749,0.0030607176898135,-27.66711681579289
2025-07-25 16:54:00.756,0.0030558445773461,-30.97134500451617
2025-07-25 16:54:00.764,0.0030430903870203,-34.24427934429854
2025-07-25 16:54:00.772,0.0030220222187182,-37.47484506554963
2025-07-25 16:54:00.780,0.0029923484598695,-40.65416054559692
2025-07-25 16:54:00.788,0.0029539257179146,-43.77567721943491
2025-07-25 16:54:00.795,0.0029067599646992,-46.83523287713916
2025-07-25 16:54:00.803,0.002851002148338,-49.83101667423639
2025-07-25 16:54:00.811,0.002786938951562,-52.76344875566254
2025-07-25 16:54:00.819,0.002714979687176,-55.63498199201153
2025-07-25 16:54:00.827,0.002635640483703,-58.44983764492931
2025-07-25 16:54:00.834,0.0025495269223879,-61.21369051106685
2025-07-25 16:54:00.842,0.0024573161458491,-63.93332195611893
2025-07-25 16:54:00.850,0.0023597391791203,-66.61626100622247
2025-07-25 16:54:00.858,0.0022575638058107,-69.27043415134973
2025-07-25 16:54:00.866,0.0021515778817933,-71.90384365902497
2025-07-25 16:54:00.874,0.0020425725738587,-74.52429201008532
2025-07-25 16:54:00.881,0.0019313248485302,-77.13916665200341
2025-07-25 16:54:00.889,0.0018185786893753,-79.75529480685437
2025-07-25 16:54:00.897,0.0017050249092363,-82.37887283875243
2025-07-25 16:54:00.905,0.0015912798815749,-85.01546900939195
2025-07-25 16:54:00.913,0.0014778639168689,-87.67009268868851
2025-07-25 16:54:00.920,0.001365180301182,-90.34731759384653
2025-07-25 16:54:00.928,0.0012534961757593,-93.05144173081813
2025-07-25 16:54:00.936,0.0011429264593233,-95.78666269958975
2025-07-25 16:54:00.944,0.0010334218936629,-98.557244161803
2025-07-25 16:54:00.952,0.0009247620278383,-101.36764779535856
2025-07-25 16:54:00.959,0.0008165535569044,-104.22260519231128
2025-07-25 16:54:00.967,0.0007082339445188,-107.12710607347547
2025-07-25 16:54:00.975,0.0005990798052276,-110.08628300571844
2025-07-25 16:54:00.983,0.0004882192635616,-113.1051785026428
2025-07-25 16:54:00.991,0.0003746475230139,-116.18838777191516
2025-07-25 16:54:00.999,0.0002572450880115,-119.33957903713332
2025-07-25 16:54:01.006,0.0001347983238524,-122.5609027165342
2025-07-25 16:54:01.014,6.022193726591086e-06,-125.85231008388472
2025-07-25 16:54:01.022,-0.0001304149668365,-129.21081065547588
2025-07-25 16:54:01.030,-0.0002758648960283,-132.62970479624076
2025-07-25 16:54:01.038,-0.0004316715771573,-136.09783339157116
2025-07-25 16:54:01.045,-0.0005991429661677,-139.598889509817
2025-07-25 16:54:01.053,-0.0007795233871843,-143.11083755970037
2025-07-25 16:54:01.061,-0.0009739677775556,-146.60548345081287
2025-07-25 16:54:01.069,-0.0011835187369212,-150.04823474905902
2025-07-25 16:54:01.077,-0.0014090868866253,-153.39808295463095
2025-07-25 16:54:01.084,-0.0016514345339164,-156.6078311006178
2025-07-25 16:54:01.092,-0.0019111621757328,-159.6245792655812
2025-07-25 16:54:01.100,-0.002188697012695,-162.39046880560343
2025-07-25 16:54:01.108,-0.0024842823819174,-164.8436737271609
2025-07-25 16:54:01.116,-0.0027979668545582,-166.9196153099255
2025-07-25 16:54:01.124,-0.0031295916740102,-168.5523645724112
2025-07-25 16:54:01.131,-0.0034787752287958,-169.67618718597842
2025-07-25 16:54:01.139,-0.0038448933800568,-170.22717765738977
2025-07-25 16:54:01.147,-0.0042270547559971,-170.14492455706994
2025-07-25 16:54:01.155,-0.0046240706434006,-169.37414661511556
2025-07-25 16:54:01.163,-0.0050344198464315,-167.86624075302927
2025-07-25 16:54:01.170,-0.0054562097753792,-165.58068743517444
2025-07-25 16:54:01.178,-0.0058871359599714,-162.4862657500564
2025-07-25 16:54:01.186,-0.0063244430286248,-158.562039820315
2025-07-25 16:54:01.194,-0.006764890872971,-153.7980888216051
2025-07-25 16:54:01.202,-0.0072047301600979,-148.1959643453988
2025-07-25 16:54:01.209,-0.0076396914313843,-141.76887036299533
2025-07-25 16:54:01.217,-0.0080649916087992,-134.5415719739611
2025-07-25 16:54:01.225,-0.008475360870462,-126.55004882788776
2025-07-25 16:54:01.233,-0.0088650918062426,-117.8409170092098
2025-07-25 16:54:01.241,-0.0092281117746714,-108.4706487840438
2025-07-25 16:54:01.249,-0.0095580784992834,-98.50462266296223
2025-07-25 16:54:01.256,-0.0098484979904326,-88.01603680445095
2025-07-25 16:54:01.264,-0.010092862711424,-77.08471726262384
2025-07-25 16:54:01.272,-0.0102848066243714,-65.79584956076006
2025-07-25 16:54:01.280,-0.0104182725796939,-54.238658200484345
2025-07-25 16:54:01.288,-0.0104876865561572,-42.50505461458595
2025-07-25 16:54:01.295,-0.0104881324785593,-30.68827027994541
2025-07-25 16:54:01.303,-0.0104155207447343,-18.88148866058262
2025-07-25 16:54:01.311,-0.0102667433037702,-7.176487663486166
2025-07-25 16:54:01.319,-0.0100398082824218,4.3376964540943925
2025-07-25 16:54:01.327,-0.0097339478166785,15.57607224056752
2025-07-25 16:54:01.334,-0.0093496938557136,26.45895004130065
2025-07-25 16:54:01.342,-0.0088889181191792,36.91313689345014
2025-07-25 16:54:01.350,-0.0083548339517041,46.87305008788703
2025-07-25 16:54:01.358,-0.00775195944268,56.28172672345347
2025-07-25 16:54:01.366,-0.0070860428237123,65.09170355508975
2025-07-25 16:54:01.374,-0.0063639527608572,73.26573942898685
2025-07-25 16:54:01.381,-0.0055935376355954,80.77735220882698
2025-07-25 16:54:01.389,-0.0047834591684906,87.61114384186224
2025-07-25 16:54:01.397,-0.0039430066948808,93.76289138244412
2025-07-25 16:54:01.405,-0.0030818989732385,99.23938833602512
2025-07-25 16:54:01.413,-0.0022100805728695,104.05802920804808
2025-07-25 16:54:01.420,-0.0013375196961094,108.24613997939214
2025-07-25 16:54:01.428,-0.0004740137800877,111.84006760235344
2025-07-25 16:54:01.436,0.0003709916093241,114.88405173805276
2025-07-25 16:54:01.444,0.0011885661940319,117.42891113704134
2025-07-25 16:54:01.452,0.00197043759209,119.53058472120394
2025-07-25 16:54:01.459,0.0027091113268155,121.2485731198698
2025-07-25 16:54:01.467,0.0033979677313364,122.6443298606102
2025-07-25 16:54:01.475,0.0040313363538096,123.77965248539152
2025-07-25 16:54:01.483,0.0046045492473197,124.71512257838867
2025-07-25 16:54:01.491,0.0051139748867443,125.50864021922536
2025-07-25 16:54:01.499,0.0055570344009246,126.21409300956122
2025-07-25 16:54:01.506,0.0059322014354581,126.8801929616344
2025-07-25 16:54:01.514,0.0062389864536163,127.54950665464628
2025-07-25 16:54:01.522,0.0064779058753609,128.2576956568788
2025-07-25 16:54:01.530,0.0066504363051472,129.03297576334057
2025-07-25 16:54:01.538,0.0067589542068412,129.89579555073803
2025-07-25 16:54:01.545,0.0068066616624569,130.85872747906723
2025-07-25 16:54:01.553,0.0067974992446029,131.92655857225188
2025-07-25 16:54:01.561,0.0067360475161243,133.0965628064503
2025-07-25 16:54:01.569,0.0066274191764213,134.3589338514867
2025-07-25 16:54:01.577,0.0064771442870706,135.69735478161346
2025-07-25 16:54:01.584,0.0062910512512811,137.08968073741897
2025-07-25 16:54:01.592,0.0060751462692604,138.50871113766598
2025-07-25 16:54:01.600,0.0058354938129085,139.923029690115
2025-07-25 16:54:01.608,0.0055781002615271,141.29789285219772
2025-07-25 16:54:01.616,0.0053088023713443,142.59615021828694
2025-07-25 16:54:01.624,0.0050331619482718,143.77918321658314
2025-07-25 16:54:01.631,0.0047563680305685,144.8078511591122
2025-07-25 16:54:01.639,0.0044831479270811,145.64343581986503
2025-07-25 16:54:01.647,0.004217688459511,146.24857709352932
2025-07-25 16:54:01.655,0.0039635687640082,146.5881927556428
2025-07-25 16:54:01.663,0.0037237061283093,146.6303748356474
2025-07-25 16:54:01.670,0.0035003165581673,146.34725366035016
2025-07-25 16:54:01.678,0.003294891937121,145.71581836611625
2025-07-25 16:54:01.686,0.0031081956098973,144.71867984649052
2025-07-25 16:54:01.694,0.0029402778564149,143.344758998425
2025-07-25 16:54:01.702,0.0027905119740832,141.58988009557248
2025-07-25 16:54:01.709,0.0026576506310619,139.45724650709113
2025-07-25 16:54:01.717,0.0025399009641152,136.95777414516024
2025-07-25 16:54:01.725,0.0024350157058962,134.11025729553373
2025-07-25 16:54:01.733,0.0023403965306397,130.94134217471392
2025-07-25 16:54:01.741,0.0022532049441451,127.4852859573707
2025-07-25 16:54:01.749,0.0021704755800146,123.78348338673516
2025-07-25 16:54:01.756,0.0020892267739745,119.88374959764404
2025-07-25 16:54:01.764,0.0020065636931527,115.83935647284392
2025-07-25 16:54:01.772,0.0019197699333638,111.70783051325584
2025-07-25 16:54:01.780,0.0018263842611488,107.54953235048433
2025-07-25 16:54:01.788,0.001724260082827,103.42605092146954
2025-07-25 16:54:01.795,0.0016116062832242,99.39845803029728
2025-07-25 16:54:01.803,0.0014870091901065,95.52548053353928
2025-07-25 16:54:01.811,0.0013494364480142,91.86165673596344
2025-07-25 16:54:01.819,0.0011982245012455,88.45554994637884
2025-07-25 16:54:01.827,0.0010330522556566,85.34809490286429
2025-07-25 16:54:01.834,0.0008539042945019,82.57115156281512
2025-07-25 16:54:01.842,0.0006610275982957,80.146335446906
2025-07-25 16:54:01.850,0.0004548858826418,78.08418444462735
2025-07-25 16:54:01.858,0.000236115362869,76.38370906635845
2025-07-25 16:54:01.866,5.4850777842435805e-06,75.03235709265705
2025-07-25 16:54:01.874,-0.0002361359256974,74.00640513209876
2025-07-25 16:54:01.881,-0.000487803029915,73.27176962222428
2025-07-25 16:54:01.889,-0.0007485112867076,72.7852093063646
2025-07-25 16:54:01.897,-0.0010172013351102,72.49587132067046
2025-07-25 16:54:01.905,-0.001292756622554,72.34711492189098
2025-07-25 16:54:01.913,-0.0015739933290387,72.27853175342261
2025-07-25 16:54:01.920,-0.001859645056169,72.22807045198039
2025-07-25 16:54:01.928,-0.0021483447445237,72.13416720227187
2025-07-25 16:54:01.936,-0.0024386063964389,71.93778312415303
2025-07-25 16:54:01.944,-0.0027288091142858,71.58425434111786
2025-07-25 16:54:01.952,-0.0030171857878976,71.02487105133217
2025-07-25 16:54:01.959,-0.0033018184362295,70.21811732858635
2025-07-25 16:54:01.967,-0.0035806416962404,69.13052279391776
2025-07-25 16:54:01.975,-0.0038514553183689,67.73709952088727
2025-07-25 16:54:01.983,-0.0041119458618375,66.0213612013541
2025-07-25 16:54:01.991,-0.0043597171382768,63.97494526891258
2025-07-25 16:54:01.999,-0.0045923283567717,61.5968809235932
2025-07-25 16:54:02.006,-0.0048073384001884,58.89256543473346
2025-07-25 16:54:02.014,-0.0050023542341405,55.87252640648157
2025-07-25 16:54:02.022,-0.0051750811379937,52.55105773767195
2025-07-25 16:54:02.030,-0.0053233722724051,48.9448210224023
2025-07-25 16:54:02.038,-0.0054452750785518,45.071501883615
2025-07-25 16:54:02.045,-0.0055390721562928,40.94860255520217
2025-07-25 16:54:02.053,-0.0056033146045411,36.59243876362488
2025-07-25 16:54:02.061,-0.0056368463301056,32.017391790190565
2025-07-25 16:54:02.069,-0.0056388185074787,27.23544692226505
2025-07-25 16:54:02.077,-0.005608694094233,22.256028832249903
2025-07-25 16:54:02.084,-0.0055462429246279,17.086124249735388
2025-07-25 16:54:02.092,-0.0054515283477893,11.730663980791832
2025-07-25 16:54:02.100,-0.0053248867287195,6.1931210271043104
2025-07-25 16:54:02.108,-0.0051669015191606,0.4762701352037334
2025-07-25 16:54:02.116,-0.0049783740396191,-5.416952885882151
2025-07-25 16:54:02.124,-0.004760293454528,-11.482556087218676
2025-07-25 16:54:02.131,-0.0045138085057457,-17.71462238215853
2025-07-25 16:54:02.139,-0.0042402033417079,-24.104522243243693
2025-07-25 16:54:02.147,-0.0039408793418895,-30.640254196596032
2025-07-25 16:54:02.155,-0.003617344365901,-37.30594744175366
2025-07-25 16:54:02.163,-0.0032712104331503,-44.08154808815244
2025-07-25 16:54:02.170,-0.0029042003504334,-50.94269783091315
2025-07-25 16:54:02.178,-0.002518163091363,-57.860802449639216
2025-07-25 16:54:02.186,-0.0021150968016036,-64.80327802258843
2025-07-25 16:54:02.194,-0.0016971773233245,-71.73395552050977
2025-07-25 16:54:02.202,-0.0012667892572771,-78.61361946083716
2025-07-25 16:54:02.209,-0.0008265559253707,-85.4006533340769
2025-07-25 16:54:02.217,-0.00037936430843,-92.05176322854491
2025-07-25 16:54:02.225,7.161875377050816e-05,-98.5227511172756
2025-07-25 16:54:02.233,0.0005229421369907,-104.76931029100096
2025-07-25 16:54:02.241,0.0009708799219615,-110.74781713273585
2025-07-25 16:54:02.249,0.0014114561025103,-116.41609560862118
2025-07-25 16:54:02.256,0.00184048514121,-121.73413333813488
2025-07-25 16:54:02.264,0.0022536283716767,-126.66473079819676
2025-07-25 16:54:02.272,0.0026464654984271,-131.1740680425221
2025-07-25 16:54:02.280,0.0030145795785837,-135.2321762496189
2025-07-25 16:54:02.288,0.0033536530706873,-138.81330445825978
2025-07-25 16:54:02.295,0.0036595719925002,-141.89617504182843
2025-07-25 16:54:02.303,0.0039285349748347,-144.46412484320896
2025-07-25 16:54:02.311,0.0041571639141732,-146.50513243679313
2025-07-25 16:54:02.319,0.004342612834971,-148.01173564860406
2025-07-25 16:54:02.327,0.004482671354255,-148.98084713892158
2025-07-25 16:54:02.334,0.0045758588381462,-149.4134793774981
2025-07-25 16:54:02.342,0.0046215051256942,-149.31439353558926
2025-07-25 16:54:02.350,0.0046198137337474,-148.69168949391846
2025-07-25 16:54:02.358,0.0045719038303911,-147.55635615280266
2025-07-25 16:54:02.366,0.0044798280145884,-145.92180240066654
2025-07-25 16:54:02.374,0.0043465640568945,-143.80338937504473
2025-07-25 16:54:02.381,0.004175980105428,-141.21798402153243
2025-07-25 16:54:02.389,0.0039727741803046,-138.18355246480112
2025-07-25 16:54:02.397,0.003742389784321,-134.71880944647148
2025-07-25 16:54:02.405,0.0034909099803898,-130.84293719220048
2025-07-25 16:54:02.413,0.0032249323890814,-126.57538370319756
2025-07-25 16:54:02.420,0.0029514275412279,-121.93574678687357
2025-07-25 16:54:02.428,0.0026775832479126,-116.94374629434184
2025-07-25 16:54:02.436,0.0024106382967285,-111.61928314255928
2025-07-25 16:54:02.444,0.0021577096925341,-105.9825798655025
2025-07-25 16:54:02.452,0.0019256184543289,-100.05439374405404
2025-07-25 16:54:02.459,0.0017207193067334,-93.85629008654207
2025-07-25 16:54:02.467,0.0015487393706062,-87.41096006222116
2025-07-25 16:54:02.475,0.0014146303818859,-80.74256474426889
2025-07-25 16:54:02.483,0.0013224383876243,-73.87708483839793
2025-07-25 16:54:02.491,0.0012751944620752,-66.84265411214946
2025-07-25 16:54:02.499,0.0012748296928004,-59.66985394564791
2025-07-25 16:54:02.506,0.001322117311984,-52.39194681929388
2025-07-25 16:54:02.514,0.0014166442157649,-45.04502802209488
2025-07-25 16:54:02.522,0.0015568132263262,-37.6680774441622
2025-07-25 16:54:02.530,0.0017398765153412,-30.30289699278274
2025-07-25 16:54:02.538,0.0019619998311807,-22.993923866982943
2025-07-25 16:54:02.545,0.0022183565645879,-15.787915494600725
2025-07-25 16:54:02.553,0.0025032501067539,-8.73350815423027
2025-07-25 16:54:02.561,0.0028102622707448,-1.8806578669751013
2025-07-25 16:54:02.569,0.0031324247054223,4.720021325781091
2025-07-25 16:54:02.577,0.0034624092229691,11.01800050361732
2025-07-25 16:54:02.584,0.0037927318302504,16.96363403616086
2025-07-25 16:54:02.592,0.004115964131665,22.50898247215881
2025-07-25 16:54:02.600,0.0044249448716633,27.608627528600024
2025-07-25 16:54:02.608,0.0047129839191248,32.22044607407403
2025-07-25 16:54:02.616,0.004974051059562,36.30631143742407
2025-07-25 16:54:02.624,0.0052029424956682,39.83269369637199
2025-07-25 16:54:02.631,0.005395418819675,42.77113564914841
2025-07-25 16:54:02.639,0.0055483093309847,45.09858767290383
2025-07-25 16:54:02.647,0.0056595789597975,46.797592263012326
2025-07-25 16:54:02.655,0.005728355716306,47.85631729596372
2025-07-25 16:54:02.663,0.0057549183223992,48.26844548974724
2025-07-25 16:54:02.670,0.0057406452259898,48.03293565654627
2025-07-25 16:54:02.678,0.0056879274717887,47.15367867092517
2025-07-25 16:54:02.686,0.005600049099655,45.63907716642591
2025-07-25 16:54:02.694,0.0054810400569886,43.50158243572758
