Timestamp,GSR_Filtered,PPG_Filtered,FMS,Condition
2025-07-25 17:00:38.538,0.000640270975947,158.23888708389293,3,MB
2025-07-25 17:00:38.546,0.0006579380812349,141.62198246856462,3,MB
2025-07-25 17:00:38.554,0.0006830926942212,125.13663262583896,3,MB
2025-07-25 17:00:38.562,0.000715131867769,108.93439791083344,3,MB
2025-07-25 17:00:38.570,0.0007531780072177,93.15346829855667,3,MB
2025-07-25 17:00:38.577,0.0007961220562039,77.91684650669904,3,MB
2025-07-25 17:00:38.585,0.0008426735450189,63.33095510763352,3,MB
2025-07-25 17:00:38.593,0.0008914147094798,49.48467527551081,3,MB
2025-07-25 17:00:38.601,0.0009408559209866,36.44881563888754,3,MB
2025-07-25 17:00:38.609,0.0009894898773186,24.27600123137235,3,MB
2025-07-25 17:00:38.616,0.0010358423777596,13.000964460313762,3,MB
2025-07-25 17:00:38.624,0.0010785180249935,2.64121216119172,3,MB
2025-07-25 17:00:38.632,0.0011162398040217,-6.801964810348363,3,MB
2025-07-25 17:00:38.640,0.0011478820582081,-15.342180158462067,3,MB
2025-07-25 17:00:38.648,0.0011724967479323,-23.00638597951317,3,MB
2025-07-25 17:00:38.655,0.001189332961814,-29.833104147540315,3,MB
2025-07-25 17:00:38.663,0.0011978495669804,-35.87051130616155,3,MB
2025-07-25 17:00:38.671,0.0011977208666114,-41.174435569078106,3,MB
2025-07-25 17:00:38.679,0.0011888353417016,-45.80632324186527,3,MB
2025-07-25 17:00:38.687,0.0011712879551413,-49.83123222686682,3,MB
2025-07-25 17:00:38.695,0.0011453669353603,-53.31590534012602,3,MB
2025-07-25 17:00:38.702,0.0011115363153697,-56.326971715905344,3,MB
2025-07-25 17:00:38.710,0.0010704157135594,-58.92931802609986,3,MB
2025-07-25 17:00:38.718,0.0010227588265424,-61.18466367794641,3,MB
2025-07-25 17:00:38.726,0.0009694318286177,-63.1503657949065,3,MB
2025-07-25 17:00:38.734,0.0009113924365124,-64.87847097589591,3,MB
2025-07-25 17:00:38.741,0.0008496699708995,-66.41502191102646,3,MB
2025-07-25 17:00:38.749,0.0007853464255665,-67.79961823521927,3,MB
2025-07-25 17:00:38.757,0.0007195383262905,-69.06522282575446,3,MB
2025-07-25 17:00:38.765,0.0006533789945226,-70.23819736532734,3,MB
2025-07-25 17:00:38.773,0.0005880007731213,-71.33854462986925,3,MB
2025-07-25 17:00:38.780,0.0005245168701645,-72.38032980486828,3,MB
2025-07-25 17:00:38.788,0.0004640026548846,-73.37224931227843,3,MB
2025-07-25 17:00:38.796,0.0004074763727578,-74.31831320476772,3,MB
2025-07-25 17:00:38.804,0.0003558793347812,-75.21860615341755,3,MB
2025-07-25 17:00:38.812,0.0003100557871681,-76.07009235987775,3,MB
2025-07-25 17:00:38.820,0.000270732938491,-76.86743125598939,3,MB
2025-07-25 17:00:38.827,0.0002385019282272,-77.60377346436597,3,MB
2025-07-25 17:00:38.835,0.000213800702575,-78.27151000339126,3,MB
2025-07-25 17:00:38.843,0.00019689973271,-78.86295192900572,3,MB
2025-07-25 17:00:38.851,0.0001878913372349,-79.3709222978354,3,MB
2025-07-25 17:00:38.859,0.0001866832040576,-79.78924728869816,3,MB
2025-07-25 17:00:38.866,0.0001929966475085,-80.11313831510707,3,MB
2025-07-25 17:00:38.874,0.0002063701775535,-80.33946180278085,3,MB
2025-07-25 17:00:38.882,0.0002261689864425,-80.4668978238427,3,MB
2025-07-25 17:00:38.890,0.0002516008129513,-80.49599283400518,3,MB
2025-07-25 17:00:38.898,0.0002817382463361,-80.42911524452849,3,MB
2025-07-25 17:00:38.905,0.0003155469624172,-80.27032540809084,3,MB
2025-07-25 17:00:38.913,0.0003519188065221,-80.02517377301675,3,MB
2025-07-25 17:00:38.921,0.0003897081743606,-79.70044245529361,3,MB
2025-07-25 17:00:38.929,0.0004277698414365,-79.3038463002774,3,MB
2025-07-25 17:00:38.937,0.0004649962665001,-78.84370967863833,3,MB
2025-07-25 17:00:38.945,0.0005003524466519,-78.32863482702643,3,MB
2025-07-25 17:00:38.952,0.0005329066278744,-77.76717656857008,3,MB
2025-07-25 17:00:38.960,0.0005618555616247,-77.16753681297887,3,MB
2025-07-25 17:00:38.968,0.0005865434956105,-76.53729042931316,3,MB
2025-07-25 17:00:38.976,0.0006064745724315,-75.8831519972937,3,MB
2025-07-25 17:00:38.984,0.0006213186250686,-75.21079066549567,3,MB
2025-07-25 17:00:38.991,0.0006309104545178,-74.52469796294041,3,MB
2025-07-25 17:00:38.999,0.0006352427005818,-73.82811100493893,3,MB
2025-07-25 17:00:39.007,0.000634452571783,-73.12299118150553,3,MB
2025-07-25 17:00:39.015,0.0006288030185508,-72.41005619337707,3,MB
2025-07-25 17:00:39.023,0.0006186592978542,-71.68886128218207,3,MB
2025-07-25 17:00:39.030,0.0006044622052933,-70.95792375929834,3,MB
2025-07-25 17:00:39.038,0.0005866995415067,-70.21488353371159,3,MB
2025-07-25 17:00:39.046,0.0005658775904175,-69.45669131682338,3,MB
2025-07-25 17:00:39.054,0.0005424943956655,-68.67981556593546,3,MB
2025-07-25 17:00:39.062,0.0005170163618631,-67.88045902308758,3,MB
2025-07-25 17:00:39.070,0.000489859266487,-67.05477589734468,3,MB
2025-07-25 17:00:39.077,0.0004613743093565,-66.19908129153173,3,MB
2025-07-25 17:00:39.085,0.0004318394427815,-65.31004533714959,3,MB
2025-07-25 17:00:39.093,0.0004014558985717,-64.3848656131749,3,MB
2025-07-25 17:00:39.101,0.0003703495266563,-63.42141272211769,3,MB
2025-07-25 17:00:39.109,0.0003385763317409,-62.418345313137145,3,MB
2025-07-25 17:00:39.116,0.0003061314893064,-61.37519230323082,3,MB
2025-07-25 17:00:39.124,0.0002729610676936,-60.292401474520496,3,MB
2025-07-25 17:00:39.132,0.0002389755617844,-59.17135494360814,3,MB
2025-07-25 17:00:39.140,0.0002040641650804,-58.01435314561861,3,MB
2025-07-25 17:00:39.148,0.0001681085955047,-56.82456990420968,3,MB
2025-07-25 17:00:39.155,0.0001309953525927,-55.6059818404872,3,MB
2025-07-25 17:00:39.163,9.262555056717805e-05,-54.36327580205676,3,MB
2025-07-25 17:00:39.171,5.292190193843944e-05,-53.10173818901404,3,MB
2025-07-25 17:00:39.179,1.1832897517390625e-05,-51.82713006175364,3,MB
2025-07-25 17:00:39.187,-3.0665425380642256e-05,-50.54555179527677,3,MB
2025-07-25 17:00:39.195,-7.45696005160145e-05,-49.2633008563154,3,MB
2025-07-25 17:00:39.202,-0.0001198502152855,-47.98672607593741,3,MB
2025-07-25 17:00:39.210,-0.0001664542349513,-46.72208161328491,3,MB
2025-07-25 17:00:39.218,-0.0002143075635198,-45.47538368074476,3,MB
2025-07-25 17:00:39.226,-0.0002633171468789,-44.25227302713283,3,MB
2025-07-25 17:00:39.234,-0.0003133719741021,-43.05788612720092,3,MB
2025-07-25 17:00:39.241,-0.0003643425953155,-41.89673796203767,3,MB
2025-07-25 17:00:39.249,-0.0004160791634898,-40.77261915787005,3,MB
2025-07-25 17:00:39.257,-0.0004684083573971,-39.68851005798799,3,MB
2025-07-25 17:00:39.265,-0.0005211297328198,-38.64651402756938,3,MB
2025-07-25 17:00:39.273,-0.0005740120393542,-37.6478119349292,3,MB
2025-07-25 17:00:39.280,-0.0006267898635164,-36.69263931468268,3,MB
2025-07-25 17:00:39.288,-0.0006791607296317,-35.78028719552287,3,MB
2025-07-25 17:00:39.296,-0.0007307826674795,-34.909126968577695,3,MB
2025-07-25 17:00:39.304,-0.0007812723199474,-34.07665899378703,3,MB
2025-07-25 17:00:39.312,-0.0008302038376389,-33.27958391802601,3,MB
2025-07-25 17:00:39.320,-0.000877108939243,-32.513894948585445,3,MB
2025-07-25 17:00:39.327,-0.0009214785268121,-31.77498863416381,3,MB
2025-07-25 17:00:39.335,-0.0009627661718806,-31.05779109542924,3,MB
2025-07-25 17:00:39.343,-0.0010003937105693,-30.35689614981069,3,MB
2025-07-25 17:00:39.351,-0.0010337591399963,-29.66671140693045,3,MB
2025-07-25 17:00:39.359,-0.0010622469977523,-28.981608177830093,3,MB
2025-07-25 17:00:39.366,-0.0010852414331736,-28.296070943531067,3,MB
2025-07-25 17:00:39.374,-0.0011021422125573,-27.604842162842218,3,MB
2025-07-25 17:00:39.382,-0.0011123838610776,-26.90305835787977,3,MB
2025-07-25 17:00:39.390,-0.0011154579667052,-26.18637369047985,3,MB
2025-07-25 17:00:39.398,-0.001110938366281,-25.45106762831366,3,MB
2025-07-25 17:00:39.405,-0.0010985085813319,-24.69413379035629,3,MB
2025-07-25 17:00:39.413,-0.0010779905379474,-23.91334764557411,3,MB
2025-07-25 17:00:39.421,-0.0010493732719116,-23.10731139735401,3,MB
2025-07-25 17:00:39.429,-0.0010128399637005,-22.275475096700944,3,MB
2025-07-25 17:00:39.437,-0.0009687913641968,-21.418133765008378,3,MB
2025-07-25 17:00:39.445,-0.0009178635984401,-20.536401044360023,3,MB
2025-07-25 17:00:39.452,-0.0008609384781125,-19.632160598781677,3,MB
2025-07-25 17:00:39.460,-0.0007991447001749,-18.707997133583525,3,MB
2025-07-25 17:00:39.468,-0.0007338485635648,-17.767109458667697,3,MB
2025-07-25 17:00:39.476,-0.0006666330992773,-16.813208482632277,3,MB
2025-07-25 17:00:39.484,-0.0005992648842288,-15.850403384334584,3,MB
2025-07-25 17:00:39.491,-0.0005336484423081,-14.883079467939664,3,MB
2025-07-25 17:00:39.499,-0.0004717690816799,-13.915771365685318,3,MB
2025-07-25 17:00:39.507,-0.0004156261396366,-12.95303530654524,3,MB
2025-07-25 17:00:39.515,-0.0003671596419123,-11.999324115046903,3,MB
2025-07-25 17:00:39.523,-0.0003281741074328,-11.058868440323756,3,MB
2025-07-25 17:00:39.531,-0.0003002635440652,-10.135567441944318,3,MB
2025-07-25 17:00:39.538,-0.0002847415703875,-9.23289178330239,3,MB
2025-07-25 17:00:39.546,-0.0002825800977497,-8.353801320152085,3,MB
2025-07-25 17:00:39.554,-0.000294359264554,-7.50067934111788,3,MB
2025-07-25 17:00:39.562,-0.0003202305768694,-6.675284640464793,3,MB
2025-07-25 17:00:39.570,-0.0003598946389694,-5.878722106162713,3,MB
2025-07-25 17:00:39.577,-0.0004125944151533,-5.111431920288123,3,MB
2025-07-25 17:00:39.585,-0.0004771245029398,-4.373196929569922,3,MB
2025-07-25 17:00:39.593,-0.0005518563130764,-3.6631672788363625,3,MB
2025-07-25 17:00:39.601,-0.0006347783463403,-2.9799010188370287,3,MB
2025-07-25 17:00:39.609,-0.0007235500408705,-2.321419094962321,3,MB
2025-07-25 17:00:39.616,-0.0008155670970513,-1.6852728796371508,3,MB
2025-07-25 17:00:39.624,-0.0009080358512851,-1.0686222151611522,3,MB
2025-07-25 17:00:39.632,-0.000998054095732,-0.4683217783317202,3,MB
2025-07-25 17:00:39.640,-0.001082695612705,0.1189865370942632,3,MB
2025-07-25 17:00:39.648,-0.001159095608871,0.6967775949849415,3,MB
2025-07-25 17:00:39.656,-0.0012245343095188,1.2685457444358008,3,MB
2025-07-25 17:00:39.663,-0.0012765162755407,1.837708663550793,3,MB
2025-07-25 17:00:39.671,-0.0013128434541846,2.407514595810108,3,MB
2025-07-25 17:00:39.679,-0.0013316804107199,2.980955121193026,3,MB
2025-07-25 17:00:39.687,-0.0013316105003515,3.5606854349963384,3,MB
2025-07-25 17:00:39.695,-0.0013116818941691,4.148953915840641,3,MB
2025-07-25 17:00:39.702,-0.00127144237681,4.747542556435684,3,MB
2025-07-25 17:00:39.710,-0.0012109617129722,5.35771960253483,3,MB
2025-07-25 17:00:39.718,-0.0011308402000607,5.980205487899646,3,MB
2025-07-25 17:00:39.726,-0.0010322019238133,6.615152857941045,3,MB
2025-07-25 17:00:39.734,-0.0009166713923891,7.262141140287141,3,MB
2025-07-25 17:00:39.741,-0.0007863327371406,7.920185754240671,3,MB
2025-07-25 17:00:39.749,-0.000643671466065,8.587761669123948,3,MB
2025-07-25 17:00:39.757,-0.0004914996881166,9.262840643469278,3,MB
2025-07-25 17:00:39.765,-0.0003328667055427,9.94294111784446,3,MB
2025-07-25 17:00:39.773,-0.0001709579126798,10.625189401093303,3,MB
2025-07-25 17:00:39.781,-8.986053040759891e-06,11.306390487299756,3,MB
2025-07-25 17:00:39.788,0.0001499200700147,11.983106575792789,3,MB
2025-07-25 17:00:39.796,0.0003028236491986,12.651741147665318,3,MB
2025-07-25 17:00:39.804,0.0004470788385971,13.308626286372387,3,MB
2025-07-25 17:00:39.812,0.0005804153378492,13.95011082408542,3,MB
2025-07-25 17:00:39.820,0.0007010043557544,14.572646863586188,3,MB
2025-07-25 17:00:39.827,0.000807503032903,15.172872288417532,3,MB
2025-07-25 17:00:39.835,0.0008990758105268,15.747687048244718,3,MB
2025-07-25 17:00:39.843,0.0009753925872604,16.294321291105614,3,MB
2025-07-25 17:00:39.851,0.0010366047234639,16.810393788895848,3,MB
2025-07-25 17:00:39.859,0.0010833010487323,17.29395953563932,3,MB
2025-07-25 17:00:39.866,0.0011164470270876,17.743545857659807,3,MB
2025-07-25 17:00:39.874,0.0011373110459691,18.158176831210355,3,MB
2025-07-25 17:00:39.882,0.0011473822919594,18.53738622863504,3,MB
2025-07-25 17:00:39.890,0.0011482848584734,18.88121958303396,3,MB
2025-07-25 17:00:39.898,0.0011416926882756,19.190226252329275,3,MB
2025-07-25 17:00:39.906,0.0011292496959659,19.46544256036325,3,MB
2025-07-25 17:00:39.913,0.00111249885455,19.70836718376603,3,MB
2025-07-25 17:00:39.921,0.0010928231559456,19.92092993432553,3,MB
2025-07-25 17:00:39.929,0.0010714003491167,20.105454965160867,3,MB
2025-07-25 17:00:39.937,0.0010491724533289,20.26461922911689,3,MB
2025-07-25 17:00:39.945,0.0010268303023006,20.40140677817532,3,MB
2025-07-25 17:00:39.952,0.001004812709209,20.519059259499933,3,MB
2025-07-25 17:00:39.960,0.0009833191973621,20.62102278169457,3,MB
2025-07-25 17:00:39.968,0.0009623346461165,20.710891229569928,3,MB
2025-07-25 17:00:39.976,0.0009416636728993,20.7923461178884,3,MB
2025-07-25 17:00:39.984,0.0009209721138105,20.869093196319696,3,MB
2025-07-25 17:00:39.991,0.0008998326651891,20.94479623281388,3,MB
2025-07-25 17:00:39.999,0.000877771732799,21.02300868021588,3,MB
2025-07-25 17:00:40.007,0.0008543148024783,21.10710423363193,3,MB
2025-07-25 17:00:40.015,0.0008290280620445,21.200207576834515,3,MB
2025-07-25 17:00:40.023,0.0008015544521979,21.30512686428069,3,MB
2025-07-25 17:00:40.031,0.0007716427574945,21.424289670584905,3,MB
2025-07-25 17:00:40.038,0.000739168749393,21.559684253335945,3,MB
2025-07-25 17:00:40.046,0.0007041477841221,21.71280802158232,3,MB
2025-07-25 17:00:40.054,0.0006667387050103,21.884625089557044,3,MB
2025-07-25 17:00:40.062,0.000627239429008,22.075534724592348,3,MB
2025-07-25 17:00:40.070,0.0005860751216185,22.28535235674227,3,MB
2025-07-25 17:00:40.077,0.0005437802247352,22.51330458379006,3,MB
2025-07-25 17:00:40.085,0.000500975714974,22.758039262475688,3,MB
2025-07-25 17:00:40.093,0.0004583429120385,23.017651323209066,3,MB
2025-07-25 17:00:40.101,0.0004165950842837,23.289724395385548,3,MB
2025-07-25 17:00:40.109,0.0003764481197973,23.57138770954116,3,MB
2025-07-25 17:00:40.116,0.0003385916468953,23.859387084205004,3,MB
2025-07-25 17:00:40.124,0.0003036620917841,24.150168147821105,3,MB
2025-07-25 17:00:40.132,0.0002722190978953,24.439969332103217,3,MB
2025-07-25 17:00:40.140,0.0002447264259747,24.72492164701444,3,MB
2025-07-25 17:00:40.148,0.0002215379898202,25.001151850635623,3,MB
2025-07-25 17:00:40.156,0.0002028892232896,25.264885392868088,3,MB
2025-07-25 17:00:40.163,0.0001888936395589,25.51254546160092,3,MB
2025-07-25 17:00:40.171,0.0001795442727382,25.74084460015307,3,MB
2025-07-25 17:00:40.179,0.0001747196528127,25.946865686244728,3,MB
2025-07-25 17:00:40.187,0.000174193950423,26.128129543716906,3,MB
2025-07-25 17:00:40.195,0.0001776508142181,26.282647070287712,3,MB
2025-07-25 17:00:40.202,0.0001847002032599,26.408954476708526,3,MB
2025-07-25 17:00:40.210,0.000194897311065,26.50613100971353,3,MB
2025-07-25 17:00:40.218,0.0002077625643636,26.57379932925015,3,MB
2025-07-25 17:00:40.226,0.0002228016155982,26.61210947514618,3,MB
2025-07-25 17:00:40.234,0.000239524195023,26.62170803160128,3,MB
2025-07-25 17:00:40.241,0.0002574606937924,26.60369463149258,3,MB
2025-07-25 17:00:40.249,0.0002761754816466,26.559568308984176,3,MB
2025-07-25 17:00:40.257,0.0002952762481969,26.49116640458981,3,MB
2025-07-25 17:00:40.265,0.0003144190845128,26.400598767748463,3,MB
2025-07-25 17:00:40.273,0.0003333095384388,26.290179916005155,3,MB
2025-07-25 17:00:40.281,0.0003517003567481,26.16236162721594,3,MB
2025-07-25 17:00:40.288,0.000369386902594,26.01966818692834,3,MB
2025-07-25 17:00:40.296,0.000386201223615,25.86463620474748,3,MB
2025-07-25 17:00:40.304,0.000402005521774,25.699760563516985,3,MB
2025-07-25 17:00:40.312,0.0004166855010549,25.527447685469443,3,MB
2025-07-25 17:00:40.320,0.0004301438628489,25.349976903282844,3,MB
2025-07-25 17:00:40.327,0.0004422941279558,25.169470323391444,3,MB
2025-07-25 17:00:40.335,0.0004530549931228,24.987871174372405,3,MB
2025-07-25 17:00:40.343,0.0004623455410728,24.8069302574313,3,MB
2025-07-25 17:00:40.351,0.0004700817105165,24.62819977803415,3,MB
2025-07-25 17:00:40.359,0.0004761743759084,24.4530335608274,3,MB
2025-07-25 17:00:40.366,0.0004805291832049,24.282592453040674,3,MB
2025-07-25 17:00:40.374,0.0004830480642278,24.117853612023723,3,MB
2025-07-25 17:00:40.382,0.0004836321929598,23.9596223469874,3,MB
2025-07-25 17:00:40.390,0.0004821860162907,23.808545234720786,3,MB
2025-07-25 17:00:40.398,0.0004786218579407,23.66512334345949,3,MB
2025-07-25 17:00:40.406,0.0004728645122948,23.52972456538656,3,MB
2025-07-25 17:00:40.413,0.0004648552892556,23.40259426264585,3,MB
2025-07-25 17:00:40.421,0.0004545551689633,23.28386366255133,3,MB
2025-07-25 17:00:40.429,0.0004419470385914,23.17355568476778,3,MB
2025-07-25 17:00:40.437,0.000427037295172,23.071588133499564,3,MB
2025-07-25 17:00:40.445,0.0004098572485217,22.97777442309928,3,MB
2025-07-25 17:00:40.452,0.0003904646682418,22.89182220714744,3,MB
2025-07-25 17:00:40.460,0.0003689455694289,22.813330435279973,3,MB
2025-07-25 17:00:40.468,0.0003454160853832,22.74178546272523,3,MB
2025-07-25 17:00:40.476,0.0003200241513233,22.676556884372093,3,MB
2025-07-25 17:00:40.484,0.0002929507600352,22.61689376147268,3,MB
2025-07-25 17:00:40.491,0.0002644107168092,22.561921861862636,3,MB
2025-07-25 17:00:40.499,0.0002346530050234,22.51064245680285,3,MB
2025-07-25 17:00:40.507,0.0002039609196355,22.461933126706832,3,MB
2025-07-25 17:00:40.515,0.0001726519583977,22.41455093877757,3,MB
2025-07-25 17:00:40.523,0.0001410771629851,22.36713827593818,3,MB
2025-07-25 17:00:40.531,0.0001096193377338,22.31823151203992,3,MB
2025-07-25 17:00:40.538,7.868946130192563e-05,22.26627263530681,3,MB
2025-07-25 17:00:40.546,4.87206895297184e-05,22.20962381867409,3,MB
2025-07-25 17:00:40.554,2.0159624016500752e-05,22.14658482515815,3,MB
2025-07-25 17:00:40.562,-6.545056893704049e-06,22.07541302012966,3,MB
2025-07-25 17:00:40.570,-3.095606300261728e-05,21.99434563973117,3,MB
2025-07-25 17:00:40.577,-5.266221077971116e-05,21.90162383973058,3,MB
2025-07-25 17:00:40.585,-7.129348438068892e-05,21.795517933992254,3,MB
2025-07-25 17:00:40.593,-8.653561934146124e-05,21.674353139426657,3,MB
2025-07-25 17:00:40.601,-9.814348861426135e-05,21.53653507817736,3,MB
2025-07-25 17:00:40.609,-0.0001059525750439,21.38057424148574,3,MB
2025-07-25 17:00:40.616,-0.0001098877270252,21.205108587184867,3,MB
2025-07-25 17:00:40.624,-0.0001099683245173,21.00892342876797,3,MB
2025-07-25 17:00:40.632,-0.0001063090886767,20.790967795162093,3,MB
2025-07-25 17:00:40.640,-9.91161264802774e-05,20.55036651944669,3,MB
2025-07-25 17:00:40.648,-8.867832848344629e-05,20.28642747168107,3,MB
2025-07-25 17:00:40.656,-7.535476827830148e-05,19.99864359339597,3,MB
2025-07-25 17:00:40.663,-5.955916387882036e-05,19.686689707067348,3,MB
2025-07-25 17:00:40.671,-4.174270567510178e-05,19.350414430123944,3,MB
2025-07-25 17:00:40.679,-2.2376622298724125e-05,18.98982787445043,3,MB
2025-07-25 17:00:40.687,-1.935751026511224e-06,18.605086115791494,3,MB
2025-07-25 17:00:40.695,1.9115857965982685e-05,18.19647364323703,3,MB
2025-07-25 17:00:40.702,4.033656358698231e-05,17.7643851313136,3,MB
2025-07-25 17:00:40.710,6.131552348739226e-05,17.309307907309822,3,MB
2025-07-25 17:00:40.718,8.167769301567628e-05,16.831806407986704,3,MB
2025-07-25 17:00:40.726,0.0001010856262384,16.332509730905596,3,MB
2025-07-25 17:00:40.734,0.000119238586501,15.81210309226033,3,MB
2025-07-25 17:00:40.741,0.0001358696236377,15.271323619839348,3,MB
2025-07-25 17:00:40.749,0.0001507412608827,14.710960459724566,3,MB
2025-07-25 17:00:40.757,0.000163640377242,14.131858692582734,3,MB
2025-07-25 17:00:40.765,0.0001743728711905,13.53492608617105,3,MB
2025-07-25 17:00:40.773,0.0001827587560506,12.921141308960223,3,MB
2025-07-25 17:00:40.781,0.0001886283954674,12.291561947005682,3,MB
2025-07-25 17:00:40.788,0.0001918205575055,11.64733054086934,3,MB
2025-07-25 17:00:40.796,0.0001921828180683,10.989676911633032,3,MB
2025-07-25 17:00:40.804,0.0001895745852779,10.31991527549026,3,MB
2025-07-25 17:00:40.812,0.0001838726571242,9.639435036150187,3,MB
2025-07-25 17:00:40.820,0.0001749788122819,8.949684654772561,3,MB
2025-07-25 17:00:40.827,0.0001628285662593,8.252148572685012,3,MB
2025-07-25 17:00:40.835,0.0001473999930254,7.548317738337882,3,MB
2025-07-25 17:00:40.843,0.0001287214592832,6.839654806349057,3,MB
2025-07-25 17:00:40.851,0.0001068772546777,6.127555486808046,3,MB
2025-07-25 17:00:40.859,8.201041895420425e-05,5.413307799598163,3,MB
2025-07-25 17:00:40.866,5.432252004733917e-05,4.698051123560377,3,MB
2025-07-25 17:00:40.874,2.407060419919695e-05,3.982736936178781,3,MB
2025-07-25 17:00:40.882,-8.438144067070122e-06,3.268093044612016,3,MB
2025-07-25 17:00:40.890,-4.285341157595597e-05,2.5545929477644465,3,MB
2025-07-25 17:00:40.898,-7.87898910941916e-05,1.8424317712810443,3,MB
2025-07-25 17:00:40.906,-0.0001158360798821,1.1315100033176733,3,MB
2025-07-25 17:00:40.913,-0.0001535632970497,0.4214260409784016,3,MB
2025-07-25 17:00:40.921,-0.0001915344845583,-0.2885216606100111,3,MB
2025-07-25 17:00:40.929,-0.0002293124718794,-0.999322269433902,3,MB
2025-07-25 17:00:40.937,-0.0002664676048273,-1.712229769589858,3,MB
2025-07-25 17:00:40.945,-0.0003025848380878,-2.4287296397764253,3,MB
2025-07-25 17:00:40.952,-0.0003372704858115,-3.150495336672426,3,MB
2025-07-25 17:00:40.960,-0.0003701588551659,-3.87933529953348,3,MB
2025-07-25 17:00:40.968,-0.0004009189912336,-4.61713162782468,3,MB
2025-07-25 17:00:40.976,-0.0004292616909047,-5.365772039241688,3,MB
2025-07-25 17:00:40.984,-0.0004549467383012,-6.127077167597809,3,MB
2025-07-25 17:00:40.991,-0.0004777899900118,-6.902725680231498,3,MB
2025-07-25 17:00:40.999,-0.000497669611866,-7.694180049995692,3,MB
2025-07-25 17:00:41.007,-0.0005145306058374,-8.502616071497254,3,MB
2025-07-25 17:00:41.015,-0.0005283868506296,-9.328859327445038,3,MB
2025-07-25 17:00:41.023,-0.0005393201431727,-10.17333175378384,3,MB
2025-07-25 17:00:41.031,-0.0005474760463869,-11.03601119791557,3,MB
2025-07-25 17:00:41.038,-0.0005530566755452,-11.91640641053815,3,MB
2025-07-25 17:00:41.046,-0.0005563108937833,-12.81354928301772,3,MB
2025-07-25 17:00:41.054,-0.0005575226796175,-13.726005383303702,3,MB
2025-07-25 17:00:41.062,-0.000556998593184,-14.651903004421856,3,MB
2025-07-25 17:00:41.070,-0.0005550553003848,-15.58898006752216,3,MB
2025-07-25 17:00:41.077,-0.000552008059692,-16.534647362360424,3,MB
2025-07-25 17:00:41.085,-0.0005481609392528,-17.486065812356543,3,MB
2025-07-25 17:00:41.093,-0.0005437993081709,-18.440234771579963,3,MB
2025-07-25 17:00:41.101,-0.0005391848931536,-19.39408784169856,3,MB
2025-07-25 17:00:41.109,-0.0005345534898488,-20.344592365356448,3,MB
2025-07-25 17:00:41.116,-0.0005301152746791,-21.28884861818281,3,MB
2025-07-25 17:00:41.124,-0.0005260575076129,-22.22418478164772,3,MB
2025-07-25 17:00:41.132,-0.0005225491845185,-23.14824401984272,3,MB
2025-07-25 17:00:41.140,-0.0005197469030553,-24.05906037996623,3,MB
2025-07-25 17:00:41.148,-0.0005178009611436,-24.955120754187007,3,MB
2025-07-25 17:00:41.156,-0.000516860665773,-25.83541074224893,3,MB
2025-07-25 17:00:41.163,-0.0005170780364992,-26.699442906339705,3,MB
2025-07-25 17:00:41.171,-0.0005186093894585,-27.547266585705174,3,MB
2025-07-25 17:00:41.179,-0.000521614484809,-28.37945911734656,3,MB
2025-07-25 17:00:41.187,-0.0005262530059524,-29.197098973985614,3,MB
2025-07-25 17:00:41.195,-0.0005326782924044,-30.00172196643989,3,MB
2025-07-25 17:00:41.202,-0.0005410285823559,-30.795262248198227,3,MB
2025-07-25 17:00:41.210,-0.0005514164372511,-31.57998038349321,3,MB
2025-07-25 17:00:41.218,-0.0005639173525877,-32.35838117027146,3,MB
2025-07-25 17:00:41.226,-0.0005785587287475,-33.133124223032844,3,MB
2025-07-25 17:00:41.234,-0.0005953103431056,-33.90693050576132,3,MB
2025-07-25 17:00:41.241,-0.0006140771866431,-34.68248806329956,3,MB
2025-07-25 17:00:41.249,-0.0006346950778997,-35.46236013921453,3,MB
2025-07-25 17:00:41.257,-0.0006569290578933,-36.24889869918348,3,MB
2025-07-25 17:00:41.265,-0.0006804743596577,-37.04416610985395,3,MB
2025-07-25 17:00:41.273,-0.0007049597030893,-37.84986736323028,3,MB
2025-07-25 17:00:41.281,-0.0007299526761194,-38.6672947981513,3,MB
2025-07-25 17:00:41.288,-0.0007549669917715,-39.4972867702862,3,MB
2025-07-25 17:00:41.296,-0.0007794714971346,-40.34020118218406,3,MB
2025-07-25 17:00:41.304,-0.0008029009710473,-41.1959042304948,3,MB
2025-07-25 17:00:41.312,-0.0008246689371842,-42.06377418394286,3,MB
2025-07-25 17:00:41.320,-0.0008441828279276,-42.94271949516962,3,MB
2025-07-25 17:00:41.327,-0.0008608617122204,-43.83121008870255,3,MB
2025-07-25 17:00:41.335,-0.0008741564039455,-44.72732026645377,3,MB
2025-07-25 17:00:41.343,-0.0008835712624463,-45.628781337069626,3,MB
2025-07-25 17:00:41.351,-0.0008886865976801,-46.533041809532,3,MB
2025-07-25 17:00:41.359,-0.0008891803489479,-47.43733279759013,3,MB
2025-07-25 17:00:41.366,-0.0008848475555779,-48.33873616371707,3,MB
2025-07-25 17:00:41.374,-0.000875616095651,-49.234252894444055,3,MB
2025-07-25 17:00:41.382,-0.0008615573489376,-50.12086924873349,3,MB
2025-07-25 17:00:41.390,-0.0008428908792881,-50.995618361911646,3,MB
2025-07-25 17:00:41.398,-0.0008199827746286,-51.85563522043419,3,MB
2025-07-25 17:00:41.406,-0.0007933377224805,-52.69820324382921,3,MB
2025-07-25 17:00:41.413,-0.0007635851937314,-53.52079111391897,3,MB
2025-07-25 17:00:41.421,-0.0007314603658509,-54.32107897164354,3,MB
2025-07-25 17:00:41.429,-0.0006977807054506,-55.096973646091975,3,MB
2025-07-25 17:00:41.437,-0.0006634194009806,-55.84661316053095,3,MB
2025-07-25 17:00:41.445,-0.000629277014157,-56.56836133104079,3,MB
2025-07-25 17:00:41.452,-0.000596252768068,-57.26079378384328,3,MB
2025-07-25 17:00:41.460,-0.000565216805898,-57.92267712440503,3,MB
2025-07-25 17:00:41.468,-0.000536984541061,-58.55294326505132,3,MB
2025-07-25 17:00:41.476,-0.000512293890435,-59.15066104166552,3,MB
2025-07-25 17:00:41.484,-0.000491785785952,-59.715007222815295,3,MB
2025-07-25 17:00:41.491,-0.0004759880104908,-60.24523885239481,3,MB
2025-07-25 17:00:41.499,-0.0004653022295961,-60.74066859944476,3,MB
2025-07-25 17:00:41.507,-0.000459994098453,-61.200644449878126,3,MB
2025-07-25 17:00:41.515,-0.0004601863901391,-61.624534691916296,3,MB
2025-07-25 17:00:41.523,-0.0004658551329636,-62.01171873896941,3,MB
2025-07-25 17:00:41.531,-0.0004768287969284,-62.361583915639,3,MB
2025-07-25 17:00:41.538,-0.0004927906612407,-62.67352792106735,3,MB
2025-07-25 17:00:41.546,-0.0005132845680852,-62.94696629751524,3,MB
2025-07-25 17:00:41.554,-0.0005377242488526,-63.181343889350885,3,MB
2025-07-25 17:00:41.562,-0.0005654062921048,-63.37614899588037,3,MB
2025-07-25 17:00:41.570,-0.0005955266705734,-63.53092871683876,3,MB
2025-07-25 17:00:41.577,-0.0006272006059177,-63.64530387730613,3,MB
2025-07-25 17:00:41.585,-0.0006594853874727,-63.71898191281282,3,MB
2025-07-25 17:00:41.593,-0.0006914055337737,-63.75176620486228,3,MB
2025-07-25 17:00:41.601,-0.0007219794737227,-63.7435605852854,3,MB
2025-07-25 17:00:41.609,-0.0007502468517099,-63.69436806880896,3,MB
2025-07-25 17:00:41.616,-0.0007752956239952,-63.60428330744463,3,MB
2025-07-25 17:00:41.624,-0.0007962881916416,-63.47347875221521,3,MB
2025-07-25 17:00:41.632,-0.0008124858098965,-63.30218500906432,3,MB
2025-07-25 17:00:41.640,-0.0008232704225508,-63.09066633454469,3,MB
2025-07-25 17:00:41.648,-0.0008281629696418,-62.83919258707725,3,MB
2025-07-25 17:00:41.656,-0.0008268371974077,-62.5480091969485,3,MB
2025-07-25 17:00:41.663,-0.0008191280998181,-62.21730682179757,3,MB
2025-07-25 17:00:41.671,-0.0008050343446024,-61.8471923077909,3,MB
2025-07-25 17:00:41.679,-0.0007847143827705,-61.43766239137332,3,MB
2025-07-25 17:00:41.687,-0.000758476372019,-60.98858128360605,3,MB
2025-07-25 17:00:41.695,-0.0007267624726561,-60.499662925650966,3,MB
2025-07-25 17:00:41.702,-0.0006901284166892,-59.97045834182054,3,MB
2025-07-25 17:00:41.710,-0.000649219469334,-59.40034819088082,3,MB
2025-07-25 17:00:41.718,-0.0006047439912798,-58.78854035915033,3,MB
2025-07-25 17:00:41.726,-0.0005574457782916,-58.13407226824951,3,MB
2025-07-25 17:00:41.734,-0.0005080762413991,-57.43581748872841,3,MB
2025-07-25 17:00:41.741,-0.0004573673801679,-56.69249624467511,3,MB
2025-07-25 17:00:41.749,-0.0004060064762098,-55.90268943665929,3,MB
2025-07-25 17:00:41.757,-0.0003546134919371,-55.064855867944296,3,MB
2025-07-25 17:00:41.765,-0.0003037221919163,-54.17735240147066,3,MB
2025-07-25 17:00:41.773,-0.0002537658646612,-53.23845678056845,3,MB
2025-07-25 17:00:41.781,-0.0002050681457491,-52.24639280433102,3,MB
2025-07-25 17:00:41.788,-0.000157838943315,-51.19935746338062,3,MB
2025-07-25 17:00:41.796,-0.0001121750863781,-50.09554953178992,3,MB
2025-07-25 17:00:41.804,-6.806521159934837e-05,-48.93319900208422,3,MB
2025-07-25 17:00:41.812,-2.5398500414629164e-05,-47.7105966655806,3,MB
2025-07-25 17:00:41.820,1.6023045894032378e-05,-46.42612309264592,3,MB
2025-07-25 17:00:41.827,5.646920736527344e-05,-45.07827626010086,3,MB
2025-07-25 17:00:41.835,9.626367760616426e-05,-43.66569710586753,3,MB
2025-07-25 17:00:41.843,0.0001357646099688,-42.18719236321129,3,MB
2025-07-25 17:00:41.851,0.0001753445885569,-40.641754133089925,3,MB
2025-07-25 17:00:41.859,0.0002153710702297,-39.02857577939919,3,MB
2025-07-25 17:00:41.866,0.0002561882801955,-37.34706385877279,3,MB
2025-07-25 17:00:41.874,0.0002981013408394,-35.59684590460714,3,MB
2025-07-25 17:00:41.882,0.0003413630889308,-33.777773958898194,3,MB
2025-07-25 17:00:41.890,0.000386163703428,-31.88992377738701,3,MB
2025-07-25 17:00:41.898,0.0004326230537487,-29.933589626622837,3,MB
2025-07-25 17:00:41.906,0.0004807856300098,-27.9092745624728,3,MB
2025-07-25 17:00:41.913,0.0005306179885888,-25.817676055747437,3,MB
2025-07-25 17:00:41.921,0.0005820087950934,-23.659666843182325,3,MB
2025-07-25 17:00:41.929,0.0006347717313528,-21.436270958289967,3,MB
2025-07-25 17:00:41.937,0.0006886516356397,-19.148635054065604,3,MB
2025-07-25 17:00:41.945,0.000743334135344,-16.797995372171243,3,MB
2025-07-25 17:00:41.952,0.0007984587152162,-14.385641029178135,3,MB
2025-07-25 17:00:41.960,0.0008536347694255,-11.912874651765769,3,MB
2025-07-25 17:00:41.968,0.0009084598267028,-9.380971759092734,3,MB
2025-07-25 17:00:41.976,0.0009625388641294,-6.791140617056047,3,MB
2025-07-25 17:00:41.984,0.0010155034512345,-4.144484535204762,3,MB
2025-07-25 17:00:41.991,0.001067029398111,-1.4419687110659904,3,MB
2025-07-25 17:00:41.999,0.0011168516222182,1.3156062736928833,3,MB
2025-07-25 17:00:42.007,0.0011647750981544,4.127622349183939,3,MB
2025-07-25 17:00:42.015,0.0012106810093844,6.993651589414076,3,MB
2025-07-25 17:00:42.023,0.0012545275739235,9.9134523686999,3,MB
2025-07-25 17:00:42.031,0.0012963454572874,12.8869533984783,3,MB
2025-07-25 17:00:42.038,0.0013362281972077,15.914225663785912,3,MB
2025-07-25 17:00:42.046,0.0013743185924038,18.99544300109117,3,MB
2025-07-25 17:00:42.054,0.0014107924282028,22.1308327966223,3,MB
2025-07-25 17:00:42.062,0.0014458410672806,25.32061898392887,3,MB
2025-07-25 17:00:42.070,0.0014796542781652,28.564960124890327,3,MB
2025-07-25 17:00:42.077,0.0015124043604661,31.86388582036461,3,MB
2025-07-25 17:00:42.085,0.0015442323607744,35.2172349806543,3,MB
2025-07-25 17:00:42.093,0.0015752369998576,38.62459957412587,3,MB
2025-07-25 17:00:42.101,0.0016054667440644,42.08527736179709,3,MB
2025-07-25 17:00:42.109,0.0016349151886338,45.5982368262055,3,MB
2025-07-25 17:00:42.116,0.0016635196301163,49.16209703289236,3,MB
2025-07-25 17:00:42.124,0.0016911624692756,52.77512454439946,3,MB
2025-07-25 17:00:42.132,0.0017176749448866,56.43524876041333,3,MB
2025-07-25 17:00:42.140,0.0017428426626025,60.14009620185711,3,MB
2025-07-25 17:00:42.148,0.001766412446811,63.88704331274861,3,MB
2025-07-25 17:00:42.156,0.0017881001719812,67.67328635428467,3,MB
2025-07-25 17:00:42.163,0.0018075993485701,71.49592595794455,3,MB
2025-07-25 17:00:42.171,0.0018245902944832,75.35206294562826,3,MB
2025-07-25 17:00:42.179,0.0018387497577823,79.238901175582,3,MB
2025-07-25 17:00:42.187,0.0018497609445502,83.15385249029967,3,MB
2025-07-25 17:00:42.195,0.0018573240400269,87.09463837260495,3,MB
2025-07-25 17:00:42.202,0.0018611674124545,91.05938268628844,3,MB
2025-07-25 17:00:42.210,0.0018610596855213,95.04668989540264,3,MB
2025-07-25 17:00:42.218,0.001856822726707,99.0557034140276,3,MB
2025-07-25 17:00:42.226,0.0018483453542259,103.0861392221554,3,MB
2025-07-25 17:00:42.234,0.00183559727484,107.13829057792522,3,MB
2025-07-25 17:00:42.241,0.0018186424480262,111.21300054209723,3,MB
2025-07-25 17:00:42.249,0.0017976507336242,115.31160007969692,3,MB
2025-07-25 17:00:42.257,0.0017729064175823,119.43581068396335,3,MB
2025-07-25 17:00:42.265,0.0017448121831486,123.58761174990056,3,MB
2025-07-25 17:00:42.273,0.0017138873516749,127.76907428399916,3,MB
2025-07-25 17:00:42.281,0.0016807596406941,131.98216394526878,3,MB
2025-07-25 17:00:42.288,0.0016461501481282,136.22851783222447,3,MB
2025-07-25 17:00:42.296,0.0016108517633286,140.509200810682,3,MB
2025-07-25 17:00:42.304,0.0015757017518064,144.82444845931423,3,MB
2025-07-25 17:00:42.312,0.0015415497691658,149.17340482968694,3,MB
2025-07-25 17:00:42.320,0.0015092228966553,153.5538641079653,3,MB
2025-07-25 17:00:42.327,0.0014794894504643,157.96202586173368,3,MB
2025-07-25 17:00:42.335,0.0014530234066929,162.3922738018127,3,MB
2025-07-25 17:00:42.343,0.001430371369199,166.8369878452361,3,MB
2025-07-25 17:00:42.351,0.0014119240447725,171.28639870801456,3,MB
2025-07-25 17:00:42.359,0.0013978940983373,175.7284932779751,3,MB
2025-07-25 17:00:42.366,0.0013883020054998,180.1489776309187,3,MB
2025-07-25 17:00:42.374,0.0013829711032279,184.5313027930264,3,MB
2025-07-25 17:00:42.382,0.0013815324694291,188.8567562782256,3,MB
2025-07-25 17:00:42.390,0.0013834395837603,193.10462011844183,3,MB
2025-07-25 17:00:42.398,0.0013879920324334,197.25239364507965,3,MB
2025-07-25 17:00:42.406,0.001394366911611,201.27607676785257,3,MB
2025-07-25 17:00:42.413,0.0014016561043034,205.1505070395232,3,MB
2025-07-25 17:00:42.421,0.0014089072708541,208.84974151082469,3,MB
2025-07-25 17:00:42.429,0.0014151662100089,212.3474723917371,3,MB
2025-07-25 17:00:42.437,0.0014195182189629,215.6174639595777,3,MB
2025-07-25 17:00:42.445,0.0014211262054006,218.6339970905435,3,MB
2025-07-25 17:00:42.452,0.0014192635771894,221.37230731533705,3,MB
2025-07-25 17:00:42.460,0.0014133403470539,223.8090024583827,3,MB
2025-07-25 17:00:42.468,0.0014029214276136,225.9224467261976,3,MB
2025-07-25 17:00:42.476,0.0013877367351518,227.6930995333809,3,MB
2025-07-25 17:00:42.484,0.0013676834117341,229.10379931287812,3,MB
2025-07-25 17:00:42.492,0.0013428210871952,230.13998491382424,3,MB
2025-07-25 17:00:42.499,0.0013133614678547,230.7898497602165,3,MB
2025-07-25 17:00:42.507,0.0012796535750493,231.0444265138276,3,MB
2025-07-25 17:00:42.515,0.0012421657438013,230.89760234334787,3,MB
2025-07-25 17:00:42.523,0.0012014651945241,230.34606686864052,3,MB
2025-07-25 17:00:42.531,0.0011581957325918,229.3891963019663,3,MB
2025-07-25 17:00:42.538,0.0011130539637701,228.02887820105013,3,MB
2025-07-25 17:00:42.546,0.0010667643532719,226.26928161876788,3,MB
2025-07-25 17:00:42.554,0.0010200535075589,224.11657739446352,3,MB
2025-07-25 17:00:42.562,0.000973624220786,221.5786130570068,3,MB
2025-07-25 17:00:42.570,0.0009281300911521,218.6645465132209,3,MB
2025-07-25 17:00:42.577,0.0008841518284373,215.38444260216065,3,MB
2025-07-25 17:00:42.585,0.0008421766217954,211.7488369150404,3,MB
2025-07-25 17:00:42.593,0.0008025819541474,207.7682721872413,3,MB
2025-07-25 17:00:42.601,0.0007656249569787,203.45281419214447,3,MB
2025-07-25 17:00:42.609,0.0007314378789683,198.81155647409065,3,MB
2025-07-25 17:00:42.617,0.0007000296588374,193.85212642111597,3,MB
2025-07-25 17:00:42.624,0.0006712930712057,188.5802089242813,3,MB
2025-07-25 17:00:42.632,0.0006450165058078,182.9991078459738,3,MB
2025-07-25 17:00:42.640,0.0006208991603288,177.10936920366555,3,MB
2025-07-25 17:00:42.648,0.0005985682806369,170.90849275603483,3,MB
2025-07-25 17:00:42.656,0.0005775970700236,164.39075996427437,3,MB
2025-07-25 17:00:42.663,0.0005575220075798,157.54720562767918,3,MB
2025-07-25 17:00:42.671,0.0005378585572313,150.36575758461055,3,MB
2025-07-25 17:00:42.679,0.0005181145962354,142.83156366551458,3,MB
2025-07-25 17:00:42.687,0.0004978012980078,134.92751772354657,3,MB
2025-07-25 17:00:42.695,0.0004764415828184,126.63498736340112,3,MB
2025-07-25 17:00:42.702,0.0004535765380913,117.9347353935196,3,MB
2025-07-25 17:00:42.710,0.0004287704344847,108.8080156063047,3,MB
2025-07-25 17:00:42.718,0.0004016151593941,99.23781189700146,3,MB
2025-07-25 17:00:42.726,0.0003717349739818,89.2101786742573,3,MB
2025-07-25 17:00:42.734,0.0003387923526931,78.71563072956882,3,MB
2025-07-25 17:00:42.742,0.0003024952973249,67.7505229435661,3,MB
2025-07-25 17:00:42.749,0.0002626060642752,56.318355081473136,3,MB
2025-07-25 17:00:42.757,0.0002189508242822,44.43093501156545,3,MB
2025-07-25 17:00:42.765,0.0001714294440378,32.10933530544864,3,MB
2025-07-25 17:00:42.773,0.0001200243585844,19.38458339822254,3,MB
2025-07-25 17:00:42.781,6.480740338396869e-05,6.298034024886638,3,MB
2025-07-25 17:00:42.788,5.943502371166045e-06,-7.0986160650645775,3,MB
2025-07-25 17:00:42.796,-5.630973416707203e-05,-20.743697833448085,3,MB
2025-07-25 17:00:42.804,-0.0001216071622141,-34.566336326386136,3,MB
2025-07-25 17:00:42.812,-0.0001895262597787,-48.48761078179919,3,MB
2025-07-25 17:00:42.820,-0.0002595820252146,-62.42209028825369,3,MB
2025-07-25 17:00:42.827,-0.0003312457916747,-76.2797117516049,3,MB
2025-07-25 17:00:42.835,-0.000403966637822,-89.96795243056283,3,MB
2025-07-25 17:00:42.843,-0.0004771938198067,-103.39423577019224,3,MB
2025-07-25 17:00:42.851,-0.0005503987151539,-116.46849714790174,3,MB
2025-07-25 17:00:42.859,-0.0006230950763332,-129.10582596010696,3,MB
2025-07-25 17:00:42.867,-0.0006948567776881,-141.22909277555246,3,MB
2025-07-25 17:00:42.874,-0.0007653325822782,-152.77146563185448,3,MB
2025-07-25 17:00:42.882,-0.0008342577055873,-163.67871846504443,3,MB
2025-07-25 17:00:42.890,-0.0009014620980629,-173.9112374866652,3,MB
2025-07-25 17:00:42.898,-0.0009668754106243,-183.4456381587873,3,MB
2025-07-25 17:00:42.906,-0.0010305285803539,-192.27591608904316,3,MB
2025-07-25 17:00:42.913,-0.0010925519518732,-200.41406926723772,3,MB
2025-07-25 17:00:42.921,-0.0011531698861559,-207.8901460216848,3,MB
2025-07-25 17:00:42.929,-0.0012126918674445,-214.7516922199807,3,MB
2025-07-25 17:00:42.937,-0.0012715001589228,-221.0625918620942,3,MB
2025-07-25 17:00:42.945,-0.0013300341504851,-226.9013165881321,3,MB
2025-07-25 17:00:42.952,-0.0013887717727223,-232.3586210308771,3,MB
2025-07-25 17:00:42.960,-0.0014482086386702,-237.5347416814472,3,MB
2025-07-25 17:00:42.968,-0.0015088357488721,-242.5361763225608,3,MB
2025-07-25 17:00:42.976,-0.001571116623665,-247.47213846410745,3,MB
2025-07-25 17:00:42.984,-0.0016354647214665,-252.4507959814825,3,MB
2025-07-25 17:00:42.992,-0.0017022220328678,-257.575414765223,3,MB
2025-07-25 17:00:42.999,-0.0017716397621369,-262.94053617615884,3,MB
2025-07-25 17:00:43.007,-0.0018438619529248,-268.6283210767311,3,MB
2025-07-25 17:00:43.015,-0.0019189127826316,-274.7051928584308,3,MB
2025-07-25 17:00:43.023,-0.0019966881058162,-281.218906955257,3,MB
2025-07-25 17:00:43.031,-0.0020769517153183,-288.19616465371286,3,MB
2025-07-25 17:00:43.038,-0.002159336640097,-295.6408745328623,3,MB
2025-07-25 17:00:43.046,-0.0022433514991712,-303.5331457163646,3,MB
2025-07-25 17:00:43.054,-0.0023283915201664,-311.8290736268325,3,MB
2025-07-25 17:00:43.062,-0.0024137535130575,-320.46135166712696,3,MB
2025-07-25 17:00:43.070,-0.0024986540174788,-329.34071201024545,3,MB
2025-07-25 17:00:43.077,-0.0025822499714099,-338.3581664741085,3,MB
2025-07-25 17:00:43.085,-0.0026636614270208,-347.38798550000286,3,MB
2025-07-25 17:00:43.093,-0.0027419959493746,-356.29132092212933,3,MB
2025-07-25 17:00:43.101,-0.0028163743322966,-364.9203480299759,3,MB
2025-07-25 17:00:43.109,-0.0028859571473156,-373.1227760129357,3,MB
2025-07-25 17:00:43.117,-0.0029499714167741,-380.7465549203423,3,MB
2025-07-25 17:00:43.124,-0.0030077364190555,-387.6445934171351,3,MB
2025-07-25 17:00:43.132,-0.0030586874082526,-393.6792963461684,3,MB
2025-07-25 17:00:43.140,-0.0031023959933806,-398.7267355650414,3,MB
2025-07-25 17:00:43.148,-0.0031385860854334,-402.68028230936943,3,MB
2025-07-25 17:00:43.156,-0.0031671445660718,-405.45355429648646,3,MB
2025-07-25 17:00:43.163,-0.0031881260820767,-406.9825648524592,3,MB
2025-07-25 17:00:43.171,-0.0032017516660651,-407.227002441049,3,MB
2025-07-25 17:00:43.179,-0.0032084012608635,-406.1706140561514,3,MB
2025-07-25 17:00:43.187,-0.0032086006280294,-403.8207112777021,3,MB
2025-07-25 17:00:43.195,-0.0032030034733281,-400.2068595433728,3,MB
2025-07-25 17:00:43.202,-0.003192369885567,-395.378846206749,3,MB
2025-07-25 17:00:43.210,-0.0031775423516041,-389.4040494038072,3,MB
2025-07-25 17:00:43.218,-0.0031594206792219,-382.3643471694265,3,MB
2025-07-25 17:00:43.226,-0.0031389371330526,-374.3527151169494,3,MB
2025-07-25 17:00:43.234,-0.0031170329713451,-365.4696622620185,3,MB
2025-07-25 17:00:43.242,-0.0030946373696046,-355.81964935754286,3,MB
2025-07-25 17:00:43.249,-0.0030726494394286,-345.50762358274216,3,MB
2025-07-25 17:00:43.257,-0.003051923707164,-334.6357887609022,3,MB
2025-07-25 17:00:43.265,-0.0030332590186982,-323.30071257752616,3,MB
2025-07-25 17:00:43.273,-0.0030173904015985,-311.59085254779626,3,MB
2025-07-25 17:00:43.281,-0.0030049829946878,-299.58456163462887,3,MB
2025-07-25 17:00:43.288,-0.0029966268673733,-287.3486132163634,3,MB
2025-07-25 17:00:43.296,-0.0029928315480803,-274.9372642031537,3,MB
2025-07-25 17:00:43.304,-0.002994019401091,-262.39185506547364,3,MB
2025-07-25 17:00:43.312,-0.0030005174715287,-249.7409268529564,3,MB
2025-07-25 17:00:43.320,-0.0030125478419906,-237.00081837299783,3,MB
2025-07-25 17:00:43.327,-0.0030302168572048,-224.17669194078567,3,MB
2025-07-25 17:00:43.335,-0.0030535038696853,-211.26392382844912,3,MB
2025-07-25 17:00:43.343,-0.0030822504915308,-198.2497859940694,3,MB
2025-07-25 17:00:43.351,-0.0031161516423995,-185.1153390554792,3,MB
2025-07-25 17:00:43.359,-0.0031547498719725,-171.8374529072086,3,MB
2025-07-25 17:00:43.367,-0.0031974344589541,-158.39087090202025,3,MB
2025-07-25 17:00:43.374,-0.0032434466325148,-144.7502360981727,3,MB
2025-07-25 17:00:43.382,-0.0032918919279458,-130.89200360825217,3,MB
2025-07-25 17:00:43.390,-0.0033417602115272,-116.7961713992558,3,MB
2025-07-25 17:00:43.398,-0.0033919533740124,-102.44777271152785,3,MB
2025-07-25 17:00:43.406,-0.0034413201894775,-87.83808617262635,3,MB
2025-07-25 17:00:43.413,-0.0034886974094089,-72.96553409926626,3,MB
2025-07-25 17:00:43.421,-0.0035329558194772,-57.83625466689605,3,MB
2025-07-25 17:00:43.429,-0.0035730497351463,-42.46434875400155,3,MB
2025-07-25 17:00:43.437,-0.0036080682245438,-26.871816525053017,3,MB
2025-07-25 17:00:43.445,-0.0036372861463228,-11.088211505541285,3,MB
2025-07-25 17:00:43.452,-0.0036602128131574,4.849949498273537,3,MB
2025-07-25 17:00:43.460,-0.0036766357547068,20.89997411136053,3,MB
2025-07-25 17:00:43.468,-0.0036866567750017,37.01392763999596,3,MB
2025-07-25 17:00:43.476,-0.0036907174438669,53.139656835264425,3,MB
2025-07-25 17:00:43.484,-0.0036896114138109,69.22184878695961,3,MB
2025-07-25 17:00:43.492,-0.0036844814357368,85.20307163084225,3,MB
2025-07-25 17:00:43.499,-0.0036767995043225,101.02474803055226,3,MB
2025-07-25 17:00:43.507,-0.0036683291153962,116.6280186269003,3,MB
2025-07-25 17:00:43.515,-0.0036610692215448,131.95446054449346,3,MB
2025-07-25 17:00:43.523,-0.0036571802596483,146.9466353193917,3,MB
2025-07-25 17:00:43.531,-0.0036588936481506,161.54845100412976,3,MB
2025-07-25 17:00:43.538,-0.0036684073098475,175.7053345178553,3,MB
2025-07-25 17:00:43.546,-0.003687770908913,189.3642223694059,3,MB
2025-07-25 17:00:43.554,-0.003718765518136,202.47339043545088,3,MB
2025-07-25 17:00:43.562,-0.0037627833163996,214.98215604455132,3,MB
2025-07-25 17:00:43.570,-0.0038207135352103,226.840497452183,3,MB
2025-07-25 17:00:43.577,-0.003892841040422,237.9986459596049,3,MB
2025-07-25 17:00:43.585,-0.0039787635585543,248.40671344093732,3,MB
2025-07-25 17:00:43.593,-0.0040773327107415,258.0144219516669,3,MB
2025-07-25 17:00:43.601,-0.0041866228870247,266.77100160704407,3,MB
2025-07-25 17:00:43.609,-0.0043039307785956,274.6253175398613,3,MB
2025-07-25 17:00:43.617,-0.0044258071844129,281.52627637089967,3,MB
2025-07-25 17:00:43.624,-0.004548121468674,287.42354758730795,3,MB
2025-07-25 17:00:43.632,-0.0046661576736563,292.2686162815403,3,MB
2025-07-25 17:00:43.640,-0.0047747398152064,296.016161979226,3,MB
2025-07-25 17:00:43.648,-0.0048683824582206,298.62573517854673,3,MB
2025-07-25 17:00:43.656,-0.0049414614317533,300.06368029318804,3,MB
2025-07-25 17:00:43.663,-0.0049883985663923,300.30523249897453,3,MB
2025-07-25 17:00:43.671,-0.0050038536535037,299.3366979379258,3,MB
2025-07-25 17:00:43.679,-0.0049829164397793,297.1576129557563,3,MB
2025-07-25 17:00:43.687,-0.0049212913327345,293.7827693296673,3,MB
2025-07-25 17:00:43.695,-0.0048154675806938,289.2439892620177,3,MB
2025-07-25 17:00:43.702,-0.0046628680726549,283.591536491282,3,MB
2025-07-25 17:00:43.710,-0.0044619706387105,276.8950582053162,3,MB
2025-07-25 17:00:43.718,-0.0042123967554356,269.2439663345857,3,MB
2025-07-25 17:00:43.726,-0.0039149637330268,260.74718584920186,3,MB
2025-07-25 17:00:43.734,-0.0035716976843519,251.5322212434635,3,MB
2025-07-25 17:00:43.742,-0.0031858058240379,241.74351956321,3,MB
2025-07-25 17:00:43.749,-0.0027616079249918,231.54013795301472,3,MB
2025-07-25 17:00:43.757,-0.0023044280813252,221.09275440121405,3,MB
2025-07-25 17:00:43.765,-0.0018204492982446,210.58009065627263,3,MB
2025-07-25 17:00:43.773,-0.001316534853433,200.1848446968881,3,MB
2025-07-25 17:00:43.781,-0.0008000218405743,190.08925529264823,3,MB
2025-07-25 17:00:43.788,-0.0002784937630936,180.47044191659376,3,MB
2025-07-25 17:00:43.796,0.0002404596337058,171.49567862295962,3,MB
2025-07-25 17:00:43.804,0.0007494861023195,163.3177697773203,3,MB
2025-07-25 17:00:43.812,0.0012417084681208,156.07069823885004,3,MB
2025-07-25 17:00:43.820,0.0017109462613846,149.8657124709788,3,MB
2025-07-25 17:00:43.827,0.0021519121049838,144.78800803851965,3,MB
2025-07-25 17:00:43.835,0.0025603745533472,140.89414121501824,3,MB
2025-07-25 17:00:43.843,0.0029332805481428,138.21028840943302,3,MB
2025-07-25 17:00:43.851,0.0032688325006161,136.7314355243987,3,MB
2025-07-25 17:00:43.859,0.0035665170978182,136.4215471317178,3,MB
2025-07-25 17:00:43.867,0.003827085119737,137.21472768643642,3,MB
2025-07-25 17:00:43.874,0.0040524837332591,139.01734731536672,3,MB
2025-07-25 17:00:43.882,0.0042457448073699,141.71106463931815,3,MB
2025-07-25 17:00:43.890,0.0044108346646436,145.15664045294957,3,MB
2025-07-25 17:00:43.898,0.0045524722182069,149.19840089353676,3,MB
2025-07-25 17:00:43.906,0.0046759235263429,153.66917906998654,3,MB
2025-07-25 17:00:43.913,0.0047867813576646,158.39554203551742,3,MB
2025-07-25 17:00:43.921,0.0048907384152525,163.20309727115455,3,MB
2025-07-25 17:00:43.929,0.0049933625536751,167.92167084148517,3,MB
2025-07-25 17:00:43.937,0.0050998818273699,172.39015874326776,3,MB
2025-07-25 17:00:43.945,0.0052149866653782,176.4608734674421,3,MB
2025-07-25 17:00:43.952,0.0053426558994249,180.00323818850484,3,MB
2025-07-25 17:00:43.960,0.0054860126933937,182.90671892975053,3,MB
2025-07-25 17:00:43.968,0.0056472154937241,185.08292716132877,3,MB
2025-07-25 17:00:43.976,0.0058273878810534,186.4668676613045,3,MB
2025-07-25 17:00:43.984,0.0060265897432901,187.01734551685732,3,MB
2025-07-25 17:00:43.992,0.0062438306510925,186.7165793835971,3,MB
2025-07-25 17:00:43.999,0.006477124759678,185.56909440521883,3,MB
2025-07-25 17:00:44.007,0.0067235850034104,183.59998737321115,3,MB
2025-07-25 17:00:44.015,0.0069795528897477,180.85266918821128,3,MB
2025-07-25 17:00:44.023,0.0072407589704851,177.38619617812913,3,MB
2025-07-25 17:00:44.031,0.0075025080539173,173.272303223783,3,MB
2025-07-25 17:00:44.038,0.0077598822456751,168.5922489519833,3,MB
2025-07-25 17:00:44.046,0.0080079538778951,163.43357755359844,3,MB
2025-07-25 17:00:44.054,0.0082419994823742,157.88689413936206,3,MB
2025-07-25 17:00:44.062,0.0084577055079758,152.04274192452257,3,MB
2025-07-25 17:00:44.070,0.0086513566788096,145.98866066883448,3,MB
2025-07-25 17:00:44.077,0.0088199987039533,139.80649708524427,3,MB
2025-07-25 17:00:44.085,0.008961568325109,133.57002940677157,3,MB
2025-07-25 17:00:44.093,0.0090749852962688,127.3429597381414,3,MB
2025-07-25 17:00:44.101,0.009160202757972,121.17731886659767,3,MB
2025-07-25 17:00:44.109,0.0092182145217739,115.11231852920244,3,MB
2025-07-25 17:00:44.117,0.0092510198736521,109.17367550654994,3,MB
2025-07-25 17:00:44.124,0.0092615484454327,103.37342026940814,3,MB
2025-07-25 17:00:44.132,0.0092535493465543,97.71019034293217,3,MB
2025-07-25 17:00:44.140,0.0092314500400157,92.16999530417198,3,MB
2025-07-25 17:00:44.148,0.0092001913681043,86.72742671572061,3,MB
2025-07-25 17:00:44.156,0.0091650456763038,81.34727270404717,3,MB
2025-07-25 17:00:44.163,0.0091314251572366,75.98648374478078,3,MB
2025-07-25 17:00:44.171,0.0091046873570169,70.5964239944048,3,MB
2025-07-25 17:00:44.179,0.0090899443028325,65.12533172613617,3,MB
2025-07-25 17:00:44.187,0.0090918810557824,59.52090363220606,3,MB
2025-07-25 17:00:44.195,0.009114588841112,53.73291149017739,3,MB
2025-07-25 17:00:44.202,0.0091614173713573,47.71575646019454,3,MB
2025-07-25 17:00:44.210,0.009234850554917,41.43086648737375,3,MB
2025-07-25 17:00:44.218,0.0093364093583743,34.84884617305303,3,MB
2025-07-25 17:00:44.226,0.0094665849964294,27.951296091864524,3,MB
2025-07-25 17:00:44.234,0.009624804766292,20.73222970459022,3,MB
2025-07-25 17:00:44.242,0.0098094317882058,13.19903041459294,3,MB
2025-07-25 17:00:44.249,0.0100177988050716,5.372908480607182,3,MB
2025-07-25 17:00:44.257,0.0102462751344952,-2.711163115730386,3,MB
2025-07-25 17:00:44.265,0.0104903648871323,-11.00503377512388,3,MB
2025-07-25 17:00:44.273,0.010744833663386,-19.44845946533045,3,MB
2025-07-25 17:00:44.281,0.0110038601084579,-27.970642308566195,3,MB
2025-07-25 17:00:44.288,0.0112612079319223,-36.49216119100306,3,MB
2025-07-25 17:00:44.296,0.0115104132473984,-44.92721056924318,3,MB
2025-07-25 17:00:44.304,0.0117449812992331,-53.18604971661529,3,MB
2025-07-25 17:00:44.312,0.0119585858179886,-61.17755446300021,3,MB
2025-07-25 17:00:44.320,0.0121452635574928,-68.8117591223023,3,MB
2025-07-25 17:00:44.327,0.0122995962700323,-76.00227854897595,3,MB
2025-07-25 17:00:44.335,0.0124168726003243,-82.66850936803047,3,MB
2025-07-25 17:00:44.343,0.0124932230892579,-88.73752491064694,3,MB
2025-07-25 17:00:44.351,0.0125257226041138,-94.145599049956,3,MB
2025-07-25 17:00:44.359,0.0125124559792712,-98.83931822078746,3,MB
2025-07-25 17:00:44.367,0.0124525443585714,-102.77626644466368,3,MB
2025-07-25 17:00:44.374,0.0123461315772049,-105.92529322308197,3,MB
2025-07-25 17:00:44.382,0.0121943318158244,-108.26639696871962,3,MB
2025-07-25 17:00:44.390,0.0119991415628987,-109.7902757801467,3,MB
2025-07-25 17:00:44.398,0.0117633204326176,-110.4976117678007,3,MB
2025-07-25 17:00:44.406,0.0114902464517275,-110.39816416971416,3,MB
2025-07-25 17:00:44.413,0.0111837520873983,-109.50974997142256,3,MB
2025-07-25 17:00:44.421,0.0108479477764529,-107.8571889204381,3,MB
2025-07-25 17:00:44.429,0.0104870402715223,-105.4712833232107,3,MB
2025-07-25 17:00:44.437,0.0101051537444739,-102.38789270461966,3,MB
2025-07-25 17:00:44.445,0.0097061620163662,-98.64715029150994,3,MB
2025-07-25 17:00:44.452,0.0092935401537435,-94.29285335666772,3,MB
2025-07-25 17:00:44.460,0.0088702427364733,-89.37204366726274,3,MB
2025-07-25 17:00:44.468,0.0084386143915623,-83.93477846847394,3,MB
2025-07-25 17:00:44.476,0.0080003360156606,-78.03407736297196,3,MB
2025-07-25 17:00:44.484,0.0075564078839523,-71.72601683148712,3,MB
2025-07-25 17:00:44.492,0.0071071688465294,-65.06993265550122,3,MB
2025-07-25 17:00:44.499,0.0066523491377457,-58.12868177382322,3,MB
2025-07-25 17:00:44.507,0.0061911529138596,-50.96890964033358,3,MB
2025-07-25 17:00:44.515,0.005722365369988,-43.66126726472722,3,MB
2025-07-25 17:00:44.523,0.0052444781258831,-36.28052386327269,3,MB
2025-07-25 17:00:44.531,0.0047558256440534,-28.905526188101327,3,MB
2025-07-25 17:00:44.538,0.0042547249933843,-21.61896365058635,3,MB
2025-07-25 17:00:44.546,0.0037396114529491,-14.50690863570514,3,MB
2025-07-25 17:00:44.554,0.0032091632128925,-7.658113172098337,3,MB
2025-07-25 17:00:44.562,0.0026624095904246,-1.163055656569312,3,MB
2025-07-25 17:00:44.570,0.0020988185839973,4.8872559850254165,3,MB
2025-07-25 17:00:44.577,0.0015183611199393,10.402705968875306,3,MB
2025-07-25 17:00:44.585,0.0009215508353698,15.295686769736308,3,MB
2025-07-25 17:00:44.593,0.0003094594927643,19.482868616934205,3,MB
2025-07-25 17:00:44.601,-0.0003162909704714,22.88707184790197,3,MB
2025-07-25 17:00:44.609,-0.000953558137045,25.43918361452716,3,MB
2025-07-25 17:00:44.617,-0.0015997284382239,27.08005419617549,3,MB
2025-07-25 17:00:44.624,-0.0022517834990199,27.76230395822296,3,MB
2025-07-25 17:00:44.632,-0.0029063803709322,27.451970093111424,3,MB
2025-07-25 17:00:44.640,-0.0035599421330352,26.129922957987905,3,MB
2025-07-25 17:00:44.648,-0.0042087551606821,23.79298529886377,3,MB
2025-07-25 17:00:44.656,-0.0048490693312428,20.45469407336337,3,MB
2025-07-25 17:00:44.663,-0.0054771974575105,16.145653990132264,3,MB
2025-07-25 17:00:44.671,-0.0060896103271424,10.913444153202114,3,MB
2025-07-25 17:00:44.679,-0.0066830240063221,4.822054017134097,3,MB
2025-07-25 17:00:44.687,-0.0072544765914207,-2.049158300813245,3,MB
2025-07-25 17:00:44.695,-0.0078013922305036,-9.60697414677456,3,MB
2025-07-25 17:00:44.702,-0.0083216308058845,-17.7462590482524,3,MB
2025-07-25 17:00:44.710,-0.0088135221562333,-26.352295964562757,3,MB
2025-07-25 17:00:44.718,-0.0092758842604218,-35.3034421709895,3,MB
2025-07-25 17:00:44.726,-0.0097080254962336,-44.47403035326172,3,MB
2025-07-25 17:00:44.734,-0.0101097318677304,-53.737423160398045,3,MB
2025-07-25 17:00:44.742,-0.0104812408092778,-62.96912304378981,3,MB
2025-07-25 17:00:44.749,-0.0108232036637084,-72.04983609465381,3,MB
2025-07-25 17:00:44.757,-0.0111366391439138,-80.86838977467822,3,MB
2025-07-25 17:00:44.765,-0.0114228801019423,-89.32440956607377,3,MB
2025-07-25 17:00:44.773,-0.0116835158399406,-97.33066810822436,3,MB
2025-07-25 17:00:44.781,-0.0119203320120825,-104.8150317440009,3,MB
2025-07-25 17:00:44.788,-0.0121352498968565,-111.72194298072824,3,MB
2025-07-25 17:00:44.796,-0.0123302665625782,-118.01339261127492,3,MB
2025-07-25 17:00:44.804,-0.0125073973008099,-123.66935160052628,3,MB
2025-07-25 17:00:44.812,-0.0126686216597414,-128.68764982522345,3,MB
2025-07-25 17:00:44.820,-0.012815834430975,-133.08330592843748,3,MB
2025-07-25 17:00:44.827,-0.0129508029927995,-136.8873295619901,3,MB
2025-07-25 17:00:44.835,-0.0130751323764957,-140.1450338636257,3,MB
2025-07-25 17:00:44.843,-0.0131902391056323,-142.9139118990814,3,MB
2025-07-25 17:00:44.851,-0.0132973341893434,-145.26114567375137,3,MB
2025-07-25 17:00:44.859,-0.013397414831761,-147.2608297088594,3,MB
2025-07-25 17:00:44.867,-0.0134912637975341,-148.99100243397825,3,MB
2025-07-25 17:00:44.874,-0.0135794551458634,-150.53058702946885,3,MB
2025-07-25 17:00:44.882,-0.0136623651318169,-151.95634815888022,3,MB
2025-07-25 17:00:44.890,-0.0137401872676371,-153.33997173603004,3,MB
2025-07-25 17:00:44.898,-0.0138129507082137,-154.7453712151776,3,MB
2025-07-25 17:00:44.906,-0.0138805412198745,-156.2263159224746,3,MB
2025-07-25 17:00:44.913,-0.0139427239486174,-157.82446499733354,3,MB
2025-07-25 17:00:44.921,-0.0139991670046906,-159.56787514435774,3,MB
2025-07-25 17:00:44.929,-0.0140494646368583,-161.470032320912,3,MB
2025-07-25 17:00:44.937,-0.0140931586603738,-163.52943749701444,3,MB
2025-07-25 17:00:44.945,-0.0141297569266372,-165.72975555679625,3,MB
2025-07-25 17:00:44.952,-0.0141587479309537,-168.04051511218702,3,MB
2025-07-25 17:00:44.960,-0.0141796110174982,-170.41832631852026,3,MB
2025-07-25 17:00:44.968,-0.0141918219903381,-172.8085645556258,3,MB
2025-07-25 17:00:44.976,-0.0141948543282132,-175.1474508678953,3,MB
2025-07-25 17:00:44.984,-0.014188176679676,-177.3644460633512,3,MB
2025-07-25 17:00:44.992,-0.0141712478137873,-179.38486493439603,3,MB
2025-07-25 17:00:44.999,-0.0141435105789324,-181.1326105631686,3,MB
2025-07-25 17:00:45.007,-0.0141043865849992,-182.532926267022,3,MB
2025-07-25 17:00:45.015,-0.0140532732564793,-183.5150643644733,3,MB
2025-07-25 17:00:45.023,-0.0139895446364803,-184.0147763677857,3,MB
2025-07-25 17:00:45.031,-0.0139125569242588,-183.9765380868116,3,MB
2025-07-25 17:00:45.038,-0.0138216593140949,-183.35543503752044,3,MB
2025-07-25 17:00:45.046,-0.0137162103572149,-182.11864800811253,3,MB
2025-07-25 17:00:45.054,-0.0135955997564417,-180.2464950974415,3,MB
2025-07-25 17:00:45.062,-0.0134592751145636,-177.7330043627084,3,MB
2025-07-25 17:00:45.070,-0.0133067726599553,-174.58600964705315,3,MB
2025-07-25 17:00:45.077,-0.0131377504577273,-170.82678036742925,3,MB
2025-07-25 17:00:45.085,-0.0129520222010895,-166.48921316785626,3,MB
2025-07-25 17:00:45.093,-0.0127495894393933,-161.61862857900786,3,MB
2025-07-25 17:00:45.101,-0.0125306700508806,-156.2702285045477,3,MB
2025-07-25 17:00:45.109,-0.0122957208694581,-150.50728000109586,3,MB
2025-07-25 17:00:45.117,-0.0120454525757157,-144.3990971696524,3,MB
2025-07-25 17:00:45.124,-0.0117808352581675,-138.01889597856555,3,MB
2025-07-25 17:00:45.132,-0.0115030934603506,-131.44159662688307,3,MB
2025-07-25 17:00:45.140,-0.0112136900356634,-124.74164492867592,3,MB
2025-07-25 17:00:45.148,-0.0109142986758698,-117.99091858353488,3,MB
2025-07-25 17:00:45.156,-0.0106067655001543,-111.25677663109784,3,MB
2025-07-25 17:00:45.163,-0.0102930605659383,-104.60030147712088,3,MB
2025-07-25 17:00:45.171,-0.0099752206046057,-98.0747732641066,3,MB
2025-07-25 17:00:45.179,-0.0096552847082897,-91.7244066492786,3,MB
2025-07-25 17:00:45.187,-0.0093352251042806,-85.58337075843053,3,MB
2025-07-25 17:00:45.195,-0.0090168755607774,-79.67510456734949,3,MB
2025-07-25 17:00:45.202,-0.0087018603457498,-74.01193240638166,3,MB
2025-07-25 17:00:45.210,-0.0083915269332119,-68.59497769724057,3,MB
2025-07-25 17:00:45.218,-0.0080868857478506,-63.41436728913173,3,MB
2025-07-25 17:00:45.226,-0.0077885601356503,-58.44971367398478,3,MB
2025-07-25 17:00:45.234,-0.0074967494521515,-53.67085774878567,3,MB
2025-07-25 17:00:45.242,-0.0072112076883997,-49.03885053964083,3,MB
2025-07-25 17:00:45.249,-0.0069312394288221,-44.50714836691415,3,MB
2025-07-25 17:00:45.257,-0.0066557141805778,-40.02299233190075,3,MB
2025-07-25 17:00:45.265,-0.0063830992593945,-35.52893978754727,3,MB
2025-07-25 17:00:45.273,-0.0061115104949439,-30.96451266226342,3,MB
2025-07-25 17:00:45.281,-0.0058387790647346,-26.267925170965068,3,MB
2025-07-25 17:00:45.288,-0.0055625318224727,-21.377851606642096,3,MB
2025-07-25 17:00:45.296,-0.0052802816264011,-16.235193615640362,3,MB
2025-07-25 17:00:45.304,-0.0049895235093629,-10.78480571308586,3,MB
2025-07-25 17:00:45.312,-0.0046878321804324,-4.977137920706224,3,MB
2025-07-25 17:00:45.320,-0.0043729563665447,1.2302445434943483,3,MB
2025-07-25 17:00:45.328,-0.0040429059023691,7.871302490333663,3,MB
2025-07-25 17:00:45.335,-0.0036960282254325,14.970359620352903,3,MB
2025-07-25 17:00:45.343,-0.0033310718818603,22.541165344738115,3,MB
2025-07-25 17:00:45.351,-0.0029472355242906,30.58620841523221,3,MB
2025-07-25 17:00:45.359,-0.002544201464357,39.0962998058324,3,MB
2025-07-25 17:00:45.367,-0.0021221531382049,48.05043615709175,3,MB
2025-07-25 17:00:45.374,-0.0016817760926352,57.41594747888316,3,MB
2025-07-25 17:00:45.382,-0.0012242425474567,67.14892497629565,3,MB
2025-07-25 17:00:45.390,-0.0007511802599194,77.19491710046965,3,MB
2025-07-25 17:00:45.398,-0.0002646271306065,87.48987452601105,3,MB
2025-07-25 17:00:45.406,0.0002330263977698,97.9613180053243,3,MB
2025-07-25 17:00:45.413,0.0007391045738089,108.529697200065,3,MB
2025-07-25 17:00:45.421,0.0012507201532727,119.10990383495316,3,MB
2025-07-25 17:00:45.429,0.0017648513950822,129.61289898041895,3,MB
2025-07-25 17:00:45.437,0.0022784187483391,139.94741199686865,3,MB
2025-07-25 17:00:45.445,0.0027883580087841,150.0216676589781,3,MB
2025-07-25 17:00:45.453,0.0032916873225261,159.7450981892329,3,MB
2025-07-25 17:00:45.460,0.003785566213318,169.02999832692785,3,MB
2025-07-25 17:00:45.468,0.0042673456171129,177.79308410905057,3,MB
2025-07-25 17:00:45.476,0.0047346085806929,185.95691970932572,3,MB
2025-07-25 17:00:45.484,0.0051852017657121,193.4511814125329,3,MB
2025-07-25 17:00:45.492,0.0056172581841533,200.213733475845,3,MB
2025-07-25 17:00:45.499,0.0060292117072752,206.19149704611635,3,MB
2025-07-25 17:00:45.507,0.0064198039529358,211.34110017497667,3,MB
2025-07-25 17:00:45.515,0.0067880842957189,215.62930395640208,3,MB
2025-07-25 17:00:45.523,0.007133403965712,219.0332065441277,3,MB
2025-07-25 17:00:45.531,0.0074554053686928,221.54023296402423,3,MB
2025-07-25 17:00:45.538,0.0077540077395828,223.1479239712987,3,MB
2025-07-25 17:00:45.546,0.0080293900464476,223.8635415669842,3,MB
2025-07-25 17:00:45.554,0.0082819718334726,223.7035121377442,3,MB
2025-07-25 17:00:45.562,0.0085123925261834,222.6927305551997,3,MB
2025-07-25 17:00:45.570,0.0087214895767428,220.86375005530604,3,MB
2025-07-25 17:00:45.578,0.0089102756136568,218.2558834258681,3,MB
2025-07-25 17:00:45.585,0.009079914506053,214.91424107221988,3,MB
2025-07-25 17:00:45.593,0.0092316960992358,210.8887310069277,3,MB
2025-07-25 17:00:45.601,0.0093670094196151,206.2330448013718,3,MB
2025-07-25 17:00:45.609,0.0094873143245206,201.00365210823577,3,MB
2025-07-25 17:00:45.617,0.0095941117513196,195.25882456244528,3,MB
2025-07-25 17:00:45.624,0.0096889128350628,189.0577077395473,3,MB
2025-07-25 17:00:45.632,0.0097732072632758,182.45945744993008,3,MB
2025-07-25 17:00:45.640,0.0098484314009132,175.5224540397085,3,MB
2025-07-25 17:00:45.648,0.0099159369548176,168.30360561774208,3,MB
2025-07-25 17:00:45.656,0.009976961182908,160.85774828105116,3,MB
2025-07-25 17:00:45.663,0.0100325998150041,153.23714849703822,3,MB
2025-07-25 17:00:45.671,0.0100837839102352,145.4911098405188,3,MB
2025-07-25 17:00:45.679,0.0101312618303758,137.66568330498282,3,MB
2025-07-25 17:00:45.687,0.0101755873671795,129.80347746319933,3,MB
2025-07-25 17:00:45.695,0.0102171148352869,121.94356192853424,3,MB
2025-07-25 17:00:45.703,0.0102560016432827,114.12145498691908,3,MB
2025-07-25 17:00:45.710,0.0102922184986751,106.3691840774907,3,MB
2025-07-25 17:00:45.718,0.0103255670045069,98.71540614605628,3,MB
2025-07-25 17:00:45.726,0.0103557039839671,91.18557389858265,3,MB
2025-07-25 17:00:45.734,0.0103821714493326,83.80213370772339,3,MB
2025-07-25 17:00:45.742,0.0104044307647919,76.58474137978303,3,MB
2025-07-25 17:00:45.749,0.0104218993276331,69.55048312340524,3,MB
2025-07-25 17:00:45.757,0.0104339880662134,62.714090778893954,3,MB
2025-07-25 17:00:45.765,0.0104401381590299,56.088142533569645,3,MB
2025-07-25 17:00:45.773,0.0104398554713369,49.6832428005817,3,MB
2025-07-25 17:00:45.781,0.0104327412157331,43.50817750117224,3,MB
2025-07-25 17:00:45.788,0.0104185173254898,37.57004349691902,3,MB
2025-07-25 17:00:45.796,0.0103970450735884,31.874353227113296,3,MB
2025-07-25 17:00:45.804,0.0103683356543004,26.425117608183523,3,MB
2025-07-25 17:00:45.812,0.010332551852093,21.22491187046774,3,MB
2025-07-25 17:00:45.820,0.0102900005937939,16.27493019209418,3,MB
2025-07-25 17:00:45.828,0.0102411169935679,11.575035706160843,3,MB
2025-07-25 17:00:45.835,0.0101864411854492,7.123812679462701,3,MB
2025-07-25 17:00:45.843,0.0101265895665237,2.918627366036717,3,MB
2025-07-25 17:00:45.851,0.0100622220504029,-1.0442967877058609,3,MB
2025-07-25 17:00:45.859,0.0099940067880229,-4.769785258837378,3,MB
2025-07-25 17:00:45.867,0.0099225837926928,-8.263597376100353,3,MB
2025-07-25 17:00:45.874,0.0098485290297634,-11.532289724512909,3,MB
2025-07-25 17:00:45.882,0.0097723206193892,-14.583060038801507,3,MB
2025-07-25 17:00:45.890,0.0096943087124147,-17.423575900507643,3,MB
2025-07-25 17:00:45.898,0.0096146903599989,-20.061794581517127,3,MB
2025-07-25 17:00:45.906,0.0095334903966916,-22.505781932982178,3,MB
2025-07-25 17:00:45.913,0.0094505490478006,-24.763539164441312,3,MB
2025-07-25 17:00:45.921,0.0093655167082413,-26.84284662110974,3,MB
2025-07-25 17:00:45.929,0.0092778561834186,-28.75113323560627,3,MB
2025-07-25 17:00:45.937,0.0091868526153887,-30.495379239802304,3,MB
2025-07-25 17:00:45.945,0.0090916312273831,-32.082058045320444,3,MB
2025-07-25 17:00:45.953,0.0089911828119171,-33.51712103736894,3,MB
2025-07-25 17:00:45.960,0.0088843965477222,-34.80602649948762,3,MB
2025-07-25 17:00:45.968,0.0087700992825651,-35.95381114127844,3,MB
2025-07-25 17:00:45.976,0.0086470999189002,-36.96519990053824,3,MB
2025-07-25 17:00:45.984,0.0085142370954136,-37.84474701276112,3,MB
2025-07-25 17:00:45.992,0.0083704280508872,-38.596998969724666,3,MB
2025-07-25 17:00:45.999,0.0082147163740072,-39.22666810519806,3,MB
2025-07-25 17:00:46.007,0.0080463162678226,-39.73880430771834,3,MB
2025-07-25 17:00:46.015,0.0078646510585667,-40.13895188620856,3,MB
2025-07-25 17:00:46.023,0.0076693840135989,-40.43327897068999,3,MB
2025-07-25 17:00:46.031,0.0074604400353549,-40.62866802602243,3,MB
2025-07-25 17:00:46.038,0.0072380173259978,-40.73275803844358,3,MB
2025-07-25 17:00:46.046,0.0070025885729047,-40.75393158865455,3,MB
2025-07-25 17:00:46.054,0.0067548915691366,-40.70124318590214,3,MB
2025-07-25 17:00:46.062,0.0064959094997096,-40.58428870784665,3,MB
2025-07-25 17:00:46.070,0.0062268414827433,-40.41301936411715,3,MB
2025-07-25 17:00:46.078,0.0059490644144332,-40.19750707572618,3,MB
2025-07-25 17:00:46.085,0.0056640876654096,-39.94767134777383,3,MB
2025-07-25 17:00:46.093,0.0053735025725586,-39.672980431328725,3,MB
2025-07-25 17:00:46.101,0.0050789289013298,-39.38214165772781,3,MB
2025-07-25 17:00:46.109,0.0047819605779328,-39.082797139683976,3,MB
2025-07-25 17:00:46.117,0.0044841130908839,-38.78124145358343,3,MB
2025-07-25 17:00:46.124,0.0041867750480215,-38.48217737546729,3,MB
2025-07-25 17:00:46.132,0.0038911663605524,-38.18852422811308,3,MB
2025-07-25 17:00:46.140,0.0035983052751792,-37.90129096839797,3,MB
2025-07-25 17:00:46.148,0.0033089859360321,-37.61952293546565,3,MB
2025-07-25 17:00:46.156,0.0030237674364699,-37.34032738561675,3,MB
2025-07-25 17:00:46.163,0.0027429745984009,-37.0589787998247,3,MB
2025-07-25 17:00:46.171,0.0024667100987347,-36.7691007356882,3,MB
2025-07-25 17:00:46.179,0.002194877015013,-36.46291699109878,3,MB
2025-07-25 17:00:46.187,0.0019272102999892,-36.13156132206811,3,MB
2025-07-25 17:00:46.195,0.0016633151409323,-35.76543213915434,3,MB
2025-07-25 17:00:46.203,0.0014027097605762,-35.354576654535954,3,MB
2025-07-25 17:00:46.210,0.0011448700720088,-34.88908794076184,3,MB
2025-07-25 17:00:46.218,0.0008892736766214,-34.3594982841461,3,MB
2025-07-25 17:00:46.226,0.0006354409259443,-33.75715299019504,3,MB
2025-07-25 17:00:46.234,0.000382971100003,-33.07455029540901,3,MB
2025-07-25 17:00:46.242,0.0001315721083027,-32.30563510800545,3,MB
2025-07-25 17:00:46.249,-0.0001189175507795,-31.44603679234701,3,MB
2025-07-25 17:00:46.257,-0.0003685154825653,-30.493243998057384,3,MB
2025-07-25 17:00:46.265,-0.0006170912247803,-29.44671249909876,3,MB
2025-07-25 17:00:46.273,-0.0008643712431703,-28.30790503699336,3,MB
2025-07-25 17:00:46.281,-0.001109952716805,-27.080265135710743,3,MB
2025-07-25 17:00:46.288,-0.0013533253956937,-25.769129645056186,3,MB
2025-07-25 17:00:46.296,-0.001593900534261,-24.381587240316165,3,MB
2025-07-25 17:00:46.304,-0.0018310456507777,-22.92629212267208,3,MB
2025-07-25 17:00:46.312,-0.0020641235511981,-21.413243601725256,3,MB
2025-07-25 17:00:46.320,-0.0022925336378455,-19.85354300240572,3,MB
2025-07-25 17:00:46.328,-0.0025157530798839,-18.259139376690893,3,MB
2025-07-25 17:00:46.335,-0.0027333751068211,-16.642574827137164,3,MB
2025-07-25 17:00:46.343,-0.0029451416110225,-15.016738932061452,3,MB
2025-07-25 17:00:46.351,-0.0031509674725508,-13.394639920956626,3,MB
2025-07-25 17:00:46.359,-0.003350954601728,-11.789198049071642,3,MB
2025-07-25 17:00:46.367,-0.0035453946070414,-10.213064260995862,3,MB
2025-07-25 17:00:46.374,-0.0037347600196027,-8.678464921909786,3,MB
2025-07-25 17:00:46.382,-0.0039196848266249,-7.197071317434237,3,MB
2025-07-25 17:00:46.390,-0.004100935567408,-5.779890922986453,3,MB
2025-07-25 17:00:46.398,-0.0042793745617825,-4.43717622349323,3,MB
2025-07-25 17:00:46.406,-0.0044559170986681,-3.178346192309385,3,MB
2025-07-25 17:00:46.413,-0.0046314845826207,-2.0119154490695603,3,MB
2025-07-25 17:00:46.421,-0.0048069556705265,-0.9454266023888808,3,MB
2025-07-25 17:00:46.429,-0.0049831173645987,0.0146177147320739,3,MB
2025-07-25 17:00:46.437,-0.0051606179207144,0.86282520374959,3,MB
2025-07-25 17:00:46.445,-0.0053399233043458,1.5949870892749596,3,MB
2025-07-25 17:00:46.453,-0.0055212787735461,2.208152862910944,3,MB
2025-07-25 17:00:46.460,-0.0057046769774091,2.700703735293929,3,MB
2025-07-25 17:00:46.468,-0.0058898337224368,3.0724206961246416,3,MB
2025-07-25 17:00:46.476,-0.0060761722991481,3.324542284022291,3,MB
2025-07-25 17:00:46.484,-0.0062628170409999,3.4598068964552224,3,MB
2025-07-25 17:00:46.492,-0.0064485966692057,3.482474723531192,3,MB
2025-07-25 17:00:46.499,-0.0066320579430536,3.3983251011952813,3,MB
2025-07-25 17:00:46.507,-0.0068114900903537,3.214626133132715,3,MB
2025-07-25 17:00:46.515,-0.0069849603421356,2.940074684197747,3,MB
2025-07-25 17:00:46.523,-0.0071503605930562,2.5847061611196227,3,MB
2025-07-25 17:00:46.531,-0.0073054647415836,2.159774754677486,3,MB
2025-07-25 17:00:46.538,-0.0074479956381157,1.6776059459146515,3,MB
2025-07-25 17:00:46.546,-0.0075756998261577,1.151424036293887,3,MB
2025-07-25 17:00:46.554,-0.0076864274929458,0.5951582300292785,3,MB
2025-07-25 17:00:46.562,-0.0077782143523297,0.023231373037679,3,MB
2025-07-25 17:00:46.570,-0.0078493616227636,-0.54966415339822,3,MB
2025-07-25 17:00:46.578,-0.0078985098885733,-1.1087986567488397,3,MB
2025-07-25 17:00:46.585,-0.0079247025399539,-1.6396406658465934,3,MB
2025-07-25 17:00:46.593,-0.0079274347660562,-2.128091022261006,3,MB
2025-07-25 17:00:46.601,-0.0079066847512449,-2.560710982426177,3,MB
2025-07-25 17:00:46.609,-0.0078629247832695,-2.924940121193901,3,MB
2025-07-25 17:00:46.617,-0.0077971113597869,-3.209300279479174,3,MB
2025-07-25 17:00:46.624,-0.0077106548943184,-3.4035823166890258,3,MB
2025-07-25 17:00:46.632,-0.0076053710015865,-3.499012946452901,3,MB
2025-07-25 17:00:46.640,-0.0074834163655561,-3.488399383342253,3,MB
2025-07-25 17:00:46.648,-0.0073472127989038,-3.3662498661981304,3,MB
2025-07-25 17:00:46.656,-0.0071993633486801,-3.1288683612478496,3,MB
2025-07-25 17:00:46.663,-0.0070425642698124,-2.774421957057165,3,MB
2025-07-25 17:00:46.671,-0.0068795164470806,-2.302979752770024,3,MB
2025-07-25 17:00:46.679,-0.0067128394887517,-1.7165225144974066,3,MB
2025-07-25 17:00:46.687,-0.0065449913330915,-1.0189230895770371,3,MB
2025-07-25 17:00:46.695,-0.0063781958430081,-0.2158985160218755,3,MB
2025-07-25 17:00:46.703,-0.0062143805179784,0.6850641287603478,3,MB
2025-07-25 17:00:46.710,-0.0060551261256554,1.674804953494039,3,MB
2025-07-25 17:00:46.718,-0.0059016297114721,2.742607339778475,3,MB
2025-07-25 17:00:46.726,-0.00575468200143,3.8763279189979314,3,MB
2025-07-25 17:00:46.734,-0.0056146596285454,5.062535104823671,3,MB
2025-07-25 17:00:46.742,-0.0054815319610541,6.286650955223244,3,MB
2025-07-25 17:00:46.749,-0.0053548817356874,7.533091737923208,3,MB
2025-07-25 17:00:46.757,-0.005233938279434,8.785403628635184,3,MB
2025-07-25 17:00:46.765,-0.0051176217862076,10.02639139852282,3,MB
2025-07-25 17:00:46.773,-0.0050045968186124,11.238239624305931,3,MB
2025-07-25 17:00:46.781,-0.0048933329230362,12.402627729564712,3,MB
2025-07-25 17:00:46.788,-0.0047821700376902,13.500841871245118,3,MB
2025-07-25 17:00:46.796,-0.004669386301695,14.513888152493678,3,MB
2025-07-25 17:00:46.804,-0.0045532659568113,15.422612715469548,3,MB
2025-07-25 17:00:46.812,-0.0044321652220099,16.20783481092242,3,MB
2025-07-25 17:00:46.820,-0.0043045742205875,16.850498852628753,3,MB
2025-07-25 17:00:46.828,-0.0041691731634646,17.331850687155782,3,MB
2025-07-25 17:00:46.835,-0.004024881029585,17.633641842067206,3,MB
2025-07-25 17:00:46.843,-0.003870895031826,17.738363420724095,3,MB
2025-07-25 17:00:46.851,-0.0037067193348287,17.629508716886402,3,MB
2025-07-25 17:00:46.859,-0.0035321818257801,17.291860717557675,3,MB
2025-07-25 17:00:46.867,-0.0033474381771056,16.711797689213324,3,MB
2025-07-25 17:00:46.874,-0.0031529629413837,15.877607271517933,3,MB
2025-07-25 17:00:46.882,-0.002949527968968,14.779797205266908,3,MB
2025-07-25 17:00:46.890,-0.0027381690216801,13.411389238730548,3,MB
2025-07-25 17:00:46.898,-0.0025201420807283,11.768182071841562,3,MB
2025-07-25 17:00:46.906,-0.0022968715365465,9.848969514610818,3,MB
2025-07-25 17:00:46.913,-0.0020698931408748,7.655701368715871,3,MB
2025-07-25 17:00:46.921,-0.0018407951153047,5.193576814451198,3,MB
2025-07-25 17:00:46.929,-0.0016111609469051,2.471063147409337,3,MB
2025-07-25 17:00:46.937,-0.0013825170756176,-0.5001636486981019,3,MB
2025-07-25 17:00:46.945,-0.0011562879704948,-3.705356029756666,3,MB
2025-07-25 17:00:46.953,-0.0009337602026404,-7.126905206833943,3,MB
2025-07-25 17:00:46.960,-0.0007160562619407,-10.744616280417803,3,MB
2025-07-25 17:00:46.968,-0.000504118164023,-14.53603641430615,3,MB
2025-07-25 17:00:46.976,-0.0002987003965998,-18.4768215343657,3,MB
2025-07-25 17:00:46.984,-0.0001003714301993,-22.5411251622242,3,MB
2025-07-25 17:00:46.992,9.047724024507716e-05,-26.701992116615,3,MB
2025-07-25 17:00:46.999,0.0002736158704003,-30.93174001697545,3,MB
2025-07-25 17:00:47.007,0.0004489567488008,-35.20231282122033,3,MB
2025-07-25 17:00:47.015,0.0006165318340786,-39.48559296165663,3,MB
2025-07-25 17:00:47.023,0.000776469389135,-43.753661865152864,3,MB
2025-07-25 17:00:47.031,0.0009289707855273,-47.97900253022576,3,MB
2025-07-25 17:00:47.038,0.0010742882167192,-52.13464209250993,3,MB
2025-07-25 17:00:47.046,0.0012127038673618,-56.19423660974876,3,MB
2025-07-25 17:00:47.054,0.0013445111162133,-60.13210430467873,3,MB
2025-07-25 17:00:47.062,0.0014699984378416,-63.92321692305718,3,MB
2025-07-25 17:00:47.070,0.0015894366397859,-67.54316146731446,3,MB
2025-07-25 17:00:47.078,0.001703069827935,-70.96808621250321,3,MB
2025-07-25 17:00:47.085,0.0018111100546772,-74.17464554829087,3,MB
2025-07-25 17:00:47.093,0.0019137351075633,-77.13995784808601,3,MB
2025-07-25 17:00:47.101,0.0020110885214833,-79.8415893396884,3,MB
2025-07-25 17:00:47.109,0.0021032807775698,-82.25757498628427,3,MB
2025-07-25 17:00:47.117,0.0021903908082558,-84.3664848613559,3,MB
2025-07-25 17:00:47.124,0.0022724672846267,-86.14754161201337,3,MB
2025-07-25 17:00:47.132,0.002349529603988,-87.58079154389821,3,MB
2025-07-25 17:00:47.140,0.0024215688768746,-88.64732879577704,3,MB
2025-07-25 17:00:47.148,0.002488549374215,-89.32956914115628,3,MB
2025-07-25 17:00:47.156,0.0025504107666544,-89.61156726720601,3,MB
2025-07-25 17:00:47.163,0.0026070711601631,-89.47936902291094,3,MB
2025-07-25 17:00:47.171,0.0026584305788427,-88.92138815785864,3,MB
2025-07-25 17:00:47.179,0.0027043742991234,-87.92879552075509,3,MB
2025-07-25 17:00:47.187,0.0027447753573392,-86.49590755598321,3,MB
2025-07-25 17:00:47.195,0.0027794956544816,-84.62056021217268,3,MB
2025-07-25 17:00:47.203,0.0028083853695803,-82.30445403753819,3,MB
2025-07-25 17:00:47.210,0.0028312808291208,-79.5534562681141,3,MB
2025-07-25 17:00:47.218,0.0028480014511771,-76.37784611840603,3,MB
2025-07-25 17:00:47.226,0.0028583467321071,-72.79249027853078,3,MB
2025-07-25 17:00:47.234,0.0028620943875738,-68.8169368390728,3,MB
2025-07-25 17:00:47.242,0.0028590007408648,-64.47541753878154,3,MB
2025-07-25 17:00:47.249,0.0028488043237459,-59.79675038540699,3,MB
2025-07-25 17:00:47.257,0.0028312333901475,-54.81413733799875,3,MB
2025-07-25 17:00:47.265,0.0028060176229023,-49.5648548271585,3,MB
2025-07-25 17:00:47.273,0.0027729038391028,-44.089838354288496,3,MB
2025-07-25 17:00:47.281,0.0027316751106412,-38.433166135523344,3,MB
2025-07-25 17:00:47.288,0.0026821724374742,-32.64145058589389,3,MB
2025-07-25 17:00:47.296,0.0026243178498897,-26.763150190594043,3,MB
2025-07-25 17:00:47.304,0.0025581375230768,-20.847817784348116,3,MB
2025-07-25 17:00:47.312,0.0024837832546329,-14.945304258899238,3,MB
2025-07-25 17:00:47.320,0.0024015506166274,-9.104939060006451,3,MB
2025-07-25 17:00:47.328,0.002311892262374,-3.374710363797908,3,MB
2025-07-25 17:00:47.335,0.0022154251379528,2.1995315801901527,3,MB
2025-07-25 17:00:47.343,0.0021129306476999,7.574824856389896,3,MB
2025-07-25 17:00:47.351,0.0020053471911478,12.711778377943627,3,MB
2025-07-25 17:00:47.359,0.0018937549686788,17.5751671903052,3,MB
2025-07-25 17:00:47.367,0.001779353490975,22.13442454022116,3,MB
2025-07-25 17:00:47.374,0.0016634327398317,26.36401858253014,3,MB
2025-07-25 17:00:47.382,0.001547339374441,30.243705982040478,3,MB
2025-07-25 17:00:47.390,0.0014324397129029,33.758659282762395,3,MB
2025-07-25 17:00:47.398,0.0013200813634885,36.89946951314054,3,MB
2025-07-25 17:00:47.406,0.0012115552916866,39.66202983064476,3,MB
2025-07-25 17:00:47.413,0.0011080598377191,42.04730986017914,3,MB
2025-07-25 17:00:47.421,0.0010106678326587,44.06103356380231,3,MB
2025-07-25 17:00:47.429,0.0009202975512977,45.71327586517734,3,MB
2025-07-25 17:00:47.437,0.0008376878381876,47.01799478090516,3,MB
2025-07-25 17:00:47.445,0.000763377469351,47.99251649337488,3,MB
2025-07-25 17:00:47.453,0.0006976887900369,48.656990708631525,3,MB
2025-07-25 17:00:47.460,0.0006407158881947,49.03383289753619,3,MB
2025-07-25 17:00:47.468,0.0005923178585113,49.14716876800095,3,MB
2025-07-25 17:00:47.476,0.0005521178868043,49.02229471549472,3,MB
2025-07-25 17:00:47.484,0.0005195088492501,48.68516618257381,3,MB
2025-07-25 17:00:47.492,0.0004936659380143,48.161923920102666,3,MB
2025-07-25 17:00:47.499,0.0004735666375974,47.47846613865125,3,MB
2025-07-25 17:00:47.507,0.000458018258266,46.66007250201888,3,MB
2025-07-25 17:00:47.515,0.0004456931051755,45.73108387369943,3,MB
2025-07-25 17:00:47.523,0.000435171076225,44.714639710334886,3,MB
2025-07-25 17:00:47.531,0.0004249889724295,43.63247303793078,3,MB
2025-07-25 17:00:47.538,0.0004136951605943,42.50476109174838,3,MB
2025-07-25 17:00:47.546,0.0003999076469985,41.350028007938754,3,MB
2025-07-25 17:00:47.554,0.0003823732728674,40.18509449059943,3,MB
2025-07-25 17:00:47.562,0.0003600256459485,39.02506820452104,3,MB
2025-07-25 17:00:47.570,0.0003320394648446,37.88336781037728,3,MB
2025-07-25 17:00:47.578,0.0002978789688505,36.77177309730615,3,MB
2025-07-25 17:00:47.585,0.0002573383269429,35.70049359297464,3,MB
2025-07-25 17:00:47.593,0.0002105718704648,34.67824834231147,3,MB
2025-07-25 17:00:47.601,0.0001581122084735,33.712350223008364,3,MB
2025-07-25 17:00:47.609,0.0001008745243446,32.80878916646771,3,MB
2025-07-25 17:00:47.617,4.014578815085902e-05,31.972309915493124,3,MB
2025-07-25 17:00:47.624,-2.244181475529902e-05,31.20648139967966,3,MB
2025-07-25 17:00:47.632,-8.495329392464452e-05,30.51375636068249,3,MB
2025-07-25 17:00:47.640,-0.0001452084034589,29.89552141669936,3,MB
2025-07-25 17:00:47.648,-0.000200852747771,29.352139216860948,3,MB
2025-07-25 17:00:47.656,-0.0002494399511809,28.88298560143245,3,MB
2025-07-25 17:00:47.663,-0.0002885216381338,28.486485658472457,3,MB
2025-07-25 17:00:47.671,-0.0003157414584339,28.160153165050083,3,MB
2025-07-25 17:00:47.679,-0.0003289291099186,27.90063804773193,3,MB
2025-07-25 17:00:47.687,-0.0003261902042387,27.703786146605594,3,MB
2025-07-25 17:00:47.695,-0.0003059879018423,27.5647147173268,3,MB
2025-07-25 17:00:47.703,-0.0002672125885333,27.47790580793036,3,MB
2025-07-25 17:00:47.710,-0.0002092365181744,27.437318004785077,3,MB
2025-07-25 17:00:47.718,-0.0001319512178536,27.436515200219528,3,MB
2025-07-25 17:00:47.726,-3.578635452808407e-05,27.468809165757666,3,MB
2025-07-25 17:00:47.734,7.82904649778231e-05,27.52741100248387,3,MB
2025-07-25 17:00:47.742,0.0002087928551552,27.6055851551359,3,MB
2025-07-25 17:00:47.749,0.000353753059878,27.69679875788283,3,MB
2025-07-25 17:00:47.757,0.0005107762367683,27.79485872124197,3,MB
2025-07-25 17:00:47.765,0.0006771096139507,27.89402921737492,3,MB
2025-07-25 17:00:47.773,0.000849724019359,27.989123074456824,3,MB
2025-07-25 17:00:47.781,0.0010254049234083,28.075562002869702,3,MB
2025-07-25 17:00:47.788,0.001200849797596,28.14940245388069,3,MB
2025-07-25 17:00:47.796,0.0013727682050721,28.20732612146725,3,MB
2025-07-25 17:00:47.804,0.0015379806862507,28.246596474274888,3,MB
2025-07-25 17:00:47.812,0.0016935123435112,28.264985059191307,3,MB
2025-07-25 17:00:47.820,0.0018366771734627,28.26067345003468,3,MB
2025-07-25 17:00:47.828,0.0019651496490835,28.232138428242425,3,MB
2025-07-25 17:00:47.835,0.0020770207408219,28.17802911403602,3,MB
2025-07-25 17:00:47.843,0.002170836393489,28.097045216634733,3,MB
2025-07-25 17:00:47.851,0.0022456173991063,27.987825320095123,3,MB
2025-07-25 17:00:47.859,0.0023008606055226,27.848853219681185,3,MB
2025-07-25 17:00:47.867,0.0023365224243608,27.678388879946656,3,MB
2025-07-25 17:00:47.874,0.0023529865548277,27.4744287457252,3,MB
2025-07-25 17:00:47.882,0.0023510186035529,27.234698069995297,3,MB
2025-07-25 17:00:47.890,0.002331710743229,26.956675802955957,3,MB
2025-07-25 17:00:47.898,0.0022964196775946,26.637650576172277,3,MB
2025-07-25 17:00:47.906,0.0022467010598183,26.27480454657052,3,MB
2025-07-25 17:00:47.913,0.0021842433151189,25.86532042968948,3,MB
2025-07-25 17:00:47.921,0.002110803646562,25.40650599775581,3,MB
2025-07-25 17:00:47.929,0.0020281488013828,24.895929651770707,3,MB
2025-07-25 17:00:47.937,0.0019380028183901,24.33156037120308,3,MB
2025-07-25 17:00:47.945,0.0018420034124846,23.711905354047968,3,MB
2025-07-25 17:00:47.953,0.0017416679457293,23.03613893179141,3,MB
2025-07-25 17:00:47.960,0.001638369192182,22.30421682981912,3,MB
2025-07-25 17:00:47.968,0.0015333203941518,21.51697050364204,3,MB
2025-07-25 17:00:47.976,0.0014275684908253,20.6761770817381,3,MB
2025-07-25 17:00:47.984,0.0013219939746678,19.784601358190788,3,MB
2025-07-25 17:00:47.992,0.0012173156600032,18.846007277525924,3,MB
2025-07-25 17:00:47.999,0.001114098688215,17.865137417056886,3,MB
2025-07-25 17:00:48.007,0.0010127642664233,16.847660074020443,3,MB
2025-07-25 17:00:48.015,0.0009135999058266,15.800084678141449,3,MB
2025-07-25 17:00:48.023,0.0008167692744937,14.72964734682399,3,MB
2025-07-25 17:00:48.031,0.0007223211866558,13.64416945373395,3,MB
2025-07-25 17:00:48.038,0.0006301976989963,12.55189306553974,3,MB
2025-07-25 17:00:48.046,0.0005402417227097,11.461297984451411,3,MB
2025-07-25 17:00:48.054,0.0004522048887895,10.380905880646552,3,MB
2025-07-25 17:00:48.062,0.0003657565330859,9.319077579262212,3,MB
2025-07-25 17:00:48.070,0.0002804945629201,8.283809966201355,3,MB
2025-07-25 17:00:48.078,0.0001959586621639,7.282539190290475,3,MB
2025-07-25 17:00:48.085,0.0001116459031772,6.321956856752203,3,MB
2025-07-25 17:00:48.093,2.702852453769654e-05,5.407845706616051,3,MB
2025-07-25 17:00:48.101,-5.842651226727366e-05,4.544940831735682,3,MB
2025-07-25 17:00:48.109,-0.0001452366277122,3.73682176839327,3,MB
2025-07-25 17:00:48.117,-0.0002338819372783,2.985839845225708,3,MB
2025-07-25 17:00:48.124,-0.0003247835443308,2.293083952284894,3,MB
2025-07-25 17:00:48.132,-0.000418282850123,1.6583864815592426,3,MB
2025-07-25 17:00:48.140,-0.0005146230684435,1.0803696157281353,3,MB
2025-07-25 17:00:48.148,-0.0006139340792428,0.5565304804259307,3,MB
2025-07-25 17:00:48.156,-0.0007162215414526,0.0833620121245602,3,MB
2025-07-25 17:00:48.163,-0.0008213608903283,-0.3434951738801508,3,MB
2025-07-25 17:00:48.171,-0.0009290965087527,-0.7290760034556345,3,MB
2025-07-25 17:00:48.179,-0.0010390460313553,-1.0788964253712894,3,MB
2025-07-25 17:00:48.187,-0.0011507094984704,-1.3987490550202304,3,MB
2025-07-25 17:00:48.195,-0.001263482966364,-1.6944972054816625,3,MB
2025-07-25 17:00:48.203,-0.0013766761257818,-1.9718754484368972,3,MB
2025-07-25 17:00:48.210,-0.0014895333362709,-2.2363043824332745,3,MB
2025-07-25 17:00:48.218,-0.0016012571765344,-2.492726488000326,3,MB
2025-07-25 17:00:48.226,-0.0017110332265143,-2.7454688809575014,3,MB
2025-07-25 17:00:48.234,-0.0018180544995327,-2.998137507115056,3,MB
2025-07-25 17:00:48.242,-0.0019215438522599,-3.2535459269653497,3,MB
2025-07-25 17:00:48.249,-0.0020207728543832,-3.513680388225505,3,MB
2025-07-25 17:00:48.257,-0.0021150759693862,-3.779701436191973,3,MB
2025-07-25 17:00:48.265,-0.0022038593982779,-4.051980910164301,3,MB
2025-07-25 17:00:48.273,-0.0022866044756541,-4.330171850181918,3,MB
2025-07-25 17:00:48.281,-0.0023628660308097,-4.613307621171754,3,MB
2025-07-25 17:00:48.289,-0.0024322665910034,-4.899925485695396,3,MB
2025-07-25 17:00:48.296,-0.0024944876244162,-5.188208960292941,3,MB
2025-07-25 17:00:48.304,-0.0025492591443646,-5.476142609494329,3,MB
2025-07-25 17:00:48.312,-0.0025963489701886,-5.761672493661084,3,MB
2025-07-25 17:00:48.320,-0.0026355528157647,-6.0428653119160405,3,MB
2025-07-25 17:00:48.328,-0.0026666861286239,-6.318059382075132,3,MB
2025-07-25 17:00:48.335,-0.0026895782373515,-6.586000977777541,3,MB
2025-07-25 17:00:48.343,-0.0027040690215406,-6.845960186014217,3,MB
2025-07-25 17:00:48.351,-0.002710008135284,-7.097821325953792,3,MB
2025-07-25 17:00:48.359,-0.0027072567575888,-7.342144036386121,3,MB
2025-07-25 17:00:48.367,-0.0026956917753072,-7.580192337409267,3,MB
2025-07-25 17:00:48.374,-0.0026752121659908,-7.813930243803951,3,MB
2025-07-25 17:00:48.382,-0.0026457471895632,-8.045983801620993,3,MB
2025-07-25 17:00:48.390,-0.0026072658968564,-8.279570692758295,3,MB
2025-07-25 17:00:48.398,-0.0025597874368651,-8.518399764321252,3,MB
2025-07-25 17:00:48.406,-0.0025033916323436,-8.766543948975576,3,MB
2025-07-25 17:00:48.414,-0.0024382292556349,-9.02829101059907,3,MB
2025-07-25 17:00:48.421,-0.0023645314264411,-9.30797734895318,3,MB
2025-07-25 17:00:48.429,-0.0022826176174941,-9.60981071834444,3,MB
2025-07-25 17:00:48.437,-0.0021929018242804,-9.937688164223417,3,MB
2025-07-25 17:00:48.445,-0.0020958964249985,-10.29501576789459,3,MB
2025-07-25 17:00:48.453,-0.0019922131373497,-10.684536913349312,3,MB
2025-07-25 17:00:48.460,-0.0018825604017436,-11.10817573731518,3,MB
2025-07-25 17:00:48.468,-0.0017677366003605,-11.566902166797684,3,MB
2025-07-25 17:00:48.476,-0.0016486187643313,-12.060624454374048,3,MB
2025-07-25 17:00:48.484,-0.0015261467566848,-12.588114361492943,3,MB
2025-07-25 17:00:48.492,-0.0014013032667753,-13.146969102351736,3,MB
2025-07-25 17:00:48.499,-0.0012750902691154,-13.733612860464484,3,MB
2025-07-25 17:00:48.507,-0.0011485028748027,-14.34333917117649,3,MB
2025-07-25 17:00:48.515,-0.0010225017049977,-14.970393796095646,3,MB
2025-07-25 17:00:48.523,-0.0008979849966038,-15.608095986913312,3,MB
2025-07-25 17:00:48.531,-0.0007757616422325,-16.24899434280263,3,MB
2025-07-25 17:00:48.539,-0.0006565263892813,-16.885051908677507,3,MB
2025-07-25 17:00:48.546,-0.0005408385450194,-17.507853842746343,3,MB
2025-07-25 17:00:48.554,-0.0004291056741344,-18.10882999340492,3,MB
2025-07-25 17:00:48.562,-0.0003215737730754,-18.679484136425007,3,MB
2025-07-25 17:00:48.570,-0.0002183251549996,-19.211621467330374,3,MB
2025-07-25 17:00:48.578,-0.0001192847839324,-19.69756621552717,3,MB
2025-07-25 17:00:48.585,-2.42351711910881e-05,-20.13036190504195,3,MB
2025-07-25 17:00:48.593,6.716064166590261e-05,-20.50394776268056,3,MB
2025-07-25 17:00:48.601,0.0001553289507936,-20.813305983307693,3,MB
2025-07-25 17:00:48.609,0.0002407494402255,-21.054575917130887,3,MB
2025-07-25 17:00:48.617,0.0003239151758515,-21.225132667954718,3,MB
2025-07-25 17:00:48.624,0.0004052907606439,-21.32362902009926,3,MB
2025-07-25 17:00:48.632,0.0004852712186557,-21.350000990728585,3,MB
2025-07-25 17:00:48.640,0.000564144301654,-21.3054385846939,3,MB
2025-07-25 17:00:48.648,0.0006420587789894,-21.19232446669503,3,MB
2025-07-25 17:00:48.656,0.0007190008832154,-21.014144225025262,3,MB
2025-07-25 17:00:48.664,0.0007947804864272,-20.775372657809942,3,MB
2025-07-25 17:00:48.671,0.0008690279026144,-20.48134105267063,3,MB
2025-07-25 17:00:48.679,0.0009412015898297,-20.138090747886118,3,MB
2025-07-25 17:00:48.687,0.0010106064821202,-19.752218353394472,3,MB
2025-07-25 17:00:48.695,0.0010764221186836,-19.330717867632917,3,MB
2025-07-25 17:00:48.703,0.00113773909912,-18.88082454523324,3,MB
2025-07-25 17:00:48.710,0.0011936017434857,-18.40986475303525,3,MB
2025-07-25 17:00:48.718,0.0012430542781896,-17.92511521877882,3,MB
2025-07-25 17:00:48.726,0.0012851874898571,-17.433674074351924,3,MB
2025-07-25 17:00:48.734,0.0013191827135073,-16.942344991925328,3,MB
2025-07-25 17:00:48.742,0.0013443503743289,-16.457534588171242,3,MB
2025-07-25 17:00:48.749,0.0013601610448849,-15.98516221631817,3,MB
2025-07-25 17:00:48.757,0.001366267893136,-15.530580367777976,3,MB
2025-07-25 17:00:48.765,0.0013625202737647,-15.0985032512878,3,MB
2025-07-25 17:00:48.773,0.0013489689637491,-14.692940779656288,3,MB
2025-07-25 17:00:48.781,0.0013258641033602,-14.31713521494569,3,MB
2025-07-25 17:00:48.789,0.0012936471914433,-13.973498108925355,3,MB
2025-07-25 17:00:48.796,0.0012529384626348,-13.663545900168808,3,MB
2025-07-25 17:00:48.804,0.0012045207318274,-13.387833538162203,3,MB
2025-07-25 17:00:48.812,0.0011493204930262,-13.145886720310871,3,MB
2025-07-25 17:00:48.820,0.0010883868078766,-12.936134651332289,3,MB
2025-07-25 17:00:48.828,0.0010228682948268,-12.75584655686326,3,MB
2025-07-25 17:00:48.835,0.000953988312285,-12.601076398415442,3,MB
2025-07-25 17:00:48.843,0.0008830183087638,-12.466621253545505,3,MB
2025-07-25 17:00:48.851,0.0008112494131305,-12.34599956810814,3,MB
2025-07-25 17:00:48.859,0.0007399626541431,-12.231455894309429,3,MB
2025-07-25 17:00:48.867,0.0006703985713581,-12.11399874476555,3,MB
2025-07-25 17:00:48.874,0.0006037272197652,-11.983477772486568,3,MB
2025-07-25 17:00:48.882,0.000541019594344,-11.828705598383062,3,MB
2025-07-25 17:00:48.890,0.0004832213762006,-11.637628248143674,3,MB
2025-07-25 17:00:48.898,0.0004311297764579,-11.397546363206072,3,MB
2025-07-25 17:00:48.906,0.0003853742092281,-11.09538718749627,3,MB
2025-07-25 17:00:48.914,0.0003464015143862,-10.71802490353932,3,MB
2025-07-25 17:00:48.921,0.0003144663932938,-10.252644318965714,3,MB
2025-07-25 17:00:48.929,0.0002896275839066,-9.687140319661127,3,MB
2025-07-25 17:00:48.937,0.0002717500827328,-9.010543047328635,3,MB
2025-07-25 17:00:48.945,0.0002605134461767,-8.213456566955152,3,MB
2025-07-25 17:00:48.953,0.0002554259493071,-7.288496999316418,3,MB
2025-07-25 17:00:48.960,0.0002558441946856,-6.230714828572992,3,MB
2025-07-25 17:00:48.968,0.0002609975971605,-5.0379854546490215,3,MB
2025-07-25 17:00:48.976,0.0002700169503356,-3.711352107232426,3,MB
2025-07-25 17:00:48.984,0.0002819660126145,-2.255305988961595,3,MB
2025-07-25 17:00:48.992,0.0002958748084035,-0.6779899344558484,3,MB
2025-07-25 17:00:48.999,0.0003107732019876,1.0086861247346393,3,MB
2025-07-25 17:00:49.007,0.0003257233062668,2.7890271344454165,3,MB
2025-07-25 17:00:49.015,0.0003398494328501,4.643638796150652,3,MB
2025-07-25 17:00:49.023,0.0003523645615034,6.549620864353767,3,MB
2025-07-25 17:00:49.031,0.0003625926682283,8.480868386350643,3,MB
2025-07-25 17:00:49.039,0.0003699866090372,10.40847846418682,3,MB
2025-07-25 17:00:49.046,0.0003741415187779,12.301257276223453,3,MB
2025-07-25 17:00:49.054,0.0003748038174313,14.126319376407372,3,MB
2025-07-25 17:00:49.062,0.0003718759190432,15.849768698615362,3,MB
2025-07-25 17:00:49.070,0.0003654166475318,17.437448232696987,3,MB
2025-07-25 17:00:49.078,0.0003556372948645,18.855743013730933,3,MB
2025-07-25 17:00:49.085,0.0003428933363463,20.072418892438684,3,MB
2025-07-25 17:00:49.093,0.0003276720416725,21.057477563631497,3,MB
2025-07-25 17:00:49.101,0.000310576440318,21.78400656985717,3,MB
2025-07-25 17:00:49.109,0.0002923061669486,22.229001536091022,3,MB
2025-07-25 17:00:49.117,0.000273635623091,22.37413681158468,3,MB
2025-07-25 17:00:49.124,0.0002553897704444,22.206460091754387,3,MB
2025-07-25 17:00:49.132,0.0002384178339525,21.71898656661032,3,MB
2025-07-25 17:00:49.140,0.0002235652748599,20.911168793095516,3,MB
2025-07-25 17:00:49.148,0.0002116445934726,19.78921991510744,3,MB
2025-07-25 17:00:49.156,0.0002034058038345,18.36627015287331,3,MB
2025-07-25 17:00:49.164,0.0001995076956352,16.662339742404576,3,MB
2025-07-25 17:00:49.171,0.0002004911691741,14.704115796542329,3,MB
2025-07-25 17:00:49.179,0.000206755960354,12.524525913254624,3,MB
2025-07-25 17:00:49.187,0.0002185419587109,10.16210774648122,3,MB
2025-07-25 17:00:49.195,0.0002359160879829,7.660181073732298,3,MB
2025-07-25 17:00:49.203,0.0002587654431452,5.0658369399604455,3,MB
2025-07-25 17:00:49.210,0.000286797111613,2.428766916146572,3,MB
2025-07-25 17:00:49.218,0.0003195448087038,-0.2000360380013001,3,MB
2025-07-25 17:00:49.226,0.0003563820940233,-2.7696656878926285,3,MB
2025-07-25 17:00:49.234,0.000396541587057,-5.230733362502833,3,MB
2025-07-25 17:00:49.242,0.0004391393850935,-7.5367901332348115,3,MB
2025-07-25 17:00:49.249,0.0004832038056071,-9.645686098811458,3,MB
2025-07-25 17:00:49.257,0.00052770751232,-11.520812465705507,3,MB
2025-07-25 17:00:49.265,0.0005716019665936,-13.132175116825133,3,MB
2025-07-25 17:00:49.273,0.0006138530437714,-14.457254456994894,3,MB
2025-07-25 17:00:49.281,0.0006534766814999,-15.481615178232046,3,MB
2025-07-25 17:00:49.289,0.0006895735814987,-16.19924056194208,3,MB
2025-07-25 17:00:49.296,0.0007213621437653,-16.612578209620047,3,MB
2025-07-25 17:00:49.304,0.0007482088608266,-16.73229681199514,3,MB
2025-07-25 17:00:49.312,0.0007696553135451,-16.576765942404776,3,MB
2025-07-25 17:00:49.320,0.0007854407289024,-16.17128223304393,3,MB
2025-07-25 17:00:49.328,0.0007955188985504,-15.54707514468161,3,MB
2025-07-25 17:00:49.335,0.0008000682777871,-14.740133493157163,3,MB
2025-07-25 17:00:49.343,0.0007994943428667,-13.789899704187787,3,MB
2025-07-25 17:00:49.351,0.0007944236602059,-12.737882315700242,3,MB
2025-07-25 17:00:49.359,0.0007856894899501,-11.626238541874397,3,MB
2025-07-25 17:00:49.367,0.0007743091189261,-10.496377872175314,3,MB
2025-07-25 17:00:49.374,0.0007614535524725,-9.387634901797057,3,MB
2025-07-25 17:00:49.382,0.0007484106764465,-8.336055130971006,3,MB
2025-07-25 17:00:49.390,0.0007365434425294,-7.373331615122391,3,MB
2025-07-25 17:00:49.398,0.0007272449124058,-6.525923401668539,3,MB
2025-07-25 17:00:49.406,0.000721892004541,-5.814378971422035,3,MB
2025-07-25 17:00:49.414,0.0007217994794304,-5.2528797382859125,3,MB
2025-07-25 17:00:49.421,0.0007281751674797,-4.8490103738401045,3,MB
2025-07-25 17:00:49.429,0.0007420768890642,-4.603754627359264,3,MB
2025-07-25 17:00:49.437,0.0007643711444061,-4.511707700099176,3,MB
2025-07-25 17:00:49.445,0.0007956935781629,-4.561489362807988,3,MB
2025-07-25 17:00:49.453,0.0008364114462892,-4.7363360809868205,3,MB
2025-07-25 17:00:49.460,0.0008865887124722,-5.014845572341113,3,MB
2025-07-25 17:00:49.468,0.0009459548037943,-5.37184354351909,3,MB
2025-07-25 17:00:49.476,0.0010138783599638,-5.779339869679211,3,MB
2025-07-25 17:00:49.484,0.0010893475651105,-6.207540183821314,3,MB
2025-07-25 17:00:49.492,0.0011709589475419,-6.625878692131982,3,MB
2025-07-25 17:00:49.499,0.0012569168478059,-7.004038957252631,3,MB
2025-07-25 17:00:49.507,0.0013450459464,-7.312931305261916,3,MB
2025-07-25 17:00:49.515,0.0014328191822323,-7.525598315864235,3,MB
2025-07-25 17:00:49.523,0.0015174030391015,-7.6180234408199805,3,MB
2025-07-25 17:00:49.531,0.0015957215263066,-7.56982203979449,3,MB
2025-07-25 17:00:49.539,0.0016645392398248,-7.364798881963289,3,MB
2025-07-25 17:00:49.546,0.0017205626892952,-6.99136127310901,3,MB
2025-07-25 17:00:49.554,0.0017605576206834,-6.442782253538824,3,MB
2025-07-25 17:00:49.562,0.0017814783380001,-5.717313579135469,3,MB
2025-07-25 17:00:49.570,0.0017806030974973,-4.818153238718732,3,MB
2025-07-25 17:00:49.578,0.0017556677884305,-3.753276863006391,3,MB
2025-07-25 17:00:49.585,0.0017049887802931,-2.5351463471150755,3,MB
2025-07-25 17:00:49.593,0.0016275654480938,-1.1803121806088024,3,MB
2025-07-25 17:00:49.601,0.0015231537121419,0.2910717531654424,3,MB
2025-07-25 17:00:49.609,0.0013923039087654,1.855800840875359,3,MB
2025-07-25 17:00:49.617,0.0012363592153696,3.488219458721934,3,MB
2025-07-25 17:00:49.624,0.0010574143409866,5.16084791462356,3,MB
2025-07-25 17:00:49.632,0.0008582377661886,6.845018161499612,3,MB
2025-07-25 17:00:49.640,0.0006421638188346,8.511501864029047,3,MB
2025-07-25 17:00:49.648,0.0004129627336576,10.13111689716339,3,MB
2025-07-25 17:00:49.656,0.0001746974195709,11.675301099806752,3,MB
2025-07-25 17:00:49.664,-6.842474385248614e-05,13.116644884859817,3,MB
2025-07-25 17:00:49.671,-0.0003121976674167,14.429376921252764,3,MB
2025-07-25 17:00:49.679,-0.0005525534940649,15.589799402448286,3,MB
2025-07-25 17:00:49.687,-0.0007856853387606,16.576671302420305,3,MB
2025-07-25 17:00:49.695,-0.0010081514272774,17.371539450162704,3,MB
2025-07-25 17:00:49.703,-0.0012169573211787,17.959018225962954,3,MB
2025-07-25 17:00:49.710,-0.0014096141520027,18.327019229884883,3,MB
2025-07-25 17:00:49.718,-0.0015841721053587,18.46693245546596,3,MB
2025-07-25 17:00:49.726,-0.0017392296913273,18.373760398116577,3,MB
2025-07-25 17:00:49.734,-0.0018739205487014,18.046206224642532,3,MB
2025-07-25 17:00:49.742,-0.0019878805998394,17.486716716024393,3,MB
2025-07-25 17:00:49.749,-0.0020811991794763,16.701480258589353,3,MB
2025-07-25 17:00:49.757,-0.0021543581833709,15.70037978411072,3,MB
2025-07-25 17:00:49.765,-0.0022081633317798,14.496900317868404,3,MB
2025-07-25 17:00:49.773,-0.0022436714600376,13.107990726825792,3,MB
2025-07-25 17:00:49.781,-0.002262117471677,11.553879371742555,3,MB
2025-07-25 17:00:49.789,-0.0022648442822722,9.857843627466371,3,MB
2025-07-25 17:00:49.796,-0.002253238774512,8.045933594861658,3,MB
2025-07-25 17:00:49.804,-0.0022286764718841,6.146650732225346,3,MB
2025-07-25 17:00:49.812,-0.0021924772317588,4.190582541340937,3,MB
2025-07-25 17:00:49.820,-0.0021458736340863,2.2099948351656287,3,MB
2025-07-25 17:00:49.828,-0.0020899928615586,0.2383835045039651,3,MB
2025-07-25 17:00:49.835,-0.0020258518407405,-1.690011865171515,3,MB
2025-07-25 17:00:49.843,-0.0019543644305094,-3.540729635697192,3,MB
2025-07-25 17:00:49.851,-0.0018763586263642,-5.279639416236012,3,MB
2025-07-25 17:00:49.859,-0.0017926010941253,-6.873522486544456,3,MB
2025-07-25 17:00:49.867,-0.00170382584004,-8.290673609955293,3,MB
2025-07-25 17:00:49.874,-0.0016107635382021,-9.501517019569034,3,MB
2025-07-25 17:00:49.882,-0.0015141680615022,-10.479227604269658,3,MB
2025-07-25 17:00:49.890,-0.0014148371307364,-11.2003463358043,3,MB
2025-07-25 17:00:49.898,-0.0013136247005063,-11.64537684412101,3,MB
2025-07-25 17:00:49.906,-0.0012114436881885,-11.799347878920267,3,MB
2025-07-25 17:00:49.914,-0.0011092587804419,-11.652324341822595,3,MB
2025-07-25 17:00:49.921,-0.0010080701289424,-11.199847827236804,3,MB
2025-07-25 17:00:49.929,-0.0009088896314067,-10.443286396890969,3,MB
2025-07-25 17:00:49.937,-0.0008127121197522,-9.390072875950183,3,MB
2025-07-25 17:00:49.945,-0.0007204841193161,-8.053811534621367,3,MB
2025-07-25 17:00:49.953,-0.0006330728907309,-6.454234815932892,3,MB
2025-07-25 17:00:49.960,-0.0005512382232527,-4.616994943504409,3,MB
2025-07-25 17:00:49.968,-0.0004756089602894,-2.5732798703745208,3,MB
2025-07-25 17:00:49.976,-0.0004066656269988,-0.359249083220695,3,MB
2025-07-25 17:00:49.984,-0.0003447299644,1.984707903907945,3,MB
2025-07-25 17:00:49.992,-0.0002899617442916,4.414879249793132,3,MB
2025-07-25 17:00:49.999,-0.0002423628829337,6.885284760300509,3,MB
2025-07-25 17:00:50.007,-0.0002017884809225,9.348847448125706,3,MB
2025-07-25 17:00:50.015,-0.0001679639976646,11.75864588925008,3,MB
2025-07-25 17:00:50.023,-0.0001405074408762,14.069203822923942,3,MB
2025-07-25 17:00:50.031,-0.0001189552880277,16.237768660401784,3,MB
2025-07-25 17:00:50.039,-0.0001027907857865,18.22552832752304,3,MB
2025-07-25 17:00:50.046,-9.14731778114696e-05,19.99871654871895,3,MB
2025-07-25 17:00:50.054,-8.44662879907617e-05,21.52956039164105,3,MB
2025-07-25 17:00:50.062,-8.126484765925115e-05,22.79703040791843,3,MB
2025-07-25 17:00:50.070,-8.141707416342231e-05,23.787362502691312,3,MB
2025-07-25 17:00:50.078,-8.454223953801473e-05,24.49433103260369,3,MB
2025-07-25 17:00:50.085,-9.034225863045413e-05,24.919263807159652,3,MB
2025-07-25 17:00:50.093,-9.86067069968334e-05,25.070800943194563,3,MB
2025-07-25 17:00:50.101,-0.0001092111788582,24.96441029203865,3,MB
2025-07-25 17:00:50.109,-0.0001221094476354,24.6216819322938,3,MB
2025-07-25 17:00:50.117,-0.0001373203953797,24.069432611337337,3,MB
2025-07-25 17:00:50.124,-0.0001549110553922,23.33865773569769,3,MB
2025-07-25 17:00:50.132,-0.0001749772755659,22.46337335806836,3,MB
2025-07-25 17:00:50.140,-0.0001976234096549,21.479393483483204,3,MB
2025-07-25 17:00:50.148,-0.0002229421907707,20.423088905899693,3,MB
2025-07-25 17:00:50.156,-0.0002509957379778,19.33017276180956,3,MB
2025-07-25 17:00:50.164,-0.0002817985742362,18.23455520159434,3,MB
2025-07-25 17:00:50.171,-0.0003153035066315,17.16730525363462,3,MB
2025-07-25 17:00:50.179,-0.0003513911338884,16.155752366536063,3,MB
2025-07-25 17:00:50.187,-0.0003898635691406,15.22275357240741,3,MB
2025-07-25 17:00:50.195,-0.0004304427008173,14.386145045994803,3,MB
2025-07-25 17:00:50.203,-0.0004727729943602,13.658389367241009,3,MB
2025-07-25 17:00:50.210,-0.0005164285457814,13.046422340334452,3,MB
2025-07-25 17:00:50.218,-0.0005609238905194,12.551696064018694,3,MB
2025-07-25 17:00:50.226,-0.0006057279092465,12.17040832891578,3,MB
2025-07-25 17:00:50.234,-0.0006502800165931,11.89390253116783,3,MB
2025-07-25 17:00:50.242,-0.0006940077159034,11.70921727617788,3,MB
2025-07-25 17:00:50.249,-0.0007363445986331,11.599760786951892,3,MB
2025-07-25 17:00:50.257,-0.0007767479176025,11.546082170087516,3,MB
2025-07-25 17:00:50.265,-0.0008147149246356,11.526709539608964,3,MB
2025-07-25 17:00:50.273,-0.0008497972771121,11.51902394727471,3,MB
2025-07-25 17:00:50.281,-0.0008816130201142,11.500138001544006,3,MB
2025-07-25 17:00:50.289,-0.00090985586134,11.447748953605217,3,MB
2025-07-25 17:00:50.296,-0.0009343015578009,11.340937854625844,3,MB
2025-07-25 17:00:50.304,-0.0009548112270952,11.1608890936511,3,MB
2025-07-25 17:00:50.312,-0.0009713313997192,10.891508138239164,3,MB
2025-07-25 17:00:50.320,-0.0009838907228457,10.519919521709872,3,MB
2025-07-25 17:00:50.328,-0.0009925933747327,10.036831924567466,3,MB
2025-07-25 17:00:50.335,-0.0009976094094867,9.436762424795536,3,MB
2025-07-25 17:00:50.343,-0.0009991624667104,8.718117450863279,3,MB
2025-07-25 17:00:50.351,-0.0009975155843313,7.883133440629329,3,MB
2025-07-25 17:00:50.359,-0.0009929561584379,6.937685448483875,3,MB
2025-07-25 17:00:50.367,-0.0009857812436558,5.89097671215898,3,MB
2025-07-25 17:00:50.374,-0.0009762842776187,4.755126270103827,3,MB
2025-07-25 17:00:50.382,-0.0009647439509645,3.54467492793588,3,MB
2025-07-25 17:00:50.390,-0.0009514154486913,2.2760320781307244,3,MB
2025-07-25 17:00:50.398,-0.0009365238366679,0.966887012581844,3,MB
2025-07-25 17:00:50.406,-0.0009202590905824,-0.3643915727517695,3,MB
2025-07-25 17:00:50.414,-0.0009027722080343,-1.6993451465932443,3,MB
2025-07-25 17:00:50.421,-0.000884172011308,-3.019983134227405,3,MB
2025-07-25 17:00:50.429,-0.0008645226010785,-4.309290732293411,3,MB
2025-07-25 17:00:50.437,-0.0008438418345289,-5.551671771034124,3,MB
2025-07-25 17:00:50.445,-0.0008221015042908,-6.733315240037461,3,MB
2025-07-25 17:00:50.453,-0.0007992299688147,-7.842477847950152,3,MB
2025-07-25 17:00:50.460,-0.0007751177955895,-8.869678720084057,3,MB
2025-07-25 17:00:50.468,-0.0007496265658833,-9.807805895779616,3,MB
2025-07-25 17:00:50.476,-0.0007226004768976,-10.65213754932433,3,MB
2025-07-25 17:00:50.484,-0.000693879940198,-11.400283737104075,3,MB
2025-07-25 17:00:50.492,-0.0006633161387305,-12.052056910954496,3,MB
2025-07-25 17:00:50.499,-0.0006307854786496,-12.609281395655444,3,MB
2025-07-25 17:00:50.507,-0.0005962029891025,-13.07555348278546,3,MB
2025-07-25 17:00:50.515,-0.0005595339052224,-13.45596472809398,3,MB
2025-07-25 17:00:50.523,-0.0005208028746663,-13.756801447969442,3,MB
2025-07-25 17:00:50.531,-0.0004801004456711,-13.985233297401756,3,MB
2025-07-25 17:00:50.539,-0.0004375866874712,-14.149003199466264,3,MB
2025-07-25 17:00:50.546,-0.0003934918829716,-14.256129828684935,3,MB
2025-07-25 17:00:50.554,-0.0003481141815679,-14.314632393729688,3,MB
2025-07-25 17:00:50.562,-0.0003018139879241,-14.332285703801768,3,MB
2025-07-25 17:00:50.570,-0.0002550048434211,-14.3164115349404,3,MB
2025-07-25 17:00:50.578,-0.0002081407157658,-14.27371023988665,3,MB
2025-07-25 17:00:50.585,-0.0001616999031978,-14.210134469869152,3,MB
2025-07-25 17:00:50.593,-0.0001161660993986,-14.130804895536071,3,MB
2025-07-25 17:00:50.601,-7.200751062408635e-05,-14.039966014122442,3,MB
2025-07-25 17:00:50.609,-2.965521847652915e-05,-13.940978583656332,3,MB
2025-07-25 17:00:50.617,1.0517845879486628e-05,-13.836343987688617,3,MB
2025-07-25 17:00:50.624,4.82159571059946e-05,-13.727754939945632,3,MB
2025-07-25 17:00:50.632,8.323646574668117e-05,-13.61616640047327,3,MB
2025-07-25 17:00:50.640,0.000115481475975,-13.50188038852344,3,MB
2025-07-25 17:00:50.648,0.0001449645855897,-13.384638523824432,3,MB
2025-07-25 17:00:50.656,0.0001718122891246,-13.263716574772625,3,MB
2025-07-25 17:00:50.664,0.0001962600347486,-13.138015995154923,3,MB
2025-07-25 17:00:50.671,0.0002186432304144,-13.006148339582984,3,MB
2025-07-25 17:00:50.679,0.0002393836376279,-12.866509510593287,3,MB
2025-07-25 17:00:50.687,0.0002589716464436,-12.717341954942375,3,MB
2025-07-25 17:00:50.695,0.0002779450398021,-12.556784134932562,3,MB
2025-07-25 17:00:50.703,0.000296865098044,-12.382907786598352,3,MB
2025-07-25 17:00:50.710,0.0003162911889486,-12.193744568396935,3,MB
2025-07-25 17:00:50.718,0.0003367551804636,-11.987304628706708,3,MB
2025-07-25 17:00:50.726,0.0003587370206284,-11.761590310081436,3,MB
2025-07-25 17:00:50.734,0.0003826427212028,-11.514608608265313,3,MB
2025-07-25 17:00:50.742,0.0004087858736039,-11.24438608239348,3,MB
2025-07-25 17:00:50.749,0.0004373737195241,-10.94898966642811,3,MB
2025-07-25 17:00:50.757,0.0004684985818477,-10.62655628592689,3,MB
2025-07-25 17:00:50.765,0.0005021350683988,-10.275333385420025,3,MB
2025-07-25 17:00:50.773,0.000538142976974,-9.893731480806506,3,MB
2025-07-25 17:00:50.781,0.0005762754186777,-9.48038873951562,3,MB
2025-07-25 17:00:50.789,0.0006161914502149,-9.034246437488097,3,MB
2025-07-25 17:00:50.796,0.0006574724678802,-8.554633025538902,3,MB
2025-07-25 17:00:50.804,0.0006996416609406,-8.041353528494222,3,MB
2025-07-25 17:00:50.812,0.0007421857934212,-7.494780155097133,3,MB
2025-07-25 17:00:50.820,0.0007845784031961,-6.915939360666813,3,MB
2025-07-25 17:00:50.828,0.0008263032550005,-6.306590216254931,3,MB
2025-07-25 17:00:50.835,0.0008668767177194,-5.669288827139416,3,MB
2025-07-25 17:00:50.843,0.0009058677636217,-5.0074337264309285,3,MB
2025-07-25 17:00:50.851,0.0009429145072167,-4.325287647918843,3,MB
2025-07-25 17:00:50.859,0.0009777365101422,-3.6279718430087886,3,MB
2025-07-25 17:00:50.867,0.0010101423479932,-2.921430121573717,3,MB
2025-07-25 17:00:50.874,0.0010400321523547,-2.212361022260471,3,MB
2025-07-25 17:00:50.882,0.0010673951196183,-1.508117897531403,3,MB
2025-07-25 17:00:50.890,0.0010923023802322,-0.8165781655015681,3,MB
2025-07-25 17:00:50.898,0.001114896055638,-0.1459844592480946,3,MB
2025-07-25 17:00:50.906,0.0011353756372836,0.4952381861885787,3,MB
2025-07-25 17:00:50.914,0.0011539828922057,1.098683709881256,3,MB
2025-07-25 17:00:50.921,0.0011709863275348,1.6561785309478143,3,MB
2025-07-25 17:00:50.929,0.0011866659481523,2.160000001835771,3,MB
2025-07-25 17:00:50.937,0.001201298786425,2.6030922010439785,3,MB
2025-07-25 17:00:50.945,0.001215145583259,2.979271372498076,3,MB
2025-07-25 17:00:50.953,0.0012284390597354,3.283413570402938,3,MB
2025-07-25 17:00:50.960,0.0012413743336409,3.5116176343113947,3,MB
2025-07-25 17:00:50.968,0.0012541020495773,3.6613374609340177,3,MB
2025-07-25 17:00:50.976,0.0012667246279329,3.731478605795985,3,MB
2025-07-25 17:00:50.984,0.001279295771094,3.7224554834464256,3,MB
2025-07-25 17:00:50.992,0.0012918231211666,3.6362067870182,3,MB
2025-07-25 17:00:50.999,0.0013042737814952,3.476168168429679,3,MB
2025-07-25 17:00:51.007,0.0013165822561138,3.247202661380458,3,MB
2025-07-25 17:00:51.015,0.0013286602038754,2.955490740707794,3,MB
2025-07-25 17:00:51.023,0.0013404072513389,2.6083832454927154,3,MB
2025-07-25 17:00:51.031,0.0013517219646879,2.214221606282964,3,MB
2025-07-25 17:00:51.039,0.0013625119824795,1.7821308696448628,3,MB
2025-07-25 17:00:51.046,0.0013727023413604,1.321791868855322,3,MB
2025-07-25 17:00:51.054,0.0013822412543227,0.8431995151723075,3,MB
2025-07-25 17:00:51.062,0.0013911030114702,0.3564145567444106,3,MB
2025-07-25 17:00:51.070,0.0013992881491325,-0.1286837379616933,3,MB
2025-07-25 17:00:51.078,0.0014068214062996,-0.6026366651571192,3,MB
2025-07-25 17:00:51.085,0.0014137481633374,-1.0566300269465532,3,MB
2025-07-25 17:00:51.093,0.0014201300733007,-1.48269663050713,3,MB
2025-07-25 17:00:51.101,0.0014260405255659,-1.873891842923988,3,MB
2025-07-25 17:00:51.109,0.0014315604543501,-2.2244376330606066,3,MB
2025-07-25 17:00:51.117,0.0014367748306732,-2.5298315593025835,3,MB
2025-07-25 17:00:51.124,0.0014417699666702,-2.7869182459215747,3,MB
2025-07-25 17:00:51.132,0.0014466315228332,-2.993922001646025,3,MB
2025-07-25 17:00:51.140,0.0014514428819011,-3.150440346867766,3,MB
2025-07-25 17:00:51.148,0.0014562834256232,-3.2573993071928373,3,MB
2025-07-25 17:00:51.156,0.0014612262958286,-3.316972378357858,3,MB
2025-07-25 17:00:51.164,0.0014663354305909,-3.3324660509048702,3,MB
2025-07-25 17:00:51.171,0.0014716619283129,-3.308175684266469,3,MB
2025-07-25 17:00:51.179,0.0014772399454329,-3.249216319708448,3,MB
2025-07-25 17:00:51.187,0.0014830822947277,-3.1613336978457096,3,MB
2025-07-25 17:00:51.195,0.0014891757560929,-3.050701277700536,3,MB
2025-07-25 17:00:51.203,0.0014954759950802,-2.9237094246630675,3,MB
2025-07-25 17:00:51.210,0.0015019020167185,-2.786753134782054,3,MB
2025-07-25 17:00:51.218,0.0015083302925705,-2.646024686206577,3,MB
2025-07-25 17:00:51.226,0.0015145890454182,-2.507317450864184,3,MB
2025-07-25 17:00:51.234,0.0015204535356444,-2.375846760261068,3,MB
2025-07-25 17:00:51.242,0.0015256433997981,-2.2560932032366714,3,MB
2025-07-25 17:00:51.250,0.0015298230593501,-2.151673048335776,3,MB
2025-07-25 17:00:51.257,0.0015326060144481,-2.0652396389786145,3,MB
2025-07-25 17:00:51.265,0.0015335635810856,-1.9984186185326531,3,MB
2025-07-25 17:00:51.273,0.0015322383325456,-1.951778722226124,3,MB
2025-07-25 17:00:51.281,0.0015281620950841,-1.924838648573344,3,MB
2025-07-25 17:00:51.289,0.0015208778364636,-1.9161092301139295,3,MB
2025-07-25 17:00:51.296,0.0015099643094652,-1.9231688113426912,3,MB
2025-07-25 17:00:51.304,0.0014950619626588,-1.942768477707904,3,MB
2025-07-25 17:00:51.312,0.0014758983772008,-1.9709626465247776,3,MB
2025-07-25 17:00:51.320,0.0014523113037375,-2.0032596163185428,3,MB
2025-07-25 17:00:51.328,0.0014242673144911,-2.034786048822716,3,MB
2025-07-25 17:00:51.335,0.0013918742270377,-2.0604590698964658,3,MB
2025-07-25 17:00:51.343,0.0013553858287039,-2.075159727716508,3,MB
2025-07-25 17:00:51.351,0.0013151980242334,-2.0739019127282567,3,MB
2025-07-25 17:00:51.359,0.0012718362891806,-2.051991474225078,3,MB
2025-07-25 17:00:51.367,0.0012259351061673,-2.0051710971158565,3,MB
2025-07-25 17:00:51.375,0.0011782107150179,-1.929747455756078,3,MB
2025-07-25 17:00:51.382,0.0011294289251554,-1.8226981665540496,3,MB
2025-07-25 17:00:51.390,0.0010803699768116,-1.681757049875928,3,MB
2025-07-25 17:00:51.398,0.0010317926023797,-1.5054771246243694,3,MB
2025-07-25 17:00:51.406,0.0009843995248766,-1.2932715463679398,3,MB
2025-07-25 17:00:51.414,0.000938806519814,-1.0454333286093525,3,MB
2025-07-25 17:00:51.421,0.0008955167913749,-0.7631351438576987,3,MB
2025-07-25 17:00:51.429,0.0008549018587223,-0.4484107935505316,3,MB
2025-07-25 17:00:51.437,0.0008171895738381,-0.1041200834191493,3,MB
2025-07-25 17:00:51.445,0.0007824593886373,0.2661011316460537,3,MB
2025-07-25 17:00:51.453,0.0007506445354118,0.6579040360151486,3,MB
2025-07-25 17:00:51.460,0.0007215403523653,1.0663015113980625,3,MB
2025-07-25 17:00:51.468,0.0006948176529466,1.4857529714369602,3,MB
2025-07-25 17:00:51.476,0.0006700399263623,1.91025815768057,3,MB
2025-07-25 17:00:51.484,0.0006466832633808,2.3334588412097346,3,MB
2025-07-25 17:00:51.492,0.0006241580913959,2.748747491288361,3,MB
2025-07-25 17:00:51.500,0.0006018319598192,3.149382024971366,3,MB
2025-07-25 17:00:51.507,0.0005790526972535,3.528605721385257,3,MB
2025-07-25 17:00:51.515,0.0005551712523757,3.879771262037874,3,MB
2025-07-25 17:00:51.523,0.0005295634598703,4.196467645999583,3,MB
2025-07-25 17:00:51.531,0.0005016499215654,4.472648437938983,3,MB
2025-07-25 17:00:51.539,0.000470913236435,4.702759457206343,3,MB
2025-07-25 17:00:51.546,0.0004369119755401,4.881863635226304,3,MB
2025-07-25 17:00:51.554,0.000399291046039,5.005760394630184,3,MB
2025-07-25 17:00:51.562,0.0003577883433128,5.07109658336416,3,MB
2025-07-25 17:00:51.570,0.0003122377950233,5.075465776538565,3,MB
2025-07-25 17:00:51.578,0.0002625690867888,5.017492673142568,3,MB
2025-07-25 17:00:51.585,0.0002088045636614,4.896899383180416,3,MB
2025-07-25 17:00:51.593,0.0001510539435597,4.714550629111849,3,MB
2025-07-25 17:00:51.601,8.950743650395491e-05,4.472475270566909,3,MB
2025-07-25 17:00:51.609,2.442764557844424e-05,4.173862093178866,3,MB
2025-07-25 17:00:51.617,-4.385964002465405e-05,3.8230284650355135,3,MB
2025-07-25 17:00:51.625,-0.0001149758492844,3.4253612368838384,3,MB
2025-07-25 17:00:51.632,-0.0001885014080652,2.987230119613329,3,MB
2025-07-25 17:00:51.640,-0.0002639890356469,2.5158746831864374,3,MB
2025-07-25 17:00:51.648,-0.0003409785482939,2.0192670450248302,3,MB
2025-07-25 17:00:51.656,-0.0004190128905854,1.505953205833046,3,MB
2025-07-25 17:00:51.664,-0.000497654748775,0.9848767995983532,3,MB
2025-07-25 17:00:51.671,-0.0005765026891169,0.465189711854185,3,MB
2025-07-25 17:00:51.679,-0.0006552054332696,-0.043945443746313,3,MB
2025-07-25 17:00:51.687,-0.0007334727986815,-0.5335556367602148,3,MB
2025-07-25 17:00:51.695,-0.0008110820766104,-0.9950549866141268,3,MB
2025-07-25 17:00:51.703,-0.0008878791143687,-1.4204340620299536,3,MB
2025-07-25 17:00:51.710,-0.0009637739477083,-1.8024355844111808,3,MB
2025-07-25 17:00:51.718,-0.0010387313703726,-2.134711572971133,3,MB
2025-07-25 17:00:51.726,-0.0011127572787352,-2.4119574960927013,3,MB
2025-07-25 17:00:51.734,-0.0011858819738426,-2.630019667169331,3,MB
2025-07-25 17:00:51.742,-0.001258141834056,-2.785972928201696,3,MB
2025-07-25 17:00:51.750,-0.0013295608857119,-2.878166578472181,3,MB
2025-07-25 17:00:51.757,-0.0014001337975182,-2.906237498796184,3,MB
2025-07-25 17:00:51.765,-0.0014698117111988,-2.871090458643057,3,MB
2025-07-25 17:00:51.773,-0.0015384921041773,-2.774846633989243,3,MB
2025-07-25 17:00:51.781,-0.0016060135711198,-2.6207623628175503,3,MB
2025-07-25 17:00:51.789,-0.0016721560241984,-2.413121073887583,3,MB
2025-07-25 17:00:51.796,-0.0017366463639238,-2.157102098884192,3,MB
2025-07-25 17:00:51.804,-0.0017991691878506,-1.8586306878437189,3,MB
2025-07-25 17:00:51.812,-0.0018593816417069,-1.52421397680176,3,MB
2025-07-25 17:00:51.820,-0.0019169311987644,-1.1607678986211842,3,MB
2025-07-25 17:00:51.828,-0.0019714751065223,-0.7754400836894995,3,MB
2025-07-25 17:00:51.835,-0.0020227004382221,-0.3754336762819407,3,MB
2025-07-25 17:00:51.843,-0.0020703439016788,0.0321632847108991,3,MB
2025-07-25 17:00:51.851,-0.0021142105663681,0.4405386769129621,3,MB
2025-07-25 17:00:51.859,-0.0021541904776101,0.8433035547384578,3,MB
2025-07-25 17:00:51.867,-0.0021902719365111,1.234622679884495,3,MB
2025-07-25 17:00:51.875,-0.0022225502286115,1.609325734425541,3,MB
2025-07-25 17:00:51.882,-0.0022512308237158,1.962997214311663,3,MB
2025-07-25 17:00:51.890,-0.0022766264475868,2.292043555310733,3,MB
2025-07-25 17:00:51.898,-0.0022991478200689,2.593736553303872,3,MB
2025-07-25 17:00:51.906,-0.0023192882208492,2.866232605548173,3,MB
2025-07-25 17:00:51.914,-0.0023376024166999,3.108567730578744,3,MB
2025-07-25 17:00:51.921,-0.002354680857749,3.320628745433335,3,MB
2025-07-25 17:00:51.929,-0.0023711203443971,3.5031014209345352,3,MB
2025-07-25 17:00:51.937,-0.0023874925346562,3.657396926489199,3,MB
2025-07-25 17:00:51.945,-0.0024043117526907,3.785558427741208,3,MB
2025-07-25 17:00:51.953,-0.002422003645189,3.890150306047498,3,MB
2025-07-25 17:00:51.960,-0.0024408763408036,3.9741331028806375,3,MB
2025-07-25 17:00:51.968,-0.0024610958712116,4.040727915111575,3,MB
2025-07-25 17:00:51.976,-0.0024826676327991,4.0932745285805225,3,MB
2025-07-25 17:00:51.984,-0.0025054255245497,4.135088024121443,3,MB
2025-07-25 17:00:51.992,-0.002529030062869,4.169318873614682,3,MB
2025-07-25 17:00:52.000,-0.0025529762590009,4.198821625142607,3,MB
2025-07-25 17:00:52.007,-0.0025766113669944,4.226037130927289,3,MB
2025-07-25 17:00:52.015,-0.0025991618258215,4.25289288991054,3,MB
2025-07-25 17:00:52.023,-0.0026197679369321,4.280725463932241,3,MB
2025-07-25 17:00:52.031,-0.002637524142322,4.310228101328147,3,MB
2025-07-25 17:00:52.039,-0.0026515222617618,4.3414256967375575,3,MB
2025-07-25 17:00:52.046,-0.002660894769942,4.373678075544219,3,MB
2025-07-25 17:00:52.054,-0.0026648552290068,4.405711367990604,3,MB
2025-07-25 17:00:52.062,-0.002662733386448,4.435675988057745,3,MB
2025-07-25 17:00:52.070,-0.0026540031198251,4.461228517189719,3,MB
2025-07-25 17:00:52.078,-0.0026383021861114,4.479633681590468,3,MB
2025-07-25 17:00:52.085,-0.0026154434828616,4.487881677582561,3,MB
2025-07-25 17:00:52.093,-0.0025854181695975,4.482815412352759,3,MB
2025-07-25 17:00:52.101,-0.0025483914383647,4.4612618437897895,3,MB
2025-07-25 17:00:52.109,-0.0025046919155225,4.420161557791289,3,MB
2025-07-25 17:00:52.117,-0.0024547957085968,4.356691021922493,3,MB
2025-07-25 17:00:52.125,-0.002399306138743,4.268372578468029,3,MB
2025-07-25 17:00:52.132,-0.0023389303016136,4.153168136966595,3,MB
2025-07-25 17:00:52.140,-0.0022744537143363,4.009553622408927,3,MB
2025-07-25 17:00:52.148,-0.0022067142942727,3.8365724421864655,3,MB
2025-07-25 17:00:52.156,-0.002136576710151,3.633867459362021,3,MB
2025-07-25 17:00:52.164,-0.0020649078384789,3.401692112206052,3,MB
2025-07-25 17:00:52.171,-0.0019925538108263,3.140902321581476,3,MB
2025-07-25 17:00:52.179,-0.0019203190348809,2.852931617381586,3,MB
2025-07-25 17:00:52.187,-0.0018489475520946,2.5397524535265843,3,MB
2025-07-25 17:00:52.195,-0.001779107015822,2.203826953226491,3,MB
2025-07-25 17:00:52.203,-0.0017113753658037,1.8480503420974277,3,MB
2025-07-25 17:00:52.210,-0.0016462300218677,1.47569011779092,3,MB
2025-07-25 17:00:52.218,-0.00158403928219,1.0903236186502872,3,MB
2025-07-25 17:00:52.226,-0.0015250556963678,0.6957761466449516,3,MB
2025-07-25 17:00:52.234,-0.0014694114867188,0.2960612282933501,3,MB
2025-07-25 17:00:52.242,-0.0014171164920567,-0.104675987182347,3,MB
2025-07-25 17:00:52.250,-0.001368059401372,-0.5022117476515436,3,MB
2025-07-25 17:00:52.257,-0.0013220130341113,-0.8922931797494665,3,MB
2025-07-25 17:00:52.265,-0.0012786440371042,-1.2706846690048392,3,MB
2025-07-25 17:00:52.273,-0.0012375267251491,-1.6332118475831867,3,MB
2025-07-25 17:00:52.281,-0.001198160167322,-1.975804038290928,3,MB
2025-07-25 17:00:52.289,-0.0011599872667572,-2.294536010098505,3,MB
2025-07-25 17:00:52.296,-0.001122414547356,-2.585669785049334,3,MB
2025-07-25 17:00:52.304,-0.0010848315286184,-2.845697015634394,3,MB
2025-07-25 17:00:52.312,-0.001046628825349,-3.0713821454575423,3,MB
2025-07-25 17:00:52.320,-0.0010072143785878,-3.2598061993533487,3,MB
2025-07-25 17:00:52.328,-0.0009660274183557,-3.408410655441278,3,MB
2025-07-25 17:00:52.335,-0.000922549829644,-3.5150404725534843,3,MB
2025-07-25 17:00:52.343,-0.0008763146215414,-3.577985026397001,3,MB
2025-07-25 17:00:52.351,-0.0008269113331907,-3.5960154846410792,3,MB
2025-07-25 17:00:52.359,-0.0007739885183836,-3.5684170483627766,3,MB
2025-07-25 17:00:52.367,-0.000717253856068,-3.495014510946033,3,MB
2025-07-25 17:00:52.375,-0.0006564727757298,-3.3761897265811185,3,MB
2025-07-25 17:00:52.382,-0.0005914666434823,-3.2128898206003327,3,MB
2025-07-25 17:00:52.390,-0.0005221114932456,-3.0066252912225675,3,MB
2025-07-25 17:00:52.398,-0.000448338014649,-2.7594575248938007,3,MB
2025-07-25 17:00:52.406,-0.0003701330724708,-2.473975652547032,3,MB
2025-07-25 17:00:52.414,-0.000287542565468,-2.1532630864013087,3,MB
2025-07-25 17:00:52.421,-0.0002006751078869,-1.8008544701855658,3,MB
2025-07-25 17:00:52.429,-0.0001097059212826,-1.4206841280095588,3,MB
2025-07-25 17:00:52.437,-1.4880395595641702e-05,-1.0170273932793217,3,MB
