Timestamp,GSR_Filtered,PPG_Filtered
2025-03-17 14:07:40.092,0.00020299342317497436,-0.2984541554617801
2025-03-17 14:07:40.111,0.0005134588289896472,-0.46039532910602504
2025-03-17 14:07:40.131,0.0007947858208019743,-0.5977751055386104
2025-03-17 14:07:40.150,0.0010230787600571784,-0.7244782659387565
2025-03-17 14:07:40.170,0.001183974936834781,-0.8569558560786132
2025-03-17 14:07:40.189,0.0012744807547558099,-1.0085415673362397
2025-03-17 14:07:40.209,0.001302082888188212,-1.184898533025906
2025-03-17 14:07:40.228,0.0012815757461095449,-1.3817070362038342
2025-03-17 14:07:40.248,0.001230813593713261,-1.5851232258285743
2025-03-17 14:07:40.267,0.0011668204887700833,-1.7748078914046053
2025-03-17 14:07:40.287,0.0011032361178114954,-1.9286400884382546
2025-03-17 14:07:40.306,0.0010492850373663356,-2.027807062978572
2025-03-17 14:07:40.326,0.0010098656637341841,-2.0609356875039273
2025-03-17 14:07:40.345,0.0009862344345001096,-2.0262959744159743
2025-03-17 14:07:40.365,0.0009769542627327136,-1.9317232969074996
2025-03-17 14:07:40.385,0.0009789543219875401,-1.792555944345713
2025-03-17 14:07:40.404,0.000988554911953231,-1.6283577238320632
2025-03-17 14:07:40.424,0.001002255745508359,-1.4593643274901418
2025-03-17 14:07:40.443,0.0010171491846184145,-1.3034562282833253
2025-03-17 14:07:40.463,0.0010310185049999352,-1.1741312460165156
2025-03-17 14:07:40.482,0.0010423332098475678,-1.0795869076391447
2025-03-17 14:07:40.502,0.0010502885660958986,-1.0227555969536992
2025-03-17 14:07:40.521,0.001054812834683449,-1.0020107180438211
2025-03-17 14:07:40.541,0.001056327709052149,-1.0122505865636215
2025-03-17 14:07:40.560,0.0010551781682751205,-1.0461128413720353
2025-03-17 14:07:40.580,0.0010509696057899268,-1.0951344715183955
2025-03-17 14:07:40.599,0.0010422567193349376,-1.1507318391249028
2025-03-17 14:07:40.619,0.0010268655146249647,-1.2049244133796222
2025-03-17 14:07:40.638,0.0010026882636919373,-1.2507655469575873
2025-03-17 14:07:40.658,0.0009684597917798628,-1.2824838724730352
2025-03-17 14:07:40.677,0.0009240905769604862,-1.295395539605345
2025-03-17 14:07:40.697,0.0008704949395051543,-1.2857186427600624
2025-03-17 14:07:40.717,0.0008091600767780624,-1.2504691214471382
2025-03-17 14:07:40.736,0.0007417330225046095,-1.1875916707767213
2025-03-17 14:07:40.756,0.0006697444888586449,-1.096368137797668
2025-03-17 14:07:40.775,0.0005944619104531625,-0.9779973257598954
2025-03-17 14:07:40.795,0.0005168607006383708,-0.8361258746335157
2025-03-17 14:07:40.814,0.00043773452718107,-0.6770785172929471
2025-03-17 14:07:40.834,0.00035791928424869614,-0.5095980088020302
2025-03-17 14:07:40.853,0.00027849335141730323,-0.3440402862984859
2025-03-17 14:07:40.873,0.0002007739518740104,-0.19113523243185118
2025-03-17 14:07:40.892,0.00012606129234325622,-0.060561607048190254
2025-03-17 14:07:40.912,5.530555678317084e-05,0.040350291867405075
2025-03-17 14:07:40.931,-1.1039466903509491e-05,0.10750128686677897
2025-03-17 14:07:40.951,-7.287925813794809e-05,0.14031014425944782
2025-03-17 14:07:40.970,-0.00013023776502145561,0.1413730067999191
2025-03-17 14:07:40.990,-0.0001832015876879909,0.11561170170056889
2025-03-17 14:07:41.010,-0.00023215376912448353,0.06913437867253372
2025-03-17 14:07:41.029,-0.0002780891942470817,0.008079501397379535
2025-03-17 14:07:41.049,-0.0003226703974109266,-0.062298238865360664
2025-03-17 14:07:41.068,-0.00036788283859999396,-0.13810828991910168
2025-03-17 14:07:41.088,-0.0004155188549408077,-0.2220193581764819
2025-03-17 14:07:41.107,-0.00046692216920320807,-0.260298566949633
2025-03-17 14:07:41.127,-0.0005232682509729527,-0.2555272232250661
2025-03-17 14:07:41.146,-0.0005862725871262127,-0.21361958504198703
2025-03-17 14:07:41.166,-0.0006589198405535612,-0.1428487380535687
2025-03-17 14:07:41.185,-0.0007457734963020959,-0.053026021030396775
2025-03-17 14:07:41.205,-0.0008525854320496718,0.045123296336394905
2025-03-17 14:07:41.224,-0.0009851110802229634,0.1404940797976347
2025-03-17 14:07:41.244,-0.0011471934496001272,0.22223564044306315
2025-03-17 14:07:41.263,-0.0013383817032673047,0.2806457631922397
2025-03-17 14:07:41.283,-0.0015516519314170967,0.3083415043047222
2025-03-17 14:07:41.303,-0.0017721041795665518,0.3015340328543855
2025-03-17 14:07:41.322,-0.001977585104438066,0.26108320431261495
2025-03-17 14:07:41.342,-0.0021418141872916654,0.19295422502884516
2025-03-17 14:07:41.361,-0.002239787547653615,0.10776347263429234
2025-03-17 14:07:41.381,-0.002254304817678501,0.019278039675312372
2025-03-17 14:07:41.400,-0.0021818333231196944,-0.057997206661337286
2025-03-17 14:07:41.420,-0.0020358618442230755,-0.1117029437681978
2025-03-17 14:07:41.439,-0.0018464016495965678,-0.13428879594816354
2025-03-17 14:07:41.459,-0.0016551754320217119,-0.1246985297536986
2025-03-17 14:07:41.478,-0.0015070948019466053,-0.08850518840309751
2025-03-17 14:07:41.498,-0.001439696758966364,-0.03633657135654152
2025-03-17 14:07:41.517,-0.0014730294078281155,0.019059133041712306
2025-03-17 14:07:41.537,-0.0016026959055800572,0.06632139285051798
2025-03-17 14:07:41.556,-0.0017981796348270334,0.09855488287247854
2025-03-17 14:07:41.576,-0.0020072995529058085,0.11505272129640395
2025-03-17 14:07:41.595,-0.002166058501702365,0.1211133639745324
2025-03-17 14:07:41.615,-0.002211728653502007,0.12595960025501277
2025-03-17 14:07:41.635,-0.0020961775491876054,0.13934396170543595
2025-03-17 14:07:41.654,-0.0017963595733576064,0.16783546633958504
2025-03-17 14:07:41.674,-0.0013195280410624032,0.21190425210233982
2025-03-17 14:07:41.693,-0.0007019204042363519,0.2647210514858538
2025-03-17 14:07:41.713,-1.2808490003540275e-06,0.3131270983649842
2025-03-17 14:07:41.732,0.0007147241355755857,0.3406300764656622
2025-03-17 14:07:41.752,0.0013810211482996645,0.3316939578765566
2025-03-17 14:07:41.771,0.0019454522516144475,0.2761696351452994
2025-03-17 14:07:41.791,0.0023749575691790694,0.1725931446118051
2025-03-17 14:07:41.810,0.002657237208894384,0.029329528362080647
2025-03-17 14:07:41.830,0.0027986712374854098,-0.13687385377210642
2025-03-17 14:07:41.849,0.002819744840302344,-0.30459735862016757
2025-03-17 14:07:41.869,0.0027492093032070643,-0.4526979165012945
2025-03-17 14:07:41.888,0.0026180269355083217,-0.5650899932228906
2025-03-17 14:07:41.908,0.0024539807118546964,-0.6340299110200189
2025-03-17 14:07:41.928,0.002277704962328421,-0.6610775978087322
2025-03-17 14:07:41.947,0.0021007263761121738,-0.655637364862776
2025-03-17 14:07:41.967,0.001925771216547753,-0.6316666412282848
2025-03-17 14:07:41.986,0.0017490808632764743,-0.6035762937009108
2025-03-17 14:07:42.006,0.0015639583673402394,-0.5824387709906741
2025-03-17 14:07:42.025,0.0013644963987655097,-0.5734084141329931
2025-03-17 14:07:42.045,0.0011485402757595456,-0.5748603883700278
2025-03-17 14:07:42.064,0.0009193242716022834,-0.579304677669273
2025-03-17 14:07:42.084,0.000685654062697713,-0.5757314782089509
2025-03-17 14:07:42.103,0.00046080463251554866,-0.5527577035640042
2025-03-17 14:07:42.123,0.0002604350687600176,-0.5018094051297549
2025-03-17 14:07:42.142,9.989474443509225e-05,-0.4196043995271297
2025-03-17 14:07:42.162,-8.605950120157585e-06,-0.30937321629827225
2025-03-17 14:07:42.181,-5.84069071839565e-05,-0.18053303675441829
2025-03-17 14:07:42.201,-4.988182984196546e-05,-0.04686505736249535
2025-03-17 14:07:42.221,9.320558118672618e-06,0.07640665481695667
2025-03-17 14:07:42.240,0.00010532386669164951,0.1759463018646737
2025-03-17 14:07:42.260,0.00022016392746680081,0.24321537839879265
2025-03-17 14:07:42.279,0.00033464636165850834,0.27620506560984065
2025-03-17 14:07:42.299,0.00043141252149979804,0.2795452264924148
2025-03-17 14:07:42.318,0.0004976108247684075,0.2629986068978019
2025-03-17 14:07:42.338,0.0005265746349102417,0.23880164831420875
2025-03-17 14:07:42.357,0.0005180947078832719,0.21860886239578128
2025-03-17 14:07:42.377,0.00047726388546679945,0.21084320664322453
2025-03-17 14:07:42.396,0.00041233268959076113,0.21905738269314778
2025-03-17 14:07:42.416,0.00033230547493019367,0.24157028749351275
2025-03-17 14:07:42.435,0.000244965867313856,0.2722981171904143
2025-03-17 14:07:42.455,0.0001557140349192559,0.3024562249746404
2025-03-17 14:07:42.474,6.72660277331201e-05,0.32269539486675697
2025-03-17 14:07:42.494,-1.989973033163432e-05,0.32522579868400187
2025-03-17 14:07:42.513,-0.00010649036243793659,0.3055341864421965
2025-03-17 14:07:42.533,-0.00019295266719706553,0.2633943741062431
2025-03-17 14:07:42.553,-0.00027804046284648083,0.20300191581969823
2025-03-17 14:07:42.572,-0.00035797339360345,0.13222212314650805
2025-03-17 14:07:42.592,-0.00042667866661442674,0.06110543267317853
2025-03-17 14:07:42.611,-0.00047719232704515716,-3.3712247925752334e-05
2025-03-17 14:07:42.631,-0.0005037574914678563,-0.04258848857875142
2025-03-17 14:07:42.650,-0.0005038318856434678,-0.06128321846496302
2025-03-17 14:07:42.670,-0.0004792950781905138,-0.05512633610710786
2025-03-17 14:07:42.689,-0.00043651331004500164,-0.027519154988525328
2025-03-17 14:07:42.709,-0.00038529909403139674,0.014477534777656889
2025-03-17 14:07:42.728,-0.0003370201762959581,0.06156210937907673
2025-03-17 14:07:42.748,-0.00030221421296893733,0.10402200864976724
2025-03-17 14:07:42.767,-0.0002881878813905403,0.13361578109607689
2025-03-17 14:07:42.787,-0.00029722789028887756,0.1451058968117888
2025-03-17 14:07:42.806,-0.0003260460187023679,0.1370823993548671
2025-03-17 14:07:42.826,-0.00036675524948194316,0.11187488803156605
2025-03-17 14:07:42.846,-0.0004091124628057553,0.0746003073114419
2025-03-17 14:07:42.865,-0.00044328107136682815,0.0316530581895224
2025-03-17 14:07:42.885,-0.0004622535834633969,-0.010891011548656482
2025-03-17 14:07:42.904,-0.0004633440655555169,-0.04848361573672437
2025-03-17 14:07:42.924,-0.00044855851108598457,-0.07861491015384443
2025-03-17 14:07:42.943,-0.0004239118506575758,-0.10057119316668338
2025-03-17 14:07:42.963,-0.0003978513556883585,-0.11463393421291529
2025-03-17 14:07:42.982,-0.0003790349376664886,-0.1210758681681632
2025-03-17 14:07:43.002,-0.0003739176426003504,-0.11934452431880657
2025-03-17 14:07:43.021,-0.00038481480826552643,-0.10773370546298602
2025-03-17 14:07:43.041,-0.0004090974147194902,-0.08366429543291083
2025-03-17 14:07:43.060,-0.0004398199442114436,-0.044490046000422966
2025-03-17 14:07:43.080,-0.0004675443475036938,0.011418461873844953
2025-03-17 14:07:43.099,-0.00048272763584014054,0.08363490684490388
2025-03-17 14:07:43.119,-0.0004779921225679312,0.16899728474898001
2025-03-17 14:07:43.138,-0.0004498142264624652,0.2615261674169309
2025-03-17 14:07:43.158,-0.0003993919161206555,0.3530492969890691
2025-03-17 14:07:43.178,-0.00033253833292892077,0.4344575414036829
2025-03-17 14:07:43.197,-0.0002585094114862682,0.49731874340471277
2025-03-17 14:07:43.217,-0.00018789137582510227,0.5354401119045495
2025-03-17 14:07:43.236,-0.0001300379486086256,0.5459703300592791
2025-03-17 14:07:43.256,-9.081599637739838e-05,0.5297797542164143
2025-03-17 14:07:43.275,-7.135605565935417e-05,0.49108396129435944
2025-03-17 14:07:43.295,-6.811410242460537e-05,0.4364830489040802
2025-03-17 14:07:43.314,-7.408056700253238e-05,0.373704841060249
2025-03-17 14:07:43.334,-8.069243818468429e-05,0.3103468512625992
2025-03-17 14:07:43.353,-7.997575849949762e-05,0.25283359387985166
2025-03-17 14:07:43.373,-6.650922808267323e-05,0.20568667987740466
2025-03-17 14:07:43.392,-3.879090919172368e-05,0.1710942968359985
2025-03-17 14:07:43.412,4.486235439437516e-07,0.14870582215797046
2025-03-17 14:07:43.431,4.529645033141523e-05,0.1355865780307689
2025-03-17 14:07:43.451,8.891769677310428e-05,0.1263358650955012
2025-03-17 14:07:43.471,0.00012626102575477824,0.11345780637240649
2025-03-17 14:07:43.490,0.0001560786105623485,0.08812467553977693
2025-03-17 14:07:43.510,0.00018132639483925598,0.04143870929998328
2025-03-17 14:07:43.529,0.00020772072398029506,-0.03383986580111159
2025-03-17 14:07:43.549,0.00024104874585734716,-0.14134844994634638
2025-03-17 14:07:43.568,0.000284318825659946,-0.2794274922377141
2025-03-17 14:07:43.588,0.0003358279904465571,-0.44024338294355386
2025-03-17 14:07:43.607,0.0003888506588365561,-0.6101948863336009
2025-03-17 14:07:43.627,0.0004331321591276506,-0.7717620682919514
2025-03-17 14:07:43.646,0.0004578254524095944,-0.9065418925211598
2025-03-17 14:07:43.666,0.00045499919228207816,-0.9988407246715277
2025-03-17 14:07:43.685,0.0004225029612367662,-1.0389844577012366
2025-03-17 14:07:43.705,0.0003650372690613805,-1.0255171917115782
2025-03-17 14:07:43.724,0.0002928797470616056,-0.9656814338582468
2025-03-17 14:07:43.744,0.00021867151083929963,-0.8739567474256796
2025-03-17 14:07:43.764,0.0001534918025101194,-0.768899462202979
2025-03-17 14:07:43.783,0.00010371019176055556,-0.6689709266384678
2025-03-17 14:07:43.803,6.970112871442695e-05,-0.5883560222539895
2025-03-17 14:07:43.822,4.6690184685690584e-05,-0.5338586063069579
2025-03-17 14:07:43.842,2.71923600692344e-05,-0.5037507394520714
2025-03-17 14:07:43.861,4.0302244271852645e-06,-0.48895200607278794
2025-03-17 14:07:43.881,-2.71266346981793e-05,-0.47623633925508146
2025-03-17 14:07:43.900,-6.64882845982474e-05,-0.4525215140795811
2025-03-17 14:07:43.920,-0.00011047669563165753,-0.4089293277200756
2025-03-17 14:07:43.939,-0.00015346015080522338,-0.3433632869955442
2025-03-17 14:07:43.959,-0.00019014764997883198,-0.2608283659083496
2025-03-17 14:07:43.978,-0.00021757678726605975,-0.17145248134806187
2025-03-17 14:07:43.998,-0.00023576760284518968,-0.08690838304564098
2025-03-17 14:07:44.017,-0.00024676921692981887,-0.01642636519981468
2025-03-17 14:07:44.037,-0.0002526817407513922,0.036324262933071644
2025-03-17 14:07:44.056,-0.0002537665861576301,0.07453037837855847
2025-03-17 14:07:44.076,-0.0002476368601146081,0.10734917693688077
2025-03-17 14:07:44.096,-0.0002298833124060407,0.1471385288304413
2025-03-17 14:07:44.115,-0.00019578811519302297,0.20561261460413705
2025-03-17 14:07:44.135,-0.00014238519009238983,0.2899802923117127
2025-03-17 14:07:44.154,-7.011589306577533e-05,0.40008753421419463
2025-03-17 14:07:44.174,1.6453464108232934e-05,0.527317924979195
2025-03-17 14:07:44.193,0.00010909895139155212,0.6555921101838064
2025-03-17 14:07:44.213,0.00019752419790953078,0.7643339034452912
2025-03-17 14:07:44.232,0.0002716676918752751,0.8328177677147839
2025-03-17 14:07:44.252,0.0003240773527713657,0.8449632169487643
2025-03-17 14:07:44.271,0.0003516276880657883,0.7934798420326983
2025-03-17 14:07:44.291,0.0003560434562656685,0.6823519883585233
2025-03-17 14:07:44.310,0.00034310712610433107,0.5269926199138348
2025-03-17 14:07:44.330,0.00032089131095733216,0.3519294163177258
2025-03-17 14:07:44.349,0.000297622398255826,0.1864802793440264
2025-03-17 14:07:44.369,0.0002797333050949138,0.05935949046333835
2025-03-17 14:07:44.389,0.0002704426401165782,-0.006614368338413179
2025-03-17 14:07:44.408,0.0002690391980570577,0.001383612758553303
2025-03-17 14:07:44.428,0.0002710236906353374,0.08403841441308416
2025-03-17 14:07:44.447,0.0002692194925542422,0.2299914947638079
2025-03-17 14:07:44.467,0.0002557487338534992,0.4180084867907066
2025-03-17 14:07:44.486,0.0002244088811273036,0.620689611305566
2025-03-17 14:07:44.506,0.00017271217817283542,0.8089883199101254
2025-03-17 14:07:44.525,0.00010290457735093089,0.9567471431002569
2025-03-17 14:07:44.545,2.167194951656947e-05,1.0445236484563258
2025-03-17 14:07:44.564,-6.127458693235094e-05,1.06213355678151
2025-03-17 14:07:44.584,-0.00013524057824078467,1.0095656016967545
2025-03-17 14:07:44.603,-0.00019068875649102805,0.8962087000085895
2025-03-17 14:07:44.623,-0.00022106878521509443,0.7386361417999674
2025-03-17 14:07:44.642,-0.00022404237566227427,0.557442284741769
2025-03-17 14:07:44.662,-0.00020187011544890862,0.3737556497874062
2025-03-17 14:07:44.682,-0.00016082259529121072,0.20603657511562673
2025-03-17 14:07:44.701,-0.0001097146622770724,0.06764409090385706
2025-03-17 14:07:44.721,-5.797693754874989e-05,-0.03451374132220517
2025-03-17 14:07:44.740,-1.3854477706016728e-05,-0.10011031469575116
2025-03-17 14:07:44.760,1.6800237560404574e-05,-0.13436195523127745
2025-03-17 14:07:44.779,3.1013464284111315e-05,-0.1460728534970224
2025-03-17 14:07:44.799,2.8627735143441438e-05,-0.14521185252053265
2025-03-17 14:07:44.818,1.1919953735726256e-05,-0.14059477641440649
2025-03-17 14:07:44.838,-1.5008074235012124e-05,-0.13822922541905577
2025-03-17 14:07:44.857,-4.7074960234301825e-05,-0.14069142943157492
2025-03-17 14:07:44.877,-7.922352553538078e-05,-0.1475917520236796
2025-03-17 14:07:44.896,-0.00010733103474736173,-0.15685603032832116
2025-03-17 14:07:44.916,-0.00012872459281729616,-0.1663269523802682
2025-03-17 14:07:44.935,-0.00014217164897117337,-0.17514698043977472
2025-03-17 14:07:44.955,-0.00014749666538823819,-0.1845177627952438
2025-03-17 14:07:44.974,-0.000145147638447257,-0.19767304237787184
2025-03-17 14:07:44.994,-0.00013595958376008514,-0.21915574647641692
2025-03-17 14:07:45.014,-0.00012111658539849519,-0.25366673016714714
2025-03-17 14:07:45.033,-0.00010213942361734261,-0.3048094477283066
2025-03-17 14:07:45.053,-8.076915069437045e-05,-0.3740094339375113
2025-03-17 14:07:45.072,-5.877960331158743e-05,-0.45979797447894816
2025-03-17 14:07:45.092,-3.783168660006652e-05,-0.5575709049356051
2025-03-17 14:07:45.111,-1.9414445940349613e-05,-0.6598815248517763
2025-03-17 14:07:45.131,-4.816547641572046e-06,-0.757275232825376
2025-03-17 14:07:45.150,4.930366507013224e-06,-0.839593320968289
2025-03-17 14:07:45.170,9.09928208608427e-06,-0.897569061022571
2025-03-17 14:07:45.189,7.210615736947925e-06,-0.9244475009817846
2025-03-17 14:07:45.209,-1.1323933503523807e-06,-0.9173206562950093
2025-03-17 14:07:45.228,-1.6340047743741116e-05,-0.8778992481329563
2025-03-17 14:07:45.248,-3.863398631916341e-05,-0.8125295148680471
2025-03-17 14:07:45.267,-6.750224660124983e-05,-0.7313834471987988
2025-03-17 14:07:45.287,-0.0001010675747819018,-0.6468853458125953
2025-03-17 14:07:45.307,-0.00013577919875460098,-0.5715794974037183
2025-03-17 14:07:45.326,-0.0001667038906486278,-0.5157777504911738
2025-03-17 14:07:45.346,-0.00018838228973596134,-0.48541860250174096
2025-03-17 14:07:45.365,-0.00019597941910517582,-0.48058384931818227
2025-03-17 14:07:45.385,-0.00018641894784577218,-0.4950370635795045
2025-03-17 14:07:45.404,-0.00015926209343145148,-0.5169819886765532
2025-03-17 14:07:45.424,-0.00011713707827099617,-0.531019739814227
2025-03-17 14:07:45.443,-6.552698909774691e-05,-0.5210459123767207
2025-03-17 14:07:45.463,-1.1784436350271294e-05,-0.4736065513058184
2025-03-17 14:07:45.482,3.654506235371283e-05,-0.3810688280389269
2025-03-17 14:07:45.502,7.367843436137674e-05,-0.24391090987484584
2025-03-17 14:07:45.521,9.715631996189715e-05,-0.07153727888305139
2025-03-17 14:07:45.541,0.00010836860692952967,0.11871458784524634
2025-03-17 14:07:45.560,0.00011178921769717619,0.30433353720442896
2025-03-17 14:07:45.580,0.00011321501418774507,0.4617027586879091
2025-03-17 14:07:45.599,0.00011769285001907906,0.5706705382123676
2025-03-17 14:07:45.619,0.0001278529433593326,0.6186399429868341
2025-03-17 14:07:45.639,0.00014311196771463745,0.603254388446872
2025-03-17 14:07:45.658,0.00015987339673493873,0.5330536664205995
2025-03-17 14:07:45.678,0.0001725899094218246,0.4259346615590486
2025-03-17 14:07:45.697,0.00017538522098050567,0.3057496110400681
2025-03-17 14:07:45.717,0.00016380993695967345,0.19778128297567082
2025-03-17 14:07:45.736,0.00013622409244302484,0.124052682041701
2025-03-17 14:07:45.756,9.435381541164569e-05,0.09942596112438001
2025-03-17 14:07:45.775,4.2846029492011903e-05,0.12924788255370293
2025-03-17 14:07:45.795,-1.1948209000559035e-05,0.208963247227611
2025-03-17 14:07:45.814,-6.344595755147248e-05,0.3257025787431917
2025-03-17 14:07:45.834,-0.00010606788939515907,0.46142277458807085
2025-03-17 14:07:45.853,-0.00013601537297484458,0.5968284264286158
2025-03-17 14:07:45.873,-0.00015163377124008227,0.7151260527192407
2025-03-17 14:07:45.892,-0.00015346732522422384,0.8047298972014155
2025-03-17 14:07:45.912,-0.00014400542565568315,0.8603425463922377
2025-03-17 14:07:45.932,-0.00012706770354962394,0.8822973695120397
2025-03-17 14:07:45.951,-0.0001069098772531925,0.874539857012909
2025-03-17 14:07:45.971,-8.733346635501309e-05,0.8419919301370605
2025-03-17 14:07:45.990,-7.111453107152096e-05,0.7881730056631892
2025-03-17 14:07:46.010,-5.985832613446924e-05,0.7138158267961977
2025-03-17 14:07:46.029,-5.4122859057960694e-05,0.6168820483120133
2025-03-17 14:07:46.049,-5.3578875807231284e-05,0.4939707592081821
2025-03-17 14:07:46.068,-5.7133647016151414e-05,0.34272914400306975
2025-03-17 14:07:46.088,-6.314605273919399e-05,0.1645872283855196
2025-03-17 14:07:46.107,-6.98629865305492e-05,-0.03300721457166112
2025-03-17 14:07:46.127,-7.598168425716366e-05,-0.23564480114246023
2025-03-17 14:07:46.146,-8.102212379278171e-05,-0.4228570261839299
2025-03-17 14:07:46.166,-8.523871683193616e-05,-0.5709942088463954
2025-03-17 14:07:46.185,-8.910362890972999e-05,-0.6576675021010989
2025-03-17 14:07:46.205,-9.268014945883694e-05,-0.6668285502199819
2025-03-17 14:07:46.225,-9.522795429529005e-05,-0.5932359042391476
2025-03-17 14:07:46.244,-9.5164082768709e-05,-0.44505369706375825
2025-03-17 14:07:46.264,-9.027892625943362e-05,-0.2436897710366597
2025-03-17 14:07:46.283,-7.807652302609737e-05,-0.020639080371193986
2025-03-17 14:07:46.303,-5.6243100005319316e-05,0.18812210855758138
2025-03-17 14:07:46.322,-2.3328581734126603e-05,0.34897889856027364
2025-03-17 14:07:46.342,2.0410858470788146e-05,0.437198377429997
2025-03-17 14:07:46.361,7.23347980450574e-05,0.4416441675160723
2025-03-17 14:07:46.381,0.0001273761660374287,0.3666592832627727
2025-03-17 14:07:46.400,0.0001789199914451506,0.23077921861492526
2025-03-17 14:07:46.420,0.00022044255140722397,0.06265021617242134
2025-03-17 14:07:46.439,0.0002473505168538503,-0.10491022044131283
2025-03-17 14:07:46.459,0.0002583762442134123,-0.24146180914587884
2025-03-17 14:07:46.478,0.0002561153400846488,-0.3248058818507406
2025-03-17 14:07:46.498,0.00024661303889588,-0.34505907602208497
2025-03-17 14:07:46.517,0.00023811875392035572,-0.3061934941372872
2025-03-17 14:07:46.537,0.000239220849844576,-0.22478658073506072
2025-03-17 14:07:46.557,0.00025666320580272465,-0.12626419241756798
2025-03-17 14:07:46.576,0.0002933012795386407,-0.03941961476424682
2025-03-17 14:07:46.596,0.0003467901690716294,0.009660548445846864
2025-03-17 14:07:46.615,0.0004095276206260731,0.003022822469641344
2025-03-17 14:07:46.635,0.0004700124762042184,-0.06546031343299577
2025-03-17 14:07:46.654,0.0005152716477645857,-0.1888423317743112
2025-03-17 14:07:46.674,0.000533659771644729,-0.34850843662470565
2025-03-17 14:07:46.693,0.0005173348368577602,-0.5179187730198291
2025-03-17 14:07:46.713,0.0004639594140436197,-0.6679131906102702
2025-03-17 14:07:46.732,0.0003774114773794749,-0.7724843613834271
2025-03-17 14:07:46.752,0.00026738707454730394,-0.8138154300707717
2025-03-17 14:07:46.771,0.0001478544581306401,-0.785512453278028
2025-03-17 14:07:46.791,3.453719956887285e-05,-0.6933327353027837
2025-03-17 14:07:46.810,-5.806832510087194e-05,-0.553257977874867
2025-03-17 14:07:46.830,-0.00011941921372594028,-0.38737657807460985
2025-03-17 14:07:46.850,-0.00014475250526854011,-0.2185749737505413
2025-03-17 14:07:46.869,-0.00013569794811138275,-0.06534298950773731
2025-03-17 14:07:46.889,-9.972056604551893e-05,0.0620279851571149
2025-03-17 14:07:46.908,-4.863052977361347e-05,0.162940239714852
2025-03-17 14:07:46.928,3.569615918719615e-06,0.2453731910693304
2025-03-17 14:07:46.947,4.321033903285094e-05,0.3225295231041722
2025-03-17 14:07:46.967,5.945477438359372e-05,0.4081767432849199
2025-03-17 14:07:46.986,4.625297566394534e-05,0.5119053877058245
2025-03-17 14:07:47.006,3.270918618802628e-06,0.6354847025983292
2025-03-17 14:07:47.025,-6.441090723483099e-05,0.7711690533957893
2025-03-17 14:07:47.045,-0.00014765754201206504,0.9023149502525688
2025-03-17 14:07:47.064,-0.00023527060999358005,1.0061564444654185
2025-03-17 14:07:47.084,-0.00031614683918111425,1.0581661901762696
2025-03-17 14:07:47.103,-0.00038123376799814406,1.037150993934507
2025-03-17 14:07:47.123,-0.00042499404893414286,0.9301061332068349
2025-03-17 14:07:47.143,-0.0004461242142607738,0.7358822139859206
2025-03-17 14:07:47.162,-0.0004473432582493598,0.4668982979091101
2025-03-17 14:07:47.182,-0.00043426150018846,0.14845394826971192
2025-03-17 14:07:47.201,-0.00041363998343166926,-0.18438223147784263
2025-03-17 14:07:47.221,-0.00039159634092814777,-0.4918669330225788
2025-03-17 14:07:47.240,-0.00037231658721606546,-0.7358128242825456
2025-03-17 14:07:47.260,-0.00035755304265419375,-0.8858520607498606
2025-03-17 14:07:47.279,-0.0003468110754423397,-0.924578107886077
2025-03-17 14:07:47.299,-0.0003379218641574348,-0.8505785859030432
2025-03-17 14:07:47.318,-0.00032777242083421176,-0.6787329303431829
2025-03-17 14:07:47.338,-0.00031315948642377043,-0.4376498502991415
2025-03-17 14:07:47.357,-0.0002917865169162813,-0.16467569979392827
2025-03-17 14:07:47.377,-0.00026324005334932456,0.10059613318021342
2025-03-17 14:07:47.396,-0.00022955656115284474,0.3230575230067837
2025-03-17 14:07:47.416,-0.00019500867734935113,0.47773240310171916
2025-03-17 14:07:47.435,-0.00016506947009773754,0.5532310265432346
2025-03-17 14:07:47.455,-0.00014492344516734947,0.5523792803589178
2025-03-17 14:07:47.475,-0.00013807748998415352,0.4900144997713454
2025-03-17 14:07:47.494,-0.00014548968638875194,0.3885626912919707
2025-03-17 14:07:47.514,-0.00016535122050163604,0.272483819473698
2025-03-17 14:07:47.533,-0.00019345898845928535,0.1628764235316628
2025-03-17 14:07:47.553,-0.00022407485522473708,0.07341862761300899
2025-03-17 14:07:47.572,-0.00025116695798789766,0.008423096412203002
2025-03-17 14:07:47.592,-0.0002698314978994514,-0.036781582517933786
2025-03-17 14:07:47.611,-0.0002775187922540995,-0.07349216851163119
2025-03-17 14:07:47.631,-0.00027461733743201994,-0.11604722804825177
2025-03-17 14:07:47.650,-0.00026413918744756397,-0.17793038552079218
2025-03-17 14:07:47.670,-0.00025063276290286624,-0.26838700800395865
2025-03-17 14:07:47.689,-0.00023876957168741394,-0.39012583323640804
2025-03-17 14:07:47.709,-0.00023210206716748848,-0.5383657452065228
2025-03-17 14:07:47.728,-0.00023229268039896166,-0.7012260339246198
2025-03-17 14:07:47.748,-0.00023886398508306394,-0.8612953404128745
2025-03-17 14:07:47.768,-0.00024939098662781926,-0.9981281348270162
2025-03-17 14:07:47.787,-0.0002600622370798741,-1.091348879873264
2025-03-17 14:07:47.807,-0.00026654549931985947,-1.1239543496373083
2025-03-17 14:07:47.826,-0.00026498977175363326,-1.085310693525165
2025-03-17 14:07:47.846,-0.00025284183176855276,-0.9733026578802878
2025-03-17 14:07:47.865,-0.00022915514192806138,-0.7951635241359238
2025-03-17 14:07:47.885,-0.00019432136643177854,-0.5667115564770445
2025-03-17 14:07:47.904,-0.00014949711960411105,-0.31001349370891157
2025-03-17 14:07:47.924,-9.614232188733405e-05,-0.049829323283849834
2025-03-17 14:07:47.943,-3.5901839093816504e-05,0.19050976112551443
2025-03-17 14:07:47.963,2.9286338595853548e-05,0.3929546634971662
2025-03-17 14:07:47.982,9.717230664196393e-05,0.5474788118249844
2025-03-17 14:07:48.002,0.00016546532262318877,0.6530529904873305
2025-03-17 14:07:48.021,0.00023230111282390714,0.7165733655125256
2025-03-17 14:07:48.041,0.00029662883612483425,0.7499469828981488
2025-03-17 14:07:48.060,0.0003583228094242014,0.7660280956976474
2025-03-17 14:07:48.080,0.00041804770016956654,0.7744533596302543
2025-03-17 14:07:48.100,0.0004770201828713077,0.778520514046692
2025-03-17 14:07:48.119,0.0005367223243089872,0.7740339601990192
2025-03-17 14:07:48.139,0.0005984979614121724,0.7505356958280933
2025-03-17 14:07:48.158,0.0006630120951077908,0.6946780330207768
2025-03-17 14:07:48.178,0.0007297689269425429,0.594863944453664
2025-03-17 14:07:48.197,0.0007970485542389305,0.4458752618455779
2025-03-17 14:07:48.217,0.0008625326450305583,0.25216124304222276
2025-03-17 14:07:48.236,0.0009245582227041971,0.02879504881695839
2025-03-17 14:07:48.256,0.0009835856267728742,-0.20027234218502993
2025-03-17 14:07:48.275,0.0010433193437865422,-0.4063091854853922
2025-03-17 14:07:48.295,0.0011110156647273434,-0.5612897109214872
2025-03-17 14:07:48.314,0.0011966938903473978,-0.643475565459387
2025-03-17 14:07:48.334,0.00131109701826618,-0.6418050154958752
2025-03-17 14:07:48.353,0.001462387934386445,-0.5581157725585737
2025-03-17 14:07:48.373,0.0016519101916637787,-0.40673852296289725
2025-03-17 14:07:48.393,0.001869919377817123,-0.21157883590510276
2025-03-17 14:07:48.412,0.0020927293579511563,-0.0013374133250039933
2025-03-17 14:07:48.432,0.002282820799067863,0.19609169461150608
2025-03-17 14:07:48.451,0.0023929087552146985,0.35883018100655434
2025-03-17 14:07:48.471,0.002373887219526803,0.4747011649811047
2025-03-17 14:07:48.490,0.002185347769459756,0.5426013541504886
2025-03-17 14:07:48.510,0.0018063939828405165,0.5712998580415012
2025-03-17 14:07:48.529,0.001243960191285799,0.5760007525443283
2025-03-17 14:07:48.549,0.0005359309281369054,0.5735248825214524
2025-03-17 14:07:48.568,-0.0002527441853103926,0.5772810886419291
2025-03-17 14:07:48.588,-0.0010409103149415333,0.593237681693398
2025-03-17 14:07:48.607,-0.001746644707167771,0.6178722131970047
2025-03-17 14:07:48.627,-0.0023030492351365046,0.6386338893576162
2025-03-17 14:07:48.646,-0.0026699735487610773,0.636894414073978
2025-03-17 14:07:48.666,-0.0028388194326048194,0.5927934943963978
2025-03-17 14:07:48.686,-0.002830033240909963,0.4909076345306629
2025-03-17 14:07:48.705,-0.0026850354300264495,0.32538613819923495
2025-03-17 14:07:48.725,-0.0024554322063849296,0.10319561339528976
2025-03-17 14:07:48.744,-0.0021923434397176553,-0.15555293353189367
2025-03-17 14:07:48.764,-0.0019379483927106963,-0.420570843131147
2025-03-17 14:07:48.783,-0.001720379576421356,-0.6571859922636135
2025-03-17 14:07:48.803,-0.0015522110858390576,-0.8336839279071949
2025-03-17 14:07:48.822,-0.0014320953511101772,-0.9283867401222666
2025-03-17 14:07:48.842,-0.0013485944667435794,-0.9346128115431326
2025-03-17 14:07:48.861,-0.0012849604160427054,-0.8621489605726788
2025-03-17 14:07:48.881,-0.0012236339609864985,-0.7347733090685665
2025-03-17 14:07:48.900,-0.0011495906773779149,-0.5844308487918312
2025-03-17 14:07:48.920,-0.0010522382469397705,-0.4435632093157787
2025-03-17 14:07:48.939,-0.0009260935731159676,-0.3375609693432219
2025-03-17 14:07:48.959,-0.0007706911633605189,-0.2792184911910462
2025-03-17 14:07:48.978,-0.0005900589755869604,-0.26648759223237456
2025-03-17 14:07:48.998,-0.0003918574755987884,-0.28395207710507014
2025-03-17 14:07:49.018,-0.0001861706696687141,-0.30753708674091906
2025-03-17 14:07:49.037,1.5966087445049143e-05,-0.3112420003139353
2025-03-17 14:07:49.057,0.0002040637565906874,-0.2742775538234663
2025-03-17 14:07:49.076,0.0003694459841365217,-0.18695035974782023
2025-03-17 14:07:49.096,0.0005061733899495084,-0.0539510245438058
2025-03-17 14:07:49.115,0.000611649804265527,0.1057185137954636
2025-03-17 14:07:49.135,0.0006868870975860705,0.26221884023666403
2025-03-17 14:07:49.154,0.0007362553035886267,0.38105418800590407
2025-03-17 14:07:49.174,0.0007665447838483714,0.4306624126217372
2025-03-17 14:07:49.193,0.000785417905981961,0.3897759902054452
2025-03-17 14:07:49.213,0.0007996427720810925,0.2529309324750217
2025-03-17 14:07:49.232,0.0008136191306204296,0.032868676826923994
2025-03-17 14:07:49.252,0.0008285556911950134,-0.24078887547099959
2025-03-17 14:07:49.271,0.0008423918195276974,-0.5264364501353646
2025-03-17 14:07:49.291,0.000850379754360962,-0.7780248379320415
2025-03-17 14:07:49.311,0.0008462227566566408,-0.9536909574036472
2025-03-17 14:07:49.330,0.0008236779930778673,-1.0236172631736786
2025-03-17 14:07:49.350,0.0007784155384689005,-0.9753772592606452
2025-03-17 14:07:49.369,0.0007096820098546231,-0.8155824077101432
2025-03-17 14:07:49.389,0.0006211664637995632,-0.5675290306242043
2025-03-17 14:07:49.408,0.0005206351045885731,-0.2655255230374842
2025-03-17 14:07:49.428,0.00041837256193504035,0.05261355689238645
2025-03-17 14:07:49.447,0.0003249468751423268,0.35301751598002495
2025-03-17 14:07:49.467,0.000248998053512171,0.611371460047723
2025-03-17 14:07:49.486,0.00019559789245940362,0.81548366539187
2025-03-17 14:07:49.506,0.00016544756466709354,0.9644845172599077
2025-03-17 14:07:49.525,0.00015497424459824362,1.0652784375818534
2025-03-17 14:07:49.545,0.00015728662234848226,1.1276025868758637
2025-03-17 14:07:49.564,0.00016383501338062062,1.1593374042467985
2025-03-17 14:07:49.584,0.00016641461499418886,1.163478529601257
2025-03-17 14:07:49.604,0.00015895066373785148,1.1375230716651712
2025-03-17 14:07:49.623,0.0001385209067282126,1.0751958338533052
2025-03-17 14:07:49.643,0.00010538743708693771,0.9697246320644549
2025-03-17 14:07:49.662,6.224934705127837e-05,0.8174791921565362
2025-03-17 14:07:49.682,1.3183929941735397e-05,0.6208026769757237
2025-03-17 14:07:49.701,-3.733222360412538e-05,0.38923656857822736
2025-03-17 14:07:49.721,-8.519147518980983e-05,0.13889675077366756
2025-03-17 14:07:49.740,-0.0001272463487687431,-0.10971635389429474
2025-03-17 14:07:49.760,-0.000161709551418971,-0.33485611676987537
2025-03-17 14:07:49.779,-0.00018823827539295635,-0.5168906194683645
2025-03-17 14:07:49.799,-0.00020762558451870337,-0.6412189781669981
2025-03-17 14:07:49.818,-0.00022125063248344928,-0.7002291956338533
2025-03-17 14:07:49.838,-0.0002306272925697172,-0.693996394620637
2025-03-17 14:07:49.857,-0.0002373000807429185,-0.6296767015030552
2025-03-17 14:07:49.877,-0.00024299885173524054,-0.5198139404965586
2025-03-17 14:07:49.896,-0.0002496905053062991,-0.37997982219770093
2025-03-17 14:07:49.916,-0.0002592348502393983,-0.2262613102627156
2025-03-17 14:07:49.936,-0.00027271413448886657,-0.07308031943593146
2025-03-17 14:07:49.955,-0.0002898354079761918,0.06829453675704505
2025-03-17 14:07:49.975,-0.00030882118518986174,0.1903668999620832
2025-03-17 14:07:49.994,-0.0003269178356137796,0.28918138969362
2025-03-17 14:07:50.014,-0.00034130784139538235,0.36343107682943165
2025-03-17 14:07:50.033,-0.0003500459535004379,0.4132069868648507
2025-03-17 14:07:50.053,-0.0003526999431707079,0.43873940745953083
2025-03-17 14:07:50.072,-0.0003505406100463966,0.4394629075538552
2025-03-17 14:07:50.092,-0.000346248066552241,0.4136652596599701
2025-03-17 14:07:50.111,-0.00034316384170372485,0.3588625675226883
2025-03-17 14:07:50.131,-0.0003442157702074721,0.2728819071089703
2025-03-17 14:07:50.150,-0.00035081979261548186,0.15543862962543006
2025-03-17 14:07:50.170,-0.000362205428290038,0.009801745433622458
2025-03-17 14:07:50.189,-0.00037553419036319164,-0.1559905911519286
2025-03-17 14:07:50.209,-0.0003868302805329843,-0.32890099500790976
2025-03-17 14:07:50.229,-0.0003923123344599945,-0.492001796385788
2025-03-17 14:07:50.248,-0.000389513185072588,-0.6269299628742921
2025-03-17 14:07:50.268,-0.0003777522689815475,-0.7172693159437616
2025-03-17 14:07:50.287,-0.00035792879031509205,-0.7520708369902686
2025-03-17 14:07:50.307,-0.00033192313880690594,-0.7285426501000865
2025-03-17 14:07:50.326,-0.0003019410228281705,-0.653047504384598
2025-03-17 14:07:50.346,-0.000269972213499709,-0.5399535512950415
2025-03-17 14:07:50.365,-0.0002373760243753538,-0.40850359421070537
2025-03-17 14:07:50.385,-0.00020460164300796404,-0.27850357010884563
2025-03-17 14:07:50.404,-0.00017115345757232457,-0.16604443656575493
2025-03-17 14:07:50.424,-0.0001359214599561853,-0.08048649802191953
2025-03-17 14:07:50.443,-9.78074383037996e-05,-0.0235253872142909
2025-03-17 14:07:50.463,-5.633890345182429e-05,0.00953115424066574
2025-03-17 14:07:50.482,-1.1932809565422615e-05,0.026859562660277118
2025-03-17 14:07:50.502,3.4288639709418515e-05,0.03664865289431371
2025-03-17 14:07:50.521,8.094000793619778e-05,0.04420099398044057
2025-03-17 14:07:50.541,0.00012681501215956295,0.05044674180465921
2025-03-17 14:07:50.561,0.0001712401003967809,0.052171595545060324
2025-03-17 14:07:50.580,0.0002144063971994046,0.04369765361200962
2025-03-17 14:07:50.600,0.00025768651235065845,0.019350663376585687
2025-03-17 14:07:50.619,0.0003037467422192813,-0.02410309341615765
2025-03-17 14:07:50.639,0.00035619403036137476,-0.085760598937603
2025-03-17 14:07:50.658,0.00041868885003014855,-0.16004462026303415
2025-03-17 14:07:50.678,0.0004937808800085262,-0.2373771466969904
2025-03-17 14:07:50.697,0.0005819252737363207,-0.30579769419592484
2025-03-17 14:07:50.717,0.0006810730473551396,-0.3530801742930312
2025-03-17 14:07:50.736,0.0007869775933390402,-0.3688845787491612
2025-03-17 14:07:50.756,0.000894108703776628,-0.34657886326516746
2025-03-17 14:07:50.775,0.0009969419203045234,-0.2844983160490699
2025-03-17 14:07:50.795,0.0010913689878569905,-0.1865080922523287
2025-03-17 14:07:50.814,0.0011759362122385974,-0.06178912656540955
2025-03-17 14:07:50.834,0.0012525120851617486,0.07618426721994158
2025-03-17 14:07:50.854,0.0013259294655401464,0.21142224225716183
2025-03-17 14:07:50.873,0.0014023272784717733,0.32776620333422635
2025-03-17 14:07:50.893,0.001486379988815867,0.41146064700119966
2025-03-17 14:07:50.912,0.0015781457537245788,0.45347849233927007
2025-03-17 14:07:50.932,0.0016705565638085841,0.4510953785048549
2025-03-17 14:07:50.951,0.0017484413982689106,0.40831827266311754
2025-03-17 14:07:50.971,0.001789547681049707,0.33502169988375563
2025-03-17 14:07:50.990,0.0017675897107125335,0.24496140315127776
2025-03-17 14:07:51.010,0.0016570423236914932,0.15311701304584754
2025-03-17 14:07:51.029,0.0014390928698497902,0.072973816422246
2025-03-17 14:07:51.049,0.0011076882807094992,0.014345203232779546
2025-03-17 14:07:51.068,0.0006740470971087906,-0.01782912744092524
2025-03-17 14:07:51.088,0.00016777945866085602,-0.023542211078313554
2025-03-17 14:07:51.107,-0.0003666246300474782,-0.006756852729186189
2025-03-17 14:07:51.127,-0.0008776485309290329,0.026226154531308107
2025-03-17 14:07:51.147,-0.0013168826710436134,0.06858637570061649
2025-03-17 14:07:51.166,-0.0016484078139583887,0.1145045993036749
2025-03-17 14:07:51.186,-0.0018547873077909955,0.1600311573081045
2025-03-17 14:07:51.205,-0.0019384172475823986,0.20317669857899298
2025-03-17 14:07:51.225,-0.0019185238338904275,0.24335751801573002
2025-03-17 14:07:51.244,-0.0018251596041006786,0.2805147002565055
2025-03-17 14:07:51.264,-0.0016919872891943835,0.3142735822462257
2025-03-17 14:07:51.283,-0.0015495918790798728,0.3434143510285634
2025-03-17 14:07:51.303,-0.0014206872899868142,0.36575011342345604
2025-03-17 14:07:51.322,-0.0013179620146362343,0.378349610052573
2025-03-17 14:07:51.342,-0.0012445237993632878,0.37796882616339494
2025-03-17 14:07:51.361,-0.0011961773373610912,0.3615768468775971
2025-03-17 14:07:51.381,-0.0011644108174069239,0.32692224535798053
2025-03-17 14:07:51.400,-0.0011391343322746702,0.273115578892967
2025-03-17 14:07:51.420,-0.0011107273541249205,0.20116696160049843
2025-03-17 14:07:51.439,-0.001071416632469612,0.11434203255624324
2025-03-17 14:07:51.459,-0.001016147758192545,0.018151129142898865
2025-03-17 14:07:51.479,-0.0009430020047415654,-0.08017570236481215
2025-03-17 14:07:51.498,-0.0008531125562151514,-0.17273486506812957
2025-03-17 14:07:51.518,-0.0007501100256220375,-0.2523191736796305
2025-03-17 14:07:51.537,-0.0006392947199807267,-0.3137311433690339
2025-03-17 14:07:51.557,-0.0005267988055114565,-0.3545970896877544
2025-03-17 14:07:51.576,-0.00041888353309081216,-0.3753574304939809
2025-03-17 14:07:51.596,-0.000321335491739787,-0.3783814596050377
2025-03-17 14:07:51.615,-0.00023886897534043514,-0.3664836689161763
2025-03-17 14:07:51.635,-0.0001745584291684899,-0.3413807230422093
2025-03-17 14:07:51.654,-0.0001294711479388575,-0.3027200886059894
2025-03-17 14:07:51.674,-0.00010265261336202686,-0.24817105875259557
2025-03-17 14:07:51.693,-9.14113684212738e-05,-0.17470412807623467
2025-03-17 14:07:51.713,-9.166696001984556e-05,-0.08070465797831292
2025-03-17 14:07:51.732,-9.818942612013866e-05,0.0318344210478943
2025-03-17 14:07:51.752,-0.00010483188998363094,0.15592819927945184
2025-03-17 14:07:51.772,-0.00010504633535497549,0.27969247968128963
2025-03-17 14:07:51.791,-9.284723398179209e-05,0.3880873404996823
2025-03-17 14:07:51.811,-6.402850572550275e-05,0.46590517509050705
2025-03-17 14:07:51.830,-1.7153178944147494e-05,0.5011476349655125
2025-03-17 14:07:51.850,4.6134644960432774e-05,0.48777157463902343
2025-03-17 14:07:51.869,0.0001216020648535591,0.4269558757062636
2025-03-17 14:07:51.889,0.00020348018740765802,0.32649563678045873
2025-03-17 14:07:51.908,0.0002856712382440899,0.19852523288394178
2025-03-17 14:07:51.928,0.000362797533160155,0.05631146943715138
2025-03-17 14:07:51.947,0.0004309538927849275,-0.08884518573828298
2025-03-17 14:07:51.967,0.0004880945445498289,-0.2296190490707689
2025-03-17 14:07:51.986,0.0005339718041419216,-0.36298502601471133
2025-03-17 14:07:52.006,0.0005696141144516033,-0.4888494752207814
2025-03-17 14:07:52.025,0.0005965417812327688,-0.6075374754366077
2025-03-17 14:07:52.045,0.0006161034568053624,-0.7170536922066851
2025-03-17 14:07:52.064,0.0006292618083686827,-0.8111056137385573
2025-03-17 14:07:52.084,0.0006368500838089599,-0.8786572799499048
2025-03-17 14:07:52.104,0.000639989793000044,-0.9053471210976096
2025-03-17 14:07:52.123,0.0006402709836082407,-0.8765724245305495
2025-03-17 14:07:52.143,0.0006395158972378012,-0.7815426272377486
2025-03-17 14:07:52.162,0.0006392784624939551,-0.6172563230639626
2025-03-17 14:07:52.182,0.0006404018651446254,-0.3912611407897313
2025-03-17 14:07:52.201,0.0006428553390815054,-0.12225852934151699
2025-03-17 14:07:52.221,0.0006458344211624318,0.16190725331836817
2025-03-17 14:07:52.240,0.000647973266124345,0.4286791970855849
2025-03-17 14:07:52.260,0.0006475860589751717,0.6467547360817071
2025-03-17 14:07:52.279,0.000642993628005713,0.7921914606537672
2025-03-17 14:07:52.299,0.0006329916630461125,0.8531003410307291
2025-03-17 14:07:52.318,0.0006173427996902881,0.8316915947721019
2025-03-17 14:07:52.338,0.0005970151427683255,0.7431496305357964
2025-03-17 14:07:52.357,0.0005739565355360949,0.6116765588599921
2025-03-17 14:07:52.377,0.0005504806294804534,0.464761524898558
2025-03-17 14:07:52.397,0.0005286023752244792,0.3270974925306813
2025-03-17 14:07:52.416,0.0005096551171314248,0.21553090139184644
2025-03-17 14:07:52.436,0.0004942555135066786,0.13608102339511036
2025-03-17 14:07:52.455,0.00048240333008765356,0.0835497364663273
2025-03-17 14:07:52.475,0.0004734685331761711,0.04369057874946451
2025-03-17 14:07:52.494,0.0004660529403163618,-0.002589821440408695
2025-03-17 14:07:52.514,0.00045796939104718456,-0.07390411170621046
2025-03-17 14:07:52.533,0.0004465795295311081,-0.18305436988592066
2025-03-17 14:07:52.553,0.0004294640527596543,-0.3328443624655537
2025-03-17 14:07:52.572,0.0004051324585868736,-0.5139789884930385
2025-03-17 14:07:52.592,0.0003734569006616771,-0.7055873059003127
2025-03-17 14:07:52.611,0.0003357211736691893,-0.8783542692913002
2025-03-17 14:07:52.631,0.00029438722419133586,-0.9996797300814576
2025-03-17 14:07:52.650,0.0002527100997841392,-1.0398475696283391
2025-03-17 14:07:52.670,0.00021421658733514058,-0.9779820194128246
2025-03-17 14:07:52.690,0.00018200895416260236,-0.8066111039926273
2025-03-17 14:07:52.709,0.00015797816293708992,-0.5339149943020582
2025-03-17 14:07:52.729,0.00014218414387335754,-0.18316586352947808
2025-03-17 14:07:52.748,0.0001326668412071679,0.21058894664985567
2025-03-17 14:07:52.768,0.0001257418339452194,0.6059805452325606
2025-03-17 14:07:52.787,0.00011658859961238747,0.961829623320167
2025-03-17 14:07:52.807,9.988226848344654e-05,1.243410617154594
2025-03-17 14:07:52.826,7.038820841999425e-05,1.4272419004215635
2025-03-17 14:07:52.846,2.363557276380652e-05,1.503542125660921
2025-03-17 14:07:52.865,-4.3224185355408314e-05,1.4760583707567883
2025-03-17 14:07:52.885,-0.00013051150168894905,1.359585439946907
2025-03-17 14:07:52.904,-0.0002354585851280032,1.1759843684534448
2025-03-17 14:07:52.924,-0.00035238834329105235,0.9497359293062405
2025-03-17 14:07:52.943,-0.0004737170947935909,0.7039914712338292
2025-03-17 14:07:52.963,-0.000591473535147199,0.4577763052852515
2025-03-17 14:07:52.982,-0.0006988401075221016,0.2245946410208335
2025-03-17 14:07:53.002,-0.0007913200228833056,0.012320198999478577
2025-03-17 14:07:53.022,-0.0008673520892517864,-0.1759720662826768
2025-03-17 14:07:53.041,-0.000928346295643277,-0.34064743210290177
2025-03-17 14:07:53.061,-0.0009781518684062911,-0.48399253245845303
2025-03-17 14:07:53.080,-0.0010219894808746164,-0.608806163076334
2025-03-17 14:07:53.100,-0.00106498321737208,-0.7172795601413335
2025-03-17 14:07:53.119,-0.001110606873398872,-0.8102799712348139
2025-03-17 14:07:53.139,-0.0011594813713826373,-0.8870956296146615
2025-03-17 14:07:53.158,-0.0012088951684967415,-0.945634376758302
2025-03-17 14:07:53.178,-0.0012531824482727675,-0.9829907987951452
2025-03-17 14:07:53.197,-0.0012848443877371862,-0.9962270753638294
2025-03-17 14:07:53.217,-0.0012961907751995964,-0.9831719494121978
2025-03-17 14:07:53.236,-0.0012813094714725804,-0.9430440142560879
2025-03-17 14:07:53.256,-0.001238169017987463,-0.8767599221945278
2025-03-17 14:07:53.275,-0.0011704667524087967,-0.7868924834439261
2025-03-17 14:07:53.295,-0.0010885385721203817,-0.6773628906712956
2025-03-17 14:07:53.315,-0.0010085711882683263,-0.5530245274689984
2025-03-17 14:07:53.334,-0.000949746332588623,-0.4192781892828455
2025-03-17 14:07:53.354,-0.0009296868163453344,-0.28176059363464095
2025-03-17 14:07:53.373,-0.0009592779247086482,-0.14603541502250242
2025-03-17 14:07:53.393,-0.0010382550933006726,-0.017171205860567244
2025-03-17 14:07:53.412,-0.0011528060080433493,0.10083860308655886
2025-03-17 14:07:53.432,-0.0012760060540156764,0.20569430134858394
2025-03-17 14:07:53.451,-0.0013713867561312453,0.2971593849185962
2025-03-17 14:07:53.471,-0.0013993624660759577,0.37683160498212315
2025-03-17 14:07:53.490,-0.0013255396456644695,0.44708601630667016
2025-03-17 14:07:53.510,-0.001129164993504055,0.5092578002043617
2025-03-17 14:07:53.529,-0.0008094593393994494,0.5615155995410922
2025-03-17 14:07:53.549,-0.0003877589330279833,0.5971920160703518
2025-03-17 14:07:53.568,9.557482318611108e-05,0.604431689480508
2025-03-17 14:07:53.588,0.0005888975681580136,0.5677968251242993
2025-03-17 14:07:53.608,0.00103957678383359,0.4719472434935835
2025-03-17 14:07:53.627,0.0014040246981587318,0.30680773183384275
2025-03-17 14:07:53.647,0.0016550107376585685,0.07295656560556822
2025-03-17 14:07:53.666,0.0017848822759509721,-0.21443566182322285
2025-03-17 14:07:53.686,0.001804542395452256,-0.5247039480204387
2025-03-17 14:07:53.705,0.0017389985098658772,-0.8147583006838159
2025-03-17 14:07:53.725,0.0016209104971771134,-1.0359678429740047
2025-03-17 14:07:53.744,0.0014838070379530656,-1.1435029022813668
2025-03-17 14:07:53.764,0.00135644529858048,-1.1058938681059614
2025-03-17 14:07:53.783,0.0012591902732320976,-0.912337339696683
2025-03-17 14:07:53.803,0.0012025295200631413,-0.5758112072253085
2025-03-17 14:07:53.822,0.001187289264301842,-0.13116936731360127
2025-03-17 14:07:53.842,0.001206006369334446,0.3713049212393112
2025-03-17 14:07:53.861,0.0012451266078112016,0.8753057634282542
2025-03-17 14:07:53.881,0.0012878996279987078,1.3286685194182053
2025-03-17 14:07:53.900,0.0013177669976849689,1.692031977072636
2025-03-17 14:07:53.920,0.0013217507115455146,1.9441899828424423
2025-03-17 14:07:53.940,0.0012931498968276503,2.08314532338906
2025-03-17 14:07:53.959,0.001232980618309915,2.12289032940343
2025-03-17 14:07:53.979,0.0011499747764665833,2.0869163870115313
2025-03-17 14:07:53.998,0.0010592919236968022,2.000167779595065
2025-03-17 14:07:54.018,0.0009801926219244767,1.881442074079508
2025-03-17 14:07:54.037,0.0009328707969884256,1.7380676616062485
2025-03-17 14:07:54.057,0.0009346980971511918,1.5641469601685574
2025-03-17 14:07:54.076,0.0009963844221040044,1.342875437578077
2025-03-17 14:07:54.096,0.0011188082009811163,1.0525548708121966
2025-03-17 14:07:54.115,0.001291252024123921,0.6750355128845493
2025-03-17 14:07:54.135,0.001491449761784737,0.2046030537661146
2025-03-17 14:07:54.154,0.0016874359627600324,-0.3450369607054421
2025-03-17 14:07:54.174,0.0018409631611565995,-0.9378592748784453
2025-03-17 14:07:54.193,0.00191226343384638,-1.5181102680167822
2025-03-17 14:07:54.213,0.0018659311921911386,-2.018496573987196
2025-03-17 14:07:54.233,0.0016774187434088145,-2.3725443310736454
2025-03-17 14:07:54.252,0.0013390730557673702,-2.528388041851692
2025-03-17 14:07:54.272,0.0008641268978408474,-2.460601144105965
2025-03-17 14:07:54.291,0.0002870015093514987,-2.176960509057183
2025-03-17 14:07:54.311,-0.0003410720419125519,-1.7182071851622647
2025-03-17 14:07:54.330,-0.0009608109690083898,-1.1506100844093319
2025-03-17 14:07:54.350,-0.0015161911480452359,-0.5529706189509418
2025-03-17 14:07:54.369,-0.0019653861705201635,-0.001112673996845004
2025-03-17 14:07:54.389,-0.0022882996835887548,0.44649754158127464
2025-03-17 14:07:54.408,-0.0024885896249829806,0.7586971230087991
2025-03-17 14:07:54.428,-0.0025896293529310273,0.9349770487441664
2025-03-17 14:07:54.447,-0.002625468828963161,1.0016945232362193
2025-03-17 14:07:54.467,-0.0026291735076126466,1.0022794497367125
2025-03-17 14:07:54.486,-0.002621671887476424,0.9839041632144773
2025-03-17 14:07:54.506,-0.0026042212800027197,0.9837955771111726
2025-03-17 14:07:54.525,-0.0025567344469012406,1.018340305496075
2025-03-17 14:07:54.545,-0.002442701412923867,1.0774360670136374
2025-03-17 14:07:54.565,-0.0022197342724845056,1.1253758079553804
2025-03-17 14:07:54.584,-0.0018533207245158628,1.1081776344449454
2025-03-17 14:07:54.604,-0.0013304656628387829,0.9659621466259974
2025-03-17 14:07:54.623,-0.0006696234699769129,0.6479461879095729
2025-03-17 14:07:54.643,7.621697938940934e-05,0.12700951450150555
2025-03-17 14:07:54.662,0.0008250728986355793,-0.5893110215713492
2025-03-17 14:07:54.682,0.0014796991430815057,-1.4540722339244923
2025-03-17 14:07:54.701,0.0019465768894147562,-2.384035634892753
2025-03-17 14:07:54.721,0.0021554269535959112,-3.2707189926277396
2025-03-17 14:07:54.740,0.00207424132541552,-3.9977153692016714
2025-03-17 14:07:54.760,0.0017161585984952397,-4.461030262670304
2025-03-17 14:07:54.779,0.001136784351764492,-4.588231028703781
2025-03-17 14:07:54.799,0.000422928067425513,-4.352211725324018
2025-03-17 14:07:54.818,-0.00032434811850462036,-3.7764508851553065
2025-03-17 14:07:54.838,-0.0010082742800897552,-2.930554442475634
2025-03-17 14:07:54.858,-0.001552219262325816,-1.9171226527638174
2025-03-17 14:07:54.877,-0.001909533710192804,-0.8529336685952491
2025-03-17 14:07:54.897,-0.0020660092598693853,0.15141944976838084
2025-03-17 14:07:54.916,-0.002035754800421913,1.0092078132743374
2025-03-17 14:07:54.936,-0.0018529535696516174,1.6692099997696885
2025-03-17 14:07:54.955,-0.0015625651797448205,2.1194958562614143
2025-03-17 14:07:54.975,-0.0012124558652964318,2.383274103231124
2025-03-17 14:07:54.994,-0.0008480731777300973,2.5082928477126516
2025-03-17 14:07:55.014,-0.0005093755849417444,2.552390088359772
2025-03-17 14:07:55.033,-0.00022896006006324572,2.568314933616529
2025-03-17 14:07:55.053,-3.0430201557014438e-05,2.5908772909190754
2025-03-17 14:07:55.072,7.326829716315025e-05,2.6289086510965056
2025-03-17 14:07:55.092,8.110097127042942e-05,2.6635425638719523
2025-03-17 14:07:55.111,4.038833314619439e-06,2.6530952128515874
2025-03-17 14:07:55.131,-0.0001365661855673494,2.543534067539824
2025-03-17 14:07:55.151,-0.00031241405473646336,2.2823965878834467
2025-03-17 14:07:55.170,-0.0004930522708373751,1.8332876121633845
2025-03-17 14:07:55.190,-0.0006511033478823991,1.1879034100143364
2025-03-17 14:07:55.209,-0.0007666813422532783,0.37295399181989486
2025-03-17 14:07:55.229,-0.0008298062764038534,-0.5496868246655893
2025-03-17 14:07:55.248,-0.0008401620009321851,-1.4899618436051965
2025-03-17 14:07:55.268,-0.0008044359094377405,-2.34268683021866
2025-03-17 14:07:55.287,-0.0007323302627250136,-3.0043866882790917
2025-03-17 14:07:55.307,-0.0006327069076671668,-3.390781933581822
2025-03-17 14:07:55.326,-0.0005110539808511792,-3.451539318890946
2025-03-17 14:07:55.346,-0.0003687666072607616,-3.1793037452542006
2025-03-17 14:07:55.365,-0.0002040361544537535,-2.61106642821094
2025-03-17 14:07:55.385,-1.374133970965523e-05,-1.8214371645542315
2025-03-17 14:07:55.404,0.00020436037777404488,-0.9090797574434757
2025-03-17 14:07:55.424,0.00044976726290732433,0.020947307929392592
2025-03-17 14:07:55.443,0.0007181398037022829,0.8753018830253567
2025-03-17 14:07:55.463,0.0010011370626074206,1.587195737472645
2025-03-17 14:07:55.483,0.0012870209736196105,2.124986924838236
2025-03-17 14:07:55.502,0.0015616806537945816,2.4929468978097185
2025-03-17 14:07:55.522,0.0018097697811829815,2.724323939468041
2025-03-17 14:07:55.541,0.0020158587503129317,2.8684715420050857
2025-03-17 14:07:55.561,0.002165732908149432,2.9750698887880156
2025-03-17 14:07:55.580,0.002248055550801942,3.0790838292826908
2025-03-17 14:07:55.600,0.0022564419605604806,3.189932246030072
2025-03-17 14:07:55.619,0.0021915940686191605,3.2874046648407034
2025-03-17 14:07:55.639,0.0020627554025011534,3.3253310425450504
2025-03-17 14:07:55.658,0.0018876499481996056,3.2422179375846456
2025-03-17 14:07:55.678,0.001690403502919208,2.9764292960398313
2025-03-17 14:07:55.697,0.0014976185937724037,2.4824283023656024
2025-03-17 14:07:55.717,0.0013335068445124653,1.7443911852618619
2025-03-17 14:07:55.736,0.0012154170117036687,0.7841943152214941
2025-03-17 14:07:55.756,0.0011509942302204562,-0.3378702609924041
2025-03-17 14:07:55.776,0.0011376532071148806,-1.529695835041432
2025-03-17 14:07:55.795,0.00116436893703569,-2.6799081499825923
2025-03-17 14:07:55.815,0.0012152225094543487,-3.674033486231213
2025-03-17 14:07:55.834,0.0012737367711733191,-4.411519980833673
2025-03-17 14:07:55.854,0.0013268363264106256,-4.820810580689906
2025-03-17 14:07:55.873,0.001367370547722556,-4.8699432725278715
2025-03-17 14:07:55.893,0.0013945637981421686,-4.570756682095708
2025-03-17 14:07:55.912,0.0014123502576015574,-3.9757746137161876
2025-03-17 14:07:55.932,0.0014260965475456698,-3.16818969523006
2025-03-17 14:07:55.951,0.0014385801744034323,-2.2468149754470232
2025-03-17 14:07:55.971,0.001446263327358153,-1.3090339836310756
2025-03-17 14:07:55.990,0.0014369207199002275,-0.43529805183159204
2025-03-17 14:07:56.010,0.0013895289947075836,0.32158307384704443
2025-03-17 14:07:56.029,0.0012769065027038863,0.9401915436211769
2025-03-17 14:07:56.049,0.0010708699079030675,1.4267536228342204
2025-03-17 14:07:56.069,0.0007488285717471211,1.8051609923545808
2025-03-17 14:07:56.088,0.0003001546258290861,2.1035719412703715
2025-03-17 14:07:56.108,-0.00026928228242972346,2.3412679281850965
2025-03-17 14:07:56.127,-0.0009353195392082658,2.5193616063628808
2025-03-17 14:07:56.147,-0.0016564875596788093,2.617909570805535
2025-03-17 14:07:56.166,-0.002377492084439527,2.6002300808734913
2025-03-17 14:07:56.186,-0.0030352583403011127,2.4232416486368384
2025-03-17 14:07:56.205,-0.0035678684292379872,2.050997711887138
2025-03-17 14:07:56.225,-0.00392590786651464,1.4677738009338774
2025-03-17 14:07:56.244,-0.004083835336137132,0.687271674584529
2025-03-17 14:07:56.264,-0.004047386490928166,-0.24438935526057365
2025-03-17 14:07:56.283,-0.003853370405011333,-1.2526018946388044
2025-03-17 14:07:56.303,-0.0035608156557552268,-2.24416725069135
2025-03-17 14:07:56.322,-0.0032358429040437,-3.120928631863332
2025-03-17 14:07:56.342,-0.0029349683363395205,-3.794283201528002
2025-03-17 14:07:56.361,-0.0026918261215209158,-4.197793624865041
2025-03-17 14:07:56.381,-0.0025108535374314084,-4.295760731720375
2025-03-17 14:07:56.401,-0.002369215225343819,-4.086574239471705
2025-03-17 14:07:56.420,-0.002225968159758801,-3.600680282355837
2025-03-17 14:07:56.440,-0.0020356968272723986,-2.8939091499045846
2025-03-17 14:07:56.459,-0.0017628514868729313,-2.0375877529247073
2025-03-17 14:07:56.479,-0.0013929438609550193,-1.1072732403005097
2025-03-17 14:07:56.498,-0.0009376473510713454,-0.17207232596695435
2025-03-17 14:07:56.518,-0.00043258450565417176,0.7136490472979485
2025-03-17 14:07:56.537,7.128418463542859e-05,1.5147977341950138
2025-03-17 14:07:56.557,0.0005199426071749588,2.2156297730346255
2025-03-17 14:07:56.576,0.0008687004031193746,2.8155027565086312
2025-03-17 14:07:56.596,0.0010914474513741036,3.321319009258244
2025-03-17 14:07:56.615,0.0011847988739393488,3.738471013379977
2025-03-17 14:07:56.635,0.0011667187960095568,4.062624532266948
2025-03-17 14:07:56.654,0.001070600438610162,4.2747234009272015
2025-03-17 14:07:56.674,0.0009367216765120445,4.341034301932428
2025-03-17 14:07:56.694,0.000803396567812295,4.218893720681648
2025-03-17 14:07:56.713,0.0006999489108489945,3.8673072822302896
2025-03-17 14:07:56.733,0.0006428659985297601,3.2600864524367417
2025-03-17 14:07:56.752,0.0006353944346819415,2.398237722599277
2025-03-17 14:07:56.772,0.0006698561884336727,1.3181846578392469
2025-03-17 14:07:56.791,0.0007314751463484937,0.09320337779708965
2025-03-17 14:07:56.811,0.0008025785143759296,-1.1730041097610135
2025-03-17 14:07:56.830,0.00086641069660024,-2.3598082184604747
2025-03-17 14:07:56.850,0.0009101275296603274,-3.347744856049782
2025-03-17 14:07:56.869,0.0009266770147451058,-4.037635309215049
2025-03-17 14:07:56.889,0.000915331048614076,-4.366890763441155
2025-03-17 14:07:56.908,0.0008808116215623788,-4.3197122716945815
2025-03-17 14:07:56.928,0.0008312967512110799,-3.929120374664369
2025-03-17 14:07:56.947,0.000775917428151707,-3.2703751483748995
2025-03-17 14:07:56.967,0.0007224526024692804,-2.447049557806069
2025-03-17 14:07:56.986,0.0006757534291185692,-1.572458220830158
2025-03-17 14:07:57.006,0.0006371300842481755,-0.7500319409088866
2025-03-17 14:07:57.026,0.0006046920302074482,-0.05639745181088976
2025-03-17 14:07:57.045,0.0005744870101417212,0.46963425213954063
2025-03-17 14:07:57.065,0.0005421496019374383,0.830113898634752
2025-03-17 14:07:57.084,0.0005045985300151869,1.062499170330132
2025-03-17 14:07:57.104,0.00046121514087525683,1.2268119122029033
2025-03-17 14:07:57.123,0.00041406277720094676,1.3880229352992481
2025-03-17 14:07:57.143,0.0003671045588574547,1.597364327427029
2025-03-17 14:07:57.162,0.0003248411784806786,1.8766915950587495
2025-03-17 14:07:57.182,0.000291004560786869,2.2096108161482095
2025-03-17 14:07:57.201,0.0002677588149821761,2.541818774411583
2025-03-17 14:07:57.221,0.0002554505929066123,2.791149507239871
2025-03-17 14:07:57.240,0.00025266495145659726,2.865572907091849
2025-03-17 14:07:57.260,0.00025638154048389475,2.6853893928269654
2025-03-17 14:07:57.279,0.00026226595390494876,2.2046403963113055
2025-03-17 14:07:57.299,0.00026527273985036846,1.4266662539598303
2025-03-17 14:07:57.319,0.00026061705031267426,0.40986733909138773
2025-03-17 14:07:57.338,0.0002449046139402777,-0.7381694021568188
2025-03-17 14:07:57.358,0.00021703803554928123,-1.8774068025671002
2025-03-17 14:07:57.377,0.0001785775145507952,-2.8596855781579245
2025-03-17 14:07:57.397,0.00013345482077511207,-3.5555866106251073
2025-03-17 14:07:57.416,8.71430834872369e-05,-3.878134211795305
2025-03-17 14:07:57.436,4.547390401681409e-05,-3.798312910689039
2025-03-17 14:07:57.455,1.3327456726758902e-05,-3.349166051077024
2025-03-17 14:07:57.475,-6.498643814465671e-06,-2.617743629016307
2025-03-17 14:07:57.494,-1.384313591071168e-05,-1.7268057438786912
2025-03-17 14:07:57.514,-1.0831418262591764e-05,-0.8103812356682942
2025-03-17 14:07:57.533,-6.521036934822398e-07,0.011471215314965023
2025-03-17 14:07:57.553,1.4020779589875048e-05,0.6533461919890964
2025-03-17 14:07:57.572,3.217199296292402e-05,1.0764934459435518
2025-03-17 14:07:57.592,5.455843288158769e-05,1.2901454465062858
2025-03-17 14:07:57.612,8.273584168515958e-05,1.3426541214093641
2025-03-17 14:07:57.631,0.00011748905585077302,1.3051183253634013
2025-03-17 14:07:57.651,0.0001574060073792781,1.2515975638780765
2025-03-17 14:07:57.670,0.00019821617173854236,1.2403885511801134
2025-03-17 14:07:57.690,0.00023317098169072423,1.3002418587543436
2025-03-17 14:07:57.709,0.0002543930620627957,1.4240990446569364
2025-03-17 14:07:57.729,0.00025486949832267817,1.5713025136128282
2025-03-17 14:07:57.748,0.0002305789151640009,1.6775909626707197
2025-03-17 14:07:57.768,0.00018210846186016052,1.6707681251224795
2025-03-17 14:07:57.787,0.00011514445216542409,1.488872850612225
2025-03-17 14:07:57.807,3.952008862223265e-05,1.0971048001935477
2025-03-17 14:07:57.826,-3.298903363786846e-05,0.4997954115732448
2025-03-17 14:07:57.846,-9.14517537244264e-05,-0.25552897090676696
2025-03-17 14:07:57.865,-0.00012828090212523732,-1.0834502808969735
2025-03-17 14:07:57.885,-0.0001407589371285195,-1.8747523467525775
2025-03-17 14:07:57.904,-0.0001313405620459036,-2.5166038160830193
2025-03-17 14:07:57.924,-0.00010689570548106163,-2.914502594330179
2025-03-17 14:07:57.944,-7.723778466937037e-05,-3.0110377951385034
2025-03-17 14:07:57.963,-5.325922739301749e-05,-2.797150930798691
2025-03-17 14:07:57.983,-4.494690395213057e-05,-2.313312799131453
2025-03-17 14:07:58.002,-5.9585535021456534e-05,-1.6404283775646087
2025-03-17 14:07:58.022,-0.00010050508533652267,-0.8827111340002977
2025-03-17 14:07:58.041,-0.00016663495534818273,-0.14659591938164915
2025-03-17 14:07:58.061,-0.00025286592386033953,0.47947741832243934
2025-03-17 14:07:58.080,-0.00035096217736580506,0.9400347578678894
2025-03-17 14:07:58.100,-0.0004507135410861711,1.2194012351858217
2025-03-17 14:07:58.119,-0.0005411812629113723,1.339552714519479
2025-03-17 14:07:58.139,-0.0006120662363190329,1.350186190895227
2025-03-17 14:07:58.158,-0.0006552103519959644,1.3137673896749473
2025-03-17 14:07:58.178,-0.0006660319213813098,1.2890937425781113
2025-03-17 14:07:58.197,-0.0006445059697530598,1.3168691546459264
2025-03-17 14:07:58.217,-0.0005953398089399383,1.4100860724853082
2025-03-17 14:07:58.237,-0.0005272607445099802,1.5509099650193834
2025-03-17 14:07:58.256,-0.00045161632830378434,1.6944995926342352
2025-03-17 14:07:58.276,-0.00038058994045414677,1.7789440301091557
2025-03-17 14:07:58.295,-0.00032526422453629203,1.7393901311378805
2025-03-17 14:07:58.315,-0.00029370575716706565,1.523614177691829
2025-03-17 14:07:58.334,-0.00028933565135136205,1.1059065699911554
2025-03-17 14:07:58.354,-0.00031001430874432547,0.4963055313351864
2025-03-17 14:07:58.373,-0.00034827177673349923,-0.2570260629362155
2025-03-17 14:07:58.393,-0.0003928211618649241,-1.0732131991871356
2025-03-17 14:07:58.412,-0.0004310329011266251,-1.8512163935744734
2025-03-17 14:07:58.432,-0.00045171143636191187,-2.487274038341205
2025-03-17 14:07:58.451,-0.0004474774677240385,-2.8937900508749412
2025-03-17 14:07:58.471,-0.0004162580521550592,-3.0157276223040714
2025-03-17 14:07:58.490,-0.0003616454154527275,-2.8409785590712318
2025-03-17 14:07:58.510,-0.0002920878370575118,-2.402420484089188
2025-03-17 14:07:58.530,-0.00021904314705796605,-1.7711585518892656
2025-03-17 14:07:58.549,-0.00015443186215970093,-1.0423507326226804
2025-03-17 14:07:58.569,-0.00010795557233712379,-0.31660366828863146
2025-03-17 14:07:58.588,-8.495954794801462e-05,0.31914154233421366
2025-03-17 14:07:58.608,-8.538749526884638e-05,0.8072264244602438
2025-03-17 14:07:58.627,-0.0001040173029360869,1.128153327965956
2025-03-17 14:07:58.647,-0.0001317566719669136,1.3009331941820748
2025-03-17 14:07:58.666,-0.0001575347669010148,1.3749392390276722
2025-03-17 14:07:58.686,-0.00017034005782244578,1.4151276334960834
2025-03-17 14:07:58.705,-0.00016111468332272372,1.4839236001339307
2025-03-17 14:07:58.725,-0.0001243236016296786,1.62380905096177
2025-03-17 14:07:58.744,-5.899309636125159e-05,1.844522925997706
2025-03-17 14:07:58.764,3.101862935240653e-05,2.1178297889241873
2025-03-17 14:07:58.783,0.0001376299381469987,2.38123766965791
2025-03-17 14:07:58.803,0.0002498701083740183,2.55017929322993
2025-03-17 14:07:58.822,0.0003555843181073305,2.536375049250994
2025-03-17 14:07:58.842,0.00044316644656937246,2.268707609379143
2025-03-17 14:07:58.862,0.0005031486183526362,1.7122281044097507
2025-03-17 14:07:58.881,0.0005296095363010577,0.8810605959072824
2025-03-17 14:07:58.901,0.0005213087972739493,-0.15798184693786055
2025-03-17 14:07:58.920,0.00048226651420565936,-1.292452092133441
2025-03-17 14:07:58.940,0.00042142224329994824,-2.381156399824214
2025-03-17 14:07:58.959,0.0003512148051589775,-3.277877737694419
2025-03-17 14:07:58.979,0.00028534381021109876,-3.857338930431504
2025-03-17 14:07:58.998,0.0002362967723344254,-4.038144319894779
2025-03-17 14:07:59.018,0.00021322673329034702,-3.797881406852355
2025-03-17 14:07:59.037,0.00022052006987400565,-3.1770707660137485
2025-03-17 14:07:59.057,0.00025715965368350877,-2.27096102409759
2025-03-17 14:07:59.076,0.0003169155792863209,-1.2108047270239042
2025-03-17 14:07:59.096,0.0003894006103396943,-0.1386128093060188
2025-03-17 14:07:59.115,0.0004619260916839601,0.8191232564919764
2025-03-17 14:07:59.135,0.0005218373548199679,1.5730394996677979
2025-03-17 14:07:59.155,0.0005587666991139323,2.083294235814986
2025-03-17 14:07:59.174,0.000566240276398434,2.360462450831629
2025-03-17 14:07:59.194,0.0005423521995217676,2.455407883405524
2025-03-17 14:07:59.213,0.0004895847991269242,2.4411522754141983
2025-03-17 14:07:59.233,0.0004140629409566332,2.391433708793443
2025-03-17 14:07:59.252,0.0003244944856721711,2.3610855633582113
2025-03-17 14:07:59.272,0.00023090154736690665,2.3725731148048617
2025-03-17 14:07:59.291,0.0001432020329111802,2.411311778420363
2025-03-17 14:07:59.311,6.982550274161421e-05,2.4302557541491034
2025-03-17 14:07:59.330,1.668239573714189e-05,2.3622071926435915
2025-03-17 14:07:59.350,-1.326109814447451e-05,2.136773755442363
2025-03-17 14:07:59.369,-1.9834173694808154e-05,1.6981485633404472
2025-03-17 14:07:59.389,-5.2413004359805585e-06,1.0199641696289583
2025-03-17 14:07:59.408,2.6323547683617345e-05,0.11427879371887012
2025-03-17 14:07:59.428,6.899295614006498e-05,-0.9669260787871596
2025-03-17 14:07:59.447,0.00011570112639739317,-2.1377976817973763
2025-03-17 14:07:59.467,0.00015902202991545744,-3.2907834162495924
2025-03-17 14:07:59.487,0.00019228184079270722,-4.312380629117879
2025-03-17 14:07:59.506,0.0002105943342201751,-5.099431080942217
2025-03-17 14:07:59.526,0.0002114801857236439,-5.573116263526342
2025-03-17 14:07:59.545,0.000194964542006552,-5.68853746794967
2025-03-17 14:07:59.565,0.00016325965752248868,-5.438762583340138
2025-03-17 14:07:59.584,0.0001201805279422976,-4.853234515423605
2025-03-17 14:07:59.604,7.037434280957362e-05,-3.9913009572242673
2025-03-17 14:07:59.623,1.8425876762740125e-05,-2.9322703534271226
2025-03-17 14:07:59.643,-3.200386335236694e-05,-1.7638041561358722
2025-03-17 14:07:59.662,-7.873303789890645e-05,-0.5706105742377772
2025-03-17 14:07:59.682,-0.00012106640882480967,0.5747181937040079
2025-03-17 14:07:59.701,-0.00015925629776532266,1.6173205559446717
2025-03-17 14:07:59.721,-0.00019373231553808753,2.521469641249433
2025-03-17 14:07:59.740,-0.0002245452576917993,3.2680460378830762
2025-03-17 14:07:59.760,-0.0002512953313780246,3.8492888712749873
2025-03-17 14:07:59.780,-0.0002734736047876737,4.262688439227463
2025-03-17 14:07:59.799,-0.00029090471088423703,4.506024994943049
2025-03-17 14:07:59.819,-0.0003039845218031671,4.575086680873609
2025-03-17 14:07:59.838,-0.00031358708481022524,4.464622812015218
2025-03-17 14:07:59.858,-0.00032070155236341884,4.171917784526046
2025-03-17 14:07:59.877,-0.0003259622810241547,3.7014178354602154
2025-03-17 14:07:59.897,-0.00032929119738727114,3.068460631162929
2025-03-17 14:07:59.916,-0.00032992537779790717,2.3004953355664117
2025-03-17 14:07:59.936,-0.0003270713731629168,1.4351177231655052
2025-03-17 14:07:59.955,-0.0003211589939991476,0.5154327301891443
2025-03-17 14:07:59.975,-0.0003151789665106567,-0.41574700984699264
2025-03-17 14:07:59.994,-0.0003151986017546941,-1.3209229625382541
2025-03-17 14:08:00.014,-0.0003292588119089044,-2.170495478710871
2025-03-17 14:08:00.033,-0.0003645654995551952,-2.9421561443515376
2025-03-17 14:08:00.053,-0.0004238552053708499,-3.61751707487406
2025-03-17 14:08:00.073,-0.0005024710087258498,-4.177441694394293
2025-03-17 14:08:00.092,-0.0005876035354760887,-4.598062467924272
2025-03-17 14:08:00.112,-0.0006603253406678648,-4.849312907111578
2025-03-17 14:08:00.131,-0.0006999082963131606,-4.897034566289832
2025-03-17 14:08:00.151,-0.0006890484116644091,-4.708596812272287
2025-03-17 14:08:00.170,-0.0006183817000049267,-4.260831524221621
2025-03-17 14:08:00.190,-0.0004890239357133457,-3.5482805928844208
2025-03-17 14:08:00.209,-0.00031253534655793997,-2.589532206566689
2025-03-17 14:08:00.229,-0.00010842927791784094,-1.4298523703798753
2025-03-17 14:08:00.248,0.0001000379257391095,-0.13924901566931894
2025-03-17 14:08:00.268,0.00029062779093825793,1.1937856774358488
2025-03-17 14:08:00.287,0.00044614428831782593,2.471681055898733
2025-03-17 14:08:00.307,0.000556743715346566,3.5986599318649364
2025-03-17 14:08:00.326,0.0006202211991866904,4.491350713506607
2025-03-17 14:08:00.346,0.0006406781070582153,5.087713307527186
2025-03-17 14:08:00.365,0.000626356862262561,5.35330293788736
2025-03-17 14:08:00.385,0.0005873501568641923,5.284329262571606
2025-03-17 14:08:00.405,0.0005335607120566423,4.907304998166818
2025-03-17 14:08:00.424,0.00047305423243571384,4.275341727936908
2025-03-17 14:08:00.444,0.00041097219008512473,3.4614182447104564
2025-03-17 14:08:00.463,0.00034927543451471736,2.5492717839162746
2025-03-17 14:08:00.483,0.00028747518556183064,1.6229232430624887
2025-03-17 14:08:00.502,0.0002241243441253401,0.756160107535014
2025-03-17 14:08:00.522,0.00015846681878024755,0.0034670547877324685
2025-03-17 14:08:00.541,9.157976831573617e-05,-0.606160288502084
2025-03-17 14:08:00.561,2.662596438687453e-05,-1.0713917428452913
2025-03-17 14:08:00.580,-3.176395116141596e-05,-1.4161504906685667
2025-03-17 14:08:00.600,-7.868095545960052e-05,-1.682753307328914
2025-03-17 14:08:00.619,-0.00011031768639977614,-1.9215200474994143
2025-03-17 14:08:00.639,-0.0001251852018768146,-2.178464461678915
2025-03-17 14:08:00.658,-0.00012485665577832247,-2.4831649252940067
2025-03-17 14:08:00.678,-0.00011398224503480838,-2.839097649814773
2025-03-17 14:08:00.698,-9.944699381178072e-05,-3.218539995110626
2025-03-17 14:08:00.717,-8.88003638936779e-05,-3.5635909071422303
2025-03-17 14:08:00.737,-8.841342255445357e-05,-3.793916431186552
2025-03-17 14:08:00.756,-0.00010199527569104705,-3.820585531068234
2025-03-17 14:08:00.776,-0.00012993313162626747,-3.5640002658079317
2025-03-17 14:08:00.795,-0.00016949621913080242,-2.9727392001305417
2025-03-17 14:08:00.815,-0.00021558698885614603,-2.0394590062069913
2025-03-17 14:08:00.834,-0.00026167175355298563,-0.8101079217978289
2025-03-17 14:08:00.854,-0.00030070702324219245,0.6162954219368959
2025-03-17 14:08:00.873,-0.00032604118820104297,2.098292880733083
2025-03-17 14:08:00.893,-0.0003322706137295933,3.4718105428790635
2025-03-17 14:08:00.912,-0.0003159459518523922,4.575853239203329
2025-03-17 14:08:00.932,-0.0002760006874471501,5.279255420799184
2025-03-17 14:08:00.951,-0.00021384806514684906,5.503189787855785
2025-03-17 14:08:00.971,-0.00013320247079385024,5.2348164889541415
2025-03-17 14:08:00.991,-3.9731192488906585e-05,4.5291892284810595
2025-03-17 14:08:01.010,5.942348710795832e-05,3.4989588555893723
2025-03-17 14:08:01.030,0.00015633049124540095,2.2939832805680838
2025-03-17 14:08:01.049,0.00024326060843511368,1.075048793430165
2025-03-17 14:08:01.069,0.0003139134286588431,-0.012983125930511647
2025-03-17 14:08:01.088,0.000364571300005453,-0.8634181291925214
2025-03-17 14:08:01.108,0.0003947616889043425,-1.4214498119558345
2025-03-17 14:08:01.127,0.0004071492534040263,-1.6874770865631592
2025-03-17 14:08:01.147,0.0004066883395790518,-1.7103676629702607
2025-03-17 14:08:01.166,0.0003993429163753539,-1.5729196309168854
2025-03-17 14:08:01.186,0.00039076899606557236,-1.3729727561676373
2025-03-17 14:08:01.205,0.000385261337608027,-1.2039645372225185
2025-03-17 14:08:01.225,0.0003851265075849188,-1.1382804301943823
2025-03-17 14:08:01.244,0.000390560170561727,-1.215753807207137
2025-03-17 14:08:01.264,0.0004000360006401873,-1.4384576700573564
2025-03-17 14:08:01.283,0.00041106825303039617,-1.7718102458585612
2025-03-17 14:08:01.303,0.0004210301746716081,-2.1511988523713126
2025-03-17 14:08:01.323,0.0004276610598137466,-2.4928610620562863
2025-03-17 14:08:01.342,0.00042907787214639865,-2.7075496058657245
2025-03-17 14:08:01.362,0.0004234224612128447,-2.7153807024839387
2025-03-17 14:08:01.381,0.00040849098604311854,-2.4601086843464346
2025-03-17 14:08:01.401,0.0003816545929960692,-1.9208972253828194
2025-03-17 14:08:01.420,0.00034014721038954076,-1.1196046815365244
2025-03-17 14:08:01.440,0.000281578323632048,-0.12184678970833587
2025-03-17 14:08:01.459,0.00020449837111799284,0.9692200312549792
2025-03-17 14:08:01.479,0.00010897066831070717,2.0263073935106486
2025-03-17 14:08:01.498,-2.8153578711767033e-06,2.9170292853086623
2025-03-17 14:08:01.518,-0.00012596474218963156,3.525504511209326
2025-03-17 14:08:01.537,-0.00025261883515958756,3.7724337854902616
2025-03-17 14:08:01.557,-0.0003723760907553682,3.629420303292997
2025-03-17 14:08:01.576,-0.0004735383538490977,3.1242634860149665
2025-03-17 14:08:01.596,-0.0005449730977844286,2.335846583332434
2025-03-17 14:08:01.616,-0.0005781584363264199,1.3795681808283249
2025-03-17 14:08:01.635,-0.0005689998568506276,0.38639758768369376
2025-03-17 14:08:01.655,-0.0005191218361110299,-0.5200079613015147
2025-03-17 14:08:01.674,-0.0004363541027421457,-1.2434370682908054
2025-03-17 14:08:01.694,-0.0003340914134203413,-1.7286937550188242
2025-03-17 14:08:01.713,-0.00022933881062332098,-1.9664827779116836
2025-03-17 14:08:01.733,-0.00013967874927962336,-1.9895069872255766
2025-03-17 14:08:01.752,-7.990618366515496e-05,-1.8614732399191498
2025-03-17 14:08:01.772,-5.929238800415948e-05,-1.6618790916495345
2025-03-17 14:08:01.791,-8.016581786916606e-05,-1.4698242805328119
2025-03-17 14:08:01.811,-0.00013792729162068638,-1.3497185214002487
2025-03-17 14:08:01.830,-0.00022214578796945575,-1.3408840874419767
2025-03-17 14:08:01.850,-0.0003182724432090752,-1.4520161378372316
2025-03-17 14:08:01.869,-0.0004096990491655807,-1.6605823225485696
2025-03-17 14:08:01.889,-0.0004800838784271035,-1.9166918388167558
2025-03-17 14:08:01.908,-0.0005158330435693831,-2.1507220635946043
2025-03-17 14:08:01.928,-0.0005083848430355978,-2.283892141925353
2025-03-17 14:08:01.948,-0.0004557505291756624,-2.240824153298963
2025-03-17 14:08:01.967,-0.0003628487445981582,-1.9628215920349659
2025-03-17 14:08:01.987,-0.0002405322289330647,-1.4201534067251782
2025-03-17 14:08:02.006,-0.00010362937279548347,-0.6212421973456348
2025-03-17 14:08:02.026,3.143263658162054e-05,0.38340925598044884
2025-03-17 14:08:02.045,0.00014887804881384987,1.5042183803049283
2025-03-17 14:08:02.065,0.00023534234168664294,2.622984545099661
2025-03-17 14:08:02.084,0.0002809620498043027,3.609770847505956
2025-03-17 14:08:02.104,0.00027976675602596994,4.343539598118286
2025-03-17 14:08:02.123,0.00022953702537568529,4.73267678782317
2025-03-17 14:08:02.143,0.00013151678621405136,4.7311737414375505
2025-03-17 14:08:02.162,-9.555856514604017e-06,4.346900555924873
2025-03-17 14:08:02.182,-0.00018489019719171012,3.6400175409102347
2025-03-17 14:08:02.201,-0.0003808610183443689,2.7117418744246526
2025-03-17 14:08:02.221,-0.0005787473121300978,1.6858376795745114
2025-03-17 14:08:02.241,-0.0007557597241878637,0.6867472570073538
2025-03-17 14:08:02.260,-0.0008876524225392655,-0.18115456819611697
2025-03-17 14:08:02.280,-0.0009525153823591508,-0.8491933107488532
2025-03-17 14:08:02.299,-0.0009348284265422363,-1.2922514257188789
2025-03-17 14:08:02.319,-0.0008287433505177424,-1.5279481410751825
2025-03-17 14:08:02.338,-0.0006397594842898085,-1.6080068211202296
2025-03-17 14:08:02.358,-0.0003843023513134419,-1.6040711008652448
2025-03-17 14:08:02.377,-8.715382103093052e-05,-1.59102616641269
2025-03-17 14:08:02.397,0.00022277499129514473,-1.631011171874434
2025-03-17 14:08:02.416,0.0005173042751563236,-1.7608590627843412
2025-03-17 14:08:02.436,0.0007732053111656153,-1.9848516239031162
2025-03-17 14:08:02.455,0.0009747570797771205,-2.2736521746243987
2025-03-17 14:08:02.475,0.0011142987581348146,-2.5692831495579598
2025-03-17 14:08:02.494,0.0011911842812447843,-2.795181919635647
2025-03-17 14:08:02.514,0.0012099612724898055,-2.86973083729948
2025-03-17 14:08:02.534,0.001178531526164499,-2.7212065828865906
2025-03-17 14:08:02.553,0.0011066736976242315,-2.301847005624753
2025-03-17 14:08:02.573,0.0010049468787219672,-1.5987582952816404
2025-03-17 14:08:02.592,0.0008838675136233681,-0.6397520982234416
2025-03-17 14:08:02.612,0.0007533256565979565,0.5070841595301488
2025-03-17 14:08:02.631,0.0006222699686798346,1.7403125437575495
2025-03-17 14:08:02.651,0.0004986006097928239,2.9377374545970256
2025-03-17 14:08:02.670,0.0003890469669914917,3.9728762038541947
2025-03-17 14:08:02.690,0.0002987924570852724,4.7328077788075475
2025-03-17 14:08:02.709,0.00023084338386880737,5.134557632290717
2025-03-17 14:08:02.729,0.00018545067532736267,5.137277002928737
2025-03-17 14:08:02.748,0.0001599836570443886,4.748049306689595
2025-03-17 14:08:02.768,0.00014941877876546237,4.020161498505177
2025-03-17 14:08:02.787,0.00014725367115380952,3.04397887907465
2025-03-17 14:08:02.807,0.00014649538864866724,1.9319326313360883
2025-03-17 14:08:02.826,0.00014049906962460376,0.800292660692792
2025-03-17 14:08:02.846,0.00012366476159560578,-0.24891573210060547
2025-03-17 14:08:02.866,9.208301215254803e-05,-1.1424737393105842
2025-03-17 14:08:02.885,4.409446447365458e-05,-1.8443250585112438
2025-03-17 14:08:02.905,-1.9433540335626433e-05,-2.356316828137246
2025-03-17 14:08:02.924,-9.530674171037928e-05,-2.711491977877957
2025-03-17 14:08:02.944,-0.0001786801326219459,-2.9616221007497323
2025-03-17 14:08:02.963,-0.0002639940496020532,-3.16181048235427
2025-03-17 14:08:02.983,-0.0003458901694847264,-3.3555193816315407
2025-03-17 14:08:03.002,-0.0004199274285291906,-3.563183891785029
2025-03-17 14:08:03.022,-0.00048303864260821944,-3.77671986776072
2025-03-17 14:08:03.041,-0.0005336871261770459,-3.9609141825494207
2025-03-17 14:08:03.061,-0.0005716402755279259,-4.0611986823747275
2025-03-17 14:08:03.080,-0.0005973319059751223,-4.015976459018585
2025-03-17 14:08:03.100,-0.0006110024459108219,-3.7707661278312283
2025-03-17 14:08:03.119,-0.0006120282967052867,-3.2911319120952154
2025-03-17 14:08:03.139,-0.0005988366514868095,-2.5717191015149075
2025-03-17 14:08:03.159,-0.0005694942143462436,-1.6396279458425547
2025-03-17 14:08:03.178,-0.0005226747800266996,-0.551633423986763
2025-03-17 14:08:03.198,-0.00045853940156726213,0.6138894621202102
2025-03-17 14:08:03.217,-0.0003791972030704584,1.7683651989048184
2025-03-17 14:08:03.237,-0.00028869521907607596,2.825189195747192
2025-03-17 14:08:03.256,-0.0001926713528646695,3.710218039375247
2025-03-17 14:08:03.276,-9.778966733332493e-05,4.3688594884407586
2025-03-17 14:08:03.295,-1.0965852069424397e-05,4.769146875200757
2025-03-17 14:08:03.315,6.162258564840081e-05,4.9012618989532815
2025-03-17 14:08:03.334,0.00011558878629989941,4.774665533574118
2025-03-17 14:08:03.354,0.00014911719963040863,4.414143281718219
2025-03-17 14:08:03.373,0.0001631566794565422,3.855748530901041
2025-03-17 14:08:03.393,0.0001609693945609793,3.143087418106015
2025-03-17 14:08:03.412,0.000147263131485931,2.3239194260638154
2025-03-17 14:08:03.432,0.00012720384294158204,1.446857436477864
2025-03-17 14:08:03.452,0.00010546175287623165,0.5580874442289852
2025-03-17 14:08:03.471,8.531608373305648e-05,-0.30163481916336293
2025-03-17 14:08:03.491,6.79098466919369e-05,-1.0991528817340148
2025-03-17 14:08:03.510,5.1925818137432715e-05,-1.809649919634613
2025-03-17 14:08:03.530,3.3994563858656774e-05,-2.415685592559216
2025-03-17 14:08:03.549,9.900004990599188e-06,-2.9048265437410565
2025-03-17 14:08:03.569,-2.375963224589729e-05,-3.2667372323136536
2025-03-17 14:08:03.588,-6.807971368083814e-05,-3.4908893255674838
2025-03-17 14:08:03.608,-0.00012109198321996363,-3.565907272613282
2025-03-17 14:08:03.627,-0.00017794803898058624,-3.481026212515891
2025-03-17 14:08:03.647,-0.0002318541899575162,-3.2293842895541722
2025-03-17 14:08:03.666,-0.00027539533707733404,-2.812167575905528
2025-03-17 14:08:03.686,-0.0003019517418333092,-2.2422176213506604
2025-03-17 14:08:03.705,-0.000307020508554026,-1.545749145670109
2025-03-17 14:08:03.725,-0.00028923256419605554,-0.7613140191697082
2025-03-17 14:08:03.744,-0.0002507609262215947,0.06405429951046343
2025-03-17 14:08:03.764,-0.0001968664452287743,0.8807177418859864
2025-03-17 14:08:03.784,-0.0001346293786602972,1.6428770860597621
2025-03-17 14:08:03.803,-7.128956155492631e-05,2.313902267287521
2025-03-17 14:08:03.823,-1.2766190317152006e-05,2.869179599421997
2025-03-17 14:08:03.842,3.724920961538051e-05,3.2958766710984935
2025-03-17 14:08:03.862,7.755097305057523e-05,3.590012264054098
2025-03-17 14:08:03.881,0.00010915605785375775,3.7520801815522673
2025-03-17 14:08:03.901,0.0001346509183758842,3.782899117533654
2025-03-17 14:08:03.920,0.00015721405006998874,3.68118458567547
2025-03-17 14:08:03.940,0.0001794282972543433,3.4436298549350277
2025-03-17 14:08:03.959,0.00020218942903234177,3.0673183246804676
2025-03-17 14:08:03.979,0.00022416767850406074,2.553447963425227
2025-03-17 14:08:03.998,0.00024216546638582863,1.9109506940420689
2025-03-17 14:08:04.018,0.00025232177730944984,1.1587612977939912
2025-03-17 14:08:04.037,0.00025167604788708936,0.326102834051201
2025-03-17 14:08:04.057,0.0002394201407484345,-0.5491046956731968
2025-03-17 14:08:04.077,0.0002173574919059406,-1.4230656286421748
2025-03-17 14:08:04.096,0.00018949803549459136,-2.2493530560360218
2025-03-17 14:08:04.116,0.00016104926173467888,-2.9819733056619935
2025-03-17 14:08:04.135,0.0001371534891923844,-3.5780515770524812
2025-03-17 14:08:04.155,0.00012166521490822191,-4.0003165999432735
2025-03-17 14:08:04.174,0.00011624117682752047,-4.219706669225106
2025-03-17 14:08:04.194,0.00012003640409959953,-4.2182407148963215
2025-03-17 14:08:04.213,0.00013019370106800578,-3.9918774194549838
2025-03-17 14:08:04.233,0.00014299479998885028,-3.5526480375710037
2025-03-17 14:08:04.252,0.0001551769372806303,-2.9291523155798376
2025-03-17 14:08:04.272,0.00016480008511340522,-2.1647106381789945
2025-03-17 14:08:04.291,0.00017130760761542623,-1.3130470791035893
2025-03-17 14:08:04.311,0.00017488876461575366,-0.43213642736519203
2025-03-17 14:08:04.330,0.0001756006720418459,0.42251533470536556
2025-03-17 14:08:04.350,0.00017273920240543767,1.2036416278547326
2025-03-17 14:08:04.369,0.00016472393246147585,1.8757802427249988
2025-03-17 14:08:04.389,0.00014948797436640883,2.4160496533468545
2025-03-17 14:08:04.409,0.0001251946585324809,2.8124017607803196
2025-03-17 14:08:04.428,9.105898480373714e-05,3.0603535518893468
2025-03-17 14:08:04.448,4.8057263654399085e-05,3.1595867349820197
2025-03-17 14:08:04.467,-7.032231522665141e-07,3.1117061491849825
2025-03-17 14:08:04.487,-5.0178558775498405e-05,2.919884559817742
2025-03-17 14:08:04.506,-9.423880167837656e-05,2.5902869405509774
2025-03-17 14:08:04.526,-0.00012697757766224897,2.134382066528657
2025-03-17 14:08:04.545,-0.00014401397170635635,1.5708385901891109
2025-03-17 14:08:04.565,-0.00014332132685048238,0.9258494898122964
2025-03-17 14:08:04.584,-0.00012541572168216442,0.23137906073844772
2025-03-17 14:08:04.604,-9.306863861026605e-05,-0.4782958294688793
2025-03-17 14:08:04.623,-5.08000473072566e-05,-1.170648900838942
2025-03-17 14:08:04.643,-4.25317908915583e-06,-1.8181888565990665
2025-03-17 14:08:04.662,4.061470522722305e-05,-2.399844510119102
2025-03-17 14:08:04.682,7.85465990486602e-05,-2.9000182276650044
2025-03-17 14:08:04.702,0.00010598087854977487,-3.3057356079913798
2025-03-17 14:08:04.721,0.00012161093090070565,-3.6030657477532833
2025-03-17 14:08:04.741,0.00012621244378166685,-3.7743711624243166
2025-03-17 14:08:04.760,0.00012184464186894127,-3.7978103397112815
2025-03-17 14:08:04.780,0.00011088413131311804,-3.6498452896623257
2025-03-17 14:08:04.799,9.534366834414369e-05,-3.310482923785798
2025-03-17 14:08:04.819,7.660614096773974e-05,-2.76995681271433
2025-03-17 14:08:04.838,5.539819222814125e-05,-2.0349262524335017
2025-03-17 14:08:04.858,3.180232016093605e-05,-1.1322786832282714
2025-03-17 14:08:04.877,5.312405796615191e-06,-0.1092602344067636
2025-03-17 14:08:04.897,-2.4894866076866114e-05,0.9703166358320491
2025-03-17 14:08:04.916,-5.9375065521423295e-05,2.0329927332977955
2025-03-17 14:08:04.936,-9.768218348726972e-05,3.004181172925907
2025-03-17 14:08:04.955,-0.00013785081017894738,3.8165358742925752
2025-03-17 14:08:04.975,-0.00017639581587110254,4.416708519779645
2025-03-17 14:08:04.995,-0.00020884607855892843,4.769659510331788
2025-03-17 14:08:05.014,-0.0002305671313255805,4.86038154526735
2025-03-17 14:08:05.034,-0.00023759210116828158,4.693403242514995
2025-03-17 14:08:05.053,-0.00022733892201992699,4.290645644042525
2025-03-17 14:08:05.073,-0.00019922892748290322,3.688155007011511
2025-03-17 14:08:05.092,-0.00015517189149129846,2.932081422089442
2025-03-17 14:08:05.112,-9.971401974975935e-05,2.0741639252590414
2025-03-17 14:08:05.131,-3.959612597458063e-05,1.167001615476325
2025-03-17 14:08:05.151,1.7322881760676103e-05,0.25953052480166017
2025-03-17 14:08:05.170,6.349156086638092e-05,-0.6067065025780016
2025-03-17 14:08:05.190,9.298027137706098e-05,-1.399858447248643
2025-03-17 14:08:05.209,0.00010234622048436789,-2.09817248095415
2025-03-17 14:08:05.229,9.09952630610654e-05,-2.688458768550672
2025-03-17 14:08:05.248,6.116058210572284e-05,-3.1630874045340223
2025-03-17 14:08:05.268,1.755773144828728e-05,-3.5164278573837895
2025-03-17 14:08:05.287,-3.336208611243472e-05,-3.7418163389269545
2025-03-17 14:08:05.307,-8.459620136696271e-05,-3.8299847417871278
2025-03-17 14:08:05.327,-0.00012998350687199798,-3.769467632551376
2025-03-17 14:08:05.346,-0.00016534041944878038,-3.5489559435061557
2025-03-17 14:08:05.366,-0.0001889327267880551,-3.161035740747331
2025-03-17 14:08:05.385,-0.00020122089007985918,-2.606370946178371
2025-03-17 14:08:05.405,-0.00020417107328654578,-1.8972591885509893
2025-03-17 14:08:05.424,-0.00020052609747560435,-1.0596453458922577
2025-03-17 14:08:05.444,-0.00019325936703236838,-0.13306507600619824
2025-03-17 14:08:05.463,-0.00018519627482340188,0.8315222521516193
2025-03-17 14:08:05.483,-0.00017870005240268997,1.7756283625933842
2025-03-17 14:08:05.502,-0.00017541050433852808,2.638234984470131
2025-03-17 14:08:05.522,-0.00017612939715755795,3.3612359540388828
2025-03-17 14:08:05.541,-0.00018090452353571105,3.8947543135685327
2025-03-17 14:08:05.561,-0.0001892042985185474,4.201880011248522
2025-03-17 14:08:05.580,-0.0001999785783963472,4.262434071559133
2025-03-17 14:08:05.600,-0.00021149801843609796,4.075365271878402
2025-03-17 14:08:05.620,-0.00022108895111727943,3.659372662153276
2025-03-17 14:08:05.639,-0.00022503178647307126,3.051390591476803
2025-03-17 14:08:05.659,-0.00021882028872461908,2.302741846769492
2025-03-17 14:08:05.678,-0.00019775191366188294,1.4731092919417035
2025-03-17 14:08:05.698,-0.00015766165965005376,0.6229866734030152
2025-03-17 14:08:05.717,-9.566040511259029e-05,-0.1941713781947041
2025-03-17 14:08:05.737,-1.0880840595950242e-05,-0.938491133679033
2025-03-17 14:08:05.756,9.475149493368175e-05,-1.587322967675322
2025-03-17 14:08:05.776,0.00021587216540920837,-2.134943752729501
2025-03-17 14:08:05.795,0.0003434714282641153,-2.5882672632204473
2025-03-17 14:08:05.815,0.0004653995243999758,-2.959660063519063
2025-03-17 14:08:05.834,0.0005676198695368673,-3.2588814041982164
2025-03-17 14:08:05.854,0.0006360150128143223,-3.486511619562971
2025-03-17 14:08:05.873,0.0006584712525625276,-3.6308350367843882
2025-03-17 14:08:05.893,0.0006269999411346436,-3.669104615772463
2025-03-17 14:08:05.913,0.000539646989298457,-3.5727935880446817
2025-03-17 14:08:05.932,0.0004018163324682406,-3.3152933522940753
2025-03-17 14:08:05.952,0.0002264855227354194,-2.8799143343216396
2025-03-17 14:08:05.971,3.2850752819435824e-05,-2.266133796680359
2025-03-17 14:08:05.991,-0.00015663903948876342,-1.492709971045114
2025-03-17 14:08:06.010,-0.0003202484691141093,-0.5972577486696441
2025-03-17 14:08:06.030,-0.000440835035551127,0.3671961628334583
2025-03-17 14:08:06.049,-0.0005085906191288486,1.3375819442378034
2025-03-17 14:08:06.069,-0.0005221029668543544,2.2468830428891198
2025-03-17 14:08:06.088,-0.00048780158074045106,3.0300839879386077
2025-03-17 14:08:06.108,-0.0004181979115987072,3.6295992370727532
2025-03-17 14:08:06.127,-0.00032935412078808,4.000196284306634
2025-03-17 14:08:06.147,-0.00023793434364971651,4.113462845615939
2025-03-17 14:08:06.166,-0.00015823603512014198,3.961546667098565
2025-03-17 14:08:06.186,-9.975843681143333e-05,3.559435413590212
2025-03-17 14:08:06.205,-6.590569983529063e-05,2.944775771465805
2025-03-17 14:08:06.225,-5.415551620778041e-05,2.1744230457234583
2025-03-17 14:08:06.245,-5.754314360335991e-05,1.317615189161395
2025-03-17 14:08:06.264,-6.690837322860285e-05,0.4466631507996184
2025-03-17 14:08:06.284,-7.323948222961088e-05,-0.3730491645873198
2025-03-17 14:08:06.303,-6.959251099576406e-05,-1.091540899310664
2025-03-17 14:08:06.323,-5.2282054422437794e-05,-1.6792250498331598
2025-03-17 14:08:06.342,-2.1200438886210788e-05,-2.1273110225582004
2025-03-17 14:08:06.362,2.0740175780032096e-05,-2.443707979788641
2025-03-17 14:08:06.381,6.88430383575491e-05,-2.6456976735606457
2025-03-17 14:08:06.401,0.00011810462849789174,-2.7514882953215123
2025-03-17 14:08:06.420,0.0001644116825842413,-2.7730223546868165
2025-03-17 14:08:06.440,0.00020512445025493714,-2.711988297974538
2025-03-17 14:08:06.459,0.0002390928834924689,-2.5599800658430047
2025-03-17 14:08:06.479,0.00026643373214168056,-2.3024762509701318
2025-03-17 14:08:06.498,0.00028835068048581054,-1.925199983882211
2025-03-17 14:08:06.518,0.00030698327575462084,-1.4208420266436916
2025-03-17 14:08:06.538,0.0003250494057900556,-0.794238672548963
2025-03-17 14:08:06.557,0.00034514689668671615,-0.06478255733033869
2025-03-17 14:08:06.577,0.0003689115246267962,0.7341999023024551
2025-03-17 14:08:06.596,0.00039645458881829395,1.5585101381970872
2025-03-17 14:08:06.616,0.00042638292638543787,2.357493055108667
2025-03-17 14:08:06.635,0.00045633240501434096,3.078698023779068
2025-03-17 14:08:06.655,0.0004836570597112524,3.672034773286675
2025-03-17 14:08:06.674,0.0005059530861293803,4.0932028736708395
2025-03-17 14:08:06.694,0.000521369982852391,4.306620391330604
2025-03-17 14:08:06.713,0.0005288563455173056,4.288233089692301
2025-03-17 14:08:06.733,0.0005284118642775147,4.028370195002721
2025-03-17 14:08:06.752,0.000521190835493224,3.5343293721631057
2025-03-17 14:08:06.772,0.0005092098160329504,2.8318840524877738
2025-03-17 14:08:06.791,0.0004945970990275252,1.9647091992115915
2025-03-17 14:08:06.811,0.0004786428327180827,0.9909918630676268
2025-03-17 14:08:06.830,0.00046107660988323526,-0.022809971332883237
2025-03-17 14:08:06.850,0.00043986637783664193,-1.0102001196925487
2025-03-17 14:08:06.870,0.0004115390056637054,-1.913227580026276
2025-03-17 14:08:06.889,0.0003718387818472433,-2.6894147962566906
2025-03-17 14:08:06.909,0.0003165755962249329,-3.315266609005812
2025-03-17 14:08:06.928,0.00024262341091016182,-3.7854401809469365
2025-03-17 14:08:06.948,0.00014900201947286122,-4.107872770312144
2025-03-17 14:08:06.967,3.7788021538939074e-05,-4.296357027485943
2025-03-17 14:08:06.987,-8.555079262762103e-05,-4.36281145779089
2025-03-17 14:08:07.006,-0.00021271141182625577,-4.311556842039764
2025-03-17 14:08:07.026,-0.0003339729919710206,-4.137264183932427
2025-03-17 14:08:07.045,-0.0004400694110707663,-3.8271075219366217
2025-03-17 14:08:07.065,-0.0005239539132911534,-3.36640171169288
2025-03-17 14:08:07.084,-0.0005820264709197756,-2.7460187132576634
2025-03-17 14:08:07.104,-0.000614652413235035,-1.9694413094752627
2025-03-17 14:08:07.123,-0.0006259652842354298,-1.057520067145871
2025-03-17 14:08:07.143,-0.0006229721496898365,-0.04972031299524644
2025-03-17 14:08:07.163,-0.0006140067571886559,0.9983940481775625
2025-03-17 14:08:07.182,-0.0006067424269265714,2.020795118972485
2025-03-17 14:08:07.202,-0.000606234990216842,2.9484869739610713
2025-03-17 14:08:07.221,-0.0006136002598254678,3.717379158081722
2025-03-17 14:08:07.241,-0.000625771189826296,4.27519359946429
2025-03-17 14:08:07.260,-0.0006363974638903604,4.586461060354605
2025-03-17 14:08:07.280,-0.0006375909865949091,4.635172945744471
2025-03-17 14:08:07.299,-0.0006220612220227311,4.425122448955494
2025-03-17 14:08:07.319,-0.0005851918322869574,3.978286863777687
2025-03-17 14:08:07.338,-0.0005266384890906015,3.331736543116799
2025-03-17 14:08:07.358,-0.00045101642858545916,2.5335554366733337
2025-03-17 14:08:07.377,-0.00036730876619504497,1.6382224689962592
2025-03-17 14:08:07.397,-0.0002869275012967745,0.7019087585074613
2025-03-17 14:08:07.416,-0.00022088384153267284,-0.22181064555224705
2025-03-17 14:08:07.436,-0.00017698972388520006,-1.0853291415273234
2025-03-17 14:08:07.456,-0.00015807037937754835,-1.8490931429910293
2025-03-17 14:08:07.475,-0.00016172959967208526,-2.4823145290839745
2025-03-17 14:08:07.495,-0.00018154140982346123,-2.962594608630118
2025-03-17 14:08:07.514,-0.00020903788737921584,-3.275041166172744
2025-03-17 14:08:07.534,-0.0002357415023599669,-3.411548575486573
2025-03-17 14:08:07.553,-0.0002546883857459362,-3.370733539885797
2025-03-17 14:08:07.573,-0.00026119296529328323,-3.1586209775202785
2025-03-17 14:08:07.592,-0.00025286341876855627,-2.7896853107967403
2025-03-17 14:08:07.612,-0.00022908408694363513,-2.2874621799942463
2025-03-17 14:08:07.631,-0.00019035268671804164,-1.6838581868747406
2025-03-17 14:08:07.651,-0.00013790811524468574,-1.0166220589864734
2025-03-17 14:08:07.670,-7.389060883328935e-05,-0.32513351305088484
2025-03-17 14:08:07.690,-1.887539398242305e-06,0.3545521035425487
2025-03-17 14:08:07.709,7.26193491243204e-05,0.9939528136149527
2025-03-17 14:08:07.729,0.00014242823099331643,1.5742801703138678
2025-03-17 14:08:07.748,0.00019963188615121596,2.0856252172848753
2025-03-17 14:08:07.768,0.00023722740477430762,2.523407265110519
2025-03-17 14:08:07.788,0.00025072972817207515,2.8832944323260006
2025-03-17 14:08:07.807,0.00023917927844257348,3.156429943206079
2025-03-17 14:08:07.827,0.0002052460228924456,3.3267821602907954
2025-03-17 14:08:07.846,0.00015454917218014105,3.371776093882521
2025-03-17 14:08:07.866,9.454926016663175e-05,3.2663060972592013
2025-03-17 14:08:07.885,3.3336895594087465e-05,2.9891526807583775
2025-03-17 14:08:07.905,-2.150010233028763e-05,2.5300808452552044
2025-03-17 14:08:07.924,-6.380945266490497e-05,1.8956904754125992
2025-03-17 14:08:07.944,-8.945936609168907e-05,1.1124499716684877
2025-03-17 14:08:07.963,-9.645833574740886e-05,0.22613015196851127
2025-03-17 14:08:07.983,-8.465653243085324e-05,-0.702211367974624
2025-03-17 14:08:08.002,-5.528149993280628e-05,-1.602785613950864
2025-03-17 14:08:08.022,-1.0624850713832472e-05,-2.404893185557605
2025-03-17 14:08:08.041,4.5982147591324566e-05,-3.044784232615313
2025-03-17 14:08:08.061,0.0001100709345323669,-3.4726251753363506
2025-03-17 14:08:08.081,0.00017614778108384973,-3.657952164693357
2025-03-17 14:08:08.100,0.0002382193513017488,-3.5931644120920203
2025-03-17 14:08:08.120,0.00029063973256258566,-3.2946329832929653
2025-03-17 14:08:08.139,0.00032899041776130404,-2.801001088240822
2025-03-17 14:08:08.159,0.0003507396686083983,-2.168417266813899
2025-03-17 14:08:08.178,0.0003555946970347042,-1.4628974665408054
2025-03-17 14:08:08.198,0.0003455734203952493,-0.7507202812527259
2025-03-17 14:08:08.217,0.0003248037098137166,-0.08850516424692359
2025-03-17 14:08:08.237,0.0002989948569513071,0.48491635798429866
2025-03-17 14:08:08.256,0.0002745592475955625,0.9528294533467063
2025-03-17 14:08:08.276,0.0002575130658985584,1.319903560882666
2025-03-17 14:08:08.295,0.0002524237728868899,1.6063537744905174
2025-03-17 14:08:08.315,0.0002616680928569214,1.8382935304543633
2025-03-17 14:08:08.334,0.0002851217566004004,2.036667596575717
2025-03-17 14:08:08.354,0.00032025237613538936,2.2076867665261024
2025-03-17 14:08:08.374,0.0003625568094680048,2.3374778325972505
2025-03-17 14:08:08.393,0.00040634703671302486,2.392709313630519
2025-03-17 14:08:08.413,0.00044587290065292994,2.3274582746076296
2025-03-17 14:08:08.432,0.0004765803285858475,2.0949275075440306
2025-03-17 14:08:08.452,0.0004960764838050242,1.6612603763052982
2025-03-17 14:08:08.471,0.0005043522005315562,1.0180217842847998
2025-03-17 14:08:08.491,0.0005031031386290586,0.1901173448521255
2025-03-17 14:08:08.510,0.0004944580115334852,-0.7630434340068859
2025-03-17 14:08:08.530,0.00047976412917378103,-1.7537531181310573
2025-03-17 14:08:08.549,0.0004590356231965816,-2.67848836032593
2025-03-17 14:08:08.569,0.000431243278304082,-3.4341753242148187
2025-03-17 14:08:08.588,0.00039512957374077595,-3.9349679147697474
2025-03-17 14:08:08.608,0.00035003454271918805,-4.126232969289873
2025-03-17 14:08:08.627,0.0002964053032456195,-3.993075875229384
2025-03-17 14:08:08.647,0.00023597763937673147,-3.561862767438478
2025-03-17 14:08:08.666,0.00017174203527206124,-2.894563956326895
2025-03-17 14:08:08.686,0.00010768936791565346,-2.077116794286539
2025-03-17 14:08:08.706,4.8212850402023606e-05,-1.2041471697061632
2025-03-17 14:08:08.725,-2.848041149618105e-06,-0.36307160911362
2025-03-17 14:08:08.745,-4.325012760808727e-05,0.3793393164533398
2025-03-17 14:08:08.764,-7.302482253229714e-05,0.985455729586572
2025-03-17 14:08:08.784,-9.448417837113175e-05,1.4489794555639952
2025-03-17 14:08:08.803,-0.0001116169719609325,1.7908156666175932
2025-03-17 14:08:08.823,-0.00012920726684031276,2.04984270037596
2025-03-17 14:08:08.842,-0.00015195993161679186,2.2706618792214615
2025-03-17 14:08:08.862,-0.0001836748372550661,2.4908136032235175
2025-03-17 14:08:08.881,-0.0002263847323668944,2.7299337123153196
2025-03-17 14:08:08.901,-0.0002795144129043682,2.982974645090008
2025-03-17 14:08:08.920,-0.000339377493628781,3.2189776858339036
2025-03-17 14:08:08.940,-0.00039940324442496404,3.3859796805327016
2025-03-17 14:08:08.959,-0.00045122877871714114,3.4215196014264055
2025-03-17 14:08:08.979,-0.0004863652518166409,3.2670013696413025
2025-03-17 14:08:08.999,-0.0004978950229498753,2.8830947743270823
2025-03-17 14:08:09.018,-0.00048176528512382797,2.262724239570565
2025-03-17 14:08:09.038,-0.00043754746498437565,1.4383057948921336
2025-03-17 14:08:09.057,-0.000368704026927977,0.48089219235175434
2025-03-17 14:08:09.077,-0.00028232919811894275,-0.5093547827466697
2025-03-17 14:08:09.096,-0.00018822367722460596,-1.4198422944653202
2025-03-17 14:08:09.116,-9.728942128445252e-05,-2.1459793008101213
2025-03-17 14:08:09.135,-1.956312176542606e-05,-2.6108615690213126
2025-03-17 14:08:09.155,3.75457076804372e-05,-2.779690644540015
2025-03-17 14:08:09.174,7.031291052950096e-05,-2.665524615532602
2025-03-17 14:08:09.194,7.887137870184477e-05,-2.3249593640604873
2025-03-17 14:08:09.213,6.662105902998825e-05,-1.8447388742573503
2025-03-17 14:08:09.233,3.912222045649817e-05,-1.322475563219213
2025-03-17 14:08:09.252,2.6868791738261987e-06,-0.8460499635471445
2025-03-17 14:08:09.272,-3.714097982724508e-05,-0.47649008685011474
2025-03-17 14:08:09.291,-7.69477834480672e-05,-0.23815922530695716
2025-03-17 14:08:09.311,-0.0001162764555830195,-0.11818811083818336
2025-03-17 14:08:09.331,-0.000157577368228013,-0.0747930718462138
2025-03-17 14:08:09.350,-0.00020522639928109303,-0.052024045876225174
2025-03-17 14:08:09.370,-0.00026392796390050093,0.002912052430096459
2025-03-17 14:08:09.389,-0.00033702335746134626,0.12402117956915827
2025-03-17 14:08:09.409,-0.00042513689557794894,0.3162621012484217
2025-03-17 14:08:09.428,-0.0005253618153486146,0.5529487733837404
2025-03-17 14:08:09.448,-0.0006310422692323956,0.7812945667468914
2025-03-17 14:08:09.467,-0.0007322075325376477,0.9347489136496552
2025-03-17 14:08:09.487,-0.0008167336008342429,0.9493035481088193
2025-03-17 14:08:09.506,-0.0008721934832528059,0.7800970482939293
2025-03-17 14:08:09.526,-0.0008880855766009758,0.4145590086116404
2025-03-17 14:08:09.545,-0.0008578668318521956,-0.1209899851143398
2025-03-17 14:08:09.565,-0.0007802180969184871,-0.7630430057529961
2025-03-17 14:08:09.584,-0.0006593026801040416,-1.4209212475749033
2025-03-17 14:08:09.604,-0.0005041888885109964,-1.9932429742825613
2025-03-17 14:08:09.624,-0.0003277498319078313,-2.387441190453987
2025-03-17 14:08:09.643,-0.00014518305191730987,-2.5380929933032457
2025-03-17 14:08:09.663,2.788919917120005e-05,-2.419974328561563
2025-03-17 14:08:09.682,0.0001776702777834939,-2.052897533934537
2025-03-17 14:08:09.702,0.000294366999787916,-1.4972636442726945
2025-03-17 14:08:09.721,0.0003736252942363654,-0.8413970613217516
2025-03-17 14:08:09.741,0.00041671389228788164,-0.18357907793743058
2025-03-17 14:08:09.760,0.0004294438798334885,0.3872009350634432
2025-03-17 14:08:09.780,0.0004202883111955581,0.8076312148413685
2025-03-17 14:08:09.799,0.00039833290723177207,1.0502561861607047
2025-03-17 14:08:09.819,0.00037155487258942846,1.125577347311404
2025-03-17 14:08:09.838,0.00034569739342670143,1.0759990667862813
2025-03-17 14:08:09.858,0.00032384092518079514,0.9632860900437479
2025-03-17 14:08:09.877,0.00030666161584733836,0.8525472774648842
2025-03-17 14:08:09.897,0.0002932257808875417,0.7964273417325398
2025-03-17 14:08:09.917,0.00028198864058785966,0.8230239912438009
2025-03-17 14:08:09.936,0.0002715673809222291,0.9300973376547139
2025-03-17 14:08:09.956,0.0002609912715226546,1.086646072167679
2025-03-17 14:08:09.975,0.00024948444178307883,1.241257961204593
2025-03-17 14:08:09.995,0.0002361663660546384,1.335179254328697
2025-03-17 14:08:10.014,0.0002200792618148895,1.3170878253020553
2025-03-17 14:08:10.034,0.00020064622919144213,1.1562665175103906
2025-03-17 14:08:10.053,0.0001782983647455689,0.8512760138142845
2025-03-17 14:08:10.073,0.00015487204549664778,0.43220729349041287
2025-03-17 14:08:10.092,0.00013352179070568953,-0.04405214971223941
2025-03-17 14:08:10.112,0.00011814760553037586,-0.5046266002480391
2025-03-17 14:08:10.131,0.00011250130911645426,-0.8752892022549347
2025-03-17 14:08:10.151,0.00011916688075867227,-1.0957619504305987
2025-03-17 14:08:10.170,0.00013861209834180373,-1.1322504778489846
2025-03-17 14:08:10.190,0.00016857666084848586,-0.9843256591114359
2025-03-17 14:08:10.209,0.0002041287448915876,-0.6845516542987707
2025-03-17 14:08:10.229,0.00023861822731847336,-0.29099129548452324
2025-03-17 14:08:10.249,0.000265410313872568,0.125581438151251
2025-03-17 14:08:10.268,0.00027984966274135153,0.496729707553001
2025-03-17 14:08:10.288,0.0002806758362919439,0.7702063134512421
2025-03-17 14:08:10.307,0.0002702931862691072,0.9195524208298278
2025-03-17 14:08:10.327,0.0002538161874465001,0.9474596186056207
2025-03-17 14:08:10.346,0.00023733516387583278,0.8823931177109635
2025-03-17 14:08:10.366,0.00022606351184835852,0.7695199002867045
2025-03-17 14:08:10.385,0.00022289756973169653,0.658246949041675
2025-03-17 14:08:10.405,0.00022766083582775241,0.5893669916707015
2025-03-17 14:08:10.424,0.00023712642876889012,0.5847882751103811
2025-03-17 14:08:10.444,0.0002458252955326595,0.6421269278061422
2025-03-17 14:08:10.463,0.0002475234227655136,0.7352649169673409
2025-03-17 14:08:10.483,0.00023702774545334543,0.8206192100961477
2025-03-17 14:08:10.502,0.00021177424592928122,0.8476352361719944
2025-03-17 14:08:10.522,0.00017266106549018625,0.7711540480509239
2025-03-17 14:08:10.542,0.00012388612582087284,0.5629461761235208
2025-03-17 14:08:10.561,7.19644982002742e-05,0.21988701818729298
2025-03-17 14:08:10.581,2.434837783090876e-05,-0.23308097848160272
2025-03-17 14:08:10.600,-1.1984719587714984e-05,-0.7460018028852824
2025-03-17 14:08:10.620,-3.182252317396866e-05,-1.2525077293240854
2025-03-17 14:08:10.639,-3.283295162274528e-05,-1.6822494319107313
2025-03-17 14:08:10.659,-1.6338463292194056e-05,-1.9744898348639304
2025-03-17 14:08:10.678,1.2560298529353042e-05,-2.0898415132671215
2025-03-17 14:08:10.698,4.575829307435395e-05,-2.017517702850711
2025-03-17 14:08:10.717,7.375260985365076e-05,-1.7765399075191914
2025-03-17 14:08:10.737,8.767062297577523e-05,-1.4108081266661743
2025-03-17 14:08:10.756,8.117346543698815e-05,-0.9793719106437326
2025-03-17 14:08:10.776,5.180500227521267e-05,-0.5442523536971182
2025-03-17 14:08:10.795,1.5620855343484927e-06,-0.15853488021083492
2025-03-17 14:08:10.815,-6.339702972045657e-05,0.14282384350318483
2025-03-17 14:08:10.835,-0.00013389901527273494,0.34778806639535886
2025-03-17 14:08:10.854,-0.0001995932181439761,0.4669462638032458
2025-03-17 14:08:10.874,-0.0002510698195628458,0.5284538408999233
2025-03-17 14:08:10.893,-0.0002816641005600439,0.5694050336685994
2025-03-17 14:08:10.913,-0.00028843550195751134,0.6254240445540182
2025-03-17 14:08:10.932,-0.00027218219507086814,0.7205593622798355
2025-03-17 14:08:10.952,-0.00023678415424167442,0.8595510884022017
2025-03-17 14:08:10.971,-0.00018835319648227334,1.0242287498113638
2025-03-17 14:08:10.991,-0.00013448972579733153,1.1751810056642613
2025-03-17 14:08:11.010,-8.359006728288071e-05,1.2589133578076777
2025-03-17 14:08:11.030,-4.394903250865371e-05,1.2195415163619798
2025-03-17 14:08:11.049,-2.2536836902459635e-05,1.0128628938858295
2025-03-17 14:08:11.069,-2.3659789057980215e-05,0.6197356381489684
2025-03-17 14:08:11.088,-4.793436407642583e-05,0.05541078547321277
2025-03-17 14:08:11.108,-9.193452787689045e-05,-0.6279845681675208
2025-03-17 14:08:11.127,-0.00014860889269253618,-1.3472413283997975
2025-03-17 14:08:11.147,-0.0002083528439039312,-2.0016317394554908
2025-03-17 14:08:11.167,-0.00026058284651024626,-2.4917008567791674
2025-03-17 14:08:11.186,-0.0002956731204266595,-2.739183504775752
2025-03-17 14:08:11.206,-0.0003069948565820974,-2.703358350336883
2025-03-17 14:08:11.225,-0.0002925649879571002,-2.3897944409567717
2025-03-17 14:08:11.245,-0.0002557015011721414,-1.8492060626308304
2025-03-17 14:08:11.264,-0.00020429871521746446,-1.1665488927885608
2025-03-17 14:08:11.284,-0.00014883350560037652,-0.44290264946717733
2025-03-17 14:08:11.303,-9.972116759554927e-05,0.22556169062424708
2025-03-17 14:08:11.323,-6.486392088359317e-05,0.7665930147664937
2025-03-17 14:08:11.342,-4.8071818836478455e-05,1.144522313399402
2025-03-17 14:08:11.362,-4.8638189120739845e-05,1.36390388648825
2025-03-17 14:08:11.381,-6.198444151267738e-05,1.4636958851870232
2025-03-17 14:08:11.401,-8.109637765321955e-05,1.5037602225802007
2025-03-17 14:08:11.420,-9.840383354200294e-05,1.5471283400001996
2025-03-17 14:08:11.440,-0.00010769524803341526,1.6422509900867612
2025-03-17 14:08:11.460,-0.00010560071274389927,1.8092490822515683
2025-03-17 14:08:11.479,-9.223518300767428e-05,2.0331571570582883
2025-03-17 14:08:11.499,-7.085791869005548e-05,2.265581530870372
2025-03-17 14:08:11.518,-4.677996009470432e-05,2.434409424607142
2025-03-17 14:08:11.538,-2.5989917868219765e-05,2.4595368820526664
2025-03-17 14:08:11.557,-1.3905693573303793e-05,2.2713440941573846
2025-03-17 14:08:11.577,-1.4401352757940258e-05,1.8280759964264492
2025-03-17 14:08:11.596,-2.9076596639331285e-05,1.1284862535891258
2025-03-17 14:08:11.616,-5.677974959707905e-05,0.2170141262382507
2025-03-17 14:08:11.635,-9.35425944318557e-05,-0.8198063260857605
2025-03-17 14:08:11.655,-0.00013310709557829572,-1.8653251241063966
2025-03-17 14:08:11.674,-0.00016803870567276533,-2.7911273367040024
2025-03-17 14:08:11.694,-0.00019116037306962725,-3.4784331524967915
2025-03-17 14:08:11.713,-0.00019691139154239478,-3.838495982484504
2025-03-17 14:08:11.733,-0.0001823340373929975,-3.8279750391704788
2025-03-17 14:08:11.752,-0.00014761384245900647,-3.4561036739226267
2025-03-17 14:08:11.772,-9.622621509698678e-05,-2.7820480197494404
2025-03-17 14:08:11.792,-3.467397923735067e-05,-1.9028889919159644
2025-03-17 14:08:11.811,2.8313768419666298e-05,-0.9347341695947791
2025-03-17 14:08:11.831,8.318168192817426e-05,0.008943927352372611
2025-03-17 14:08:11.850,0.00012132221085986764,0.8369917800661113
2025-03-17 14:08:11.870,0.0001367295225921597,1.49403075280548
2025-03-17 14:08:11.889,0.00012705143521301402,1.9649904008128884
2025-03-17 14:08:11.909,9.3861690754588e-05,2.270229988798386
2025-03-17 14:08:11.928,4.2302407208678265e-05,2.453025926244111
2025-03-17 14:08:11.948,-1.9665642551517218e-05,2.562941100954746
2025-03-17 14:08:11.967,-8.231187265210927e-05,2.6393804357448585
2025-03-17 14:08:11.987,-0.00013552665659681852,2.6993297790120594
2025-03-17 14:08:12.006,-0.0001705130961423998,2.732025787127296
2025-03-17 14:08:12.026,-0.00018147185130305862,2.70150360549532
2025-03-17 14:08:12.045,-0.00016676886991396508,2.5561077849704246
2025-03-17 14:08:12.065,-0.00012915106390409259,2.2425578639406956
2025-03-17 14:08:12.085,-7.490477407951373e-05,1.7212953519215746
2025-03-17 14:08:12.104,-1.2217081275983322e-05,0.9796947739413523
2025-03-17 14:08:12.124,5.080317978782535e-05,0.04026199557178842
2025-03-17 14:08:12.143,0.00010798280551218026,-1.0379682850934324
2025-03-17 14:08:12.163,0.00015642378331229536,-2.165218422955265
2025-03-17 14:08:12.182,0.00019698233271981918,-3.2328968524393162
2025-03-17 14:08:12.202,0.0002336550974793501,-4.129484285602379
2025-03-17 14:08:12.221,0.00027192999831273545,-4.757517629917116
2025-03-17 14:08:12.241,0.00031659063073935647,-5.04866390111179
2025-03-17 14:08:12.260,0.0003697697969510503,-4.974207968561646
2025-03-17 14:08:12.280,0.0004299580117096809,-4.549024812206472
2025-03-17 14:08:12.299,0.0004922044986467941,-3.8282118676997796
2025-03-17 14:08:12.319,0.0005492210327047771,-2.8969180411401525
2025-03-17 14:08:12.338,0.0005928516767644276,-1.855306015778619
2025-03-17 14:08:12.358,0.0006154930464640495,-0.8016915266399229
2025-03-17 14:08:12.378,0.0006113389916347003,0.1826243974177315
2025-03-17 14:08:12.397,0.000577475229014635,1.043677990681126
2025-03-17 14:08:12.417,0.000514733062132048,1.7583295013243825
2025-03-17 14:08:12.436,0.00042799956918454095,2.3306009084309007
2025-03-17 14:08:12.456,0.00032567422911222824,2.782297794293385
2025-03-17 14:08:12.475,0.00021826755254059042,3.14068805543305
2025-03-17 14:08:12.495,0.00011654469774258015,3.426586937029885
2025-03-17 14:08:12.514,2.9794323034856812e-05,3.6458836191943207
2025-03-17 14:08:12.534,-3.5377866117036154e-05,3.7864656306743645
2025-03-17 14:08:12.553,-7.567443738704854e-05,3.8209824787228617
2025-03-17 14:08:12.573,-9.128585429087008e-05,3.714365024023932
2025-03-17 14:08:12.592,-8.569104671993699e-05,3.433885683130583
2025-03-17 14:08:12.612,-6.500239558541704e-05,2.9590835691655224
2025-03-17 14:08:12.631,-3.680803327066429e-05,2.2891652275908627
2025-03-17 14:08:12.651,-8.697513789162916e-06,1.446377916984993
2025-03-17 14:08:12.670,1.3112039173273463e-05,0.4750143632468175
2025-03-17 14:08:12.690,2.4633913427274627e-05,-0.5632391019606878
2025-03-17 14:08:12.710,2.4303232280272566e-05,-1.596260107730886
2025-03-17 14:08:12.729,1.2670709939482878e-05,-2.5492921349926236
2025-03-17 14:08:12.749,-8.107154997524676e-06,-3.352441034239107
2025-03-17 14:08:12.768,-3.480557383233228e-05,-3.94719344190666
2025-03-17 14:08:12.788,-6.370268726450006e-05,-4.29165711158274
2025-03-17 14:08:12.807,-9.123062959268383e-05,-4.3643439726294755
2025-03-17 14:08:12.827,-0.0001146299428388423,-4.166220416477465
2025-03-17 14:08:12.846,-0.00013241513131802507,-3.720611047737508
2025-03-17 14:08:12.866,-0.00014451058203489186,-3.070566888730101
2025-03-17 14:08:12.885,-0.0001520926649592176,-2.273620160934856
2025-03-17 14:08:12.905,-0.0001572758514989814,-1.394422048873488
2025-03-17 14:08:12.924,-0.00016270047796951629,-0.4964227740293427
2025-03-17 14:08:12.944,-0.0001709467190101902,0.3657659335604524
2025-03-17 14:08:12.963,-0.00018372576515172522,1.1516454622166163
2025-03-17 14:08:12.983,-0.0002010211535476779,1.8365751023239145
2025-03-17 14:08:13.003,-0.0002205730787251434,2.4097725501091
2025-03-17 14:08:13.022,-0.00023807671125719392,2.8694323654821647
2025-03-17 14:08:13.042,-0.0002481596633982812,3.2166463792058853
2025-03-17 14:08:13.061,-0.00024582323726074387,3.450096667290789
2025-03-17 14:08:13.081,-0.00022784548152874273,3.5631638532812717
2025-03-17 14:08:13.100,-0.00019373382393518123,3.5442764025638223
2025-03-17 14:08:13.120,-0.0001460399313151614,3.3802845389684872
2025-03-17 14:08:13.139,-9.002985571048961e-05,3.0616945533650197
2025-03-17 14:08:13.159,-3.279403282740605e-05,2.5880358579501275
2025-03-17 14:08:13.178,1.804606612840515e-05,1.9716316817967152
2025-03-17 14:08:13.198,5.5778011127040004e-05,1.2386038902397123
2025-03-17 14:08:13.217,7.584363568724786e-05,0.42686861632785716
2025-03-17 14:08:13.237,7.656440061955064e-05,-0.418160806472937
2025-03-17 14:08:13.256,5.918245115053706e-05,-1.248804507557337
2025-03-17 14:08:13.276,2.7290869026548332e-05,-2.0198191145086524
2025-03-17 14:08:13.296,-1.4098161490950918e-05,-2.6915517241476774
2025-03-17 14:08:13.315,-5.957084355706761e-05,-3.23129271661464
2025-03-17 14:08:13.335,-0.00010421297614353074,-3.613340866296803
2025-03-17 14:08:13.354,-0.00014426189957800136,-3.8187291570737067
2025-03-17 14:08:13.374,-0.00017739375151742904,-3.835476900988513
2025-03-17 14:08:13.393,-0.0002025650555787938,-3.659690440116959
2025-03-17 14:08:13.413,-0.00021947428450893664,-3.29713365255243
2025-03-17 14:08:13.432,-0.0002279311735740245,-2.7644228062440583
2025-03-17 14:08:13.452,-0.0002275299423488246,-2.0890113977375417
2025-03-17 14:08:13.471,-0.0002178686873213657,-1.3075753500062723
2025-03-17 14:08:13.491,-0.0001992110977555834,-0.4630237810395904
2025-03-17 14:08:13.510,-0.00017318634102985754,0.39914883458523176
2025-03-17 14:08:13.530,-0.00014307542512493644,1.2342719624152927
2025-03-17 14:08:13.549,-0.00011346258871486861,2.0009465310126386
2025-03-17 14:08:13.569,-8.937234055254586e-05,2.662262944173912
2025-03-17 14:08:13.588,-7.523598879982927e-05,3.186083911396819
2025-03-17 14:08:13.608,-7.401902513217036e-05,3.5451180936282083
2025-03-17 14:08:13.628,-8.667341982828999e-05,3.7176004256121473
2025-03-17 14:08:13.647,-0.00011193732368283123,3.6890630594639653
2025-03-17 14:08:13.667,-0.00014648156367598372,3.455040296072521
2025-03-17 14:08:13.686,-0.00018542331695463587,3.0238795225853705
2025-03-17 14:08:13.706,-0.00022316700670877443,2.4184514420550007
2025-03-17 14:08:13.725,-0.0002543838284136764,1.6756777534647171
2025-03-17 14:08:13.745,-0.0002748354704368853,0.8434100405377675
2025-03-17 14:08:13.764,-0.00028181243415261706,-0.024934549951765028
2025-03-17 14:08:13.784,-0.0002741779437759727,-0.8767900561791069
2025-03-17 14:08:13.803,-0.00025221793731536405,-1.6663214848706738
2025-03-17 14:08:13.823,-0.0002175155099890992,-2.358312441782027
2025-03-17 14:08:13.842,-0.00017288578671883538,-2.929225144876516
2025-03-17 14:08:13.862,-0.00012222072203490022,-3.3654887795242154
2025-03-17 14:08:13.881,-7.009871838083686e-05,-3.6599329306596182
2025-03-17 14:08:13.901,-2.118828516508412e-05,-3.807824597394242
2025-03-17 14:08:13.921,2.0380856337640407e-05,-3.8040089024915567
2025-03-17 14:08:13.940,5.1528400198634335e-05,-3.642182539484502
2025-03-17 14:08:13.960,7.059021995643222e-05,-3.316519526776111
2025-03-17 14:08:13.979,7.757472933550007e-05,-2.825033357142729
2025-03-17 14:08:13.999,7.426125619920114e-05,-2.1735179640467432
2025-03-17 14:08:14.018,6.398334141216398e-05,-1.3788320124317437
2025-03-17 14:08:14.038,5.098235841388691e-05,-0.4706229227219956
2025-03-17 14:08:14.057,3.944653655158391e-05,0.5088878582649803
2025-03-17 14:08:14.077,3.2584336619502995e-05,1.5069596162294698
2025-03-17 14:08:14.096,3.209255016114539e-05,2.463846962499726
2025-03-17 14:08:14.116,3.813720169617596e-05,3.317322717965814
2025-03-17 14:08:14.135,4.967424951094955e-05,4.007812788885168
2025-03-17 14:08:14.155,6.484376841664388e-05,4.4838134005139985
2025-03-17 14:08:14.174,8.132743070480283e-05,4.70724310680313
2025-03-17 14:08:14.194,9.67708215126712e-05,4.658235358083519
2025-03-17 14:08:14.213,0.00010939630785200958,4.338645194893144
2025-03-17 14:08:14.233,0.00011872492456911202,3.773372213894275
2025-03-17 14:08:14.253,0.0001260866387019373,3.0086867390838914
2025-03-17 14:08:14.272,0.00013457540129650116,2.107210931219781
2025-03-17 14:08:14.292,0.00014835448453514625,1.1399956210587987
2025-03-17 14:08:14.311,0.00017154592282720278,0.1770017390543489
2025-03-17 14:08:14.331,0.00020709433015662785,-0.7220859194449869
2025-03-17 14:08:14.350,0.00025591272422725327,-1.514672502676686
2025-03-17 14:08:14.370,0.0003164473056431437,-2.1781308515623192
2025-03-17 14:08:14.389,0.0003847176579974607,-2.708137225815409
2025-03-17 14:08:14.409,0.000454914861261609,-3.11304515866446
2025-03-17 14:08:14.428,0.0005206325592768044,-3.405960691212844
2025-03-17 14:08:14.448,0.0005766336523730481,-3.5968315890044704
2025-03-17 14:08:14.467,0.0006207445555889015,-3.686847789892698
2025-03-17 14:08:14.487,0.0006552145955810866,-3.666739544297796
2025-03-17 14:08:14.506,0.0006868989798062623,-3.5193637202279087
2025-03-17 14:08:14.526,0.0007259624263388621,-3.2256731397378213
2025-03-17 14:08:14.546,0.0007832641987889508,-2.7721892227324214
2025-03-17 14:08:14.565,0.0008669313593232888,-2.1577544893379406
2025-03-17 14:08:14.585,0.0009788000444585284,-1.3977170818825864
2025-03-17 14:08:14.604,0.001111525331449451,-0.5246192632529969
2025-03-17 14:08:14.624,0.0012472784883130411,0.41444702257674143
2025-03-17 14:08:14.643,0.001358900496311614,1.3628003279621728
2025-03-17 14:08:14.663,0.001413945145694758,2.2600785097795955
2025-03-17 14:08:14.682,0.0013812176837294803,3.047909530301811
2025-03-17 14:08:14.702,0.0012384662147029144,3.6746733976232933
2025-03-17 14:08:14.721,0.000979209342732965,4.099234926524775
2025-03-17 14:08:14.741,0.00061660687404343,4.293850606365915
2025-03-17 14:08:14.760,0.00018290748185424956,4.2464358811730705
2025-03-17 14:08:14.780,-0.00027580459137763457,3.9620922827476566
2025-03-17 14:08:14.799,-0.0007084325458736783,3.463447018447165
2025-03-17 14:08:14.819,-0.0010689676930121076,2.7891980507475456
2025-03-17 14:08:14.839,-0.0013251348593692233,1.9904543793582292
2025-03-17 14:08:14.858,-0.0014633520557371916,1.1250135057770085
2025-03-17 14:08:14.878,-0.0014890188971390795,0.25042938344666976
2025-03-17 14:08:14.897,-0.0014226270302560653,-0.5827209470134904
2025-03-17 14:08:14.917,-0.0012933481752828177,-1.335839908707691
2025-03-17 14:08:14.936,-0.0011322111986941058,-1.9844455535164507
2025-03-17 14:08:14.956,-0.0009666361982830874,-2.517092268160321
2025-03-17 14:08:14.975,-0.0008172105393522394,-2.9316295505836503
2025-03-17 14:08:14.995,-0.0006966535997924984,-3.2300763883101222
2025-03-17 14:08:15.014,-0.0006103499368069284,-3.413721760914245
2025-03-17 14:08:15.034,-0.0005577478257357639,-3.4799249949198527
2025-03-17 14:08:15.053,-0.0005341076236817496,-3.4215374125039433
2025-03-17 14:08:15.073,-0.0005322568817823582,-3.229056895203614
2025-03-17 14:08:15.092,-0.0005440749661273062,-2.894785919928692
2025-03-17 14:08:15.112,-0.0005615016846338763,-2.417643030004482
2025-03-17 14:08:15.131,-0.0005770550055587196,-1.8070868411602101
2025-03-17 14:08:15.151,-0.0005840902210245693,-1.0849316426136242
2025-03-17 14:08:15.171,-0.0005771352141465384,-0.2845592347999262
2025-03-17 14:08:15.190,-0.0005524702489414214,0.5521108383626866
2025-03-17 14:08:15.210,-0.0005088045526157337,1.3788775339897836
2025-03-17 14:08:15.229,-0.0004477059177250423,2.1495256579429327
2025-03-17 14:08:15.249,-0.000373523076950843,2.8211867012823344
2025-03-17 14:08:15.268,-0.00029279802613548406,3.3564980142313616
2025-03-17 14:08:15.288,-0.0002133442830774374,3.7249024024329755
2025-03-17 14:08:15.307,-0.00014314067137914408,3.9037716747497924
2025-03-17 14:08:15.327,-8.90846322449011e-05,3.8799138722462647
2025-03-17 14:08:15.346,-5.5673334468521286e-05,3.651502272549858
2025-03-17 14:08:15.366,-4.3867553814637384e-05,3.229836948748021
2025-03-17 14:08:15.385,-5.0553711797280584e-05,2.6399842975918357
2025-03-17 14:08:15.405,-6.8943457146349e-05,1.9194655371670917
2025-03-17 14:08:15.424,-8.992191397004354e-05,1.1147423518155748
2025-03-17 14:08:15.444,-0.00010397762170243812,0.27601202255401674
2025-03-17 14:08:15.464,-0.00010316284519906778,-0.5485532577832659
