Timestamp,GSR_Filtered,PPG_Filtered
2025-03-05 14:19:55.954,-0.001616388554343,-5.017587303403847
2025-03-05 14:19:55.962,-0.0020781788662962,-5.005804769839894
2025-03-05 14:19:55.969,-0.0025365101571198,-4.9993854276960175
2025-03-05 14:19:55.977,-0.0029851490503971,-4.9904940768095045
2025-03-05 14:19:55.985,-0.0034181207820396,-4.972113677308618
2025-03-05 14:19:55.993,-0.0038298265923308,-4.938192969123611
2025-03-05 14:19:56.001,-0.0042151525443475,-4.8837592528690905
2025-03-05 14:19:56.009,-0.0045695674529401,-4.804994864837789
2025-03-05 14:19:56.016,-0.0048892072068684,-4.699276920020934
2025-03-05 14:19:56.024,-0.0051709424712589,-4.565180883812336
2025-03-05 14:19:56.032,-0.005412426880427,-4.402449460554182
2025-03-05 14:19:56.040,-0.0056121234749547,-4.2119291531585805
2025-03-05 14:19:56.048,-0.005769308125806,-3.9954776485544055
2025-03-05 14:19:56.055,-0.0058840497775313,-3.75584590529488
2025-03-05 14:19:56.063,-0.0059571683936964,-3.4965394362695656
2025-03-05 14:19:56.071,-0.0059901724616484,-3.22166376030619
2025-03-05 14:19:56.079,-0.0059851787856857,-2.935759320614243
2025-03-05 14:19:56.087,-0.005944818008249,-2.643631332294233
2025-03-05 14:19:56.094,-0.0058721297873769,-2.350180034087836
2025-03-05 14:19:56.102,-0.0057704518187917,-2.0602366895315827
2025-03-05 14:19:56.110,-0.0056433069532917,-1.7784104111300607
2025-03-05 14:19:56.118,-0.0054942925532147,-1.5089504631048791
2025-03-05 14:19:56.126,-0.0053269759859044,-1.2556281262108624
2025-03-05 14:19:56.134,-0.0051447997764909,-1.021641478092336
2025-03-05 14:19:56.141,-0.0049509993976633,-0.8095455619169218
2025-03-05 14:19:56.149,-0.0047485359550362,-0.6212094097172739
2025-03-05 14:19:56.157,-0.0045400452479376,-0.4578003011799756
2025-03-05 14:19:56.165,-0.0043278039973261,-0.3197945375173642
2025-03-05 14:19:56.173,-0.0041137134654678,-0.207012964394403
2025-03-05 14:19:56.180,-0.0038993001504226,-0.118678551559278
2025-03-05 14:19:56.188,-0.0036857326339657,-0.0534925783006444
2025-03-05 14:19:56.196,-0.0034738529817151,-0.0097254151648156
2025-03-05 14:19:56.204,-0.003264220360357,0.0146824504455068
2025-03-05 14:19:56.212,-0.0030571638042492,0.0220136263861737
2025-03-05 14:19:56.219,-0.0028528404682637,0.0146656837214066
2025-03-05 14:19:56.227,-0.0026512954144219,-0.0049541256489281
2025-03-05 14:19:56.235,-0.0024525190744016,-0.0345274617547318
2025-03-05 14:19:56.243,-0.0022564989331421,-0.0719134186939513
2025-03-05 14:19:56.251,-0.0020632625298562,-0.1152241383987686
2025-03-05 14:19:56.259,-0.0018729094767836,-0.162885285222628
2025-03-05 14:19:56.266,-0.0016856309022534,-0.213679799667796
2025-03-05 14:19:56.274,-0.0015017156224024,-0.2667740198272225
2025-03-05 14:19:56.282,-0.0013215434050292,-0.321725930708311
2025-03-05 14:19:56.290,-0.0011455667550625,-0.3784759565652139
2025-03-05 14:19:56.298,-0.0009742835794455,-0.437321333670544
2025-03-05 14:19:56.305,-0.0008082038093406,-0.4988756753923299
2025-03-05 14:19:56.313,-0.0006478135053938,-0.5640158513766994
2025-03-05 14:19:56.321,-0.0004935400543627,-0.6338187287074644
2025-03-05 14:19:56.329,-0.0003457217392636,-0.7094906448945892
2025-03-05 14:19:56.337,-0.0002045843185851,-0.7922926848138195
2025-03-05 14:19:56.345,-7.022647823586824e-05,-0.8834649105566015
2025-03-05 14:19:56.352,5.738470590439064e-05,-0.995905742049983
2025-03-05 14:19:56.360,0.0001784078134717,-1.0777245314750454
2025-03-05 14:19:56.368,0.0002931108375303,-1.1303780640452417
2025-03-05 14:19:56.376,0.0004018456291472,-1.1558069150527173
2025-03-05 14:19:56.384,0.0005050147634159,-1.1563730910319676
2025-03-05 14:19:56.391,0.0006030331441687,-1.134796786346128
2025-03-05 14:19:56.399,0.0006962869543942,-1.0940936147753797
2025-03-05 14:19:56.407,0.0007850925539219,-1.0375132786523005
2025-03-05 14:19:56.415,0.0008696577346258,-0.9684802972073636
2025-03-05 14:19:56.423,0.0009500475294958,-0.890537142893351
2025-03-05 14:19:56.430,0.0010261566227858,-0.8072899279273826
2025-03-05 14:19:56.438,0.0010976902571502,-0.7223566333708186
2025-03-05 14:19:56.446,0.0011641552423104,-0.6393177659325101
2025-03-05 14:19:56.454,0.0012248621800249,-0.561669248855884
2025-03-05 14:19:56.462,0.0012789394202464,-0.492777291065699
2025-03-05 14:19:56.470,0.0013253587207327,-0.4358349266366051
2025-03-05 14:19:56.477,0.0013629721925573,-0.3938198735437308
2025-03-05 14:19:56.485,0.001390559816726,-0.3694533307082348
2025-03-05 14:19:56.493,0.00140688647443,-0.3651593249327206
2025-03-05 14:19:56.501,0.0014107669586583,-0.383024249107267
2025-03-05 14:19:56.509,0.0014011368447078,-0.4247563186523029
2025-03-05 14:19:56.516,0.0013771264898974,-0.491644832676397
2025-03-05 14:19:56.524,0.0013381349205407,-0.5845193716869841
2025-03-05 14:19:56.532,0.0012839000040764,-0.7037093979357567
2025-03-05 14:19:56.540,0.0012145610910024,-0.8490051422571017
2025-03-05 14:19:56.548,0.0011307102044515,-1.0196211470706114
2025-03-05 14:19:56.555,0.0010334278343804,-1.2141643578692614
2025-03-05 14:19:56.563,0.0009242995496463,-1.430609165581448
2025-03-05 14:19:56.571,0.0008054101468786,-1.6662822377823698
2025-03-05 14:19:56.579,0.0006793129895076,-1.9178602728909808
2025-03-05 14:19:56.587,0.0005489734935735,-2.181383906429572
2025-03-05 14:19:56.595,0.0004176872928502,-2.452290837619438
2025-03-05 14:19:56.602,0.0002889753615367,-2.72547078827604
2025-03-05 14:19:56.610,0.0001664601494002,-2.995344139370108
2025-03-05 14:19:56.618,5.372842638127438e-05,-3.255965030289546
2025-03-05 14:19:56.626,-4.581215071459422e-05,-3.5011483993845194
2025-03-05 14:19:56.634,-0.0001290749490673,-3.724618967242257
2025-03-05 14:19:56.641,-0.0001934267949095,-3.920178615953492
2025-03-05 14:19:56.649,-0.0002368034003178,-4.08188711601383
2025-03-05 14:19:56.657,-0.0002578010977179,-4.204249822344931
2025-03-05 14:19:56.665,-0.0002557393877759,-4.282404921721428
2025-03-05 14:19:56.673,-0.0002306903506178,-4.31230216823351
2025-03-05 14:19:56.680,-0.0001834728787024,-4.290864866015319
2025-03-05 14:19:56.688,-0.0001156118480412,-4.216127185240932
2025-03-05 14:19:56.696,-2.9264549950830518e-05,-4.087339718402322
2025-03-05 14:19:56.704,7.288120921457701e-05,-3.905037444323567
2025-03-05 14:19:56.712,0.0001877311164399,-3.671065876195528
2025-03-05 14:19:56.720,0.0003119229245193,-3.3885630136311584
2025-03-05 14:19:56.727,0.0004419714447959,-3.0618966772354748
2025-03-05 14:19:56.735,0.0005744119670697,-2.696558763643594
2025-03-05 14:19:56.743,0.0007059348454693,-2.299019817447106
2025-03-05 14:19:56.751,0.0008335050902887,-1.87654898442074
2025-03-05 14:19:56.759,0.0009544621213279,-1.437005813512996
2025-03-05 14:19:56.766,0.0010665962808757,-0.9886114600846464
2025-03-05 14:19:56.774,0.0011682002250581,-0.5397075829379989
2025-03-05 14:19:56.782,0.0012580948363602,-0.0985116201908666
2025-03-05 14:19:56.790,0.0013356307082089,0.3271228119822369
2025-03-05 14:19:56.798,0.0014006674371098,0.729931907509404
2025-03-05 14:19:56.805,0.0014535338641869,1.1034461021518454
2025-03-05 14:19:56.813,0.0014949730189125,1.4421658293395032
2025-03-05 14:19:56.821,0.0015260758320565,1.7417025640546977
2025-03-05 14:19:56.829,0.0015482077109661,1.9988804343336608
2025-03-05 14:19:56.837,0.001562931825596,2.2117951847158115
2025-03-05 14:19:56.845,0.0015719324635214,2.3798289122846734
2025-03-05 14:19:56.852,0.0015769411138213,2.503620697858284
2025-03-05 14:19:56.860,0.001579667113405,2.584994953772464
2025-03-05 14:19:56.868,0.0015817339141781,2.6268509369438817
2025-03-05 14:19:56.876,0.0015846215604853,2.6330183631099784
2025-03-05 14:19:56.884,0.0015896159424675,2.608085337174351
2025-03-05 14:19:56.891,0.0015977656635343,2.557205820134941
2025-03-05 14:19:56.899,0.0016098476166364,2.4858945279206943
2025-03-05 14:19:56.907,0.0016263424089541,2.399817458487145
2025-03-05 14:19:56.915,0.0016474206070905,2.304586148469991
2025-03-05 14:19:56.923,0.001672940459988,2.2055632757693746
2025-03-05 14:19:56.930,0.0017024573376005,2.107686389368999
2025-03-05 14:19:56.938,0.0017352446462559,2.015315434176182
2025-03-05 14:19:56.946,0.0017703255272664,1.9321084408795344
2025-03-05 14:19:56.954,0.0018065142667804,1.86092836998396
2025-03-05 14:19:56.962,0.0018424659803336,1.803782726867178
2025-03-05 14:19:56.970,0.0018767326809845,1.7617962716728912
2025-03-05 14:19:56.977,0.0019078233413296,1.7352159822763724
2025-03-05 14:19:56.985,0.0019342652278586,1.7234464197138015
2025-03-05 14:19:56.993,0.0019546637793412,1.725112807091595
2025-03-05 14:19:57.001,0.0019677585795946,1.738148465779999
2025-03-05 14:19:57.009,0.0019724733888586,1.759902748138006
2025-03-05 14:19:57.016,0.0019679586316908,1.7872652505590083
2025-03-05 14:19:57.024,0.001953625148597,1.8168018679989424
2025-03-05 14:19:57.032,0.0019291683945103,1.84489814349524
2025-03-05 14:19:57.040,0.0018945826089199,1.867905355652691
2025-03-05 14:19:57.048,0.0018501647916924,1.8822848577149207
2025-03-05 14:19:57.055,0.00179650859915,1.8847463214932991
2025-03-05 14:19:57.063,0.0017344885320035,1.872375742500522
2025-03-05 14:19:57.071,0.0016652350263034,1.842749332976997
2025-03-05 14:19:57.079,0.0015901012868912,1.7940297792417417
2025-03-05 14:19:57.087,0.0015106229256801,1.7250417825534468
2025-03-05 14:19:57.095,0.0014284716891823,1.635324346047138
2025-03-05 14:19:57.102,0.0013454047788063,1.5251579135848978
2025-03-05 14:19:57.110,0.0012632114527193,1.395565202227474
2025-03-05 14:19:57.118,0.0011836586802738,1.2482853867185888
2025-03-05 14:19:57.126,0.0011084375584216,1.085722176921884
2025-03-05 14:19:57.134,0.0010391120747091,0.9108672595330743
2025-03-05 14:19:57.141,0.0009770717635782,0.727201530483326
2025-03-05 14:19:57.149,0.000923489894176,0.5385774924391232
2025-03-05 14:19:57.157,0.0008792889225928,0.3490870891200932
2025-03-05 14:19:57.165,0.0008451148840249,0.1629200397119483
2025-03-05 14:19:57.173,0.0008213221518808,-0.0157816398664188
2025-03-05 14:19:57.180,0.0008079696145853,-0.1830668500784392
2025-03-05 14:19:57.188,0.0008048288620132,-0.3353101733335958
2025-03-05 14:19:57.196,0.00081140439897,-0.4693322376032026
2025-03-05 14:19:57.204,0.000826965183703,-0.5825002983481633
2025-03-05 14:19:57.212,0.0008505860141467,-0.6728045659354416
2025-03-05 14:19:57.220,0.0008811966204314,-0.7389069992459902
2025-03-05 14:19:57.227,0.0009176358577225,-0.780160694946325
2025-03-05 14:19:57.235,0.0009587080985178,-0.7965995369081363
2025-03-05 14:19:57.243,0.0010032387633773,-0.7888993348655275
2025-03-05 14:19:57.251,0.0010501259465823,-0.7583131802113771
2025-03-05 14:19:57.259,0.0010983853537491,-0.7065850905324759
2025-03-05 14:19:57.266,0.0011471862605872,-0.6358471222989516
2025-03-05 14:19:57.274,0.0011958768326648,-0.5485059360832296
2025-03-05 14:19:57.282,0.0012439978187702,-0.4471252555747776
2025-03-05 14:19:57.290,0.0012912842918145,-0.3343107518254476
2025-03-05 14:19:57.298,0.0013376557363056,-0.2126036143336521
2025-03-05 14:19:57.305,0.0013831953528744,-0.0843884677336274
2025-03-05 14:19:57.313,0.0014281199531509,0.0481796034089201
2025-03-05 14:19:57.321,0.0014727422398763,0.1832253046873351
2025-03-05 14:19:57.329,0.0015174275974455,0.3191783887728273
2025-03-05 14:19:57.337,0.0015625477495302,0.4547731516672501
2025-03-05 14:19:57.345,0.0016084337680124,0.589022988191297
2025-03-05 14:19:57.352,0.0016553309386221,0.7211724204634783
2025-03-05 14:19:57.360,0.0017033579033952,0.8506305197663397
2025-03-05 14:19:57.368,0.0017524723107773,0.97689095941091
2025-03-05 14:19:57.376,0.0018024449158016,1.0994449605815724
2025-03-05 14:19:57.384,0.0018528436926176,1.217694031773903
2025-03-05 14:19:57.391,0.0019030290595105,1.3308695876149823
2025-03-05 14:19:57.399,0.001952160784618,1.4379662339371848
2025-03-05 14:19:57.407,0.0019992165533072,1.5376947334800406
2025-03-05 14:19:57.415,0.002043021552377,1.6284594686944185
2025-03-05 14:19:57.423,0.0020822877860806,1.7083636728737128
2025-03-05 14:19:57.430,0.0021156612424397,1.775243907053966
2025-03-05 14:19:57.438,0.0021417745976669,1.8267333298260704
2025-03-05 14:19:57.446,0.0021593030100709,1.8603513616009888
2025-03-05 14:19:57.454,0.0021670206867118,1.8736155109313004
2025-03-05 14:19:57.462,0.0021638560844828,1.8641695320232765
2025-03-05 14:19:57.470,0.0021489436378029,1.829920826285213
2025-03-05 14:19:57.477,0.0021216698321848,1.7691791656013551
2025-03-05 14:19:57.485,0.0020817114354238,1.6807884492527254
2025-03-05 14:19:57.493,0.0020290638010261,1.5642433285831752
2025-03-05 14:19:57.501,0.0019640573070226,1.419783133851027
2025-03-05 14:19:57.509,0.0018873602298894,1.2484565802970995
2025-03-05 14:19:57.516,0.0017999668468478,1.0521521563127003
2025-03-05 14:19:57.524,0.0017031703787704,0.8335908261571805
2025-03-05 14:19:57.532,0.0015985213982843,0.5962796149551801
2025-03-05 14:19:57.540,0.0014877733664944,0.3444266728019103
2025-03-05 14:19:57.548,0.0013728179596625,0.0828204216090086
2025-03-05 14:19:57.555,0.0012556137469856,-0.1833227349534229
2025-03-05 14:19:57.563,0.0011381124027694,-0.4485360026459575
2025-03-05 14:19:57.571,0.0010221867496966,-0.7072975938670794
2025-03-05 14:19:57.579,0.0009095644913484,-0.9542354349707426
2025-03-05 14:19:57.587,0.0008017707390995,-1.1843320969090276
2025-03-05 14:19:57.595,0.0007000816653067,-1.393120717166826
2025-03-05 14:19:57.602,0.0006054909091496,-1.5768629928115805
2025-03-05 14:19:57.610,0.0005186896341155,-1.7327010741092803
2025-03-05 14:19:57.618,0.0004400603335847,-1.8587763281993237
2025-03-05 14:19:57.626,0.0003696836638937,-1.954309408539438
2025-03-05 14:19:57.634,0.0003073568397486,-2.019637786173881
2025-03-05 14:19:57.641,0.0002526215067607,-2.056208794077771
2025-03-05 14:19:57.649,0.0002047985629464,-2.0665282163280576
2025-03-05 14:19:57.657,0.0001630272410334,-2.054066419824807
2025-03-05 14:19:57.665,0.0001263059931538,-2.023125872492555
2025-03-05 14:19:57.673,9.353328723262955e-05,-1.9786755167680912
2025-03-05 14:19:57.680,6.354707373081748e-05,-1.9261587848397503
2025-03-05 14:19:57.688,3.516215449072117e-05,-1.8712829933980688
2025-03-05 14:19:57.696,7.204926069322516e-06,-1.8197984140249304
2025-03-05 14:19:57.704,-2.1454922597847435e-05,-1.777275485797851
2025-03-05 14:19:57.712,-5.18761089797362e-05,-1.748888449736966
2025-03-05 14:19:57.720,-8.502113820712592e-05,-1.73921318891792
2025-03-05 14:19:57.727,-0.0001217355901521,-1.752046312786326
2025-03-05 14:19:57.735,-0.0001627314767445,-1.7902515911709336
2025-03-05 14:19:57.743,-0.0002085747793173,-1.8556387770833809
2025-03-05 14:19:57.751,-0.0002596772250048,-1.9488786989065616
2025-03-05 14:19:57.759,-0.0003162923129396,-2.06945728279846
2025-03-05 14:19:57.766,-0.0003785155531609,-2.2156699123410544
2025-03-05 14:19:57.774,-0.0004462888312126,-2.384656272730122
2025-03-05 14:19:57.782,-0.0005194087566151,-2.572474590564697
2025-03-05 14:19:57.790,-0.0005975387910135,-2.774212997186813
2025-03-05 14:19:57.798,-0.0006802248794228,-2.9841346406755043
2025-03-05 14:19:57.805,-0.0007669142237557,-3.195852170477796
2025-03-05 14:19:57.813,-0.0008569767406923,-3.4025263345815207
2025-03-05 14:19:57.821,-0.0009497286358887,-3.5970826739989854
2025-03-05 14:19:57.829,-0.0010444574046556,-3.772439684534721
2025-03-05 14:19:57.837,-0.0011404474379678,-3.921741353198917
2025-03-05 14:19:57.845,-0.0012370052757083,-4.038586678506001
2025-03-05 14:19:57.852,-0.0013334834167904,-4.117248663805728
2025-03-05 14:19:57.860,-0.00142930150643,-4.152875346941484
2025-03-05 14:19:57.868,-0.0015239637496479,-4.141665718201393
2025-03-05 14:19:57.876,-0.0016170715920791,-4.08101390640319
2025-03-05 14:19:57.884,-0.0017083309914816,-3.9696158050876234
2025-03-05 14:19:57.891,-0.0017975538576282,-3.8075333820984656
2025-03-05 14:19:57.899,-0.0018846534876365,-3.5962132592896188
2025-03-05 14:19:57.907,-0.0019696342208805,-3.3384577317888944
2025-03-05 14:19:57.915,-0.0020525761115027,-3.0383481646257366
2025-03-05 14:19:57.923,-0.0021336159586273,-2.701122591601816
2025-03-05 14:19:57.930,-0.0022129263101427,-2.333011268982558
2025-03-05 14:19:57.938,-0.0022906940284842,-1.9410358137795125
2025-03-05 14:19:57.946,-0.0023670997952826,-1.5327792777606084
2025-03-05 14:19:57.954,-0.0024422996507657,-1.1161359591543416
2025-03-05 14:19:57.962,-0.0025164093655911,-0.6990508214611612
2025-03-05 14:19:57.970,-0.0025894921472529,-0.28925897680112
2025-03-05 14:19:57.977,-0.0026615499041761,0.105964263296364
2025-03-05 14:19:57.985,-0.0027325180408348,0.480032779815343
2025-03-05 14:19:57.993,-0.0028022635481157,0.8272495257633016
2025-03-05 14:19:58.001,-0.0028705859944354,1.1429694121285636
2025-03-05 14:19:58.009,-0.0029372209227421,1.4237195210655822
2025-03-05 14:19:58.016,-0.0030018451223626,1.6672729728568871
2025-03-05 14:19:58.024,-0.0030640832764711,1.8726748566503155
2025-03-05 14:19:58.032,-0.0031235155872674,2.040220675886702
2025-03-05 14:19:58.040,-0.003179686145676,2.1713896528179992
2025-03-05 14:19:58.048,-0.0032321120055653,2.2687369026937065
2025-03-05 14:19:58.055,-0.0032802930655831,2.335749878356067
2025-03-05 14:19:58.063,-0.0033237228731764,2.376675582085682
2025-03-05 14:19:58.071,-0.0033619003229037,2.396325848164916
2025-03-05 14:19:58.079,-0.003394341973302,2.3998685317806485
2025-03-05 14:19:58.087,-0.003420594470901,2.392612712421492
2025-03-05 14:19:58.095,-0.003440246507017,2.379796040815481
2025-03-05 14:19:58.102,-0.0034529399004481,2.366382125574963
2025-03-05 14:19:58.110,-0.0034583796478823,2.3568753592610863
2025-03-05 14:19:58.118,-0.0034563429189079,2.3551598153001203
2025-03-05 14:19:58.126,-0.0034466869649958,2.3643678117325444
2025-03-05 14:19:58.134,-0.0034293558513863,2.386782460281415
2025-03-05 14:19:58.141,-0.00340438585119,2.423777047549189
2025-03-05 14:19:58.149,-0.0033719092636176,2.475792497967733
2025-03-05 14:19:58.157,-0.0033321563885828,2.542352528940868
2025-03-05 14:19:58.165,-0.0032854554616834,2.622114515403431
2025-03-05 14:19:58.173,-0.003232230458475,2.712952614027869
2025-03-05 14:19:58.180,-0.003172996702443,2.812068420921074
2025-03-05 14:19:58.188,-0.0031083541709228,2.916123399344861
2025-03-05 14:19:58.196,-0.0030389784107873,3.021386553684415
2025-03-05 14:19:58.204,-0.0029656091234601,3.123890373907212
2025-03-05 14:19:58.212,-0.0028890366893771,3.2195879545181056
2025-03-05 14:19:58.220,-0.0028100870298766,3.304504413771423
2025-03-05 14:19:58.227,-0.0027296051763415,3.374876294860065
2025-03-05 14:19:58.235,-0.0026484378144724,3.4272734941784244
2025-03-05 14:19:58.243,-0.0025674150497761,3.4586993887568287
2025-03-05 14:19:58.251,-0.0024873317734224,3.466666166078105
2025-03-05 14:19:58.259,-0.0024089292236771,3.449243819303931
2025-03-05 14:19:58.266,-0.0023328774858084,3.4050827698667563
2025-03-05 14:19:58.274,-0.0022597596727187,3.3334115203478496
2025-03-05 14:19:58.282,-0.0021900584491361,3.234012029223986
2025-03-05 14:19:58.290,-0.0021241455185072,3.107176552953864
2025-03-05 14:19:58.298,-0.0020622746831439,2.9536504554640493
2025-03-05 14:19:58.305,-0.0020045789990779,2.7745658985203234
2025-03-05 14:19:58.313,-0.0019510723071227,2.57137138362536
2025-03-05 14:19:58.321,-0.0019016551106377,2.345761830020612
2025-03-05 14:19:58.329,-0.0018561245403291,2.099613282758876
2025-03-05 14:19:58.337,-0.0018141880704712,1.834925509555721
2025-03-05 14:19:58.345,-0.0017754806569396,1.5537747427820776
2025-03-05 14:19:58.352,-0.0017395849049817,1.258277744718351
2025-03-05 14:19:58.360,-0.0017060536606211,0.9505673164610206
2025-03-05 14:19:58.368,-0.0016744341007675,0.6327784222424044
2025-03-05 14:19:58.376,-0.0016442920625543,0.3070433296994974
2025-03-05 14:19:58.384,-0.0016152350766201,-0.0245063866116
2025-03-05 14:19:58.391,-0.0015869324680078,-0.3597334553397735
2025-03-05 14:19:58.399,-0.0015591310830432,-0.6964867178143264
2025-03-05 14:19:58.407,-0.0015316656511305,-1.032593643436417
2025-03-05 14:19:58.415,-0.001504463286973,-1.365855820021581
2025-03-05 14:19:58.423,-0.0014775420186389,-1.6940493195325472
2025-03-05 14:19:58.430,-0.0014510035149339,-2.0149313678661223
2025-03-05 14:19:58.438,-0.0014250204854611,-2.326254205515913
2025-03-05 14:19:58.446,-0.0013998195612164,-2.625786453410813
2025-03-05 14:19:58.454,-0.0013756607784334,-2.911341736774478
2025-03-05 14:19:58.462,-0.001352815045706,-3.180813806835346
2025-03-05 14:19:58.470,-0.0013315411591012,-3.432216962108815
2025-03-05 14:19:58.477,-0.0013120640019392,-3.663730220361626
2025-03-05 14:19:58.485,-0.001294555477658,-3.87374343072835
2025-03-05 14:19:58.493,-0.0012791194762015,-4.060903339353261
2025-03-05 14:19:58.501,-0.0012657818153198,-4.224157527919968
2025-03-05 14:19:58.509,-0.0012544856693432,-4.362794130851974
2025-03-05 14:19:58.516,-0.0012450925159116,-4.476475303873945
2025-03-05 14:19:58.524,-0.0012373881408249,-4.565262563945391
2025-03-05 14:19:58.532,-0.0012310928361237,-4.629632344493352
2025-03-05 14:19:58.540,-0.0012258746863384,-4.670480399490703
2025-03-05 14:19:58.548,-0.0012213647664016,-4.689114027415295
2025-03-05 14:19:58.555,-0.0012171731055052,-4.68723145111348
2025-03-05 14:19:58.563,-0.0012129043505555,-4.6668880654534
2025-03-05 14:19:58.571,-0.00120817222197,-4.630449643729998
2025-03-05 14:19:58.579,-0.001202612127525,-4.580532980103902
2025-03-05 14:19:58.587,-0.0011958915992024,-4.519934852722005
2025-03-05 14:19:58.595,-0.0011877184125753,-4.451550635622395
2025-03-05 14:19:58.602,-0.0011778463352772,-4.378284371664535
2025-03-05 14:19:58.610,-0.0011660785394764,-4.302952630952605
2025-03-05 14:19:58.618,-0.0011522688692355,-4.228184992345075
2025-03-05 14:19:58.626,-0.0011363213335298,-4.156324465800471
2025-03-05 14:19:58.634,-0.0011181883173704,-4.089331585667762
2025-03-05 14:19:58.641,-0.0010978680298509,-4.02869621366245
2025-03-05 14:19:58.649,-0.0010754016376751,-3.975361254857116
2025-03-05 14:19:58.657,-0.0010508703680664,-3.929662465659951
2025-03-05 14:19:58.665,-0.0010243926437822,-3.891288276844825
2025-03-05 14:19:58.673,-0.0009961211234526,-3.8592630379692414
2025-03-05 14:19:58.680,-0.0009662394439939,-3.8319563047751455
2025-03-05 14:19:58.688,-0.0009349585269396,-3.807119756440244
2025-03-05 14:19:58.696,-0.0009025124809082,-3.781952087611552
2025-03-05 14:19:58.704,-0.0008691542924261,-3.753190837044967
2025-03-05 14:19:58.712,-0.0008351514938763,-3.717228676338828
2025-03-05 14:19:58.720,-0.0008007817855093,-3.670250287412029
2025-03-05 14:19:58.727,-0.0007663283190067,-3.608384707958582
2025-03-05 14:19:58.735,-0.0007320742241078,-3.527867015165005
2025-03-05 14:19:58.743,-0.0006982960116228,-3.425202527134995
2025-03-05 14:19:58.751,-0.0006652555980931,-3.2973263795416865
2025-03-05 14:19:58.759,-0.0006331907921592,-3.1417514015410792
2025-03-05 14:19:58.766,-0.0006023041909476,-2.9566976592174257
2025-03-05 14:19:58.774,-0.0005727505863376,-2.741197819359084
2025-03-05 14:19:58.782,-0.0005446231286591,-2.495173551335057
2025-03-05 14:19:58.790,-0.0005179385918868,-2.2194794549970243
2025-03-05 14:19:58.798,-0.0004926221967902,-1.915912397564925
2025-03-05 14:19:58.806,-0.0004684927124927,-1.5871855864458784
2025-03-05 14:19:58.813,-0.000445248994508,-1.2368681305030438
2025-03-05 14:19:58.821,-0.0004224595553474,-0.8692921910891505
2025-03-05 14:19:58.829,-0.0003995569586258,-0.4894310480220602
2025-03-05 14:19:58.837,-0.0003758386571457,-0.1027524690792211
2025-03-05 14:19:58.845,-0.0003504754284175,0.2849473474628991
2025-03-05 14:19:58.852,-0.0003225279578596,0.6677233007801873
2025-03-05 14:19:58.860,-0.0002909715031937,1.0396679437707004
2025-03-05 14:19:58.868,-0.0002547279969833,1.3950983487906552
2025-03-05 14:19:58.876,-0.0002127044283926,1.7287365055630344
2025-03-05 14:19:58.884,-0.0001638359039373,2.0358766422873464
2025-03-05 14:19:58.891,-0.0001071314325793,2.3125332618711854
2025-03-05 14:19:58.899,-4.172022367925467e-05,2.555564320963726
2025-03-05 14:19:58.907,3.3103864167604234e-05,2.7627648472775697
2025-03-05 14:19:58.915,0.0001178421228229,2.9329273772979736
2025-03-05 14:19:58.923,0.0002127573622705,3.0658668706247885
2025-03-05 14:19:58.931,0.0003178489665655,3.1624091659056184
2025-03-05 14:19:58.938,0.0004328384411388,3.2243435172694994
2025-03-05 14:19:58.946,0.0005571668233439,3.2543412160398213
2025-03-05 14:19:58.954,0.0006900047904523,3.2558436941691618
2025-03-05 14:19:58.962,0.0008302756660622,3.232924767980628
2025-03-05 14:19:58.970,0.0009766908116209,3.1901327665664074
2025-03-05 14:19:58.977,0.0011277961179804,3.1323191566582587
2025-03-05 14:19:58.985,0.0012820275416678,3.064460885403506
2025-03-05 14:19:58.993,0.0014377729922375,2.991483977431352
2025-03-05 14:19:59.001,0.0015934375356587,2.918095914169176
2025-03-05 14:19:59.009,0.0017475088881436,2.84863397890274
2025-03-05 14:19:59.016,0.0018986203904612,2.7869360778735213
2025-03-05 14:19:59.024,0.0020456088765175,2.7362395702946616
2025-03-05 14:19:59.032,0.0021875650473516,2.699112395006696
2025-03-05 14:19:59.040,0.0023238742468791,2.67741931472672
2025-03-05 14:19:59.048,0.0024542459736878,2.672324467986787
2025-03-05 14:19:59.056,0.0025787309755529,2.684329693456076
2025-03-05 14:19:59.063,0.0026977252160997,2.7133463476717723
2025-03-05 14:19:59.071,0.0028119603005509,2.7587966500785366
2025-03-05 14:19:59.079,0.0029224801754369,2.819739028781532
2025-03-05 14:19:59.087,0.0030306042346584,2.895010575589718
2025-03-05 14:19:59.095,0.0031378774516287,2.983378622012266
2025-03-05 14:19:59.102,0.0032460087691824,3.083692690974884
2025-03-05 14:19:59.110,0.0033567996372738,3.195027721914192
2025-03-05 14:19:59.118,0.0034720652434677,3.3168095449083563
2025-03-05 14:19:59.126,0.0035935515808918,3.4489141011912894
2025-03-05 14:19:59.134,0.0037228519524696,3.591732861517908
2025-03-05 14:19:59.141,0.0038613267312031,3.7461982568926073
2025-03-05 14:19:59.149,0.0040100301825141,3.913764674880197
2025-03-05 14:19:59.157,0.0041696480068991,4.096342644045847
2025-03-05 14:19:59.165,0.0043404490926344,4.296186168513938
2025-03-05 14:19:59.173,0.0045222547770455,4.515735704358892
2025-03-05 14:19:59.181,0.0047144285520838,4.757421886514786
2025-03-05 14:19:59.188,0.0049158884657025,5.0234376912680965
2025-03-05 14:19:59.196,0.0051251434758631,5.315489108007284
2025-03-05 14:19:59.204,0.0053403538491564,5.634536441797235
2025-03-05 14:19:59.212,0.00555941449161,5.980539931976209
2025-03-05 14:19:59.220,0.0057800589237802,6.352224327832989
2025-03-05 14:19:59.227,0.0059999805026122,6.746877313814773
2025-03-05 14:19:59.235,0.0062169664803571,7.160196159763485
2025-03-05 14:19:59.243,0.0064290396073176,7.586195659916449
2025-03-05 14:19:59.251,0.0066346012607026,8.017188330410232
2025-03-05 14:19:59.259,0.006832569545254,8.443845012249623
2025-03-05 14:19:59.266,0.0070225054890476,8.85534057387113
2025-03-05 14:19:59.274,0.0072047203731998,9.23958546960226
2025-03-05 14:19:59.282,0.0073803574060315,9.583539670066836
2025-03-05 14:19:59.290,0.0075514413940404,9.87360114184808
2025-03-05 14:19:59.298,0.0077208907807105,10.09605682683144
2025-03-05 14:19:59.306,0.0078924874189466,10.23758016569053
2025-03-05 14:19:59.313,0.0080708007042222,10.285755831882309
2025-03-05 14:19:59.321,0.0082610642042039,10.229609696750666
2025-03-05 14:19:59.329,0.0084690046472033,10.060120329431545
2025-03-05 14:19:59.337,0.0087006250361888,9.77068772420876
2025-03-05 14:19:59.345,0.0089619456864977,9.357535584038434
2025-03-05 14:19:59.352,0.0092587090827918,8.82002545705761
2025-03-05 14:19:59.360,0.0095960565438739,8.160864326658904
2025-03-05 14:19:59.368,0.0099781866944245,7.386191791933945
2025-03-05 14:19:59.376,0.010408007586292,6.50553851827994
2025-03-05 14:19:59.384,0.0108867959008836,5.531653847315983
2025-03-05 14:19:59.391,0.011413877910123,4.480206911242888
2025-03-05 14:19:59.399,0.0119863476908846,3.3693718529682672
2025-03-05 14:19:59.407,0.0125988383979088,2.2193133898108184
2025-03-05 14:19:59.415,0.013243362129346,1.0515936246173172
2025-03-05 14:19:59.423,0.0139092329765142,-0.111475549914152
2025-03-05 14:19:59.431,0.0145830861006567,-1.247508033315664
2025-03-05 14:19:59.438,0.0152490030078243,-2.3347199929063147
2025-03-05 14:19:59.446,0.0158887496576877,-3.352580809817791
2025-03-05 14:19:59.454,0.01648212990101,-4.282413952437625
2025-03-05 14:19:59.462,0.0170074522135389,-5.107926140889358
2025-03-05 14:19:59.470,0.0174421027924448,-5.815646884853128
2025-03-05 14:19:59.477,0.0177632127780939,-6.395264778891454
2025-03-05 14:19:59.485,0.0179484018351402,-6.839851594690055
2025-03-05 14:19:59.493,0.0179765749494217,-7.145969994729901
2025-03-05 14:19:59.501,0.0178287444977139,-7.313665394471653
2025-03-05 14:19:59.509,0.0174888457709912,-7.346346925870771
2025-03-05 14:19:59.516,0.0169445113712609,-7.250566436334222
2025-03-05 14:19:59.524,0.0161877683610631,-7.035707860530388
2025-03-05 14:19:59.532,0.0152156218895134,-6.713602032162504
2025-03-05 14:19:59.540,0.0140304905125036,-6.298083999310295
2025-03-05 14:19:59.548,0.0126404618229955,-5.804511140553638
2025-03-05 14:19:59.556,0.0110593424791185,-5.249260845823727
2025-03-05 14:19:59.563,0.0093064843429839,-4.649226247869729
2025-03-05 14:19:59.571,0.0074063782178763,-4.021327516067731
2025-03-05 14:19:59.579,0.0053880184828328,-3.3820546255336668
2025-03-05 14:19:59.587,0.0032840555218855,-2.747055380800394
2025-03-05 14:19:59.595,0.0011297677724207,-2.1307799125448703
2025-03-05 14:19:59.602,-0.0010380996057272,-1.546190005585959
2025-03-05 14:19:59.610,-0.0031825694050958,-1.0045385984177906
2025-03-05 14:19:59.618,-0.0052676728838365,-0.515221761109634
2025-03-05 14:19:59.626,-0.0072596290888293,-0.0857025377425561
2025-03-05 14:19:59.634,-0.0091279038549434,0.2784966620217174
2025-03-05 14:19:59.641,-0.0108461018501584,0.5737388371851295
2025-03-05 14:19:59.649,-0.0123926592149272,0.7981620861992758
2025-03-05 14:19:59.657,-0.0137513183324363,0.9515235921896252
2025-03-05 14:19:59.665,-0.0149113790619077,1.0350084647424151
2025-03-05 14:19:59.673,-0.0158677317869337,1.0510147117451858
2025-03-05 14:19:59.681,-0.0166206866266607,1.0029258267106842
2025-03-05 14:19:59.688,-0.0171756202089913,0.8948821739527123
2025-03-05 14:19:59.696,-0.0175424667451247,0.7315615442735056
2025-03-05 14:19:59.704,-0.017735083976189,0.5179779786503437
2025-03-05 14:19:59.712,-0.0177705270037155,0.2593062895889786
2025-03-05 14:19:59.720,-0.0176682641052852,-0.0392622550600178
2025-03-05 14:19:59.727,-0.0174493683599317,-0.3726297749371734
2025-03-05 14:19:59.735,-0.0171357172732403,-0.7358660672411169
2025-03-05 14:19:59.743,-0.0167492297035214,-1.1242484661618355
2025-03-05 14:19:59.751,-0.0163111654477235,-1.5332704660933891
2025-03-05 14:19:59.759,-0.0158415081206537,-1.9586241521928631
2025-03-05 14:19:59.766,-0.0153584467988929,-2.3961630136205
2025-03-05 14:19:59.774,-0.0148779666769692,-2.8418528348421326
2025-03-05 14:19:59.782,-0.0144135539740617,-3.291718985720137
2025-03-05 14:19:59.790,-0.0139760156348798,-3.7417985067363326
2025-03-05 14:19:59.798,-0.0135734100148378,-4.188104896221749
2025-03-05 14:19:59.806,-0.0132110808389657,-4.626612477996473
2025-03-05 14:19:59.813,-0.01289178347334,-5.053265722454424
2025-03-05 14:19:59.821,-0.012615890076156,-5.46401700316606
2025-03-05 14:19:59.829,-0.0123816584875955,-5.854894108613949
2025-03-05 14:19:59.837,-0.0121855487252735,-6.222096522981689
2025-03-05 14:19:59.845,-0.0120225706906607,-6.5621171715183975
2025-03-05 14:19:59.852,-0.0118866471564025,-6.871884117037866
2025-03-05 14:19:59.860,-0.0117709771802876,-7.148914704925414
2025-03-05 14:19:59.868,-0.011668386624799,-7.3914729875157885
2025-03-05 14:19:59.876,-0.0115716543401629,-7.598720015317359
2025-03-05 14:19:59.884,-0.0114738047022094,-7.770845857526137
2025-03-05 14:19:59.891,-0.0113683594945594,-7.909172086575265
2025-03-05 14:19:59.899,-0.0112495445079354,-8.016213981971088
2025-03-05 14:19:59.907,-0.011112448592205,-8.095692894009701
2025-03-05 14:19:59.915,-0.0109531350943492,-8.152491040529547
2025-03-05 14:19:59.923,-0.010768707521575,-8.192543440683101
2025-03-05 14:19:59.931,-0.0105573328161509,-8.222664640247132
2025-03-05 14:19:59.938,-0.0103182267941295,-8.25031124282399
2025-03-05 14:19:59.946,-0.0100516070826639,-8.283284884089571
2025-03-05 14:19:59.954,-0.0097586193038075,-8.329383989600691
2025-03-05 14:19:59.962,-0.0094412423233718,-8.396016228943841
2025-03-05 14:19:59.970,-0.0091021781494308,-8.489786792865868
2025-03-05 14:19:59.977,-0.0087447315728919,-8.616080252143302
2025-03-05 14:19:59.985,-0.0083726839448876,-8.778655611287927
2025-03-05 14:19:59.993,-0.0079901646443337,-8.979275097728998
2025-03-05 14:20:00.001,-0.0076015228988947,-9.217387135781363
2025-03-05 14:20:00.009,-0.0072112018458434,-9.489882810948073
2025-03-05 14:20:00.016,-0.0068236162517822,-9.790942956762969
2025-03-05 14:20:00.024,-0.0064430352559387,-10.111989867996334
2025-03-05 14:20:00.032,-0.0060734717883811,-10.441753679662511
2025-03-05 14:20:00.040,-0.0057185807443464,-10.766458808400008
2025-03-05 14:20:00.048,-0.0053815683341903,-11.070130724760814
2025-03-05 14:20:00.056,-0.0050651150716989,-11.33501793571732
2025-03-05 14:20:00.063,-0.0047713145547141,-11.542118646300748
2025-03-05 14:20:00.071,-0.0045016297038648,-11.671796374144058
2025-03-05 14:20:00.079,-0.0042568677193927,-11.704464032281706
2025-03-05 14:20:00.087,-0.0040371747600886,-11.621311883285848
2025-03-05 14:20:00.095,-0.0038420510383359,-11.405051506901437
2025-03-05 14:20:00.102,-0.0036703864254592,-11.040645714785972
2025-03-05 14:20:00.110,-0.003520515739853,-10.51599337709424
2025-03-05 14:20:00.118,-0.0033902918042896,-9.82253855664806
2025-03-05 14:20:00.126,-0.0032771733324487,-8.955775292138242
2025-03-05 14:20:00.134,-0.0031783239403137,-7.9156228738429935
2025-03-05 14:20:00.141,-0.0030907181632553,-6.706651448988208
2025-03-05 14:20:00.149,-0.0030112502163639,-5.338144084769738
2025-03-05 14:20:00.157,-0.0029368412099004,-3.82398868042598
2025-03-05 14:20:00.165,-0.0028645405449019,-2.182400924666688
2025-03-05 14:20:00.173,-0.0027916173303271,-0.4354873486706456
2025-03-05 14:20:00.181,-0.0027156380231496,1.39133507172914
2025-03-05 14:20:00.188,-0.0026345271625976,3.270039812738762
2025-03-05 14:20:00.196,-0.0025466089576156,5.170784023517882
2025-03-05 14:20:00.204,-0.0024506284266572,7.062762211627863
2025-03-05 14:20:00.212,-0.0023457516916648,8.915086528584537
2025-03-05 14:20:00.220,-0.0022315459476769,10.697659490880984
2025-03-05 14:20:00.227,-0.0021079406908503,12.38200629405669
2025-03-05 14:20:00.235,-0.0019751730089631,13.94203665219488
2025-03-05 14:20:00.243,-0.0018337209113867,15.35471008654381
2025-03-05 14:20:00.251,-0.0016842294745116,16.600583515541786
2025-03-05 14:20:00.259,-0.0015274348089232,17.664225565301997
2025-03-05 14:20:00.266,-0.00136409056127,18.53448792560306
2025-03-05 14:20:00.274,-0.0011949010221312,19.204630037971004
2025-03-05 14:20:00.282,-0.0010204640966878,19.67229916381654
2025-03-05 14:20:00.290,-0.0008412265601861,19.93937322440507
2025-03-05 14:20:00.298,-0.0006574532837552,20.011678556771475
2025-03-05 14:20:00.306,-0.0004692115104391,19.898598759249538
2025-03-05 14:20:00.313,-0.0002763707368718,19.612594014669817
2025-03-05 14:20:00.321,-7.861825382368443e-05,19.168652621644977
2025-03-05 14:20:00.329,0.0001245101255179,18.58369791010676
2025-03-05 14:20:00.337,0.0003335852268325,17.875974268489045
2025-03-05 14:20:00.345,0.0005492273814249,17.064435688462883
2025-03-05 14:20:00.352,0.0007720396547497,16.16815907681834
2025-03-05 14:20:00.360,0.0010025349239134,15.205802650408373
2025-03-05 14:20:00.368,0.0012410609999201,14.19512710334116
2025-03-05 14:20:00.376,0.0014877285090238,13.15259402990177
2025-03-05 14:20:00.384,0.0017423465346823,12.093052439448504
2025-03-05 14:20:00.391,0.0020043710204365,11.029520260163144
2025-03-05 14:20:00.399,0.0022728705531279,9.973063648829406
2025-03-05 14:20:00.407,0.0025465133006332,8.932772851524827
2025-03-05 14:20:00.415,0.0028235775484763,7.915829433571306
2025-03-05 14:20:00.423,0.0031019865056615,6.927656042055565
2025-03-05 14:20:00.431,0.0033793659538025,5.972136596301953
2025-03-05 14:20:00.438,0.0036531212024329,5.051892032747159
2025-03-05 14:20:00.446,0.0039205281370302,4.168594572160874
2025-03-05 14:20:00.454,0.004178832217671,3.32330203547832
2025-03-05 14:20:00.462,0.0044253491199237,2.5167931004746125
2025-03-05 14:20:00.470,0.0046575611614055,1.7498846272809976
2025-03-05 14:20:00.477,0.0048732045699111,1.0237133071380322
2025-03-05 14:20:00.485,0.0050703438413664,0.3399658769430742
2025-03-05 14:20:00.493,0.0052474307106092,-0.2989550857588389
2025-03-05 14:20:00.501,0.0054033464724044,-0.889839333550448
2025-03-05 14:20:00.509,0.0055374274769541,-1.42865667084223
2025-03-05 14:20:00.516,0.0056494745505617,-1.910625499047082
2025-03-05 14:20:00.524,0.0057397478114776,-2.33035899115498
2025-03-05 14:20:00.532,0.0058089487879501,-2.6820813042005383
2025-03-05 14:20:00.540,0.0058581918625292,-2.959902150577109
2025-03-05 14:20:00.548,0.0058889669559537,-3.1581345160521805
2025-03-05 14:20:00.556,0.0059030952004497,-3.2716375644596214
2025-03-05 14:20:00.563,0.0059026792362015,-3.2961650032240626
2025-03-05 14:20:00.571,0.0058900496744286,-3.2286985410924185
2025-03-05 14:20:00.579,0.0058677091540996,-3.067746613554984
2025-03-05 14:20:00.587,0.005838275261163,-2.8135902560225747
2025-03-05 14:20:00.595,0.0058044233894685,-2.468460756528257
2025-03-05 14:20:00.602,0.0057688304154069,-2.0366373376124987
2025-03-05 14:20:00.610,0.0057341198458191,-1.5244573777047992
2025-03-05 14:20:00.618,0.0057028088905105,-0.940236339549084
2025-03-05 14:20:00.626,0.0056772577136023,-0.2940993699760962
2025-03-05 14:20:00.634,0.0056596209412223,0.4022687867354843
2025-03-05 14:20:00.641,0.0056518013850126,1.1359446084367049
2025-03-05 14:20:00.649,0.005655405985194,1.8931426756180116
2025-03-05 14:20:00.657,0.0056717043161543,2.659631011290921
2025-03-05 14:20:00.665,0.0057015906434974,3.42116529802086
2025-03-05 14:20:00.673,0.0057455512573451,4.163921471548298
2025-03-05 14:20:00.681,0.0058036393188516,4.874906388493438
2025-03-05 14:20:00.688,0.0058754595942023,5.542327564790218
2025-03-05 14:20:00.696,0.0059601652677002,6.1559052951588775
2025-03-05 14:20:00.704,0.006056468583407,6.707113642465912
2025-03-05 14:20:00.712,0.0061626663523128,7.189340631753192
2025-03-05 14:20:00.720,0.0062766804534721,7.597962267670006
2025-03-05 14:20:00.727,0.0063961125639149,7.93032946831849
2025-03-05 14:20:00.735,0.0065183116365,8.18567142012032
2025-03-05 14:20:00.743,0.0066404521094664,8.364922962914093
2025-03-05 14:20:00.751,0.0067596204417176,8.470487190361794
2025-03-05 14:20:00.759,0.0068729073670701,8.505947312335161
2025-03-05 14:20:00.766,0.0069775032827227,8.47574383819212
2025-03-05 14:20:00.774,0.0070707943429304,8.384834229771487
2025-03-05 14:20:00.782,0.0071504569579901,8.238352332044421
2025-03-05 14:20:00.790,0.0072145483886774,8.041284166188612
2025-03-05 14:20:00.798,0.0072615909436868,7.798175159389971
2025-03-05 14:20:00.806,0.0072906469415272,7.512881719610887
2025-03-05 14:20:00.813,0.0073013811184952,7.188377398804023
2025-03-05 14:20:00.821,0.0072941066267975,6.826620892306277
2025-03-05 14:20:00.829,0.0072698103550837,6.428489959609297
2025-03-05 14:20:00.837,0.0072301533117396,5.993782172044758
2025-03-05 14:20:00.845,0.0071774424872933,5.521280325330075
2025-03-05 14:20:00.852,0.0071145719545126,5.008877508443245
2025-03-05 14:20:00.860,0.007044932726309,4.453754288881546
2025-03-05 14:20:00.868,0.0069722928033917,3.852598340398859
2025-03-05 14:20:00.876,0.0069006507793469,3.201855171726224
2025-03-05 14:20:00.884,0.0068340682750621,2.497997464840525
2025-03-05 14:20:00.891,0.0067764882078947,1.737799931134169
2025-03-05 14:20:00.899,0.0067315472553602,0.9186065576248126
2025-03-05 14:20:00.907,0.0067023917229325,0.0385776407696876
2025-03-05 14:20:00.915,0.0066915063699183,-0.9030949284019908
2025-03-05 14:20:00.923,0.0067005655915837,-1.90601410061135
2025-03-05 14:20:00.931,0.0067303156145659,-2.968453805020602
2025-03-05 14:20:00.938,0.006780494928635,-4.087290428155672
2025-03-05 14:20:00.946,0.0068497981036967,-5.257992698353307
2025-03-05 14:20:00.954,0.0069358856922741,-6.47467033004207
2025-03-05 14:20:00.962,0.0070354403770771,-7.730179059446165
2025-03-05 14:20:00.970,0.0071442670200034,-9.016277086920494
2025-03-05 14:20:00.977,0.0072574318890373,-10.3238255530568
2025-03-05 14:20:00.985,0.0073694342908969,-11.643023635708827
2025-03-05 14:20:00.993,0.0074744023577386,-12.963667272682926
2025-03-05 14:20:01.001,0.0075663038874974,-14.275419480139057
2025-03-05 14:20:01.009,0.0076391628149107,-15.568079813597349
2025-03-05 14:20:01.016,0.0076872719944337,-16.83184073878545
2025-03-05 14:20:01.024,0.0077053934708031,-18.057519535378297
2025-03-05 14:20:01.032,0.0076889382781226,-19.2367557921088
2025-03-05 14:20:01.040,0.0076341190249832,-20.36216646450523
2025-03-05 14:20:01.048,0.0075380700409102,-21.427452723168305
2025-03-05 14:20:01.056,0.0073989315437923,-22.42745527710773
2025-03-05 14:20:01.063,0.0072158959617513,-23.3581573724775
2025-03-05 14:20:01.071,0.0069892160829374,-24.21663710825711
2025-03-05 14:20:01.079,0.0067201760683961,-25.00097295242357
2025-03-05 14:20:01.087,0.0064110275429469,-25.710108276764814
2025-03-05 14:20:01.095,0.0060648939861644,-26.34368227338136
2025-03-05 14:20:01.102,0.0056856474947167,-26.901835722835493
2025-03-05 14:20:01.110,0.0052777626965161,-27.385000745351547
2025-03-05 14:20:01.118,0.0048461531857691,-27.79368391847781
2025-03-05 14:20:01.126,0.004395996334891,-28.12825205990664
2025-03-05 14:20:01.134,0.0039325527409106,-28.388729644694944
2025-03-05 14:20:01.142,0.0034609868878532,-28.57461634068048
2025-03-05 14:20:01.149,0.0029861958232112,-28.68473256925499
2025-03-05 14:20:01.157,0.0025126526529284,-28.71710035780279
2025-03-05 14:20:01.165,0.0020442713093757,-28.668866030567205
2025-03-05 14:20:01.173,0.0015842982702556,-28.536270437574032
2025-03-05 14:20:01.181,0.0011352357600904,-28.31467137689046
2025-03-05 14:20:01.188,0.0006987995251561,-27.998621549593175
2025-03-05 14:20:01.196,0.0002759125594639,-27.5820037376619
2025-03-05 14:20:01.204,-0.0001332657550752,-27.058222881458263
2025-03-05 14:20:01.212,-0.0005292775739525,-26.42045236956189
2025-03-05 14:20:01.220,-0.0009132758748209,-25.661929205716657
2025-03-05 14:20:01.227,-0.0012869109722523,-24.77628990156896
2025-03-05 14:20:01.235,-0.001652201289158,-23.75793611731705
2025-03-05 14:20:01.243,-0.0020113959025326,-22.602416424739253
2025-03-05 14:20:01.251,-0.0023668361019272,-21.30680831043903
2025-03-05 14:20:01.259,-0.0027208223270433,-19.87008289443047
2025-03-05 14:20:01.267,-0.0030754917583902,-18.293434024474664
2025-03-05 14:20:01.274,-0.0034327108333026,-16.58055359828705
2025-03-05 14:20:01.282,-0.0037939861260777,-14.737836279491477
2025-03-05 14:20:01.290,-0.0041603962815275,-12.774499239211952
2025-03-05 14:20:01.298,-0.0045325469454453,-10.702606100090248
2025-03-05 14:20:01.306,-0.0049105498740133,-8.53698869709401
2025-03-05 14:20:01.313,-0.0052940266381915,-6.295065309374804
2025-03-05 14:20:01.321,-0.0056821365836903,-3.9965592939874215
2025-03-05 14:20:01.329,-0.0060736279761561,-1.6631271673000128
2025-03-05 14:20:01.337,-0.0064669105676346,0.68209024961094
2025-03-05 14:20:01.345,-0.0068601471765258,3.0149763030401484
2025-03-05 14:20:01.352,-0.0072513612910179,5.310986673968079
2025-03-05 14:20:01.360,-0.0076385571971057,7.545715931047453
2025-03-05 14:20:01.368,-0.0080198487084183,9.695460993071714
2025-03-05 14:20:01.376,-0.0083935922477843,11.737760987319271
2025-03-05 14:20:01.384,-0.0087585198057966,13.651894924500256
2025-03-05 14:20:01.392,-0.0091138671585454,15.41932132325364
2025-03-05 14:20:01.399,-0.0094594926072255,17.02404719749641
2025-03-05 14:20:01.407,-0.009795981378159,18.452917454159092
2025-03-05 14:20:01.415,-0.0101247307809121,19.695819524967003
2025-03-05 14:20:01.423,-0.0104480113953804,20.745801770854523
2025-03-05 14:20:01.431,-0.0107689999313562,21.59910766575597
2025-03-05 14:20:01.438,-0.0110917798268757,22.25513082838112
2025-03-05 14:20:01.446,-0.0114213060870371,22.716298498239784
2025-03-05 14:20:01.454,-0.011763331473597,22.987892953068386
2025-03-05 14:20:01.462,-0.0121242920475287,23.077821586913014
2025-03-05 14:20:01.470,-0.0125111511081328,22.99634690652622
2025-03-05 14:20:01.477,-0.0129312015508524,22.755787604671447
2025-03-05 14:20:01.485,-0.0133918275285896,22.370201226363744
2025-03-05 14:20:01.493,-0.0139002271393413,21.855057887170407
2025-03-05 14:20:01.501,-0.0144630987895169,21.22691317834777
2025-03-05 14:20:01.509,-0.0150862950379498,20.50308695010931
2025-03-05 14:20:01.517,-0.0157744493204843,19.701353238323318
2025-03-05 14:20:01.524,-0.0165305831687339,18.839645304937687
2025-03-05 14:20:01.532,-0.017355704360484,17.93577867820421
2025-03-05 14:20:01.540,-0.0182484096492643,17.007194243441756
2025-03-05 14:20:01.548,-0.0192045089609902,16.07072284349361
2025-03-05 14:20:01.556,-0.0202166908120346,15.142372458447245
2025-03-05 14:20:01.563,-0.0212742508179755,14.237138781887907
2025-03-05 14:20:01.571,-0.022362906216684,13.368839825884224
2025-03-05 14:20:01.579,-0.0234647190537937,12.549975010871355
2025-03-05 14:20:01.587,-0.0245581488392027,11.79160899549205
2025-03-05 14:20:01.595,-0.0256182519857396,11.103280268743251
2025-03-05 14:20:01.602,-0.026617040307873,10.492934277051502
2025-03-05 14:20:01.610,-0.0275240045535786,9.966880615517285
2025-03-05 14:20:01.618,-0.0283068016494549,9.529773597420643
2025-03-05 14:20:01.626,-0.0289320963285215,9.18461534510516
2025-03-05 14:20:01.634,-0.029366539373235,8.932780425803841
2025-03-05 14:20:01.642,-0.0295778561772134,8.774060982773507
2025-03-05 14:20:01.649,-0.0295360110831737,8.706731267963029
2025-03-05 14:20:01.657,-0.0292144054041477,8.727630445630783
2025-03-05 14:20:01.665,-0.0285910606504238,8.832262491065388
2025-03-05 14:20:01.673,-0.0276497338430006,9.014911948903467
2025-03-05 14:20:01.681,-0.0263809095691049,9.26877424036562
2025-03-05 14:20:01.688,-0.0247826142243831,9.58609911404518
2025-03-05 14:20:01.696,-0.0228610019870292,9.95834571152708
2025-03-05 14:20:01.704,-0.0206306694287068,10.376347557384245
2025-03-05 14:20:01.712,-0.0181146659951514,10.830485578199282
2025-03-05 14:20:01.720,-0.0153441804334474,11.310867009122758
2025-03-05 14:20:01.727,-0.0123578980210182,11.807507767742631
2025-03-05 14:20:01.735,-0.0092010395779454,12.310515579941168
2025-03-05 14:20:01.743,-0.0059241103259077,12.81027085553005
2025-03-05 14:20:01.751,-0.0025814044645658,13.297602062777724
2025-03-05 14:20:01.759,0.0007706708626031,13.763952168821463
2025-03-05 14:20:01.767,0.0040753730517422,14.201532618159254
2025-03-05 14:20:01.774,0.0072774143965036,14.60346132775076
2025-03-05 14:20:01.782,0.0103246763512929,14.963881296393366
2025-03-05 14:20:01.790,0.0131697672013964,15.278056669558175
2025-03-05 14:20:01.798,0.0157713571658965,15.54244347670037
2025-03-05 14:20:01.806,0.0180952423320689,15.754732763961258
2025-03-05 14:20:01.813,0.0201151068032255,15.913864464675587
2025-03-05 14:20:01.821,0.0218129696475849,16.020011055653363
2025-03-05 14:20:01.829,0.0231793187360057,16.074530809027596
2025-03-05 14:20:01.837,0.0242129468672262,16.07989124155233
2025-03-05 14:20:01.845,0.0249205166474407,16.03956416164538
2025-03-05 14:20:01.852,0.0253158894649768,15.95789449166331
2025-03-05 14:20:01.860,0.0254192604412447,15.839945764754988
2025-03-05 14:20:01.868,0.0252561452679481,15.691325822483032
2025-03-05 14:20:01.876,0.0248562664540975,15.517996730081483
2025-03-05 14:20:01.884,0.0242523860738132,15.326073247229706
2025-03-05 14:20:01.892,0.0234791300176497,15.12161433194606
2025-03-05 14:20:01.899,0.0225718452746034,14.91041213613154
2025-03-05 14:20:01.907,0.0215655270853807,14.697782831650336
2025-03-05 14:20:01.915,0.0204938470777133,14.48836346875989
2025-03-05 14:20:01.923,0.019388306982555,14.285919002062446
2025-03-05 14:20:01.931,0.0182775356361017,14.093163689989034
2025-03-05 14:20:01.938,0.0171867401436634,13.911601304774008
2025-03-05 14:20:01.946,0.0161373156749326,13.741388947443692
2025-03-05 14:20:01.954,0.0151466125818537,13.581229660880329
2025-03-05 14:20:01.962,0.0142278544319506,13.428299351155683
2025-03-05 14:20:01.970,0.0133901960872594,13.278213626180015
2025-03-05 14:20:01.977,0.0126389071226918,13.125039915257055
2025-03-05 14:20:01.985,0.0119756627748917,12.961359550356518
2025-03-05 14:20:01.993,0.0113989223932991,12.778383322849276
2025-03-05 14:20:02.001,0.0109043741028891,12.566122380602426
2025-03-05 14:20:02.009,0.010485424055112,12.3136142486144
2025-03-05 14:20:02.017,0.0101337091530542,12.009201331129098
2025-03-05 14:20:02.024,0.0098396133759416,11.64085660921986
2025-03-05 14:20:02.032,0.0095927696699828,11.19654854414009
2025-03-05 14:20:02.040,0.0093825316826036,10.66463462536254
2025-03-05 14:20:02.048,0.0091984022588482,10.034270778139913
2025-03-05 14:20:02.056,0.0090304084588861,9.295822180977469
2025-03-05 14:20:02.063,0.0088694157686862,8.441260114145582
2025-03-05 14:20:02.071,0.0087073770479515,7.46452937566221
2025-03-05 14:20:02.079,0.008537514490507,6.361871587614063
2025-03-05 14:20:02.087,0.0083544353788656,5.132091313576236
2025-03-05 14:20:02.095,0.0081541846303293,3.7767541804300233
2025-03-05 14:20:02.102,0.007934239008079,2.300308952102712
2025-03-05 14:20:02.110,0.0076934493759792,0.7101285199316452
2025-03-05 14:20:02.118,0.0074319384954231,-0.983532156218759
2025-03-05 14:20:02.126,0.00715096259664,-2.767660175797161
2025-03-05 14:20:02.134,0.0068527453188746,-4.626687218444207
2025-03-05 14:20:02.142,0.0065402926283059,-6.54276441569402
2025-03-05 14:20:02.149,0.0062171970230419,-8.496101531506804
2025-03-05 14:20:02.157,0.0058874387666234,-10.465360783600293
2025-03-05 14:20:02.165,0.0055551911319179,-12.428094377799182
2025-03-05 14:20:02.173,0.0052246358012451,-14.361213924890883
2025-03-05 14:20:02.181,0.0048997937406364,-16.241479356242536
2025-03-05 14:20:02.188,0.0045843760112796,-18.04599474039207
2025-03-05 14:20:02.196,0.0042816580108978,-19.752698508879444
2025-03-05 14:20:02.204,0.003994379574925,-21.34083599621579
2025-03-05 14:20:02.212,0.0037246723298342,-22.79140285048279
2025-03-05 14:20:02.220,0.0034740147271049,-24.087548742640724
2025-03-05 14:20:02.227,0.0032432142629648,-25.21493186466405
2025-03-05 14:20:02.235,0.0030324154958637,-26.16201593674715
2025-03-05 14:20:02.243,0.0028411316245788,-26.92030282599628
2025-03-05 14:20:02.251,0.0026682966182164,-27.484495400520668
2025-03-05 14:20:02.259,0.002512334306566,-27.8525868892932
2025-03-05 14:20:02.267,0.0023712405668806,-28.025874767559948
2025-03-05 14:20:02.274,0.0022426747642138,-28.00889900700723
2025-03-05 14:20:02.282,0.0021240567787062,-27.809306379466285
2025-03-05 14:20:02.290,0.0020126661599161,-27.437644344399946
2025-03-05 14:20:02.298,0.0019057401329874,-26.90708985104884
2025-03-05 14:20:02.306,0.0018005673555821,-26.233120113137943
2025-03-05 14:20:02.313,0.0016945745522613,-25.433134024836864
2025-03-05 14:20:02.321,0.0015854035058777,-24.526034323072803
2025-03-05 14:20:02.329,0.0014709763803221,-23.53178179117292
2025-03-05 14:20:02.337,0.0013495479414999,-22.47093366272067
2025-03-05 14:20:02.345,0.0012197438513564,-21.364178845468828
2025-03-05 14:20:02.352,0.00108058474764,-20.23188258211094
2025-03-05 14:20:02.360,0.0009314962791189,-19.09365266859627
2025-03-05 14:20:02.368,0.0007723057167136,-17.96793837669187
2025-03-05 14:20:02.376,0.0006032262491238,-16.871671836596082
2025-03-05 14:20:02.384,0.0004248305430775,-15.819959923202353
2025-03-05 14:20:02.392,0.0002380155015612,-14.825832768325826
2025-03-05 14:20:02.399,4.396029052299448e-05,-13.900053003119403
2025-03-05 14:20:02.407,-0.0001559204112345,-13.050987822137458
2025-03-05 14:20:02.415,-0.0003600262579084,-12.28454403985545
2025-03-05 14:20:02.423,-0.0005666227542462,-11.604164549571305
2025-03-05 14:20:02.431,-0.0007738931642887,-11.01088303857816
2025-03-05 14:20:02.438,-0.0009799895886517,-10.503432485540785
2025-03-05 14:20:02.446,-0.0011830820199541,-10.078401875004792
2025-03-05 14:20:02.454,-0.001381404218443,-9.730434713872532
2025-03-05 14:20:02.462,-0.0015732952890339,-9.452462327726844
2025-03-05 14:20:02.470,-0.0017572359168238,-9.235964547439256
2025-03-05 14:20:02.477,-0.0019318783988986,-9.071250254418878
2025-03-05 14:20:02.485,-0.0020960699352514,-8.947750311171504
2025-03-05 14:20:02.493,-0.0022488690283348,-8.85431563021548
2025-03-05 14:20:02.501,-0.0023895551307217,-8.77951349625247
2025-03-05 14:20:02.509,-0.002517631795328,-8.711915730374308
2025-03-05 14:20:02.517,-0.0026328235757573,-8.640372860990835
2025-03-05 14:20:02.524,-0.0027350669079036,-8.554269140267218
2025-03-05 14:20:02.532,-0.0028244952912396,-8.44375400558716
2025-03-05 14:20:02.540,-0.0029014193350051,-8.299946405252124
2025-03-05 14:20:02.548,-0.0029663025669355,-8.11510924578451
2025-03-05 14:20:02.556,-0.0030197341676107,-7.88279203139583
2025-03-05 14:20:02.563,-0.0030623999165688,-7.597940518197527
2025-03-05 14:20:02.571,-0.0030950526644115,-7.256972875315387
2025-03-05 14:20:02.579,-0.0031184836551758,-6.857822428942799
2025-03-05 14:20:02.587,-0.003133496048793,-6.399947575238529
2025-03-05 14:20:02.595,-0.0031408820070497,-5.8843099042789895
2025-03-05 14:20:02.602,-0.0031414046100237,-5.313322003176244
2025-03-05 14:20:02.610,-0.0031357855522536,-4.690766822377626
2025-03-05 14:20:02.618,-0.0031246990377969,-4.021690906979945
2025-03-05 14:20:02.626,-0.0031087716903585,-3.3122742134821994
2025-03-05 14:20:02.634,-0.003088587722895,-2.5696796372401525
2025-03-05 14:20:02.642,-0.0030646980816422,-1.8018857438003677
2025-03-05 14:20:02.649,-0.0030376318500109,-1.017506503114724
2025-03-05 14:20:02.657,-0.0030079080079043,-0.22560204711891
2025-03-05 14:20:02.665,-0.0029760457633518,0.5645154082005459
2025-03-05 14:20:02.673,-0.0029425720262943,1.343476324301857
2025-03-05 14:20:02.681,-0.0029080250208899,2.1020452331879813
2025-03-05 14:20:02.688,-0.0028729534098659,2.8313049146928777
2025-03-05 14:20:02.696,-0.0028379106133309,3.522829806869237
2025-03-05 14:20:02.704,-0.0028034443093554,4.168845468265054
2025-03-05 14:20:02.712,-0.0027700814686962,4.762371332734577
2025-03-05 14:20:02.720,-0.0027383097197143,5.297344449410579
2025-03-05 14:20:02.727,-0.002708556344212,5.768722363325728
2025-03-05 14:20:02.735,-0.0026811667120513,6.172563752542308
2025-03-05 14:20:02.743,-0.0026563843424307,6.506085890100064
2025-03-05 14:20:02.751,-0.0026343348636843,6.767698442773619
2025-03-05 14:20:02.759,-0.0026150158478485,6.957013549800017
2025-03-05 14:20:02.767,-0.0025982939011755,7.0748325333459805
2025-03-05 14:20:02.774,-0.0025839096631731,7.123109966174026
2025-03-05 14:20:02.782,-0.0025714906320286,7.104896152304821
2025-03-05 14:20:02.790,-0.0025605710510288,7.024259362610406
2025-03-05 14:20:02.798,-0.0025506174876865,6.886189416054565
2025-03-05 14:20:02.806,-0.0025410582625627,6.696484420765966
2025-03-05 14:20:02.813,-0.0025313146196306,6.461622701566393
2025-03-05 14:20:02.821,-0.0025208315275563,6.188622156388244
2025-03-05 14:20:02.829,-0.0025091062145978,5.884889515305008
2025-03-05 14:20:02.837,-0.0024957128776935,5.558062228582844
2025-03-05 14:20:02.845,-0.0024803224223741,5.215845980355367
2025-03-05 14:20:02.852,-0.0024627165363961,4.865851098719861
2025-03-05 14:20:02.860,-0.0024427957801047,4.515431392396609
2025-03-05 14:20:02.868,-0.00242058163519,4.171529167202992
2025-03-05 14:20:02.876,-0.0023962126319407,3.8405303355973657
2025-03-05 14:20:02.884,-0.0023699348395183,3.528133592508345
2025-03-05 14:20:02.892,-0.0023420871834341,3.2392375451414277
2025-03-05 14:20:02.899,-0.0023130822510039,2.977849409770714
2025-03-05 14:20:02.907,-0.0022833834543891,2.747018397202674
2025-03-05 14:20:02.915,-0.002253479630807,2.5487961992980903
2025-03-05 14:20:02.923,-0.0022238583319065,2.384226086578141
2025-03-05 14:20:02.931,-0.0021949791134942,2.253361076922664
2025-03-05 14:20:02.938,-0.0021672480374081,2.1553104991059717
2025-03-05 14:20:02.946,-0.0021409944118882,2.0883131272581545
2025-03-05 14:20:02.954,-0.0021164506484731,2.0498339854947822
2025-03-05 14:20:02.962,-0.0020937360104106,2.036680993799813
2025-03-05 14:20:02.970,-0.0020728448841682,2.045136908103645
2025-03-05 14:20:02.977,-0.0020536400283752,2.0711015372009727
2025-03-05 14:20:02.985,-0.002035851158015,2.110239009833156
2025-03-05 14:20:02.993,-0.0020190792365338,2.1581249075496927
2025-03-05 14:20:03.001,-0.0020028068237302,2.210388346324996
2025-03-05 14:20:03.009,-0.0019864145758338,2.262844548159543
2025-03-05 14:20:03.017,-0.0019692035205814,2.3116140610575986
2025-03-05 14:20:03.024,-0.0019504222626519,2.353225533750033
2025-03-05 14:20:03.032,-0.0019292980154185,2.38469979843523
2025-03-05 14:20:03.040,-0.001905070240821,2.4036139172609494
2025-03-05 14:20:03.048,-0.0018770254873196,2.4081447509224043
2025-03-05 14:20:03.056,-0.0018445316835339,2.397092449370426
2025-03-05 14:20:03.063,-0.0018070698740292,2.36988498785242
2025-03-05 14:20:03.071,-0.0017642614070184,2.326565433652681
2025-03-05 14:20:03.079,-0.0017158889316338,2.267764009334692
2025-03-05 14:20:03.087,-0.001661910082147,2.1946572191411304
2025-03-05 14:20:03.095,-0.0016024632330524,2.1089163468192003
2025-03-05 14:20:03.102,-0.0015378651100099,2.0126475487101425
2025-03-05 14:20:03.110,-0.001468600394623,1.9083255972496125
2025-03-05 14:20:03.118,-0.0013953038790331,1.7987231223169562
2025-03-05 14:20:03.126,-0.0013187362016994,1.6868369918120214
2025-03-05 14:20:03.134,-0.0012397545999718,1.5758132950815296
2025-03-05 14:20:03.142,-0.0011592803697639,1.468872250380332
2025-03-05 14:20:03.149,-0.0010782648612642,1.3692342403423146
2025-03-05 14:20:03.157,-0.0009976558987108,1.2800480698276335
2025-03-05 14:20:03.165,-0.0009183664492469,1.2043224240342776
2025-03-05 14:20:03.173,-0.0008412471144319,1.144861376384802
2025-03-05 14:20:03.181,-0.0007670635871765,1.1042046603511266
2025-03-05 14:20:03.188,-0.0006964796963481,1.0845732887442563
2025-03-05 14:20:03.196,-0.0006300461428861,1.0878209931267435
2025-03-05 14:20:03.204,-0.0005681945681384,1.1153918808842602
2025-03-05 14:20:03.212,-0.0005112362375436,1.1682846803008358
2025-03-05 14:20:03.220,-0.0004593644486507,1.2470239658489126
2025-03-05 14:20:03.227,-0.0004126598255146,1.351638814505621
2025-03-05 14:20:03.235,-0.0003710978585454,1.4816494199212773
2025-03-05 14:20:03.243,-0.000334558226155,1.636062265718598
2025-03-05 14:20:03.251,-0.0003028355043948,1.8133745130718883
2025-03-05 14:20:03.259,-0.0002756508681157,2.0115882672047283
2025-03-05 14:20:03.267,-0.000252664376928,2.2282353234739483
2025-03-05 14:20:03.274,-0.0002334874494187,2.460412828020221
2025-03-05 14:20:03.282,-0.0002176951605272,2.7048300033388197
2025-03-05 14:20:03.290,-0.0002048380447661,2.957865689725576
2025-03-05 14:20:03.298,-0.0001944531470465,3.215635968991346
2025-03-05 14:20:03.306,-0.0001860741282392,3.474070615872565
2025-03-05 14:20:03.313,-0.0001792402995754,3.728996620668672
2025-03-05 14:20:03.321,-0.000173504524292,3.976226594656377
2025-03-05 14:20:03.329,-0.000168439982895,4.211649545823004
2025-03-05 14:20:03.337,-0.0001636458470832,4.431321315974203
2025-03-05 14:20:03.345,-0.0001587519445621,4.631551902461308
2025-03-05 14:20:03.352,-0.0001534225213459,4.808986940073285
2025-03-05 14:20:03.360,-0.0001473592191956,4.960680782894004
2025-03-05 14:20:03.368,-0.0001403033839203,5.084158896509894
2025-03-05 14:20:03.376,-0.0001320378064986,5.17746764003622
2025-03-05 14:20:03.384,-0.0001223879752211,5.239209971520159
2025-03-05 14:20:03.392,-0.0001112228857645,5.268566131182992
2025-03-05 14:20:03.399,-9.845542026958712e-05,5.265298923345402
2025-03-05 14:20:03.407,-8.404226943619954e-05,5.229743804175815
2025-03-05 14:20:03.415,-6.798333693750516e-05,5.162784557797476
2025-03-05 14:20:03.423,-5.032053669832864e-05,5.0658158746040085
2025-03-05 14:20:03.431,-3.1135874315455375e-05,4.94069460276364
2025-03-05 14:20:03.438,-1.0548697366101424e-05,4.7896818038340205
2025-03-05 14:20:03.446,1.1287991594530167e-05,4.615377991502942
2025-03-05 14:20:03.454,3.4192238628559e-05,4.420654062009128
2025-03-05 14:20:03.462,5.79588915208356e-05,4.208580435996748
2025-03-05 14:20:03.470,8.23663687229365e-05,3.982356829961143
2025-03-05 14:20:03.478,0.0001071843237727,3.7452448695991913
2025-03-05 14:20:03.485,0.0001321819791151,3.500505457055461
2025-03-05 14:20:03.493,0.0001571367805929,3.2513424215155435
2025-03-05 14:20:03.501,0.0001818428873528,3.0008535361025794
2025-03-05 14:20:03.509,0.0002061188709076,2.7519894984887663
2025-03-05 14:20:03.517,0.0002298138885114,2.507520975527571
2025-03-05 14:20:03.524,0.0002528115988902,2.270013330537548
2025-03-05 14:20:03.532,0.0002750312779426,2.041808215259292
2025-03-05 14:20:03.540,0.0002964259561436,1.825010853957364
2025-03-05 14:20:03.548,0.0003169778228164,1.621481615570948
2025-03-05 14:20:03.556,0.0003366914917027,1.432830393640184
2025-03-05 14:20:03.563,0.0003555859472208,1.26041240514655
2025-03-05 14:20:03.571,0.0003736861210794,1.1053242670073915
2025-03-05 14:20:03.579,0.0003910150799252,0.9683995809753744
2025-03-05 14:20:03.587,0.0004075876655394,0.8502037066933845
2025-03-05 14:20:03.595,0.0004234061194566,0.751027871506307
2025-03-05 14:20:03.603,0.0004384579052854,0.6708831974711827
2025-03-05 14:20:03.610,0.0004527158081777,0.6094955759698449
2025-03-05 14:20:03.618,0.000466140445622,0.5663025613890005
2025-03-05 14:20:03.626,0.0004786853432647,0.540453575263661
2025-03-05 14:20:03.634,0.0004903044914284,0.530814706486471
2025-03-05 14:20:03.642,0.0005009618155169,0.5359792602943536
2025-03-05 14:20:03.649,0.0005106415042013,0.5542849527907313
2025-03-05 14:20:03.657,0.0005193579135941,0.5838382849332285
2025-03-05 14:20:03.665,0.0005271639246432,0.6225461929981956
2025-03-05 14:20:03.673,0.0005341570933904,0.6681546080390863
2025-03-05 14:20:03.681,0.0005404834941185,0.7182931157920148
2025-03-05 14:20:03.688,0.0005463395779037,0.770524535689578
2025-03-05 14:20:03.696,0.0005519724556195,0.8223979650193644
2025-03-05 14:20:03.704,0.0005576787195846,0.871503679168626
2025-03-05 14:20:03.712,0.0005638014366098,0.9155282440185124
2025-03-05 14:20:03.720,0.0005707245972391,0.9523082688944108
2025-03-05 14:20:03.728,0.0005788642882307,0.979881380583311
2025-03-05 14:20:03.735,0.0005886561315317,0.9965331950352329
2025-03-05 14:20:03.743,0.0006005389480322,1.000839268337819
2025-03-05 14:20:03.751,0.0006149350350286,0.9917011953369992
2025-03-05 14:20:03.759,0.000632227838196,0.9683761769091416
2025-03-05 14:20:03.767,0.0006527381307582,0.9304994885844524
2025-03-05 14:20:03.774,0.0006767000702149,0.8780993524886231
2025-03-05 14:20:03.782,0.0007042386741877,0.8116037439412744
2025-03-05 14:20:03.790,0.0007353503317927,0.7318386625837132
2025-03-05 14:20:03.798,0.0007698879382127,0.6400173839524357
2025-03-05 14:20:03.806,0.000807552103633,0.5377202083756392
2025-03-05 14:20:03.813,0.0008478896424762,0.4268642730618766
2025-03-05 14:20:03.821,0.0008903001974881,0.3096631231999293
2025-03-05 14:20:03.829,0.0009340514019217,0.1885759736728643
2025-03-05 14:20:03.837,0.0009783024417984,0.0662469437518235
2025-03-05 14:20:03.845,0.0010221352627391,-0.0545649979280288
2025-03-05 14:20:03.853,0.0010645919948986,-0.1710641109150162
2025-03-05 14:20:03.860,0.0011047165032758,-0.2805021518476428
2025-03-05 14:20:03.868,0.001141597438404,-0.3802664496350523
2025-03-05 14:20:03.876,0.0011744099330142,-0.4679688998395124
2025-03-05 14:20:03.884,0.0012024532477322,-0.5415325809453404
2025-03-05 14:20:03.892,0.0012251821340756,-0.5992724185678434
2025-03-05 14:20:03.899,0.0012422302917732,-0.6399662261949637
2025-03-05 14:20:03.907,0.00125342492475,-0.6629125749869506
2025-03-05 14:20:03.915,0.0012587919915927,-0.6679723153360244
2025-03-05 14:20:03.923,0.0012585522821921,-0.6555911847973889
2025-03-05 14:20:03.931,0.0012531089209961,-0.6268017541205937
2025-03-05 14:20:03.938,0.0012430272900857,-0.5832039229269806
2025-03-05 14:20:03.946,0.0012290086759767,-0.5269242009470398
2025-03-05 14:20:03.954,0.0012118591690302,-0.4605550181280089
2025-03-05 14:20:03.962,0.0011924554823127,-0.387076224699844
2025-03-05 14:20:03.970,0.0011717094085059,-0.309761715271578
2025-03-05 14:20:03.978,0.0011505326016791,-0.2320747051020077
2025-03-05 14:20:03.985,0.0011298032597755,-0.1575555897082574
2025-03-05 14:20:03.993,0.0011103360992809,-0.089706538551826
2025-03-05 14:20:04.001,0.0010928567627999,-0.031877028572887
2025-03-05 14:20:04.009,0.0010779814912689,0.01284556694859
2025-03-05 14:20:04.017,0.0010662025343681,0.0417364402483699
2025-03-05 14:20:04.024,0.0010578793752287,0.0525213110443083
2025-03-05 14:20:04.032,0.0010532354247648,0.0434487969829893
2025-03-05 14:20:04.040,0.0010523594454403,0.0133446703663266
2025-03-05 14:20:04.048,0.0010552107111358,-0.0383538486944327
2025-03-05 14:20:04.056,0.0010616269481019,-0.1115848490006213
2025-03-05 14:20:04.063,0.0010713344623132,-0.2056697832455875
2025-03-05 14:20:04.071,0.0010839603444704,-0.3193421839991539
2025-03-05 14:20:04.079,0.0010990469631858,-0.4507955134268128
2025-03-05 14:20:04.087,0.0011160689797088,-0.597747786075391
2025-03-05 14:20:04.095,0.0011344529191693,-0.7575198970782289
2025-03-05 14:20:04.103,0.0011535989926753,-0.9271240711669668
2025-03-05 14:20:04.110,0.0011729043862843,-1.1033585649704931
2025-03-05 14:20:04.118,0.0011917867026781,-1.282904723855761
2025-03-05 14:20:04.126,0.001209705876869,-1.4624227042677396
2025-03-05 14:20:04.134,0.0012261828470403,-1.6386425851950468
2025-03-05 14:20:04.142,0.001240813505037,-1.808448149175441
2025-03-05 14:20:04.149,0.0012532768311039,-1.968951246237279
2025-03-05 14:20:04.157,0.0012633365474622,-2.1175552987871686
2025-03-05 14:20:04.165,0.0012708361248656,-2.252007108685356
2025-03-05 14:20:04.173,0.0012756875683759,-2.370436652209444
2025-03-05 14:20:04.181,0.0012778550003202,-2.471384975247198
2025-03-05 14:20:04.188,0.0012773344870781,-2.553820630401752
2025-03-05 14:20:04.196,0.0012741317673792,-2.6171453463935137
2025-03-05 14:20:04.204,0.0012682396420198,-2.661189811574989
2025-03-05 14:20:04.212,0.0012596168906449,-2.686200606273516
2025-03-05 14:20:04.220,0.0012481706460711,-2.6928194409035804
2025-03-05 14:20:04.228,0.0012337440347459,-2.6820559467593044
2025-03-05 14:20:04.235,0.0012161105136522,-2.655255317212187
2025-03-05 14:20:04.243,0.0011949757567868,-2.6140620983472656
2025-03-05 14:20:04.251,0.0011699872598587,-2.5603813676716816
2025-03-05 14:20:04.259,0.0011407511034034,-2.4963384091803262
2025-03-05 14:20:04.267,0.0011068546126853,-2.42423779681882
2025-03-05 14:20:04.274,0.0010678931066632,-2.3465225560638885
2025-03-05 14:20:04.282,0.0010234986725844,-2.265733814021903
2025-03-05 14:20:04.290,0.0009733689224205,-2.1844710978272954
2025-03-05 14:20:04.298,0.000917293797006,-2.1053532138196798
2025-03-05 14:20:04.306,0.0008551785657232,-2.0309794435579853
2025-03-05 14:20:04.313,0.0007870613394535,-1.963890638027416
2025-03-05 14:20:04.321,0.0007131238285944,-1.9065296986977809
2025-03-05 14:20:04.329,0.0006336946801208,-1.861200930636592
2025-03-05 14:20:04.337,0.0005492453156701,-1.83002786384654
2025-03-05 14:20:04.345,0.0004603786562955,-1.8149093764695363
2025-03-05 14:20:04.353,0.0003678115144318,-1.817474307477744
2025-03-05 14:20:04.360,0.000272351860492,-1.839035180907619
2025-03-05 14:20:04.368,0.0001748726216159,-1.8805421203254984
2025-03-05 14:20:04.376,7.6283987681035e-05,-1.942538444510904
2025-03-05 14:20:04.384,-2.249377268961353e-05,-2.02511974907727
2025-03-05 14:20:04.392,-0.0001205552432506,-2.127898467121511
2025-03-05 14:20:04.399,-0.00021703121285,-2.249975965121055
2025-03-05 14:20:04.407,-0.0003111055805833,-2.3899241823017188
2025-03-05 14:20:04.415,-0.0004020273856627,-2.545778676970044
2025-03-05 14:20:04.423,-0.0004891179408378,-2.7150447096511874
2025-03-05 14:20:04.431,-0.0005717734077669,-2.894717672116136
2025-03-05 14:20:04.438,-0.0006494634557909,-3.0813187640173165
2025-03-05 14:20:04.446,-0.0007217268852805,-3.2709463296156644
2025-03-05 14:20:04.454,-0.0007881652690558,-3.4593427092580047
2025-03-05 14:20:04.462,-0.0008484357689228,-3.64197585645725
2025-03-05 14:20:04.470,-0.0009022443203332,-3.814134350519231
2025-03-05 14:20:04.478,-0.0009493403447715,-3.971033828189237
2025-03-05 14:20:04.485,-0.0009895140205409,-4.107932298121122
2025-03-05 14:20:04.493,-0.0010225968578339,-4.220251320069345
2025-03-05 14:20:04.501,-0.0010484658557647,-4.3036996509744405
2025-03-05 14:20:04.509,-0.0010670509649291,-4.354395695304056
2025-03-05 14:20:04.517,-0.001078345115131,-4.368984949306921
2025-03-05 14:20:04.524,-0.0010824157918506,-4.344748597495598
2025-03-05 14:20:04.532,-0.001079417029529,-4.279699508272765
2025-03-05 14:20:04.540,-0.0010696006748891,-4.172662092427345
2025-03-05 14:20:04.548,-0.0010533258335865,-4.023332839855757
2025-03-05 14:20:04.556,-0.0010310655471954,-3.832318833765552
2025-03-05 14:20:04.563,-0.0010034099511414,-3.601152143519529
2025-03-05 14:20:04.571,-0.0009710654046918,-3.3322786946058374
2025-03-05 14:20:04.579,-0.0009348492895866,-3.029020980820701
2025-03-05 14:20:04.587,-0.0008956802951831,-2.695514791368991
2025-03-05 14:20:04.595,-0.000854564090151,-2.3366209440588905
2025-03-05 14:20:04.603,-0.0008125744074576,-1.9578138169759172
2025-03-05 14:20:04.610,-0.0007708297682169,-1.5650492355962504
2025-03-05 14:20:04.618,-0.0007304663380125,-1.1646149918026925
2025-03-05 14:20:04.626,-0.0006926077451802,-0.7629679421905803
2025-03-05 14:20:04.634,-0.0006583330460355,-0.3665622470293553
2025-03-05 14:20:04.642,-0.0006286443037888,0.0183261517171747
2025-03-05 14:20:04.649,-0.0006044353745355,0.3857732871680702
2025-03-05 14:20:04.657,-0.0005864634258102,0.7303733550434852
2025-03-05 14:20:04.665,-0.0005753244762503,1.0473914422969843
2025-03-05 14:20:04.673,-0.0005714339230907,1.3328970526660742
2025-03-05 14:20:04.681,-0.0005750126981681,1.5838730912319483
2025-03-05 14:20:04.688,-0.0005860793995764,1.798295653130873
2025-03-05 14:20:04.696,-0.0006044484927836,1.9751809170788552
2025-03-05 14:20:04.704,-0.0006297344620788,2.1145966424778835
2025-03-05 14:20:04.712,-0.0006613616189877,2.217637153974041
2025-03-05 14:20:04.720,-0.0006985791356235,2.28636219458704
2025-03-05 14:20:04.728,-0.000740480763584,2.323701553339374
2025-03-05 14:20:04.735,-0.0007860286180792,2.333328840109349
2025-03-05 14:20:04.743,-0.0008340803473266,2.319509109445991
2025-03-05 14:20:04.751,-0.0008834189639151,2.286926157698193
2025-03-05 14:20:04.759,-0.0009327845833509,2.2404961816774662
2025-03-05 14:20:04.767,-0.0009809072917289,2.1851750611541414
2025-03-05 14:20:04.774,-0.0010265403468925,2.125766803296007
2025-03-05 14:20:04.782,-0.0010684929042552,2.0667406711090885
2025-03-05 14:20:04.790,-0.0011056614497487,2.012064217896608
2025-03-05 14:20:04.798,-0.0011370591195728,1.9650588675441991
2025-03-05 14:20:04.806,-0.0011618420923013,1.928283816347093
2025-03-05 14:20:04.813,-0.0011793322573371,1.903452895266205
2025-03-05 14:20:04.821,-0.0011890353995237,1.8913876483646328
2025-03-05 14:20:04.829,-0.0011906541983301,1.8920083017484848
2025-03-05 14:20:04.837,-0.001184095427132,1.904362588161971
2025-03-05 14:20:04.845,-0.001169470859273,1.9266906458245947
2025-03-05 14:20:04.853,-0.0011470915478018,1.9565225296776023
2025-03-05 14:20:04.860,-0.0011174553490572,1.9908033659954136
2025-03-05 14:20:04.868,-0.0010812278092082,2.0260399461276823
2025-03-05 14:20:04.876,-0.0010392168282145,2.0584616700743594
2025-03-05 14:20:04.884,-0.0009923418560804,2.0841882639046
2025-03-05 14:20:04.892,-0.0009415987525241,2.099396623288808
2025-03-05 14:20:04.899,-0.0008880218148432,2.100479468429602
2025-03-05 14:20:04.907,-0.0008326447672365,2.084189202130943
2025-03-05 14:20:04.915,-0.0007764626273459,2.0477613915442827
2025-03-05 14:20:04.923,-0.0007203963213343,1.989013573202203
2025-03-05 14:20:04.931,-0.0006652617808682,1.9064165193006783
2025-03-05 14:20:04.938,-0.0006117450723243,1.7991365995793835
2025-03-05 14:20:04.946,-0.0005603848428793,1.6670493296349076
2025-03-05 14:20:04.954,-0.0005115629571634,1.5107255320684836
2025-03-05 14:20:04.962,-0.0004655036532335,1.331392695749505
2025-03-05 14:20:04.970,-0.0004222809584716,1.1308750693426015
2025-03-05 14:20:04.978,-0.0003818335664361,0.9115167520953468
2025-03-05 14:20:04.985,-0.0003439859314462,0.6760925363357105
2025-03-05 14:20:04.993,-0.0003084740051635,0.4277115008777404
2025-03-05 14:20:05.001,-0.0002749738258427,0.1697183443634074
2025-03-05 14:20:05.009,-0.0002431310796991,-0.0944028172433248
2025-03-05 14:20:05.017,-0.0002125897846814,-0.3611179719765349
2025-03-05 14:20:05.024,-0.0001830183960245,-0.6269225581376222
2025-03-05 14:20:05.032,-0.0001541318930444,-0.8884080384456331
2025-03-05 14:20:05.040,-0.0001257087673799,-1.1423141170571016
2025-03-05 14:20:05.048,-9.760227562097912e-05,-1.38556607103129
2025-03-05 14:20:05.056,-6.974579616545465e-05,-1.6152976929370282
2025-03-05 14:20:05.063,-4.2152555058819415e-05,-1.8288612625688296
2025-03-05 14:20:05.071,-1.4910296128905544e-05,-2.0238267234063185
2025-03-05 14:20:05.079,1.1828305061127556e-05,-2.1979727937069464
2025-03-05 14:20:05.087,3.785850955718245e-05,-2.349273076121893
2025-03-05 14:20:05.095,6.293864186151247e-05,-2.475880345935439
2025-03-05 14:20:05.103,8.680660702603985e-05,-2.5761121087067305
2025-03-05 14:20:05.110,0.0001091971764873,-2.648440236289249
2025-03-05 14:20:05.118,0.0001298595185445,-2.6914870301119382
2025-03-05 14:20:05.126,0.0001485743243327,-2.7040294476812057
2025-03-05 14:20:05.134,0.0001651697210596,-2.6850125070660904
2025-03-05 14:20:05.142,0.0001795351668745,-2.6335721129819256
2025-03-05 14:20:05.149,0.0001916326506885,-2.5490667840951087
2025-03-05 14:20:05.157,0.000201504617779,-2.4311170482898894
2025-03-05 14:20:05.165,0.0002092780808163,-2.2796506395364227
2025-03-05 14:20:05.173,0.0002151644709953,-2.0949510934424165
2025-03-05 14:20:05.181,0.0002194550053614,-1.877706906350019
2025-03-05 14:20:05.188,0.0002225116468369,-1.6290580977778852
2025-03-05 14:20:05.196,0.0002247540355375,-1.3506368050009236
2025-03-05 14:20:05.204,0.0002266430336328,-1.0445984618843287
2025-03-05 14:20:05.212,0.0002286617390209,-0.7136402051129233
2025-03-05 14:20:05.220,0.0002312949799548,-0.3610034453658787
2025-03-05 14:20:05.228,0.0002350083993262,0.0095419363122698
2025-03-05 14:20:05.235,0.0002402282708768,0.393733551668396
2025-03-05 14:20:05.243,0.0002473231588891,0.7868734492196809
2025-03-05 14:20:05.251,0.0002565884381109,1.1839057433686937
2025-03-05 14:20:05.259,0.0002682345335047,1.5795134438300849
2025-03-05 14:20:05.267,0.0002823795231146,1.9682318346962184
2025-03-05 14:20:05.274,0.0002990464766779,2.344574703094162
2025-03-05 14:20:05.282,0.0003181655839001,2.703168861690956
2025-03-05 14:20:05.290,0.0003395807674019,3.0388918022419005
2025-03-05 14:20:05.298,0.00036306009093,3.3470069922764583
2025-03-05 14:20:05.306,0.0003883089115884,3.62329129708772
2025-03-05 14:20:05.313,0.0004149844975989,3.864149266820172
2025-03-05 14:20:05.321,0.0004427108585523,4.066709546966767
2025-03-05 14:20:05.329,0.0004710927827396,4.228899411497365
2025-03-05 14:20:05.337,0.0004997283466455,4.349494337765132
2025-03-05 14:20:05.345,0.0005282193254353,4.428140593765403
2025-03-05 14:20:05.353,0.0005561791017006,4.46534993740178
2025-03-05 14:20:05.360,0.0005832380191207,4.462466675370321
2025-03-05 14:20:05.368,0.0006090466345499,4.42160843738781
2025-03-05 14:20:05.376,0.0006332777476958,4.345583035687198
2025-03-05 14:20:05.384,0.0006556281698612,4.237784655075663
2025-03-05 14:20:05.392,0.0006758208551948,4.102073326296062
2025-03-05 14:20:05.399,0.0006936074512636,3.942642166926618
2025-03-05 14:20:05.407,0.0007087708546542,3.763877239364053
2025-03-05 14:20:05.415,0.0007211271843022,3.5702150887366564
2025-03-05 14:20:05.423,0.0007305266814871,3.3660030887127146
2025-03-05 14:20:05.431,0.0007368532645819,3.155367628857113
2025-03-05 14:20:05.438,0.0007400226954618,2.9420949046277567
2025-03-05 14:20:05.446,0.0007399795093941,2.7295286056597856
2025-03-05 14:20:05.454,0.0007366930114013,2.520488137422901
2025-03-05 14:20:05.462,0.0007301527468354,2.317210169679192
2025-03-05 14:20:05.470,0.0007203639112794,2.1213153143311065
2025-03-05 14:20:05.478,0.000707343175708,1.9338006443739864
2025-03-05 14:20:05.485,0.0006911153694809,1.7550576368706168
2025-03-05 14:20:05.493,0.0006717113901116,1.584914023245251
2025-03-05 14:20:05.501,0.0006491676000912,1.4226970221937705
2025-03-05 14:20:05.509,0.0006235268337439,1.267314564808447
2025-03-05 14:20:05.517,0.000594840978521,1.1173504358982334
2025-03-05 14:20:05.524,0.0005631749234139,0.9711687779616822
2025-03-05 14:20:05.532,0.0005286114962699,0.8270231537526544
2025-03-05 14:20:05.540,0.0004912568825906,0.6831653444609048
2025-03-05 14:20:05.548,0.0004512460077578,0.5379492582455331
2025-03-05 14:20:05.556,0.0004087475181108,0.3899257054497114
2025-03-05 14:20:05.563,0.0003639682350562,0.2379243203500579
2025-03-05 14:20:05.571,0.0003171571231883,0.0811195348047126
2025-03-05 14:20:05.579,0.0002686088288938,-0.0809217924394859
2025-03-05 14:20:05.587,0.0002186667546544,-0.2482127317394811
2025-03-05 14:20:05.595,0.0001677255116225,-0.4203394600979698
2025-03-05 14:20:05.603,0.0001162324779369,-0.596475248463993
2025-03-05 14:20:05.610,6.46880942259056e-05,-0.7754143667617135
2025-03-05 14:20:05.618,1.3644456107957396e-05,-0.9556241234125492
2025-03-05 14:20:05.626,-3.629827959556951e-05,-1.1353123881971672
2025-03-05 14:20:05.634,-8.449816988506067e-05,-1.3125071489227764
2025-03-05 14:20:05.642,-0.0001302809101765,-1.4851439769363737
2025-03-05 14:20:05.649,-0.0001729527799413,-1.651156777801933
2025-03-05 14:20:05.657,-0.0002118172473233,-1.8085669281311048
2025-03-05 14:20:05.665,-0.0002461949666077,-1.955565880933044
2025-03-05 14:20:05.673,-0.000275446419353,-2.090586577054552
2025-03-05 14:20:05.681,-0.0002989960584347,-2.2123595320848444
2025-03-05 14:20:05.688,-0.0003163566069703,-2.319950267399213
2025-03-05 14:20:05.696,-0.0003271521097481,-2.4127757961899627
2025-03-05 14:20:05.704,-0.0003311383704025,-2.4905991103882466
2025-03-05 14:20:05.712,-0.0003282195054631,-2.5535019611221266
2025-03-05 14:20:05.720,-0.0003184595044059,-2.6018375800956823
2025-03-05 14:20:05.728,-0.0003020879048471,-2.6361662477204906
2025-03-05 14:20:05.735,-0.0002794989743249,-2.657177692575289
2025-03-05 14:20:05.743,-0.0002512441331059,-2.6656051511903325
2025-03-05 14:20:05.751,-0.0002180177470439,-2.6621364948466835
2025-03-05 14:20:05.759,-0.000180636827683,-2.647328119544993
2025-03-05 14:20:05.767,-0.0001400155220169,-2.6215272797886118
2025-03-05 14:20:05.774,-9.7135508629802e-05,-2.584808216551808
2025-03-05 14:20:05.782,-5.301360832886235e-05,-2.536926788955817
2025-03-05 14:20:05.790,-8.66817708492712e-06,-2.477297391951759
2025-03-05 14:20:05.798,3.491386079388602e-05,-2.4049947746083973
2025-03-05 14:20:05.806,7.68073626153653e-05,-2.3187820305522
2025-03-05 14:20:05.813,0.0001161749250973,-2.2171645923217618
2025-03-05 14:20:05.821,0.0001522871462958,-2.098468608778512
2025-03-05 14:20:05.829,0.0001845364690916,-1.9609407005190915
2025-03-05 14:20:05.837,0.0002124444483853,-1.8028648462961168
2025-03-05 14:20:05.845,0.0002356627780647,-1.622691117518577
2025-03-05 14:20:05.853,0.0002539688182427,-1.4191701979014102
2025-03-05 14:20:05.860,0.0002672566688402,-1.1914871329874115
2025-03-05 14:20:05.868,0.0002755250368543,-0.9393875623100546
2025-03-05 14:20:05.876,0.0002788632400008,-0.6632897940938156
2025-03-05 14:20:05.884,0.0002774366809349,-0.3643764805488741
2025-03-05 14:20:05.892,0.0002714730194568,-0.0446603303426439
2025-03-05 14:20:05.899,0.000261250073663,0.292980761831055
2025-03-05 14:20:05.907,0.0002470862063517,0.6448026072230272
2025-03-05 14:20:05.915,0.0002293336139561,1.0062296975444858
2025-03-05 14:20:05.923,0.0002083745476258,1.3719268053870746
2025-03-05 14:20:05.931,0.0001846200824031,1.7359061633793331
2025-03-05 14:20:05.939,0.0001585106609476,2.091667585769016
2025-03-05 14:20:05.946,0.0001305173650162,2.432367383909291
2025-03-05 14:20:05.954,0.0001011427984597,2.751010560102724
2025-03-05 14:20:05.962,7.092059908398461e-05,3.040659596632876
2025-03-05 14:20:05.970,4.041282279207784e-05,3.2946522299298304
2025-03-05 14:20:05.978,1.0204610431395413e-05,3.5068199501924893
2025-03-05 14:20:05.985,-1.9104418349316007e-05,3.671698632592176
2025-03-05 14:20:05.993,-4.69125962996188e-05,3.784722726226896
2025-03-05 14:20:06.001,-7.263282156944563e-05,3.8423948340290446
2025-03-05 14:20:06.009,-9.571321004139306e-05,3.8424233282872247
2025-03-05 14:20:06.017,-0.000115660972314,3.783821853357272
2025-03-05 14:20:06.024,-0.0001320680743601,3.666966124207578
2025-03-05 14:20:06.032,-0.000144636755194,3.4936052536695263
2025-03-05 14:20:06.040,-0.0001532026451093,3.266826823058724
2025-03-05 14:20:06.048,-0.0001577531506278,2.990976931645501
2025-03-05 14:20:06.056,-0.0001584390727971,2.671538406451345
2025-03-05 14:20:06.064,-0.0001555780872123,2.314972121414195
2025-03-05 14:20:06.071,-0.0001496495678779,1.928527872426464
2025-03-05 14:20:06.079,-0.0001412810798241,1.5200324067765651
2025-03-05 14:20:06.087,-0.000131227553933,1.0976629609790205
2025-03-05 14:20:06.095,-0.0001203446345766,0.6697149974450716
2025-03-05 14:20:06.103,-0.0001095579442882,0.2443727506398871
2025-03-05 14:20:06.110,-9.98300351992601e-05,-0.1705092803765306
2025-03-05 14:20:06.118,-9.212662941941952e-05,-0.5676065815949392
2025-03-05 14:20:06.126,-8.738347919270041e-05,-0.940300417574074
2025-03-05 14:20:06.134,-8.647488885776755e-05,-1.2828242905337903
2025-03-05 14:20:06.142,-9.018467688413747e-05,-1.5903776272205363
2025-03-05 14:20:06.149,-9.918013081541062e-05,-1.859204732962376
2025-03-05 14:20:06.157,-0.0001139893259538,-2.0866384894371803
2025-03-05 14:20:06.165,-0.0001349820424192,-2.271109605290432
2025-03-05 14:20:06.173,-0.0001623544244826,-2.4121234121873605
2025-03-05 14:20:06.181,-0.0001961174780008,-2.5102072100149595
2025-03-05 14:20:06.189,-0.0002360894913595,-2.566831994008723
2025-03-05 14:20:06.196,-0.0002818924857287,-2.5843130343314407
2025-03-05 14:20:06.204,-0.0003329528433855,-2.5656942101575937
2025-03-05 14:20:06.212,-0.0003885063191873,-2.5146212112090134
2025-03-05 14:20:06.220,-0.0004476077003098,-2.4352087061933654
2025-03-05 14:20:06.228,-0.0005091454335465,-2.3319063479150306
2025-03-05 14:20:06.235,-0.0005718615787503,-2.2093680526966053
2025-03-05 14:20:06.243,-0.0006343774580508,-2.072328375599936
2025-03-05 14:20:06.251,-0.0006952253094539,-1.925489034179281
2025-03-05 14:20:06.259,-0.0007528860157184,-1.7734177623155047
2025-03-05 14:20:06.267,-0.0008058324576159,-1.620460767002482
2025-03-05 14:20:06.274,-0.0008525772847479,-1.4706691858729908
2025-03-05 14:20:06.282,-0.0008917231609213,-1.3277391707307942
2025-03-05 14:20:06.290,-0.0009220130797502,-1.1949646107776892
2025-03-05 14:20:06.298,-0.0009423782130831,-1.0752010987730674
2025-03-05 14:20:06.306,-0.000951980848132,-0.9708395522551918
2025-03-05 14:20:06.314,-0.0009502501912489,-0.8837879259693119
2025-03-05 14:20:06.321,-0.0009369091312795,-0.8154596646636513
2025-03-05 14:20:06.329,-0.0009119904581773,-0.766767901568127
2025-03-05 14:20:06.337,-0.0008758415216083,-0.7381248467116933
2025-03-05 14:20:06.345,-0.0008291168860855,-0.7294462629707198
2025-03-05 14:20:06.353,-0.0007727591823415,-0.7401613297638567
2025-03-05 14:20:06.360,-0.0007079690229768,-0.7692284883108604
2025-03-05 14:20:06.368,-0.000636165431907,-0.8151580094250913
2025-03-05 14:20:06.376,-0.000558938606103,-0.8760420060525652
2025-03-05 14:20:06.384,-0.0004779969783973,-0.949592429291912
2025-03-05 14:20:06.392,-0.0003951106055757,-1.0331872602388237
2025-03-05 14:20:06.399,-0.0003120529489709,-1.1239246840845405
2025-03-05 14:20:06.407,-0.000230543107675,-1.2186845673871836
2025-03-05 14:20:06.415,-0.0001521904743419,-1.3141961177930568
2025-03-05 14:20:06.423,-7.844366383357262e-05,-1.4071102400592803
2025-03-05 14:20:06.431,-1.054548375967662e-05,-1.4940748455251704
2025-03-05 14:20:06.439,5.050433246062061e-05,-1.5718112357290677
2025-03-05 14:20:06.446,0.0001039770256826,-1.637189658645175
2025-03-05 14:20:06.454,0.000149432045721,-1.687302209634081
2025-03-05 14:20:06.462,0.0001867228207834,-1.7195313931971752
2025-03-05 14:20:06.470,0.0002159908273366,-1.731612847402358
2025-03-05 14:20:06.478,0.0002376482737451,-1.7216909318873073
2025-03-05 14:20:06.485,0.0002523502699516,-1.6883660692027302
2025-03-05 14:20:06.493,0.0002609579221661,-1.630732896085333
2025-03-05 14:20:06.501,0.00026449423821,-1.5484084285133417
2025-03-05 14:20:06.509,0.0002640949370725,-1.441549583629403
2025-03-05 14:20:06.517,0.0002609562700803,-1.310859544566365
2025-03-05 14:20:06.524,0.0002562819333511,-1.1575826089489951
2025-03-05 14:20:06.532,0.0002512311642232,-0.9834873357643368
2025-03-05 14:20:06.540,0.0002468701286797,-0.7908380084007547
2025-03-05 14:20:06.548,0.0002441286538582,-0.582354673425884
2025-03-05 14:20:06.556,0.0002437642089902,-0.3611622957170435
2025-03-05 14:20:06.564,0.0002463347875582,-0.1307298764822974
2025-03-05 14:20:06.571,0.0002521819984342,0.1051993163315725
2025-03-05 14:20:06.579,0.0002614252416611,0.3426849879548047
2025-03-05 14:20:06.587,0.000273967334809,0.5776729016312872
2025-03-05 14:20:06.595,0.0002895113800334,0.8060820433794281
2025-03-05 14:20:06.603,0.0003075880337979,1.023894023957319
2025-03-05 14:20:06.610,0.0003275916818386,1.2272428429030808
2025-03-05 14:20:06.618,0.0003488233811725,1.41250313167367
2025-03-05 14:20:06.626,0.0003705379018651,1.5763749897254795
2025-03-05 14:20:06.634,0.0003919918795088,1.7159635160500597
2025-03-05 14:20:06.642,0.0004124900160656,1.8288511192049184
2025-03-05 14:20:06.649,0.0004314264432284,1.9131606757183228
2025-03-05 14:20:06.657,0.0004483187825221,1.9676076253039567
2025-03-05 14:20:06.665,0.0004628330541454,1.9915391713683173
2025-03-05 14:20:06.673,0.0004747983020296,1.9849589250167357
2025-03-05 14:20:06.681,0.000484210518812,1.948535613518388
2025-03-05 14:20:06.689,0.0004912261183661,1.8835948850044428
2025-03-05 14:20:06.696,0.0004961457916363,1.79209377927185
2025-03-05 14:20:06.704,0.0004993900785968,1.67657807474207
2025-03-05 14:20:06.712,0.0005014683831686,1.5401234125971033
2025-03-05 14:20:06.720,0.0005029434400462,1.3862617736535177
2025-03-05 14:20:06.728,0.000504393406958,1.2188954761368762
2025-03-05 14:20:06.735,0.0005063738004555,1.0422013250267224
2025-03-05 14:20:06.743,0.0005093814184941,0.8605278518952366
2025-03-05 14:20:06.751,0.000513822202468,0.6782887353509155
2025-03-05 14:20:06.759,0.0005199846915019,0.4998554974240482
2025-03-05 14:20:06.767,0.0005280203219914,0.3294524488393766
2025-03-05 14:20:06.774,0.0005379313428967,0.1710566288897555
2025-03-05 14:20:06.782,0.0005495665985299,0.0283051805382901
2025-03-05 14:20:06.790,0.0005626249655872,-0.0955877519212035
2025-03-05 14:20:06.798,0.0005766659076331,-0.1979028894768983
2025-03-05 14:20:06.806,0.0005911264298186,-0.2764751118037822
2025-03-05 14:20:06.814,0.0006053435792,-0.3297392073597776
2025-03-05 14:20:06.821,0.0006185814297215,-0.3567614647897911
2025-03-05 14:20:06.829,0.0006300612201954,-0.3572568280846533
2025-03-05 14:20:06.837,0.0006389931260212,-0.3315916522138518
2025-03-05 14:20:06.845,0.0006446081650992,-0.2807723778018727
2025-03-05 14:20:06.853,0.0006461888950545,-0.2064206838957315
2025-03-05 14:20:06.860,0.0006430976870245,-0.1107358721912453
2025-03-05 14:20:06.868,0.0006348014320722,0.0035546114259658
2025-03-05 14:20:06.876,0.0006208916641098,0.1332554873749008
2025-03-05 14:20:06.884,0.0006010993384432,0.274773639001565
2025-03-05 14:20:06.892,0.000575303841485,0.424196528737554
2025-03-05 14:20:06.899,0.0005435361494285,0.5773776329333883
2025-03-05 14:20:06.907,0.000505976364213,0.7300273466262465
2025-03-05 14:20:06.915,0.0004629461247732,0.8778076563535714
2025-03-05 14:20:06.923,0.0004148966181406,1.0164287335185345
2025-03-05 14:20:06.931,0.0003623930976001,1.1417454730797427
2025-03-05 14:20:06.939,0.0003060969487718,1.2498518984282112
2025-03-05 14:20:06.946,0.000246746398421,1.3371712809612726
2025-03-05 14:20:06.954,0.0001851368689118,1.4005397970563402
2025-03-05 14:20:06.962,0.0001221017089298,1.4372815853669665
2025-03-05 14:20:06.970,5.849366790111011e-05,1.4452731900143212
2025-03-05 14:20:06.978,-4.832805394153529e-06,1.4229955878184593
2025-03-05 14:20:06.985,-6.703848205970916e-05,1.3695722972516686
2025-03-05 14:20:06.993,-0.000127315527576,1.2847924428335915
2025-03-05 14:20:07.001,-0.0001849029069672,1.1691180873327285
2025-03-05 14:20:07.009,-0.0002391009120093,1.023675628026628
2025-03-05 14:20:07.017,-0.0002892846058021,0.8502315583946928
2025-03-05 14:20:07.024,-0.0003349158779133,0.6511533928814075
2025-03-05 14:20:07.032,-0.0003755537020666,0.4293570094263245
2025-03-05 14:20:07.040,-0.0004108621010432,0.1882420580660943
2025-03-05 14:20:07.048,-0.0004406152902017,-0.0683825994923736
2025-03-05 14:20:07.056,-0.0004646995680457,-0.3363812161748933
2025-03-05 14:20:07.064,-0.0004831117944742,-0.611378882691088
2025-03-05 14:20:07.071,-0.0004959546651677,-0.8888521811684593
2025-03-05 14:20:07.079,-0.0005034292957907,-1.164220277474331
2025-03-05 14:20:07.087,-0.0005058257917099,-1.4329340146366445
2025-03-05 14:20:07.095,-0.0005035125405454,-1.6905607099360045
2025-03-05 14:20:07.103,-0.0004969249939043,-1.932862585815951
2025-03-05 14:20:07.110,-0.0004865546998527,-2.155867075772181
2025-03-05 14:20:07.118,-0.0004729392172997,-2.3559276314573454
2025-03-05 14:20:07.126,-0.0004566531839119,-2.529774100055126
2025-03-05 14:20:07.134,-0.0004383002701462,-2.6745522164410924
2025-03-05 14:20:07.142,-0.0004185052828797,-2.7878522314990426
2025-03-05 14:20:07.149,-0.0003979055238934,-2.8677271461183897
2025-03-05 14:20:07.157,-0.000377140669654,-2.912701416112652
2025-03-05 14:20:07.165,-0.0003568407328687,-2.9217713184094385
2025-03-05 14:20:07.173,-0.0003376119386808,-2.8943984082425813
2025-03-05 14:20:07.181,-0.0003200206223084,-2.830497637893991
2025-03-05 14:20:07.189,-0.0003045756281362,-2.730421739364824
2025-03-05 14:20:07.196,-0.0002917101165079,-2.594943388567543
2025-03-05 14:20:07.204,-0.0002817639590076,-2.425236465255236
2025-03-05 14:20:07.212,-0.0002749679013145,-2.2228574108622148
2025-03-05 14:20:07.220,-0.0002714305054023,-1.9897272926025829
2025-03-05 14:20:07.228,-0.0002711287412466,-1.728114747881311
2025-03-05 14:20:07.235,-0.0002739030161167,-1.4406195533904915
2025-03-05 14:20:07.243,-0.0002794572928691,-1.1301561763920676
2025-03-05 14:20:07.251,-0.0002873646878336,-0.7999363510305726
2025-03-05 14:20:07.259,-0.0002970786015335,-0.4534495055930081
2025-03-05 14:20:07.267,-0.0003079490990333,-0.0944397705688557
2025-03-05 14:20:07.274,-0.0003192439612281,0.2731216638300827
2025-03-05 14:20:07.282,-0.0003301735859953,0.6450699015017701
2025-03-05 14:20:07.290,-0.0003399187342495,1.017086185050006
2025-03-05 14:20:07.298,-0.0003476599946853,1.3847446505611791
2025-03-05 14:20:07.306,-0.0003526077851674,1.7435660108210838
2025-03-05 14:20:07.314,-0.0003540317198395,2.08907778167368
2025-03-05 14:20:07.321,-0.0003512882492882,2.416880294958078
2025-03-05 14:20:07.329,-0.0003438456200376,2.7227174235958955
2025-03-05 14:20:07.337,-0.0003313053648335,3.0025506802273343
2025-03-05 14:20:07.345,-0.0003134196547601,3.252635124473701
2025-03-05 14:20:07.353,-0.0002901038760135,3.469595308298642
2025-03-05 14:20:07.360,-0.0002614438182871,3.650499297482389
2025-03-05 14:20:07.368,-0.0002276970290796,3.7929286353364353
2025-03-05 14:20:07.376,-0.0001892882372371,3.895041975657683
2025-03-05 14:20:07.384,-0.0001467991287645,3.95563002368395
2025-03-05 14:20:07.392,-0.0001009529786835,3.97415940926324
2025-03-05 14:20:07.399,-5.2594697730161474e-05,3.9508032017402006
2025-03-05 14:20:07.407,-2.666928943726172e-06,3.886455985276645
2025-03-05 14:20:07.415,4.781695239936607e-05,3.782731760769845
2025-03-05 14:20:07.423,9.780184326639338e-05,3.64194342606787
2025-03-05 14:20:07.431,0.000146220763919,3.467063195232475
2025-03-05 14:20:07.439,0.0001920245324072,3.2616640226136093
2025-03-05 14:20:07.446,0.0002342104556264,3.029842858956341
2025-03-05 14:20:07.454,0.0002718494179773,2.776127335622028
2025-03-05 14:20:07.462,0.0003041108652668,2.5053681963575203
2025-03-05 14:20:07.470,0.0003302852200803,2.222620425307208
2025-03-05 14:20:07.478,0.0003498032337436,1.933016518819849
2025-03-05 14:20:07.485,0.0003622517181581,1.6416356972132922
2025-03-05 14:20:07.493,0.00036738508697,1.3533730466979197
2025-03-05 14:20:07.501,0.0003651322206423,1.0728126278121737
2025-03-05 14:20:07.509,0.0003555982891783,0.8041084973902446
2025-03-05 14:20:07.517,0.0003390612110038,0.5508773798425831
2025-03-05 14:20:07.524,0.0003159624366276,0.3161064023669437
2025-03-05 14:20:07.532,0.0002868919180952,0.1020788886629364
2025-03-05 14:20:07.540,0.0002525675700294,-0.0896792995084327
2025-03-05 14:20:07.548,0.0002138100921519,-0.2584309562668266
2025-03-05 14:20:07.556,0.0001715144355649,-0.4042349675226515
2025-03-05 14:20:07.564,0.0001266193667883,-0.5279293588811945
2025-03-05 14:20:07.571,8.007666452611623e-05,-0.631090025901107
2025-03-05 14:20:07.579,3.28215888592399e-05,-0.7159659481048579
2025-03-05 14:20:07.587,-1.425372777172826e-05,-0.7853924338905374
2025-03-05 14:20:07.595,-6.032258493443084e-05,-0.8426846799476732
2025-03-05 14:20:07.603,-0.000104640857879,-0.891514631769188
2025-03-05 14:20:07.610,-0.0001465587099219,-0.935774780651196
2025-03-05 14:20:07.618,-0.0001855270764419,-0.9794331056896336
2025-03-05 14:20:07.626,-0.0002210994699086,-1.026383839625271
2025-03-05 14:20:07.634,-0.0002529299030024,-1.0802990737809608
2025-03-05 14:20:07.642,-0.0002807678007314,-1.1444863894028898
2025-03-05 14:20:07.649,-0.0003044505938172,-1.221757682508128
2025-03-05 14:20:07.657,-0.0003238943789355,-1.314314111082912
2025-03-05 14:20:07.665,-0.000339082876287,-1.423651618346205
2025-03-05 14:20:07.673,-0.0003500550616165,-1.5504907720685224
2025-03-05 14:20:07.681,-0.0003568921573909,-1.6947337308905832
2025-03-05 14:20:07.689,-0.0003597048656309,-1.855450052140192
2025-03-05 14:20:07.696,-0.0003586217016819,-2.030891856906266
2025-03-05 14:20:07.704,-0.0003537791610616,-2.2185376397114127
2025-03-05 14:20:07.712,-0.000345314367905,-2.4151628242013765
2025-03-05 14:20:07.720,-0.0003333608192105,-2.6169340893760022
2025-03-05 14:20:07.728,-0.0003180477447143,-2.81952357987946
2025-03-05 14:20:07.735,-0.0002995033510723,-3.018238411717584
2025-03-05 14:20:07.743,-0.0002778618168005,-3.208160417929631
2025-03-05 14:20:07.751,-0.0002532734430357,-3.3842908581095474
2025-03-05 14:20:07.759,-0.0002259169388919,-3.541694839286444
2025-03-05 14:20:07.767,-0.0001960124845601,-3.675640450565266
2025-03-05 14:20:07.774,-0.0001638340227297,-3.781728078013866
2025-03-05 14:20:07.782,-0.0001297192589115,-3.856006010955948
2025-03-05 14:20:07.790,-9.407614832631888e-05,-3.895069241930937
2025-03-05 14:20:07.798,-5.738512769995023e-05,-3.896139259056808
2025-03-05 14:20:07.806,-2.019684374864938e-05,-3.857123582840214
2025-03-05 14:20:07.814,1.687449196455131e-05,-3.776654756012631
2025-03-05 14:20:07.821,5.316179998324993e-05,-3.654109400277561
2025-03-05 14:20:07.829,8.795960069712968e-05,-3.4896087562261413
2025-03-05 14:20:07.837,0.0001205421767562,-3.2840027745858267
2025-03-05 14:20:07.845,0.0001501854821109,-3.038840285886349
2025-03-05 14:20:07.853,0.0001761926689267,-2.75632800947143
2025-03-05 14:20:07.860,0.0001979225936633,-2.43928116049583
2025-03-05 14:20:07.868,0.0002148199947879,-2.091068191833217
2025-03-05 14:20:07.876,0.0002264454437125,-1.7155518072362264
2025-03-05 14:20:07.884,0.0002325028711556,-1.3170278575831662
2025-03-05 14:20:07.892,0.0002328625594936,-0.9001631457548761
2025-03-05 14:20:07.899,0.0002275778947019,-0.4699325819590061
2025-03-05 14:20:07.907,0.0002168947300071,-0.0315556107162366
2025-03-05 14:20:07.915,0.0002012528007697,0.4095685762148495
2025-03-05 14:20:07.923,0.0001812791623059,0.8479277837270138
2025-03-05 14:20:07.931,0.0001577740124128,1.27796634373475
2025-03-05 14:20:07.939,0.0001316894590581,1.6941581731724151
2025-03-05 14:20:07.946,0.0001041018768802,2.0910838440914468
2025-03-05 14:20:07.954,7.617861853227016e-05,2.463511744884677
2025-03-05 14:20:07.962,4.9140085462077824e-05,2.806482888629122
2025-03-05 14:20:07.970,2.421847050354905e-05,3.115398323774451
2025-03-05 14:20:07.978,2.614778230904002e-06,3.38610746948501
2025-03-05 14:20:07.985,-1.4544065508819694e-05,3.614995085202244
2025-03-05 14:20:07.993,-2.624616918441579e-05,3.799064052409213
2025-03-05 14:20:08.001,-3.163203359814273e-05,3.936010761319316
2025-03-05 14:20:08.009,-3.002697143558115e-05,4.024289713546105
2025-03-05 14:20:08.017,-2.0967550795743387e-05,4.063164010819397
2025-03-05 14:20:08.024,-4.2212302712003865e-06,4.052738711442805
2025-03-05 14:20:08.032,2.0201496457876343e-05,3.993974588341663
2025-03-05 14:20:08.040,5.204295931936864e-05,3.888680580042897
2025-03-05 14:20:08.048,9.080246251548972e-05,3.7394841308687417
2025-03-05 14:20:08.056,0.000135748729312,3.5497795936083456
2025-03-05 14:20:08.064,0.000185940294378,3.323655835432001
2025-03-05 14:20:08.071,0.0002402530944858,3.065805069879957
2025-03-05 14:20:08.079,0.0002974140951699,2.781415671325277
2025-03-05 14:20:08.087,0.0003560394762848,2.4760522687781594
2025-03-05 14:20:08.095,0.0004146758007166,2.155526743951042
2025-03-05 14:20:08.103,0.0004718426789085,1.825763884039384
2025-03-05 14:20:08.110,0.000526075522111,1.49266539736062
2025-03-05 14:20:08.118,0.0005759669262166,1.1619758376455285
2025-03-05 14:20:08.126,0.0006202051658934,0.8391537482249598
2025-03-05 14:20:08.134,0.0006576083979754,0.5292510689505732
2025-03-05 14:20:08.142,0.0006871535001747,0.2368035719095008
2025-03-05 14:20:08.149,0.0007079988868367,-0.0342651797255666
2025-03-05 14:20:08.157,0.0007195010372666,-0.2807241195367083
2025-03-05 14:20:08.165,0.00072122480033,-0.5000972466436407
2025-03-05 14:20:08.173,0.0007129477936361,-0.6907067905857399
2025-03-05 14:20:08.181,0.0006946593976699,-0.851695606143831
2025-03-05 14:20:08.189,0.000666554959052,-0.9830278110753138
2025-03-05 14:20:08.196,0.0006290258697518,-1.085467139163225
2025-03-05 14:20:08.204,0.0005826461899073,-1.1605330321754743
2025-03-05 14:20:08.212,0.0005281564419371,-1.2104351345032829
2025-03-05 14:20:08.220,0.0004664451349612,-1.2379875634008046
2025-03-05 14:20:08.228,0.0003985284937064,-1.2465050709507672
2025-03-05 14:20:08.235,0.0003255287774096,-1.2396839473258567
2025-03-05 14:20:08.243,0.0002486514933644,-1.2214711920928285
2025-03-05 14:20:08.251,0.0001691617469784,-1.1959260562447571
2025-03-05 14:20:08.259,8.835993408241738e-05,-1.1670784922723154
2025-03-05 14:20:08.267,7.556978128766772e-06,-1.1387893109599558
2025-03-05 14:20:08.275,-7.195065122701482e-05,-1.114616909440695
2025-03-05 14:20:08.282,-0.0001489058296151,-1.0976952923871013
2025-03-05 14:20:08.290,-0.0002221151622476,-1.090627753793108
2025-03-05 14:20:08.298,-0.0002904723080482,-1.0954000293662554
2025-03-05 14:20:08.306,-0.000352979566883,-1.1133159920171776
2025-03-05 14:20:08.314,-0.0004087670187494,-1.144958081733452
2025-03-05 14:20:08.321,-0.0004571086071622,-1.1901736816518118
2025-03-05 14:20:08.329,-0.0004974347318036,-1.2480876223891568
2025-03-05 14:20:08.337,-0.0005293410396083,-1.3171399638745862
2025-03-05 14:20:08.345,-0.00055259317628,-1.3951472155699134
2025-03-05 14:20:08.353,-0.0005671273732802,-1.4793842602555012
2025-03-05 14:20:08.360,-0.0005730469033164,-1.5666834870786333
2025-03-05 14:20:08.368,-0.0005706145578428,-1.6535470480928345
2025-03-05 14:20:08.376,-0.0005602413881399,-1.7362677478717672
2025-03-05 14:20:08.384,-0.000542472099308,-1.8110538692209923
2025-03-05 14:20:08.392,-0.0005179676923537,-1.8741532367805795
2025-03-05 14:20:08.400,-0.0004874860964382,-1.9219720245321923
2025-03-05 14:20:08.407,-0.0004518615541685,-1.9511842110472524
2025-03-05 14:20:08.415,-0.0004119834672496,-1.95882815294848
2025-03-05 14:20:08.423,-0.0003687753564185,-1.9423874475628136
2025-03-05 14:20:08.431,-0.0003231745782089,-1.8998540492791325
2025-03-05 14:20:08.439,-0.0002761134766134,-1.8297724481377813
2025-03-05 14:20:08.446,-0.0002285026943832,-1.7312645719436572
2025-03-05 14:20:08.454,-0.0001812173194454,-1.604035893933056
2025-03-05 14:20:08.462,-0.0001350862546646,-1.4483639765350702
2025-03-05 14:20:08.470,-9.088464754287547e-05,-1.2650713205579367
2025-03-05 14:20:08.478,-4.932860352133391e-05,-1.0554848886253276
2025-03-05 14:20:08.485,-1.1071049866079876e-05,-0.8213850155864492
2025-03-05 14:20:08.493,2.3302326487229655e-05,-0.5649466052470352
2025-03-05 14:20:08.501,5.327781828364465e-05,-0.2886755512115778
2025-03-05 14:20:08.509,7.84195438529673e-05,0.004656775515248
2025-03-05 14:20:08.517,9.837660652579126e-05,0.3120783401977953
2025-03-05 14:20:08.525,0.0001128915128552,0.6304782307748745
2025-03-05 14:20:08.532,0.0001218093947811,0.956663456946536
2025-03-05 14:20:08.540,0.0001250871795803,1.2874092074938752
2025-03-05 14:20:08.548,0.0001228016567353,1.6195014344829444
2025-03-05 14:20:08.556,0.0001151554419827,1.9497710678838835
2025-03-05 14:20:08.564,0.0001024800265057,2.2751196152326574
2025-03-05 14:20:08.571,8.523532011752108e-05,2.592536370528785
2025-03-05 14:20:08.579,6.400531140797744e-05,2.8991079329436333
2025-03-05 14:20:08.587,3.948966792658494e-05,3.1920211916172474
2025-03-05 14:20:08.595,1.2491284137569006e-05,3.4685613330353653
2025-03-05 14:20:08.603,-1.6100046943377894e-05,3.726106741694898
2025-03-05 14:20:08.610,-4.5327511738635227e-05,3.962122873588833
2025-03-05 14:20:08.618,-7.41902445406308e-05,4.174157275998121
2025-03-05 14:20:08.626,-0.0001016688140455,4.359837900136908
2025-03-05 14:20:08.634,-0.0001267525631216,4.516876698224202
2025-03-05 14:20:08.642,-0.0001484680666676,4.643080208129883
2025-03-05 14:20:08.650,-0.000165907926346,4.736368410196016
2025-03-05 14:20:08.657,-0.0001782591013973,4.794802608033014
2025-03-05 14:20:08.665,-0.0001848299841728,4.816622464887866
2025-03-05 14:20:08.673,-0.0001850754647395,4.800291654089143
2025-03-05 14:20:08.681,-0.0001786192615345,4.74455089554363
2025-03-05 14:20:08.689,-0.0001652727589061,4.648476491699459
2025-03-05 14:20:08.696,-0.0001450494523842,4.511541885217914
2025-03-05 14:20:08.704,-0.0001181739466609,4.333679270826407
2025-03-05 14:20:08.712,-8.508444409247268e-05,4.115337933022981
2025-03-05 14:20:08.720,-4.642788733290063e-05,3.857535772174508
2025-03-05 14:20:08.728,-3.047330688363145e-06,3.561900444626204
2025-03-05 14:20:08.735,4.4038397638048384e-05,3.230696697037217
2025-03-05 14:20:08.743,9.366222780180892e-05,2.866836836811978
2025-03-05 14:20:08.751,0.0001445427058074,2.473871855386203
2025-03-05 14:20:08.759,0.000195323013281,2.055961499070728
2025-03-05 14:20:08.767,0.0002446136837894,1.6178225302130502
2025-03-05 14:20:08.775,0.0002910372505258,1.1646554810392404
2025-03-05 14:20:08.782,0.0003332728480678,0.7020512935277415
2025-03-05 14:20:08.790,0.0003700987434653,0.2358802715204701
2025-03-05 14:20:08.798,0.0004004309246689,-0.2278333357183882
2025-03-05 14:20:08.806,0.0004233561981486,-0.6830471045036619
2025-03-05 14:20:08.814,0.0004381586550928,-1.1238420784504313
2025-03-05 14:20:08.821,0.0004443387733829,-1.5445655482283975
2025-03-05 14:20:08.829,0.0004416247916973,-1.9399701830075229
2025-03-05 14:20:08.837,0.0004299763132312,-2.305344833343983
2025-03-05 14:20:08.845,0.000409580368411,-2.6366325575436416
2025-03-05 14:20:08.853,0.00038084038979,-2.930531759336795
2025-03-05 14:20:08.860,0.000344358731251,-3.18457675801494
2025-03-05 14:20:08.868,0.0003009135024665,-3.3971946541720515
2025-03-05 14:20:08.876,0.0002514305941241,-3.567736025136624
2025-03-05 14:20:08.884,0.0001969518461423,-3.6964777985068777
2025-03-05 14:20:08.892,0.0001386003665058,-3.7845976041780314
2025-03-05 14:20:08.900,7.754404862381553e-05,-3.834119963871293
2025-03-05 14:20:08.907,1.4958365680164914e-05,-3.847835792252224
2025-03-05 14:20:08.915,-4.801045435573264e-05,-3.829197796254877
2025-03-05 14:20:08.923,-0.0001102807465844,-3.7821954079005486
2025-03-05 14:20:08.931,-0.0001708680715496,-3.711213809203917
2025-03-05 14:20:08.939,-0.0002289140530072,-3.620882346561337
2025-03-05 14:20:08.946,-0.0002837102040627,-3.515918134971663
2025-03-05 14:20:08.954,-0.0003347155482506,-3.4009708817892648
2025-03-05 14:20:08.962,-0.0003815668891652,-3.280474895042419
2025-03-05 14:20:08.970,-0.0004240807883131,-3.158513881762902
2025-03-05 14:20:08.978,-0.0004622467872025,-3.038703506898025
2025-03-05 14:20:08.985,-0.000496212112933,-2.92409581210851
2025-03-05 14:20:08.993,-0.000526258797152,-2.817108539750545
2025-03-05 14:20:09.001,-0.0005527746039991,-2.7194812325197995
2025-03-05 14:20:09.009,-0.0005762194305329,-2.6322587483200897
2025-03-05 14:20:09.017,-0.0005970890651053,-2.5558016082221706
2025-03-05 14:20:09.025,-0.0006158783891096,-2.4898214481135854
2025-03-05 14:20:09.032,-0.0006330461694158,-2.4334388332138106
2025-03-05 14:20:09.040,-0.0006489834433613,-2.3852598693735474
2025-03-05 14:20:09.048,-0.0006639871954179,-2.343467440732396
2025-03-05 14:20:09.056,-0.0006782406461837,-2.305922541044187
2025-03-05 14:20:09.064,-0.0006918010658362,-2.270271056046895
2025-03-05 14:20:09.071,-0.0007045956046126,-2.234051492787652
2025-03-05 14:20:09.079,-0.0007164252155306,-2.194799514663724
2025-03-05 14:20:09.087,-0.0007269763421805,-2.150145682170069
2025-03-05 14:20:09.095,-0.0007358396690658,-2.097903457588317
2025-03-05 14:20:09.103,-0.0007425348949027,-2.036145241822594
2025-03-05 14:20:09.110,-0.0007465402007843,-1.963264915928808
2025-03-05 14:20:09.118,-0.0007473248544168,-1.8780260170047445
2025-03-05 14:20:09.126,-0.0007443832267618,-1.7795952631732923
2025-03-05 14:20:09.134,-0.000737268405102,-1.6675616429391875
2025-03-05 14:20:09.142,-0.0007256235720294,-1.541941696010465
2025-03-05 14:20:09.150,-0.0007092093868041,-1.403171939097864
2025-03-05 14:20:09.157,-0.0006879257558171,-1.2520896416903002
2025-03-05 14:20:09.165,-0.0006618266124889,-1.089903346972961
2025-03-05 14:20:09.173,-0.0006311266416947,-0.9181546736298764
2025-03-05 14:20:09.181,-0.0005961992753752,-0.7386730325724591
2025-03-05 14:20:09.189,-0.0005575657476104,-0.5535249508123092
2025-03-05 14:20:09.196,-0.0005158755145534,-0.3649597098526451
2025-03-05 14:20:09.204,-0.0004718788735715,-0.1753529732117307
2025-03-05 14:20:09.212,-0.0004263930745571,0.0128500048366957
2025-03-05 14:20:09.220,-0.0003802635511937,0.1971901259842154
2025-03-05 14:20:09.228,-0.000334322173819,0.3752478539613944
2025-03-05 14:20:09.235,-0.0002893447449846,0.5446931781207978
2025-03-05 14:20:09.243,-0.0002460102819753,0.7033312382277515
2025-03-05 14:20:09.251,-0.0002048647524126,0.849142912485
2025-03-05 14:20:09.259,-0.0001662916987708,0.9803198467030302
2025-03-05 14:20:09.267,-0.0001304916539021,1.095293550676557
2025-03-05 14:20:09.275,-9.74715732911618e-05,1.1927583145380405
2025-03-05 14:20:09.282,-6.704481812592007e-05,1.2716878162194067
2025-03-05 14:20:09.290,-3.884157357494123e-05,1.3313454146869137
2025-03-05 14:20:09.298,-1.2329001749970611e-05,1.3712882632926209
2025-03-05 14:20:09.306,1.3160076360555909e-05,1.391365541252079
2025-03-05 14:20:09.314,3.839158886767776e-05,1.3917112918881849
2025-03-05 14:20:09.321,6.418964123970281e-05,1.3727325679781035
2025-03-05 14:20:09.329,9.139309804944315e-05,1.3350937981597086
2025-03-05 14:20:09.337,0.000120811541268,1.279698470656759
2025-03-05 14:20:09.345,0.0001531828033179,1.2076693405226566
2025-03-05 14:20:09.353,0.0001891341344484,1.1203283682101517
2025-03-05 14:20:09.360,0.0002291488149935,1.0191774730812826
2025-03-05 14:20:09.368,0.0002735396697187,0.9058809432747164
2025-03-05 14:20:09.376,0.000322430492268,0.7822500131687518
2025-03-05 14:20:09.384,0.0003757458590566,0.6502297425232352
2025-03-05 14:20:09.392,0.0004332092545975,0.5118879453227614
2025-03-05 14:20:09.400,0.0004943489599759,0.3694055483626103
2025-03-05 14:20:09.407,0.0005585109013478,0.2250674280731902
2025-03-05 14:20:09.415,0.0006248776180757,0.0812524963785129
2025-03-05 14:20:09.423,0.0006924925343916,-0.0595783979309331
2025-03-05 14:20:09.431,0.0007602886520958,-0.194898297862243
2025-03-05 14:20:09.439,0.0008271206220714,-0.3221352453749798
2025-03-05 14:20:09.446,0.0008917990142391,-0.4387000928050266
2025-03-05 14:20:09.454,0.0009531255937811,-0.5420221818961366
2025-03-05 14:20:09.462,0.0010099285307647,-0.6295936474164062
2025-03-05 14:20:09.470,0.0010610966414253,-0.6990225647572162
2025-03-05 14:20:09.478,0.0011056119025426,-0.7480945206072596
2025-03-05 14:20:09.485,0.0011425795613903,-0.7748414793540688
2025-03-05 14:20:09.493,0.0011712551791699,-0.7776160833531718
2025-03-05 14:20:09.501,0.0011910679015286,-0.7551688019341019
2025-03-05 14:20:09.509,0.0012016391605527,-0.7067246763712582
2025-03-05 14:20:09.517,0.001202795923186,-0.6320558472348516
2025-03-05 14:20:09.525,0.0011945775946238,-0.5315456518285212
2025-03-05 14:20:09.532,0.0011772358214155,-0.4062398973474517
2025-03-05 14:20:09.540,0.0011512266866128,-0.2578809982009927
2025-03-05 14:20:09.548,0.0011171951025868,-0.0889210473862169
2025-03-05 14:20:09.556,0.0010759516292063,0.0974894201227644
2025-03-05 14:20:09.564,0.0010284425145339,0.2975392457509672
2025-03-05 14:20:09.571,0.0009757143755643,0.5068221323296211
2025-03-05 14:20:09.579,0.0009188754438531,0.7204295512678118
2025-03-05 14:20:09.587,0.0008590555825109,0.933069443019888
2025-03-05 14:20:09.595,0.0007973672957708,1.139207722047521
2025-03-05 14:20:09.603,0.0007348697318649,1.3332283316264102
2025-03-05 14:20:09.610,0.0006725373167294,1.509606481599149
2025-03-05 14:20:09.618,0.0006112342407905,1.6630887944772417
2025-03-05 14:20:09.626,0.0005516956016711,1.7888734283092294
2025-03-05 14:20:09.634,0.0004945156017342,1.8827828847018484
2025-03-05 14:20:09.642,0.0004401428232453,1.9414221936673768
2025-03-05 14:20:09.650,0.0003888822658209,1.962315530391294
2025-03-05 14:20:09.657,0.0003409035387529,1.944015074340525
2025-03-05 14:20:09.665,0.0002962543606342,1.8861770436711125
2025-03-05 14:20:09.673,0.0002548783341866,1.7896012650193764
2025-03-05 14:20:09.681,0.0002166358370415,1.6562322771416431
2025-03-05 14:20:09.689,0.0001813267993285,1.4891217047038732
2025-03-05 14:20:09.696,0.0001487141244714,1.2923533590563314
2025-03-05 14:20:09.704,0.0001185465473081,1.0709341165423192
2025-03-05 14:20:09.712,9.05798089833953e-05,0.8306549997090044
2025-03-05 14:20:09.720,6.459515541789997e-05,0.5779279747154449
2025-03-05 14:20:09.728,4.041432906133288e-05,0.3196047366021148
2025-03-05 14:20:09.735,1.791041499908798e-05,0.0627841642439576
2025-03-05 14:20:09.743,-2.985885289677352e-06,-0.1853848052240676
2025-03-05 14:20:09.751,-2.228475399730614e-05,-0.4178983753160309
2025-03-05 14:20:09.759,-3.994050213402444e-05,-0.6280851560813442
2025-03-05 14:20:09.767,-5.585930380054321e-05,-0.8097801877181561
2025-03-05 14:20:09.775,-6.991094726180427e-05,-0.957481244367224
2025-03-05 14:20:09.782,-8.194393251727585e-05,-1.0664838491755588
2025-03-05 14:20:09.790,-9.180307260013793e-05,-1.1329923631736107
2025-03-05 14:20:09.798,-9.934861546267031e-05,-1.1542054138284707
2025-03-05 14:20:09.806,-0.0001044758009017,-1.1283747589485495
2025-03-05 14:20:09.814,-0.000107133707605,-1.0548374041596216
2025-03-05 14:20:09.821,-0.0001073422331499,-0.9340213917690494
2025-03-05 14:20:09.829,-0.0001052060876483,-0.7674261591569254
2025-03-05 14:20:09.837,-0.0001009247714467,-0.5575787434680556
2025-03-05 14:20:09.845,-9.479764921209464e-05,-0.307967410112983
2025-03-05 14:20:09.853,-8.722342572626194e-05,-0.0229545298266045
2025-03-05 14:20:09.860,-7.86935699999243e-05,0.2923292545391074
2025-03-05 14:20:09.868,-6.977951946992555e-05,0.63210732315995
2025-03-05 14:20:09.876,-6.111381886349541e-05,0.990093367634497
2025-03-05 14:20:09.884,-5.33657008853982e-05,1.3596389475235855
2025-03-05 14:20:09.892,-4.721198859579784e-05,1.7338892817733451
2025-03-05 14:20:09.900,-4.330458100716659e-05,2.1059438852624885
2025-03-05 14:20:09.907,-4.223615607425043e-05,2.4690182845106
2025-03-05 14:20:09.915,-4.450604315371478e-05,2.816602698735
2025-03-05 14:20:09.923,-5.048839219546362e-05,3.142613308085549
2025-03-05 14:20:09.931,-6.040471544730881e-05,3.4415316029896186
2025-03-05 14:20:09.939,-7.430260314957362e-05,3.70852736425374
2025-03-05 14:20:09.946,-9.20420252367437e-05,3.939561100670208
2025-03-05 14:20:09.954,-0.0001132902534386,4.131462289980097
2025-03-05 14:20:09.962,-0.0001375261120455,4.281980525097522
2025-03-05 14:20:09.970,-0.0001640539259864,4.389807627344738
2025-03-05 14:20:09.978,-0.0001920271116504,4.454569897103909
2025-03-05 14:20:09.985,-0.0002204808520404,4.476790864727203
2025-03-05 14:20:09.993,-0.0002483727415594,4.4578261156509145
2025-03-05 14:20:10.001,-0.0002746296813198,4.399772931384555
2025-03-05 14:20:10.009,-0.00029819870929,4.305358552801535
2025-03-05 14:20:10.017,-0.0003180990255283,4.177811778730969
2025-03-05 14:20:10.025,-0.0003334723544221,4.020723315373323
2025-03-05 14:20:10.032,-0.0003436289089836,3.837900757651671
2025-03-05 14:20:10.040,-0.0003480864243312,3.63322429228396
2025-03-05 14:20:10.048,-0.0003465999793345,3.4105091546025403
2025-03-05 14:20:10.056,-0.0003391807375474,3.173380545603795
2025-03-05 14:20:10.064,-0.000326102368766,2.925166128891849
2025-03-05 14:20:10.071,-0.0003078946719084,2.6688103952585083
2025-03-05 14:20:10.079,-0.0002853246509102,2.40681413381101
2025-03-05 14:20:10.087,-0.0002593659062408,2.1412010237962025
2025-03-05 14:20:10.095,-0.0002311577476116,1.873512012494449
2025-03-05 14:20:10.103,-0.000201956010666,1.6048267323209209
2025-03-05 14:20:10.110,-0.0001730781264231,1.3358098037495048
2025-03-05 14:20:10.118,-0.0001458453444229,1.0667785487141734
2025-03-05 14:20:10.126,-0.0001215250275095,0.7977874881758242
2025-03-05 14:20:10.134,-0.0001012757325424,0.5287241035161901
2025-03-05 14:20:10.142,-8.609756269700364e-05,0.2594097770776253
2025-03-05 14:20:10.150,-7.679006178728558e-05,-0.010300360375734
2025-03-05 14:20:10.157,-7.391960973008678e-05,-0.2804247444475763
2025-03-05 14:20:10.165,-7.779780578465895e-05,-0.5507753504118543
2025-03-05 14:20:10.173,-8.847174459099211e-05,-0.8208949288440767
2025-03-05 14:20:10.181,-0.0001057264809595,-1.090014966778082
2025-03-05 14:20:10.189,-0.0001290993870724,-1.3570365319149778
2025-03-05 14:20:10.196,-0.000157905546542,-1.6205347725177557
2025-03-05 14:20:10.204,-0.0001912728133884,-1.878786463172174
2025-03-05 14:20:10.212,-0.0002281846991634,-2.129818682690148
2025-03-05 14:20:10.220,-0.0002675288460311,-2.3714755574500668
2025-03-05 14:20:10.228,-0.0003081485101367,-2.601499066924335
2025-03-05 14:20:10.235,-0.0003488942619489,-2.817619236731136
2025-03-05 14:20:10.243,-0.0003886731144418,-3.017648662284349
2025-03-05 14:20:10.251,-0.0004264926263943,-3.199576213585455
2025-03-05 14:20:10.259,-0.0004614981516082,-3.361654952706291
2025-03-05 14:20:10.267,-0.0004930020735286,-3.502479722009839
2025-03-05 14:20:10.275,-0.0005205043636585,-3.621050494704795
2025-03-05 14:20:10.282,-0.0005437041552902,-3.716818372989071
2025-03-05 14:20:10.290,-0.0005625023803754,-3.7897120228015946
2025-03-05 14:20:10.298,-0.0005769958976881,-3.8401433007954062
2025-03-05 14:20:10.306,-0.0005874638256015,-3.868991815411763
2025-03-05 14:20:10.314,-0.000594346915718,-3.877569129225471
2025-03-05 14:20:10.321,-0.000598220842763,-3.867564216707672
2025-03-05 14:20:10.329,-0.0005997643872589,-3.8409726098164736
2025-03-05 14:20:10.337,-0.0005997237286051,-3.800012370534144
2025-03-05 14:20:10.345,-0.0005988743740223,-3.7470306040656185
2025-03-05 14:20:10.353,-0.000597982465769,-3.684404645141921
2025-03-05 14:20:10.360,-0.0005977672547834,-3.6144422873190094
2025-03-05 14:20:10.368,-0.0005988664463561,-3.539285462617369
2025-03-05 14:20:10.376,-0.000601805980423,-3.4608216125859586
2025-03-05 14:20:10.384,-0.0006069756098419,-3.380606635297988
2025-03-05 14:20:10.392,-0.0006146113252349,-3.2998027722610077
2025-03-05 14:20:10.400,-0.0006247852100447,-3.2191341479245223
2025-03-05 14:20:10.407,-0.0006374027827853,-3.138861927702556
2025-03-05 14:20:10.415,-0.0006522074603525,-3.058780252196872
2025-03-05 14:20:10.423,-0.0006687915425682,-2.978233265369484
2025-03-05 14:20:10.431,-0.0006866130289159,-2.896152708150116
2025-03-05 14:20:10.439,-0.0007050175297528,-2.811114721923881
2025-03-05 14:20:10.446,-0.0007232644212418,-2.721413729625106
2025-03-05 14:20:10.454,-0.0007405561679275,-2.625150571725732
2025-03-05 14:20:10.462,-0.000756069480222,-2.520331503450393
2025-03-05 14:20:10.470,-0.0007689868391742,-2.404974230876806
2025-03-05 14:20:10.478,-0.0007785269555067,-2.277216887280596
2025-03-05 14:20:10.485,-0.0007839728209573,-2.1354257262029144
2025-03-05 14:20:10.493,-0.0007846960436815,-1.9782973253157476
2025-03-05 14:20:10.501,-0.0007801761814303,-1.8049512423701664
2025-03-05 14:20:10.509,-0.0007700139457982,-1.6150093293772696
2025-03-05 14:20:10.517,-0.0007539375235794,-1.408658286722643
2025-03-05 14:20:10.525,-0.0007318017973652,-1.1866925239910306
2025-03-05 14:20:10.532,-0.0007035808646722,-0.9505349905285354
2025-03-05 14:20:10.540,-0.000669354900191,-0.7022343468589156
2025-03-05 14:20:10.548,-0.0006292930197615,-0.444437664926047
2025-03-05 14:20:10.556,-0.0005836342643566,-0.1803387611123172
2025-03-05 14:20:10.564,-0.0005326689669224,0.0863967385652926
2025-03-05 14:20:10.571,-0.0004767225200029,0.351727459735498
2025-03-05 14:20:10.579,-0.0004161430175609,0.6113502865164326
2025-03-05 14:20:10.587,-0.0003512935758724,0.860828161191547
2025-03-05 14:20:10.595,-0.000282549482308,1.095726698703344
2025-03-05 14:20:10.603,-0.0002102997427179,1.31175404291181
2025-03-05 14:20:10.611,-0.0001349521277624,1.5048981009504443
2025-03-05 14:20:10.618,-5.694047591861492e-05,1.671555352461262
2025-03-05 14:20:10.626,2.3267188850039776e-05,1.80864584611592
2025-03-05 14:20:10.634,0.0001051612138391,1.9137097245474963
2025-03-05 14:20:10.642,0.0001881849280341,1.984981583597645
2025-03-05 14:20:10.650,0.0002717324203875,2.021440081949501
2025-03-05 14:20:10.657,0.0003551501924499,2.022831389214394
2025-03-05 14:20:10.665,0.0004377428920942,1.989666229649871
2025-03-05 14:20:10.673,0.0005187828617642,1.923191400299544
2025-03-05 14:20:10.681,0.0005975229218349,1.8253376862820885
2025-03-05 14:20:10.689,0.000673211672966,1.6986470376643006
2025-03-05 14:20:10.696,0.0007451105270066,1.5461826843288018
2025-03-05 14:20:10.704,0.0008125115917658,1.3714265122870948
2025-03-05 14:20:10.712,0.0008747554880746,1.1781684658018083
2025-03-05 14:20:10.720,0.000931248209613,0.970392934820402
2025-03-05 14:20:10.728,0.0009814762008182,0.7521670088864163
2025-03-05 14:20:10.736,0.001025018863426,0.5275351215304148
2025-03-05 14:20:10.743,0.00106155771745,0.3004239970873179
2025-03-05 14:20:10.751,0.0010908815402669,0.0745609979190363
2025-03-05 14:20:10.759,0.0011128871096222,-0.1465919727262418
2025-03-05 14:20:10.767,0.0011275756790232,-0.3598878501338778
2025-03-05 14:20:10.775,0.0011350458503068,-0.5625268813280404
2025-03-05 14:20:10.782,0.0011354838832346,-0.7520729015545681
2025-03-05 14:20:10.790,0.0011291525874837,-0.9264549022197844
2025-03-05 14:20:10.798,0.0011163797768161,-1.0839560053723525
2025-03-05 14:20:10.806,0.0010975469443679,-1.2231924165142771
2025-03-05 14:20:10.814,0.0010730785168542,-1.3430852116484473
2025-03-05 14:20:10.821,0.0010434318571378,-1.4428279354975393
2025-03-05 14:20:10.829,0.0010090880791326,-1.521852959437122
2025-03-05 14:20:10.837,0.0009705436559201,-1.5797993834005726
2025-03-05 14:20:10.845,0.0009283027223588,-1.6164849790665112
2025-03-05 14:20:10.853,0.0008828699316292,-1.631884275019099
2025-03-05 14:20:10.861,0.000834743796357,-1.626114389948724
2025-03-05 14:20:10.868,0.0007844106674265,-1.599429637616823
2025-03-05 14:20:10.876,0.0007323397642747,-1.5522252684521818
2025-03-05 14:20:10.884,0.000678979741587,-1.4850499933447616
2025-03-05 14:20:10.892,0.0006247570453329,-1.3986261803138809
2025-03-05 14:20:10.900,0.0005700759313251,-1.29387586100665
2025-03-05 14:20:10.907,0.0005153197652497,-1.171949982604635
