Timestamp,ECG_test1_ECGtoHR_LA_RA_CAL,Lead I (LA-RA),Lead II (LL-LA),Lead III (LL-RA),Vx-RL
2025-03-05 14:18:51.241,-1.0,-0.0066867298956232,-0.037310774642789,-0.0439975072016098,4.901649941202866e-07
2025-03-05 14:18:51.243,-1.0,-0.0072229100483613,-0.0345737607122768,-0.0417966737064417,5.042570923634514e-07
2025-03-05 14:18:51.245,-1.0,-0.0077358133958245,-0.033294508172082,-0.0410303248267168,5.183476379642468e-07
2025-03-05 14:18:51.247,-1.0,-0.0081820682460342,-0.033958484908002,-0.0421405567774129,5.325757490687312e-07
2025-03-05 14:18:51.249,-1.0,-0.0085454281731405,-0.0362075088360863,-0.044752941043025,5.46986371873533e-07
2025-03-05 14:18:51.251,-1.0,-0.0088666968318511,-0.0391539544468393,-0.0480206557389693,5.615091366942502e-07
2025-03-05 14:18:51.253,-1.0,-0.009236069185359,-0.0418886940849225,-0.0511247681345989,5.759968110253826e-07
2025-03-05 14:18:51.255,-1.0,-0.0097279310903838,-0.0438461200545287,-0.0535740563636432,5.903021103026595e-07
2025-03-05 14:18:51.257,-1.0,-0.0103188505181107,-0.0448670798777288,-0.0551859359177048,6.043524744396686e-07
2025-03-05 14:18:51.259,-1.0,-0.0108746332960487,-0.0450316895269019,-0.0559063286214868,6.181845430668398e-07
2025-03-05 14:18:51.261,-1.0,-0.0112579681578258,-0.0444460125770428,-0.0557039868220259,6.319218049585173e-07
2025-03-05 14:18:51.263,-1.0,-0.0114861554457398,-0.0431486366707337,-0.0546347985362301,6.457085231160274e-07
2025-03-05 14:18:51.265,-1.0,-0.0117776991138963,-0.0411991544188405,-0.052976860338036,6.596350733917714e-07
2025-03-05 14:18:51.267,-1.0,-0.0124053368899889,-0.0388534695282858,-0.0512588136433009,6.736931651008744e-07
2025-03-05 14:18:51.269,-1.0,-0.0134679523710465,-0.0366305040443008,-0.0500984640575835,6.877828895726674e-07
2025-03-05 14:18:51.270,-1.0,-0.0147850301953329,-0.0351590273188432,-0.0499440655355611,7.017662825790178e-07
2025-03-05 14:18:51.272,-1.0,-0.0159977379490875,-0.0348978993494129,-0.0508956456450305,7.155384470657785e-07
2025-03-05 14:18:51.274,-1.0,-0.0167744180866242,-0.0359277571460973,-0.0527021838622298,7.290792910166392e-07
2025-03-05 14:18:51.276,-1.0,-0.0169637963295167,-0.0379260033258623,-0.0548898085590116,7.424601626430161e-07
2025-03-05 14:18:51.278,-1.0,-0.0166291920719644,-0.0402938499140913,-0.0569230511923228,7.558036706436177e-07
2025-03-05 14:18:51.280,-1.0,-0.0159927710492859,-0.0423519346703132,-0.0583447152790208,7.692189756320971e-07
2025-03-05 14:18:51.282,-1.0,-0.0153388523879057,-0.0435466221299854,-0.0588854844763677,7.827465143716937e-07
2025-03-05 14:18:51.284,-1.0,-0.0149126688039075,-0.0436202687577189,-0.0585329479364532,7.963399521941816e-07
2025-03-05 14:18:51.286,-1.0,-0.0148519483210884,-0.0426857898833515,-0.0575377489753749,8.0989301436616e-07
2025-03-05 14:18:51.288,-1.0,-0.0151793739891193,-0.041168957930436,-0.0563483430393939,8.232956170987538e-07
2025-03-05 14:18:51.290,-1.0,-0.0158454784043494,-0.0396416306307174,-0.0554871204539955,8.364894384925488e-07
2025-03-05 14:18:51.292,-1.0,-0.0167801713586578,-0.0386115715222418,-0.0553917545718357,8.49494675598184e-07
2025-03-05 14:18:51.294,-1.0,-0.0179139144875951,-0.0383492405290936,-0.056263166988484,8.623957087633573e-07
2025-03-05 14:18:51.296,-1.0,-0.0191478225789182,-0.0388230134774752,-0.0579708483482766,8.75294912180831e-07
2025-03-05 14:18:51.298,-1.0,-0.0202787315290998,-0.0397499229191891,-0.0600286671087429,8.882596375006676e-07
2025-03-05 14:18:51.300,-1.0,-0.0209347086332475,-0.040677510208012,-0.0616122319025282,9.012896448309366e-07
2025-03-05 14:18:51.302,-1.0,-0.020610947068184,-0.0410130481987516,-0.0616240087284003,9.1432046895297e-07
2025-03-05 14:18:51.304,-1.0,-0.0188465245487021,-0.040037605123798,-0.0588841435013074,9.272591168380812e-07
2025-03-05 14:18:51.306,-1.0,-0.0154737320587659,-0.0370263786046724,-0.0525001248116746,9.400322344141368e-07
2025-03-05 14:18:51.308,-1.0,-0.01081307809094,-0.0315053300366857,-0.0423184225568014,9.526216223644422e-07
2025-03-05 14:18:51.310,-1.0,-0.0057131502959152,-0.0235059433810105,-0.0292191083769835,9.65069820154097e-07
2025-03-05 14:18:51.311,-1.0,-0.001381377562339,-0.0136542865882561,-0.0150356791438075,9.77454684611318e-07
2025-03-05 14:18:51.313,-1.0,0.0009974460282115,-0.0030767017737665,-0.0020792710737266,9.898477064603343e-07
2025-03-05 14:18:51.315,-1.0,0.000756594112858,0.0067887589140934,0.0075453373249123,1.0022781737498758e-06
2025-03-05 14:18:51.317,-1.0,-0.0018614639262066,0.0144479120400267,0.0125864320221457,1.0147209442843455e-06
2025-03-05 14:18:51.319,-1.0,-0.005653437920459,0.0187222111254652,0.0130687567388094,1.0271124671619852e-06
2025-03-05 14:18:51.321,-1.0,-0.0088389469753278,0.0191988139652917,0.0103598501869293,1.0393850523272005e-06
2025-03-05 14:18:51.323,-1.0,-0.0097563778825273,0.0165512380345969,0.0067948430529305,1.0515008060552551e-06
2025-03-05 14:18:51.325,-1.0,-0.0075606725524834,0.0124748843271341,0.0049141944028726,1.0634681133338749e-06
2025-03-05 14:18:51.327,-1.0,-0.002553140998584,0.0091274282498093,0.0065742696023271,1.0753336246866952e-06
2025-03-05 14:18:51.329,-1.0,0.0040766515249466,0.0082294020922085,0.0123060356627313,1.0871556433152903e-06
2025-03-05 14:18:51.331,-1.0,0.0109770279889902,0.0102333571245538,0.0212103668172902,1.0989737891936693e-06
2025-03-05 14:18:51.333,-1.0,0.0173893661612733,0.0140468122662279,0.0314361597645088,1.11079054015928e-06
2025-03-05 14:18:51.335,-1.0,0.0234651414702004,0.0175670257621987,0.041032148201713,1.1225729728855107e-06
2025-03-05 14:18:51.337,-1.0,0.0299894640931547,0.0188099552834903,0.0487994000010166,1.134272097053824e-06
2025-03-05 14:18:51.339,-1.0,0.0377402545186719,0.0169923490120329,0.0547325838443392,1.1458484826967757e-06
2025-03-05 14:18:51.341,-1.0,0.0468600979401737,0.0129181678902131,0.0597782458615895,1.157290691855733e-06
2025-03-05 14:18:51.343,-1.0,0.0565139918933525,0.0084902149585258,0.0650041866097269,1.1686179095129246e-06
2025-03-05 14:18:51.345,-1.0,0.0649636264383934,0.0057241602969385,0.0706877662069082,1.1798669984940458e-06
2025-03-05 14:18:51.347,-1.0,0.0700956830261549,0.0058257619914752,0.0759214241765485,1.191072085793214e-06
2025-03-05 14:18:51.349,-1.0,0.0702841898041924,0.0086876831347907,0.0789718517601296,1.2022477570086592e-06
2025-03-05 14:18:51.351,-1.0,0.0652186082637861,0.0129132939375632,0.0781318806739194,1.2133839344255793e-06
2025-03-05 14:18:51.352,-1.0,0.0562083522597476,0.0163476592289425,0.072555989621035,1.2244536849874064e-06
2025-03-05 14:18:51.354,-1.0,0.0456966934177209,0.0169517396946105,0.0626484109267876,1.2354284727426766e-06
2025-03-05 14:18:51.356,-1.0,0.0361852506471539,0.013648803581001,0.0498340317492846,1.246292218037228e-06
2025-03-05 14:18:51.358,-1.0,0.0291319396149474,0.0067183507129099,0.0358502675706161,1.2570472015179242e-06
2025-03-05 14:18:51.360,-1.0,0.0243847392930524,-0.0024430674718278,0.0219416487850544,1.2677099334915966e-06
2025-03-05 14:18:51.362,-1.0,0.0204077894253122,-0.0120087284424257,0.008399037654174,1.2783005332157802e-06
2025-03-05 14:18:51.364,-1.0,0.0151766302734071,-0.0204641402542919,-0.0052875336200543,1.2888320254464269e-06
2025-03-05 14:18:51.366,-1.0,0.0073246952515493,-0.0270603821200665,-0.0197357108303941,1.2993050621088545e-06
2025-03-05 14:18:51.368,-1.0,-0.003019585338063,-0.0318461508507841,-0.0348657604740249,1.3097098798528646e-06
2025-03-05 14:18:51.370,-1.0,-0.0141687332798984,-0.0353699333550155,-0.0495386912328923,1.3200331755872818e-06
2025-03-05 14:18:51.372,-1.0,-0.0236735277565277,-0.0382503850921366,-0.0619239377438886,1.3302653340400626e-06
2025-03-05 14:18:51.374,-1.0,-0.029587350818981,-0.0407993924747265,-0.0703867684733039,1.3404040566666232e-06
2025-03-05 14:18:51.376,-1.0,-0.0315200333274436,-0.0428408284348704,-0.0743608872213373,1.3504531722743912e-06
2025-03-05 14:18:51.378,-1.0,-0.0308999246250497,-0.0438213406611009,-0.0747212910280082,1.360418396668895e-06
2025-03-05 14:18:51.380,-1.0,-0.0302710221526108,-0.0432009528754225,-0.0734720010605997,1.3703032715916408e-06
2025-03-05 14:18:51.382,-1.0,-0.0319589981267581,-0.0409451866343508,-0.072904211091248,1.3801077836150153e-06
2025-03-05 14:18:51.384,-1.0,-0.0368032073587926,-0.0378168382066781,-0.0746200721951207,1.3898299694351689e-06
2025-03-05 14:18:51.386,-1.0,-0.0436589999684085,-0.0352055842522313,-0.0788646111462668,1.3994687106145217e-06
2025-03-05 14:18:51.388,-1.0,-0.0499727605462997,-0.0344827777509832,-0.0844555655123583,1.409025267718062e-06
2025-03-05 14:18:51.390,-1.0,-0.053135483388479,-0.0362056055127973,-0.0893411163997909,1.4185022299311998e-06
2025-03-05 14:18:51.392,-1.0,-0.0518883381583371,-0.039672182399427,-0.0915605483365365,1.4279006093794529e-06
2025-03-05 14:18:51.393,-1.0,-0.0470315054060354,-0.0431783413480093,-0.0902098748126885,1.4372173491781534e-06
2025-03-05 14:18:51.395,-1.0,-0.0410683317055029,-0.0449101139752125,-0.0859784740197702,1.4464454572625102e-06
2025-03-05 14:18:51.397,-1.0,-0.0369790435641862,-0.0439795651578207,-0.0809586373408455,1.455577299852961e-06
2025-03-05 14:18:51.399,-1.0,-0.0367632264334917,-0.0409692355732433,-0.0777324909028038,1.4646093498671454e-06
2025-03-05 14:18:51.401,-1.0,-0.0404919729654215,-0.0376254846867942,-0.0781174868220806,1.4735453700389625e-06
2025-03-05 14:18:51.403,-1.0,-0.0463292592081076,-0.0358677886458683,-0.0821970772953127,1.482395581393053e-06
2025-03-05 14:18:51.405,-1.0,-0.0514862608471629,-0.0366954012776924,-0.0881816918378242,1.4911716283201755e-06
2025-03-05 14:18:51.407,-1.0,-0.0536198985913338,-0.0396142486315852,-0.0932341772097511,1.4998798087619884e-06
2025-03-05 14:18:51.409,-1.0,-0.0519755213594655,-0.0428905258153483,-0.0948660774376419,1.508516450215409e-06
2025-03-05 14:18:51.411,-1.0,-0.0476957401744732,-0.0444727745141832,-0.0921685452268679,1.5170684853276965e-06
2025-03-05 14:18:51.413,-1.0,-0.0431453147242298,-0.0430712560514625,-0.0862166015845461,1.5255195173371312e-06
2025-03-05 14:18:51.415,-1.0,-0.040638666579653,-0.0388318135092128,-0.0794705111604872,1.533858461780715e-06
2025-03-05 14:18:51.417,-1.0,-0.0412847761805689,-0.0332939559291732,-0.0745787634362155,1.5420860732748345e-06
2025-03-05 14:18:51.419,-1.0,-0.0445613093426478,-0.0286943946233961,-0.073255735543002,1.5502154670274154e-06
2025-03-05 14:18:51.421,-1.0,-0.0487598299103713,-0.0269665851426245,-0.0757264468816453,1.558265844486814e-06
2025-03-05 14:18:51.423,-1.0,-0.0519106909771874,-0.0289168626051913,-0.0808275856686287,1.566252403809883e-06
2025-03-05 14:18:51.425,-1.0,-0.052525727517786,-0.0340134903848581,-0.0865392502535511,1.5741777521181142e-06
2025-03-05 14:18:51.427,-1.0,-0.0496632106731107,-0.0409721018688456,-0.0906353451612215,1.5820296343552316e-06
2025-03-05 14:18:51.429,-1.0,-0.0423568627468924,-0.048892076841839,-0.0912489724736255,1.5897865826427767e-06
2025-03-05 14:18:51.431,-1.0,-0.0290370611368233,-0.058272274710895,-0.0873093689891715,1.5974288266094558e-06
2025-03-05 14:18:51.433,-1.0,-0.0077696425993681,-0.07105990713719,-0.0788295831225574,1.6049488049459955e-06
2025-03-05 14:18:51.435,-1.0,0.0223134120151605,-0.0891767003838455,-0.0668633219893816,1.6123555892756406e-06
2025-03-05 14:18:51.436,-1.0,0.0589620212526577,-0.1118022067146034,-0.0528402193139181,1.6196706035778754e-06
2025-03-05 14:18:51.438,-1.0,0.0956152403056524,-0.1328337215350192,-0.0372185153168264,1.6269166254103209e-06
2025-03-05 14:18:51.440,-1.0,0.1227453904351488,-0.1406626442852929,-0.0179172881823548,1.6341057317927e-06
2025-03-05 14:18:51.442,-1.0,0.1323395320577881,-0.1217627434375338,0.0105767540341788,1.6412325819173837e-06
2025-03-05 14:18:51.444,-1.0,0.1238392770399946,-0.0672998102658479,0.0565394319305552,1.6482767406808803e-06
2025-03-05 14:18:51.446,-1.0,0.1076385114403106,0.0207796708876069,0.1284181472314024,1.6552130117340194e-06
2025-03-05 14:18:51.448,-1.0,0.1021212632116884,0.1287456884067127,0.2308669162805926,1.6620244692727095e-06
2025-03-05 14:18:51.450,-1.0,0.1235302454333779,0.2373040505071663,0.360834260375395,1.6687113552151004e-06
2025-03-05 14:18:51.452,-1.0,0.1736307296318433,0.3318019552492734,0.505432649098905,1.6752910981014423e-06
2025-03-05 14:18:51.454,-1.0,0.2341413189590559,0.4086827539366663,0.6428240368987022,1.6817893435698523e-06
2025-03-05 14:18:51.456,-1.0,0.2743862803411793,0.4720329149939866,0.7464191591170739,1.6882266247450851e-06
2025-03-05 14:18:51.458,-1.0,0.2689703152391759,0.5227278202818246,0.7916980990707805,1.69460762931331e-06
2025-03-05 14:18:51.460,-1.0,0.2127368677407281,0.5511906815814088,0.7639275126301569,1.7009186902221784e-06
2025-03-05 14:18:51.462,-1.0,0.1212419502652267,0.5428448480758192,0.6640867614047522,1.7071348282094796e-06
2025-03-05 14:18:51.464,-1.0,0.0176471457850096,0.4924825891237904,0.5101296977349428,1.7132326713737906e-06
2025-03-05 14:18:51.466,-1.0,-0.0812879850627339,0.413431414503768,0.3321433920432744,1.7192025075021386e-06
2025-03-05 14:18:51.468,-1.0,-0.1689493246096564,0.3318603526031086,0.1629109903864874,1.7250532004505676e-06
2025-03-05 14:18:51.470,-1.0,-0.2428638388169892,0.2709776837110595,0.0281138070872098,1.7308074580926637e-06
2025-03-05 14:18:51.472,-1.0,-0.2978769171433525,0.2384424501644163,-0.0594345049854826,1.736489985070224e-06
2025-03-05 14:18:51.474,-1.0,-0.3255664084798321,0.2256238610515383,-0.0999425856425155,1.7421147337932148e-06
2025-03-05 14:18:51.476,-1.0,-0.3194986562501601,0.2165968402736309,-0.1029018544095681,1.7476778681621822e-06
2025-03-05 14:18:51.477,-1.0,-0.2809654070350647,0.1986619105486741,-0.0823035351459523,1.753160003805545e-06
2025-03-05 14:18:51.479,-1.0,-0.2204671044145601,0.1678454820055088,-0.0526216612946585,1.7585364248337885e-06
2025-03-05 14:18:51.481,-1.0,-0.1540671133511009,0.1281107611607348,-0.0259563912928372,1.7637898647482245e-06
2025-03-05 14:18:51.483,-1.0,-0.0971261892662797,0.0869643320436603,-0.0101618965279419,1.7689192091027729e-06
2025-03-05 14:18:51.485,-1.0,-0.0589438662299826,0.0509886291133108,-0.0079552766121779,1.7739397176679791e-06
2025-03-05 14:18:51.487,-1.0,-0.0406995663461441,0.0234650824279487,-0.0172345235978411,1.7788748399219038e-06
2025-03-05 14:18:51.489,-1.0,-0.037030108606555,0.0043725237998301,-0.0326576246728446,1.783744035527162e-06
2025-03-05 14:18:51.491,-1.0,-0.0398587933960643,-0.0081737423958067,-0.0480325758526709,1.7885529623046114e-06
2025-03-05 14:18:51.493,-1.0,-0.0424065944114424,-0.0162619384243079,-0.0586685730999977,1.7932910057186369e-06
2025-03-05 14:18:51.495,-1.0,-0.0416638156555353,-0.0211801105048093,-0.0628439666320587,1.7979372042584548e-06
2025-03-05 14:18:51.497,-1.0,-0.0385590546635175,-0.0233643320686868,-0.0619234274080054,1.802471275112041e-06
2025-03-05 14:18:51.499,-1.0,-0.0361655936630261,-0.0230443263186296,-0.0592099608519409,1.806883927447791e-06
2025-03-05 14:18:51.501,-1.0,-0.0371385819812827,-0.0210034887399647,-0.0581421117743646,1.8111812100101823e-06
2025-03-05 14:18:51.503,-1.0,-0.0418343279388451,-0.0188660936347264,-0.0607004628007079,1.8153808848477533e-06
2025-03-05 14:18:51.505,-1.0,-0.0480669568117384,-0.0186267456372103,-0.0666937438472516,1.819502981307944e-06
2025-03-05 14:18:51.507,-1.0,-0.0524595621206083,-0.0216321329430498,-0.0740917366361747,1.8235595832494635e-06
2025-03-05 14:18:51.509,-1.0,-0.052448780799716,-0.0276698686591695,-0.0801186912116186,1.827549091409896e-06
2025-03-05 14:18:51.511,-1.0,-0.0477365492132598,-0.0348602041920495,-0.0825967953431024,1.8314576926683903e-06
2025-03-05 14:18:51.513,-1.0,-0.0404293678632594,-0.0405458685347715,-0.0809752785214303,1.8352669633932617e-06
2025-03-05 14:18:51.515,-1.0,-0.0338966227215553,-0.0426853007296921,-0.0765819657557903,1.8389634492243364e-06
2025-03-05 14:18:51.517,-1.0,-0.0310325384088531,-0.0409201201023109,-0.0719527009891777,1.842545252717972e-06
2025-03-05 14:18:51.518,-1.0,-0.0328276612971507,-0.0367214519515253,-0.0695491558924077,1.84602243323518e-06
2025-03-05 14:18:51.520,-1.0,-0.0379265180966999,-0.0325881938297098,-0.0705147547307762,1.8494113429499344e-06
2025-03-05 14:18:51.522,-1.0,-0.0433435074788311,-0.0307794439404024,-0.0741229943828981,1.8527261056606777e-06
2025-03-05 14:18:51.524,-1.0,-0.0459653377006351,-0.0322539354263925,-0.0782193162515294,1.8559717213085429e-06
2025-03-05 14:18:51.526,-1.0,-0.0441010509573636,-0.0363216003413577,-0.0804226945864071,1.8591421926430489e-06
2025-03-05 14:18:51.528,-1.0,-0.0383154847937418,-0.0411074012563985,-0.0794229295021274,1.862224312493551e-06
2025-03-05 14:18:51.530,-1.0,-0.0311329775960748,-0.044514218693661,-0.0756472399048909,1.8652048331453407e-06
2025-03-05 14:18:51.532,-1.0,-0.0257581533984044,-0.0451840958644312,-0.0709422930380302,1.868077168609894e-06
2025-03-05 14:18:51.534,-1.0,-0.0244463591580626,-0.0430562141386661,-0.0675026172279103,1.8708442762915416e-06
2025-03-05 14:18:51.536,-1.0,-0.0273321524520083,-0.0393629142840911,-0.0666951108194078,1.873516537405632e-06
2025-03-05 14:18:51.538,-1.0,-0.0323119072642966,-0.0361208968947926,-0.0684328483914532,1.876106078152074e-06
2025-03-05 14:18:51.540,-1.0,-0.0360747162805117,-0.0353048609692795,-0.0713796216289358,1.8786206702695629e-06
2025-03-05 14:18:51.542,-1.0,-0.0358021097970316,-0.0379734857223389,-0.0737756400435701,1.881060317882903e-06
2025-03-05 14:18:51.544,-1.0,-0.0306786714896328,-0.0436832645787099,-0.0743619807363059,1.8834180241495064e-06
2025-03-05 14:18:51.546,-1.0,-0.0224004268490117,-0.0505114786373856,-0.0729119502973753,1.8856839873678504e-06
2025-03-05 14:18:51.548,-1.0,-0.0143673494555542,-0.0558054423680104,-0.0701728367774235,1.8878508046506236e-06
2025-03-05 14:18:51.550,-1.0,-0.0099470323297854,-0.0573915297387166,-0.067338607165389,1.889916972320544e-06
2025-03-05 14:18:51.552,-1.0,-0.0107047272019504,-0.0546433209460082,-0.0653480933874629,1.8918870935256495e-06
2025-03-05 14:18:51.554,-1.0,-0.0155344573025465,-0.0488152122089299,-0.0643497148916473,1.8937690301478016e-06
2025-03-05 14:18:51.556,-1.0,-0.0211758965583095,-0.0424453301794008,-0.0636212722546078,1.8955697603414143e-06
2025-03-05 14:18:51.558,-1.0,-0.0238781482011527,-0.0381453367931099,-0.0620235306425738,1.8972921682028523e-06
2025-03-05 14:18:51.559,-1.0,-0.0213467349901603,-0.0373932500451166,-0.0587400308099544,1.898934265731251e-06
2025-03-05 14:18:51.561,-1.0,-0.0139486425794336,-0.0399030357988381,-0.0538517242764444,1.9004909321703989e-06
2025-03-05 14:18:51.563,-1.0,-0.0045523571588215,-0.0438447186015747,-0.0483971217824424,1.9019569634151143e-06
2025-03-05 14:18:51.565,-1.0,0.0029138327894183,-0.046798469928341,-0.0438846832878876,1.903329714435239e-06
2025-03-05 14:18:51.567,-1.0,0.0054755473358983,-0.0469998712883972,-0.0415243702318999,1.9046100641079885e-06
2025-03-05 14:18:51.569,-1.0,0.0026925888711241,-0.0442808484967058,-0.041588306036624,1.9058014802649844e-06
2025-03-05 14:18:51.571,-1.0,-0.0030496150802344,-0.0402072411922647,-0.043256902812224,1.906907979168652e-06
2025-03-05 14:18:51.573,-1.0,-0.0077870107982354,-0.0372685815066465,-0.0450556389664204,1.907932218860806e-06
2025-03-05 14:18:51.575,-1.0,-0.0081696661267161,-0.0374670933883417,-0.0456368062900884,1.908874679188749e-06
2025-03-05 14:18:51.577,-1.0,-0.0033954503994649,-0.0410455765313277,-0.0444410738130475,1.909734125362356e-06
2025-03-05 14:18:51.579,-1.0,0.0042681503788113,-0.0461376579885041,-0.0418695545976519,1.9105088163465614e-06
2025-03-05 14:18:51.581,-1.0,0.0107550063617204,-0.0496912226017501,-0.0389362633372408,1.911197617474076e-06
2025-03-05 14:18:51.583,-1.0,0.0125723433272066,-0.0492500329654964,-0.0366777368509578,1.9118004165928785e-06
2025-03-05 14:18:51.585,-1.0,0.008875405686415,-0.0445363649376091,-0.035661006584183,1.9123177994397763e-06
2025-03-05 14:18:51.587,-1.0,0.0020100612689262,-0.037792762833418,-0.0357827490178315,1.9127504244093857e-06
2025-03-05 14:18:51.589,-1.0,-0.0037318033580962,-0.0326322027808161,-0.0363640537067451,1.913098650907129e-06
2025-03-05 14:18:51.591,-1.0,-0.0043096061269939,-0.0321321667540967,-0.0364418205537514,1.9133626873004727e-06
2025-03-05 14:18:51.593,-1.0,0.0021446359778102,-0.037293099728428,-0.0351485115188574,1.9135430684036742e-06
2025-03-05 14:18:51.595,-1.0,0.0145102490058612,-0.0465920457535591,-0.0320818446068457,1.91364098124361e-06
2025-03-05 14:18:51.597,-1.0,0.0291674599518937,-0.0566971511460356,-0.0275297391459588,1.913658040488021e-06
2025-03-05 14:18:51.599,-1.0,0.0415348935728348,-0.0639293765547239,-0.0223945310330458,1.9135955203304157e-06
2025-03-05 14:18:51.600,-1.0,0.0480634624799281,-0.0658422038430458,-0.0177787895210297,1.9134535006964744e-06
2025-03-05 14:18:51.602,-1.0,0.0478525368079514,-0.0622789539065893,-0.0144264653668388,1.913230559919546e-06
2025-03-05 14:18:51.604,-1.0,0.0431002825136034,-0.0554577431359349,-0.0123575089978561,1.9129243893774288e-06
2025-03-05 14:18:51.606,-1.0,0.0380815010592233,-0.0490125387546603,-0.0109310861696382,1.912533143465097e-06
2025-03-05 14:18:51.608,-1.0,0.0370904193956575,-0.0463642942785239,-0.0092739234452598,1.912056811417264e-06
2025-03-05 14:18:51.610,-1.0,0.0423612196335349,-0.0491236116175025,-0.0067624406270615,1.911497756525689e-06
2025-03-05 14:18:51.612,-1.0,0.053017854829419,-0.0562865246632562,-0.0032687185563728,1.910859950716124e-06
2025-03-05 14:18:51.614,-1.0,0.0655732657080997,-0.0646861156162071,0.0008871012850098,1.9101471594904624e-06
2025-03-05 14:18:51.616,-1.0,0.0756982878477711,-0.070545545119316,0.0051526938294714,1.909360994587768e-06
2025-03-05 14:18:51.618,-1.0,0.0803527766759707,-0.0713562548773501,0.0089964728016911,1.908499941566529e-06
2025-03-05 14:18:51.620,-1.0,0.0792358317009081,-0.0671116779606257,0.0121241046451155,1.9075600270222424e-06
2025-03-05 14:18:51.622,-1.0,0.074885789724991,-0.0602947243594548,0.0145910161780104,1.9065369175365967e-06
2025-03-05 14:18:51.624,-1.0,0.0714139251340002,-0.0546684336747229,0.0167454421887803,1.90542841046286e-06
2025-03-05 14:18:51.626,-1.0,0.0725066720312248,-0.0534890220775026,0.0190176006087263,1.904235967544578e-06
2025-03-05 14:18:51.628,-1.0,0.0797117983978104,-0.0580329356396028,0.0216788133424954,1.9029643711625872e-06
2025-03-05 14:18:51.630,-1.0,0.0918907900408643,-0.0671783866773768,0.0247123538750126,1.9016195577280276e-06
2025-03-05 14:18:51.632,-1.0,0.1060461019629646,-0.0781899788263613,0.0278560735694775,1.9002056906835293e-06
2025-03-05 14:18:51.634,-1.0,0.1188856268013761,-0.0881033652976114,0.0307822118521604,1.8987230164229127e-06
2025-03-05 14:18:51.636,-1.0,0.128043626082875,-0.0947273100953873,0.0333162662492674,1.8971677049635467e-06
2025-03-05 14:18:51.638,-1.0,0.1321956033633824,-0.0966332321434874,0.035562321398039,1.8955338605554972e-06
2025-03-05 14:18:51.640,-1.0,0.130236432681512,-0.092400781780658,0.0378356010020565,1.893816722456932e-06
2025-03-05 14:18:51.642,-1.0,0.1206009738943585,-0.0801660433450952,0.0404348805806417,1.8920153932599573e-06
2025-03-05 14:18:51.643,-1.0,0.1019106484466596,-0.0584842277497607,0.0434263706627345,1.8901336217909484e-06
2025-03-05 14:18:51.645,-1.0,0.0750849306461084,-0.02847855251261,0.0466063280337849,1.8881781576151372e-06
2025-03-05 14:18:51.647,-1.0,0.0454489730840116,0.0041986929840931,0.0496476158995605,1.886155475283448e-06
2025-03-05 14:18:51.649,-1.0,0.0225352531059766,0.0297456297224862,0.0522808325872455,1.8840685573216227e-06
2025-03-05 14:18:51.651,-1.0,0.01629957294844,0.0380676032467192,0.0543671258796232,1.8819154370617573e-06
2025-03-05 14:18:51.653,-1.0,0.0310976834659549,0.0247581723037268,0.0558558053816183,1.87969030850943e-06
2025-03-05 14:18:51.655,-1.0,0.0612344800027425,-0.0045048205885711,0.0567296089579569,1.877386668962693e-06
2025-03-05 14:18:51.657,-1.0,0.0919212283598779,-0.034897089943834,0.0570240878963717,1.875000877755011e-06
2025-03-05 14:18:51.659,-1.0,0.1062564665985011,-0.0493552306520397,0.0569011853661094,1.8725342710443712e-06
2025-03-05 14:18:51.661,-1.0,0.0945224014660568,-0.0378456272215613,0.0566767236034569,1.8699927085913892e-06
2025-03-05 14:18:51.663,-1.0,0.0601236942412887,-0.0033957376558737,0.0567279058818168,1.867383765233912e-06
2025-03-05 14:18:51.665,-1.0,0.0183282566702191,0.038983785223336,0.057311991125677,1.8647130161573848e-06
2025-03-05 14:18:51.667,-1.0,-0.0117733372486816,0.0701848013593948,0.058411413278785,1.8619813478363488e-06
2025-03-05 14:18:51.669,-1.0,-0.0175198070994651,0.0772302612254229,0.059710403232605,1.8591846974456704e-06
2025-03-05 14:18:51.671,-1.0,0.001008805553998,0.059710735871116,0.0607194904742013,1.8563163580004912e-06
2025-03-05 14:18:51.673,-1.0,0.0323744916328146,0.0286063622292038,0.0609808028566571,1.8533706487079988e-06
2025-03-05 14:18:51.675,-1.0,0.0614622666463251,-0.0011990481550016,0.0602631674323299,1.8503460418889167e-06
2025-03-05 14:18:51.677,-1.0,0.07798690211899,-0.0193210983413323,0.058665752663471,1.8472461285284517e-06
2025-03-05 14:18:51.679,-1.0,0.0805956289793681,-0.0240234442955913,0.0565721335119361,1.844077937266576e-06
2025-03-05 14:18:51.681,-1.0,0.0751744792463362,-0.0207025972900443,0.0544718307255946,1.840848499006924e-06
2025-03-05 14:18:51.683,-1.0,0.0697538802635073,-0.0169827173865975,0.0527711115889138,1.8375614503648928e-06
2025-03-05 14:18:51.684,-1.0,0.0696469090706544,-0.0179310698156764,0.0517157879138693,1.8342154288379509e-06
2025-03-05 14:18:51.686,-1.0,0.0753947807039595,-0.0239895837687878,0.0514051455459794,1.8308050626923027e-06
2025-03-05 14:18:51.688,-1.0,0.0840138854564318,-0.0322460984961135,0.0517677355264703,1.8273240053375653e-06
2025-03-05 14:18:51.690,-1.0,0.0919967441387843,-0.0395332553031874,0.0524634373572516,1.823768416966572e-06
2025-03-05 14:18:51.692,-1.0,0.0976512838147846,-0.0447909689745965,0.05286026331438,1.820139094322451e-06
2025-03-05 14:18:51.694,-1.0,0.1013256876641119,-0.0490781703130901,0.052247465773637,1.8164411819818144e-06
2025-03-05 14:18:51.696,-1.0,0.1039592064267446,-0.0537316176414698,0.0502275371538043,1.812681667049505e-06
2025-03-05 14:18:51.698,-1.0,0.1055421035467084,-0.058536780467181,0.0470052713950577,1.8088659951053272e-06
2025-03-05 14:18:51.700,-1.0,0.1047634796412512,-0.0614481360043788,0.0433152919041545,1.8049955640093429e-06
2025-03-05 14:18:51.702,-1.0,0.0999942877189235,-0.0599894363897241,0.0400047995546879,1.8010673549906537e-06
2025-03-05 14:18:51.704,-1.0,0.0907744893550502,-0.053206180058193,0.0375682574857416,1.7970758281730282e-06
2025-03-05 14:18:51.706,-1.0,0.0786988850965517,-0.0427353001760697,0.0359635330743141,1.7930160445486637e-06
2025-03-05 14:18:51.708,-1.0,0.0670200069679056,-0.032216862308158,0.0348030927759679,1.7888863803826294e-06
2025-03-05 14:18:51.710,-1.0,0.059082479802312,-0.0253626179344514,0.0337198099415104,1.7846894624831198e-06
2025-03-05 14:18:51.712,-1.0,0.0564517505824225,-0.0238495152474783,0.0326021833616735,1.780430910288968e-06
2025-03-05 14:18:51.714,-1.0,0.0578847142141709,-0.0263393057502604,0.0315453564426929,1.77611660665232e-06
2025-03-05 14:18:51.716,-1.0,0.0598600271927346,-0.0292478209695659,0.0306121541572979,1.771749943108252e-06
2025-03-05 14:18:51.718,-1.0,0.0584403561452222,-0.0288077875122041,0.02963251652887,1.76733044103316e-06
2025-03-05 14:18:51.720,-1.0,0.0514087519501953,-0.0231960376600819,0.0282126621543391,1.7628543905018169e-06
2025-03-05 14:18:51.722,-1.0,0.0394677051659427,-0.0135196081886515,0.025948044813905,1.7583170929532648e-06
2025-03-05 14:18:51.724,-1.0,0.0258599761470603,-0.0031799931374998,0.0226799308184117,1.7537154960260657e-06
2025-03-05 14:18:51.725,-1.0,0.0146605605822712,0.0039530700525365,0.0186135784121731,1.7490498665979783e-06
2025-03-05 14:18:51.727,-1.0,0.008685754322824,0.0055389400841735,0.0142246421479314,1.7443237036403915e-06
2025-03-05 14:18:51.729,-1.0,0.0081275617785797,0.0019075815134187,0.0100350909932112,1.7395420275979169e-06
2025-03-05 14:18:51.731,-1.0,0.0106044731840517,-0.0041719786160949,0.0064324422297811,1.734708999834502e-06
2025-03-05 14:18:51.733,-1.0,0.012555102248938,-0.0089051448635486,0.0036499050119208,1.7298261126469674e-06
2025-03-05 14:18:51.735,-1.0,0.0111857583297159,-0.0093349602933808,0.001850745633776,1.7248918297117371e-06
2025-03-05 14:18:51.737,-1.0,0.0059017561949486,-0.0047580907953702,0.0011436129736794,1.7199027696226453e-06
2025-03-05 14:18:51.739,-1.0,-0.0015309200177341,0.0029705809398193,0.0014396084759404,1.7148557384500494e-06
2025-03-05 14:18:51.741,-1.0,-0.0081160060687006,0.0103856140676453,0.0022695555321362,1.7097495324130232e-06
2025-03-05 14:18:51.743,-1.0,-0.011363809741644,0.0141487909549262,0.0027849287226603,1.704585619692022e-06
2025-03-05 14:18:51.745,-1.0,-0.0106702797783432,0.0127123077650509,0.0020419754683267,1.6993674378901894e-06
2025-03-05 14:18:51.747,-1.0,-0.00764080603707,0.0070641927518861,-0.0005766658339125,1.6940987611424896e-06
2025-03-05 14:18:51.749,-1.0,-0.0052615062658202,0.0001780807745615,-0.0050834780701334,1.6887820263593546e-06
2025-03-05 14:18:51.751,-1.0,-0.0063983497331908,-0.0045290538916307,-0.0109274562306659,1.683417460020995e-06
2025-03-05 14:18:51.753,-1.0,-0.0123872747892429,-0.0049036399174421,-0.0172909673343788,1.678003376191736e-06
2025-03-05 14:18:51.755,-1.0,-0.0223846260254781,-0.0010375989715346,-0.0234222776412421,1.67253739598342e-06
2025-03-05 14:18:51.757,-1.0,-0.0337590694635282,0.0049379178075262,-0.0288212043130177,1.6670178969796108e-06
2025-03-05 14:18:51.759,-1.0,-0.0433063709144137,0.0100690448744115,-0.0332373787087377,1.6614449482777632e-06
2025-03-05 14:18:51.761,-1.0,-0.0486826694209103,0.0121255025764305,-0.0365572195266409,1.6558203156999427e-06
2025-03-05 14:18:51.763,-1.0,-0.0493661356201505,0.0106658692430498,-0.0387003190761894,1.6501466297328128e-06
2025-03-05 14:18:51.765,-1.0,-0.0467155742493831,0.0070991800694067,-0.0396164468995612,1.644426219442355e-06
2025-03-05 14:18:51.766,-1.0,-0.04315633633715,0.0037781509430792,-0.0393782381359,1.6386602286792088e-06
2025-03-05 14:18:51.768,-1.0,-0.0409410371191016,0.0026754101914746,-0.0382656796903039,1.6328484192650748e-06
2025-03-05 14:18:51.770,-1.0,-0.0411042329106522,0.0043736461852103,-0.0367306395042827,1.6269896730258895e-06
2025-03-05 14:18:51.772,-1.0,-0.0430972547140397,0.0078739145311072,-0.0352233929712458,1.6210828525444824e-06
2025-03-05 14:18:51.774,-1.0,-0.0452300002141349,0.0112596765299781,-0.0339703764756043,1.6151275455175842e-06
2025-03-05 14:18:51.776,-1.0,-0.0456402230210257,0.0128063563955512,-0.0328339194166024,1.6091243424679662e-06
2025-03-05 14:18:51.778,-1.0,-0.0432705221409054,0.0119184734345538,-0.03135210149812,1.6030745842514871e-06
2025-03-05 14:18:51.780,-1.0,-0.0383780542082817,0.0094059107218875,-0.0289721962837952,1.5969797934377538e-06
2025-03-05 14:18:51.782,-1.0,-0.0323764620968579,0.0069987371800914,-0.0253777777264105,1.5908411280054555e-06
2025-03-05 14:18:51.784,-1.0,-0.0271425005330499,0.0064130670827506,-0.0207294862768562,1.5846591236567094e-06
2025-03-05 14:18:51.786,-1.0,-0.0241479414864632,0.0084728165956726,-0.0156751777339111,1.5784337913043117e-06
2025-03-05 14:18:51.788,-1.0,-0.0238214287066767,0.0126967936041676,-0.0111246879558674,1.5721649378226038e-06
2025-03-05 14:18:51.790,-1.0,-0.0254155751802251,0.0175092211190427,-0.0079064069144328,1.5658524901641083e-06
2025-03-05 14:18:51.792,-1.0,-0.027418646950447,0.0209689702348519,-0.0064497295586298,1.5594966555422005e-06
2025-03-05 14:18:51.794,-1.0,-0.0283019894820943,0.0216925650514206,-0.0066094772582703,1.5530978875459454e-06
2025-03-05 14:18:51.796,-1.0,-0.0272349192893106,0.0195270441292541,-0.0077079279745403,1.546656751911868e-06
2025-03-05 14:18:51.798,-1.0,-0.0244090057835553,0.0156190372194366,-0.0087900213744041,1.5401738211620915e-06
2025-03-05 14:18:51.800,-1.0,-0.020817735177964,0.0118413719781465,-0.0089764160169044,1.5336496661551582e-06
2025-03-05 14:18:51.802,-1.0,-0.017647448226926,0.0098880865202001,-0.0077594145376184,1.5270849113465233e-06
2025-03-05 14:18:51.804,-1.0,-0.0156529731504858,0.0104964428033961,-0.0051565831901643,1.5204802578087288e-06
2025-03-05 14:18:51.806,-1.0,-0.0148584535944888,0.0131601381071085,-0.0016983683318027,1.5138364003570292e-06
2025-03-05 14:18:51.807,-1.0,-0.0146807764344535,0.0164642326082698,0.0017834033439042,1.5071538563812411e-06
2025-03-05 14:18:51.809,-1.0,-0.0143187709212843,0.018868230990069,0.0045494072670516,1.500432817126024e-06
2025-03-05 14:18:51.811,-1.0,-0.0131560200626242,0.0194962331196204,0.006340160288208,1.4936731545884084e-06
2025-03-05 14:18:51.813,-1.0,-0.0109985431885472,0.0184742751408941,0.0074756792097559,1.4868746408131629e-06
2025-03-05 14:18:51.815,-1.0,-0.0080970814043646,0.0166621058255903,0.0085649716898135,1.4800373001403038e-06
2025-03-05 14:18:51.817,-1.0,-0.0049899694584825,0.0150258843193358,0.0100358621252193,1.4731617043702594e-06
2025-03-05 14:18:51.819,-1.0,-0.0022440588000573,0.0140764758275718,0.0118323642806165,1.4662490151289954e-06
2025-03-05 14:18:51.821,-1.0,-0.0002037660424272,0.0136760671576283,0.0134722483633829,1.459300697268582e-06
2025-03-05 14:18:51.823,-1.0,0.0011294780213575,0.013246833823683,0.0143762591063806,1.452318014143921e-06
2025-03-05 14:18:51.825,-1.0,0.0020212955637748,0.0121909527260561,0.014212195586172,1.445301562789223e-06
2025-03-05 14:18:51.827,-1.0,0.0027861136742127,0.0102626677320273,0.0130487287526561,1.438251119520784e-06
2025-03-05 14:18:51.829,-1.0,0.0035751788725718,0.0077178231551281,0.0112929494248068,1.4311659211656444e-06
2025-03-05 14:18:51.831,-1.0,0.0043039449784373,0.0052071530637225,0.0095110454755554,1.4240452728431304e-06
2025-03-05 14:18:51.833,-1.0,0.0047455104063334,0.0034811267018781,0.0082265845558403,1.416889177670619e-06
2025-03-05 14:18:51.835,-1.0,0.0047083836682118,0.0030273904804352,0.0077357215927095,1.4096986429969457e-06
2025-03-05 14:18:51.837,-1.0,0.0041766986181011,0.0038015032239969,0.0079781492794773,1.4024754678712265e-06
2025-03-05 14:18:51.839,-1.0,0.0033356227427752,0.0052111295536297,0.008546699741975,1.39522158725117e-06
2025-03-05 14:18:51.841,-1.0,0.0024912255137615,0.0064034918723529,0.0088946648667265,1.3879382968030663e-06
2025-03-05 14:18:51.843,-1.0,0.0019491043781977,0.0067109277230988,0.008659979643074,1.3806257685418138e-06
2025-03-05 14:18:51.845,-1.0,0.0019121245536844,0.0059806581220004,0.0078927302909793,1.3732831345833711e-06
2025-03-05 14:18:51.847,-1.0,0.002427917521777,0.0045826380655557,0.007010503268253,1.3659091248456197e-06
2025-03-05 14:18:51.848,-1.0,0.0033895536870319,0.0031202296817381,0.0065097310910929,1.3585029458595485e-06
2025-03-05 14:18:51.850,-1.0,0.0045730110717586,0.0020707160228028,0.006643674830516,1.3510649441765843e-06
2025-03-05 14:18:51.852,-1.0,0.0056919420680651,0.0015831460066533,0.007275035808327,1.3435966937765152e-06
2025-03-05 14:18:51.854,-1.0,0.0064634548524998,0.0014975640997329,0.0079609666891933,1.3361004400375989e-06
2025-03-05 14:18:51.856,-1.0,0.0066835509401751,0.0015082042608584,0.0081917029676154,1.3285781725205395e-06
2025-03-05 14:18:51.858,-1.0,0.0062957861744265,0.0013591318839941,0.0076548658894163,1.3210308042951502e-06
2025-03-05 14:18:51.860,-1.0,0.0054269010493308,0.0009727041099891,0.0063995530809222,1.3134578927621208e-06
2025-03-05 14:18:51.862,-1.0,0.0043765604192492,0.0004399421469006,0.004816450582606,1.3058580618637084e-06
2025-03-05 14:18:51.864,-1.0,0.0035571668327325,-0.0001104734085943,0.0034466415154397,1.2982299191629091e-06
2025-03-05 14:18:51.866,-1.0,0.0033661941758483,-0.0006409949036471,0.00272514740453,1.2905729965842828e-06
2025-03-05 14:18:51.868,-1.0,0.0039884766727074,-0.0012104729809946,0.0027779518356548,1.2828882231135217e-06
2025-03-05 14:18:51.870,-1.0,0.0052086073273556,-0.0018659736196265,0.0033425818549201,1.2751776761375624e-06
2025-03-05 14:18:51.872,-1.0,0.0063863111378267,-0.0025445337186083,0.0038417255885283,1.2674437328292389e-06
2025-03-05 14:18:51.874,-1.0,0.0066912007903654,-0.0030808226145099,0.0036103264054075,1.2596880579314124e-06
2025-03-05 14:18:51.876,-1.0,0.0055144643632361,-0.003298971962167,0.0022154407297716,1.2519109531203215e-06
2025-03-05 14:18:51.878,-1.0,0.0028232186836239,-0.0031002663221715,-0.0002770991905652,1.244111407517473e-06
2025-03-05 14:18:51.880,-1.0,-0.0007644173669041,-0.0024997437846272,-0.0032642125932494,1.2362878249029782e-06
2025-03-05 14:18:51.882,-1.0,-0.0042383601784479,-0.0016308536110213,-0.0058692651542654,1.228439051099212e-06
2025-03-05 14:18:51.884,-1.0,-0.0066502969754371,-0.000732173171607,-0.0073825214749085,1.2205651692767e-06
2025-03-05 14:18:51.886,-1.0,-0.0075268016987622,-8.361948670342892e-05,-0.0076104725011164,1.2126676528532527e-06
2025-03-05 14:18:51.888,-1.0,-0.007052352567894,0.0001256874169198,-0.00692671644933,1.2047488007080197e-06
2025-03-05 14:18:51.890,-1.0,-0.005965367677133,-7.06108199831192e-05,-0.0060360297440538,1.1968107517640829e-06
2025-03-05 14:18:51.891,-1.0,-0.0052323260009531,-0.0003983844375735,-0.0056307615870007,1.188854591286338e-06
2025-03-05 14:18:51.893,-1.0,-0.0056329949983792,-0.0004798579268592,-0.0061129039386998,1.1808800087301258e-06
2025-03-05 14:18:51.895,-1.0,-0.0074162141228658,-4.856687741085501e-05,-0.0074648318712118,1.1728856767272135e-06
2025-03-05 14:18:51.897,-1.0,-0.010169784923759,0.0008747969791227,-0.0092950386982808,1.164870146439654e-06
2025-03-05 14:18:51.899,-1.0,-0.0129783278916843,0.0019315421484651,-0.0110468364240722,1.1568327914334487e-06
2025-03-05 14:18:51.901,-1.0,-0.0148286000597652,0.002544296193999,-0.012284354513573,1.148774315016159e-06
2025-03-05 14:18:51.903,-1.0,-0.0150943475877609,0.0021881172648363,-0.012906280950552,1.140696569278367e-06
2025-03-05 14:18:51.905,-1.0,-0.0138607790942125,0.00069163876206,-0.0131691909170945,1.132601792542569e-06
2025-03-05 14:18:51.907,-1.0,-0.0119071279890151,-0.0016142358002457,-0.0135214142835944,1.124491667962685e-06
2025-03-05 14:18:51.909,-1.0,-0.0103440821331649,-0.0040139206608774,-0.0143580531480046,1.11636668832321e-06
2025-03-05 14:18:51.911,-1.0,-0.0100923705541252,-0.0057405647553526,-0.0158329854965213,1.1082261432278505e-06
2025-03-05 14:18:51.913,-1.0,-0.0114750935696007,-0.0063362495377797,-0.0178113931375104,1.100068718079263e-06
2025-03-05 14:18:51.915,-1.0,-0.0141300578886835,-0.0058346211542663,-0.0199647289570581,1.0918933818466758e-06
2025-03-05 14:18:51.917,-1.0,-0.0172607916512523,-0.004675130177232,-0.0219359716762892,1.08370010270426e-06
2025-03-05 14:18:51.919,-1.0,-0.0200512872905419,-0.0034193359458508,-0.0234706730493077,1.075490032849839e-06
2025-03-05 14:18:51.921,-1.0,-0.022005015311857,-0.002443639879523,-0.0244487049645284,1.0672650863629216e-06
2025-03-05 14:18:51.923,-1.0,-0.0230618396553879,-0.0017740113476733,-0.0248359006960796,1.0590271461533174e-06
2025-03-05 14:18:51.925,-1.0,-0.0235011850606916,-0.0011329103420043,-0.0246341449592188,1.0507773167911792e-06
2025-03-05 14:18:51.927,-1.0,-0.0237450714771447,-0.0001584615176793,-0.0239035823706767,1.0425156011777758e-06
2025-03-05 14:18:51.929,-1.0,-0.0241795039557065,0.0013185445866558,-0.0228610085544281,1.0342411485151722e-06
2025-03-05 14:18:51.931,-1.0,-0.0250449190919367,0.0030846848690056,-0.0219602832467947,1.02595292434813e-06
2025-03-05 14:18:51.932,-1.0,-0.0263889175870195,0.0045641983016188,-0.0218247681995372,1.017650445222408e-06
2025-03-05 14:18:51.934,-1.0,-0.02807222853352,0.0050756633493448,-0.0229966140350556,1.0093342035000555e-06
2025-03-05 14:18:51.936,-1.0,-0.0298343729629867,0.004203567059002,-0.0256308547070907,1.0010055822174456e-06
2025-03-05 14:18:51.938,-1.0,-0.0314114520328372,0.0020694444705493,-0.029342056292444,9.926663276380578e-07
2025-03-05 14:18:51.940,-1.0,-0.0326565058161289,-0.0006662319384554,-0.0333227863575433,9.84317867344073e-07
2025-03-05 14:18:51.942,-1.0,-0.0335881382828132,-0.0030840468487002,-0.0366722335508995,9.759608246796743e-07
2025-03-05 14:18:51.944,-1.0,-0.0343328431985801,-0.0044228450097152,-0.0387557364138686,9.67594962278828e-07
2025-03-05 14:18:51.946,-1.0,-0.0350092891065764,-0.0044139275006091,-0.0394232646095769,9.59219557994311e-07
2025-03-05 14:18:51.948,-1.0,-0.0356420017204962,-0.0033490810456322,-0.0389911306102097,9.508339985056368e-07
2025-03-05 14:18:51.950,-1.0,-0.0361511579623425,-0.0018515165498386,-0.0380027222524277,9.424382793403056e-07
2025-03-05 14:18:51.952,-1.0,-0.0364042801217298,-0.0005160570608448,-0.0369203848532708,9.34033166828326e-07
2025-03-05 14:18:51.954,-1.0,-0.0362934402839652,0.0003374481578486,-0.0359560397220331,9.256199635873862e-07
2025-03-05 14:18:51.956,-1.0,-0.0358097568775594,0.000682634444639,-0.0351271699106454,9.172000223215572e-07
2025-03-05 14:18:51.958,-1.0,-0.0350916824707292,0.0006565927086668,-0.0344351370613398,9.08774268820023e-07
2025-03-05 14:18:51.960,-1.0,-0.0344165635624378,0.0004252532417557,-0.03399135739459,9.003429713690685e-07
2025-03-05 14:18:51.962,-1.0,-0.0341059525159674,0.0001231452837683,-0.0339828540703404,8.919058524345584e-07
2025-03-05 14:18:51.964,-1.0,-0.0343481370263851,-0.0001211790171255,-0.0344693626760487,8.83462459727867e-07
2025-03-05 14:18:51.966,-1.0,-0.0350057539794416,-9.215361815455292e-05,-0.0350979540780397,8.750125909902327e-07
2025-03-05 14:18:51.968,-1.0,-0.0355313009272088,0.0006182741395908,-0.0349130731634171,8.665565576999937e-07
2025-03-05 14:18:51.970,-1.0,-0.0351007137301726,0.0026278333295039,-0.0324729266870697,8.580951725392011e-07
2025-03-05 14:18:51.972,-1.0,-0.0329752664427916,0.0066038601454434,-0.0263714524681992,8.496294938621811e-07
2025-03-05 14:18:51.973,-1.0,-0.0289602439313907,0.0129447906947082,-0.0160154992369378,8.411604778958641e-07
2025-03-05 14:18:51.975,-1.0,-0.0237210068116106,0.0214598215390464,-0.0022612310458276,8.326887193895031e-07
2025-03-05 14:18:51.977,-1.0,-0.0187126332921416,0.0312434573232762,0.0125307785145408,8.242143976405206e-07
2025-03-05 14:18:51.979,-1.0,-0.0156314782204558,0.0408381203825531,0.0252065968912453,8.15737429631287e-07
2025-03-05 14:18:51.981,-1.0,-0.0155852882635207,0.0486316427738687,0.0330463094411686,8.072577294905612e-07
2025-03-05 14:18:51.983,-1.0,-0.018428100086839,0.0533586398272342,0.0349304948204138,7.987754339877477e-07
2025-03-05 14:18:51.985,-1.0,-0.0226820708271956,0.0545467965322443,0.0318646809022945,7.90290989432345e-07
2025-03-05 14:18:51.987,-1.0,-0.0261346310542711,0.0527217366751487,0.0265870609417894,7.818050783127643e-07
2025-03-05 14:18:51.989,-1.0,-0.0267977091489084,0.0492260838593631,0.0224283301975223,7.733184457691541e-07
2025-03-05 14:18:51.991,-1.0,-0.0237273393404677,0.0456906919014033,0.0219633082715262,7.648317252754792e-07
2025-03-05 14:18:51.993,-1.0,-0.0173097553227483,0.0434054058575456,0.0260956065124623,7.563453461411089e-07
2025-03-05 14:18:51.995,-1.0,-0.0089221579312993,0.0428832300230949,0.0339610283451667,7.478595501267183e-07
2025-03-05 14:18:51.997,-1.0,-0.0002042278196701,0.0437798669758302,0.0435755956563871,7.393744856427296e-07
2025-03-05 14:18:51.999,-1.0,0.0076460005140175,0.0451641222312462,0.052810079443093,7.308903169810566e-07
2025-03-05 14:18:52.001,-1.0,0.0142202501586066,0.0460129148961654,0.0602331219080556,7.224072939403219e-07
2025-03-05 14:18:52.003,-1.0,0.019825282405786,0.0457081042478479,0.065533343650719,7.139257618750672e-07
2025-03-05 14:18:52.005,-1.0,0.0251343333542409,0.0442829113974398,0.069417201918495,7.054461286521044e-07
2025-03-05 14:18:52.007,-1.0,0.030742689012546,0.0422954842142971,0.0730381306142145,6.969688219228148e-07
2025-03-05 14:18:52.009,-1.0,0.0367505037352604,0.0404479956514594,0.0771984570448827,6.884942619869959e-07
2025-03-05 14:18:52.011,-1.0,0.0424991190756017,0.0392211839706887,0.0817202610001385,6.80022853506966e-07
2025-03-05 14:18:52.013,-1.0,0.0466073098668547,0.0387257830972536,0.0853330512021415,6.715549818583177e-07
2025-03-05 14:18:52.014,-1.0,0.0473810527119996,0.0387652583449169,0.0861462695394329,6.630909996612283e-07
2025-03-05 14:18:52.016,-1.0,0.0435153419363249,0.0389520468507463,0.08246734746897,6.54631204652807e-07
2025-03-05 14:18:52.018,-1.0,0.03484574120302,0.0387417002487559,0.0735874003077601,6.461758276725331e-07
2025-03-05 14:18:52.020,-1.0,0.0227863228382316,0.0374063755348627,0.0601926574120256,6.377250531061244e-07
2025-03-05 14:18:52.022,-1.0,0.0100920007314376,0.0341056010539292,0.0441975610464561,6.292790774628377e-07
2025-03-05 14:18:52.024,-1.0,-0.0001635658369964,0.0281828835800725,0.0280192772762513,6.208381838585142e-07
2025-03-05 14:18:52.026,-1.0,-0.0060264836720224,0.0196197555793505,0.0135932317483721,6.124027901151942e-07
2025-03-05 14:18:52.028,-1.0,-0.0077579230098534,0.0093735738116154,0.0016156109553504,6.039734325275296e-07
2025-03-05 14:18:52.030,-1.0,-0.0078755166694555,-0.0007018016832556,-0.0085773579133374,5.955506783293415e-07
2025-03-05 14:18:52.032,-1.0,-0.0099695930547389,-0.0084447040264765,-0.0184143363980992,5.871350022153132e-07
2025-03-05 14:18:52.034,-1.0,-0.0168329055497098,-0.0122530004973991,-0.0290859451537409,5.787266909111846e-07
2025-03-05 14:18:52.036,-1.0,-0.0288765829577437,-0.0117876217919813,-0.0406642436521703,5.703258346438191e-07
2025-03-05 14:18:52.038,-1.0,-0.0436967569363427,-0.0081324743948078,-0.0518292700039343,5.619324233555115e-07
2025-03-05 14:18:52.040,-1.0,-0.0570792943158463,-0.0033250535803474,-0.0604043862948135,5.535465081509807e-07
2025-03-05 14:18:52.042,-1.0,-0.0650024092624213,0.0005063711882728,-0.0644960761573288,5.451683465978786e-07
2025-03-05 14:18:52.044,-1.0,-0.0656589134161171,0.0019899770132295,-0.0636689741527205,5.367984503360827e-07
2025-03-05 14:18:52.046,-1.0,-0.0604309520592241,0.0009624820016943,-0.0594685074869819,5.284374994164627e-07
2025-03-05 14:18:52.048,-1.0,-0.053236884875713,-0.0016472180782127,-0.0548841400980101,5.200861580917678e-07
2025-03-05 14:18:52.050,-1.0,-0.0485542432167101,-0.0043889896059311,-0.0529432697181836,5.1174488383847e-07
2025-03-05 14:18:52.052,-1.0,-0.0491835168554956,-0.0060000151293701,-0.055183568649676,5.034138321200315e-07
2025-03-05 14:18:52.054,-1.0,-0.0549500161295135,-0.0059309092548956,-0.0608809618067879,4.950929144732306e-07
2025-03-05 14:18:52.055,-1.0,-0.062978493533927,-0.0045157881659627,-0.0674943178437997,4.867819881691865e-07
2025-03-05 14:18:52.057,-1.0,-0.0693101362004982,-0.0027693410364157,-0.0720795130598498,4.784810835689093e-07
2025-03-05 14:18:52.059,-1.0,-0.0709741523220131,-0.0019018513692509,-0.0728760391652593,4.701905501206118e-07
2025-03-05 14:18:52.061,-1.0,-0.0674727794058895,-0.0027350244708608,-0.0702078390014649,4.619110396722917e-07
2025-03-05 14:18:52.063,-1.0,-0.0609872847751963,-0.0052692173720214,-0.0662565369483639,4.5364332883800853e-07
2025-03-05 14:18:52.065,-1.0,-0.0552522973821373,-0.0086210932201052,-0.0638734251163754,4.453880677087834e-07
2025-03-05 14:18:52.067,-1.0,-0.0536706214326587,-0.011396030807156,-0.0650666864936262,4.371455844156515e-07
2025-03-05 14:18:52.069,-1.0,-0.0575810202201036,-0.012351679148039,-0.0699327333631611,4.289158499108303e-07
2025-03-05 14:18:52.071,-1.0,-0.0655241390138242,-0.0110422463104728,-0.0765664190349353,4.206986261836641e-07
2025-03-05 14:18:52.073,-1.0,-0.0739023585701247,-0.0080969902311359,-0.0819993821870844,4.1249372546463174e-07
2025-03-05 14:18:52.075,-1.0,-0.078751795834191,-0.0049482061840432,-0.0837000350438999,4.043012480679741e-07
2025-03-05 14:18:52.077,-1.0,-0.0777464773766741,-0.0031316260225912,-0.0808781360516412,3.961216748706036e-07
2025-03-05 14:18:52.079,-1.0,-0.0713998410529463,-0.0035311181987178,-0.0749309915452226,3.879557639275996e-07
2025-03-05 14:18:52.081,-1.0,-0.0628560123467895,-0.0059486881252328,-0.0688047324397818,3.798043017478197e-07
2025-03-05 14:18:52.083,-1.0,-0.0564119656678827,-0.0091806435644918,-0.0655926409072236,3.716678357811756e-07
2025-03-05 14:18:52.085,-1.0,-0.0555109139205976,-0.0115501171275752,-0.0670610624443739,3.635465257912709e-07
2025-03-05 14:18:52.087,-1.0,-0.0610981774646301,-0.0116983532238088,-0.0727965617929428,3.5544019154000745e-07
2025-03-05 14:18:52.089,-1.0,-0.0709713995983438,-0.0093612393926956,-0.0803326697690698,3.4734853327216e-07
2025-03-05 14:18:52.091,-1.0,-0.0803027142044011,-0.0058397221907008,-0.0861424668070252,3.3927141207859373e-07
2025-03-05 14:18:52.093,-1.0,-0.0830674247181178,-0.0039503637049921,-0.0870178184437667,3.3120904594742455e-07
2025-03-05 14:18:52.095,-1.0,-0.0738530947249825,-0.0074060406632521,-0.0812591650186886,3.231620207065501e-07
2025-03-05 14:18:52.097,-1.0,-0.0495461977014989,-0.0197272666738529,-0.0692734936410042,3.151311107467353e-07
2025-03-05 14:18:52.098,-1.0,-0.0105969262801879,-0.0428590017209005,-0.0534559569371993,3.071170027013745e-07
2025-03-05 14:18:52.100,-1.0,0.0383330707122264,-0.0757410658323168,-0.0374080237522573,2.991200650393649e-07
2025-03-05 14:18:52.102,-1.0,0.0886605522181113,-0.1132442706983146,-0.024583746809909,2.9114028196934176e-07
2025-03-05 14:18:52.104,-1.0,0.1295504571186713,-0.1460619515739048,-0.0165115224579033,2.831773841709381e-07
2025-03-05 14:18:52.106,-1.0,0.1511640488750791,-0.1621289679649481,-0.0109649467263882,2.752311067644609e-07
2025-03-05 14:18:52.108,-1.0,0.1489372502593325,-0.1497589660602423,-0.000821743036611,2.673014400198985e-07
2025-03-05 14:18:52.110,-1.0,0.1272981505314759,-0.1018901691459852,0.0254079545641773,2.59388744005122e-07
2025-03-05 14:18:52.112,-1.0,0.1005215967127474,-0.0198408925521935,0.0806806777403445,2.514936706262252e-07
2025-03-05 14:18:52.114,-1.0,0.0889907167695999,0.0854410130740635,0.174431703792473,2.4361693662654573e-07
2025-03-05 14:18:52.116,-1.0,0.1112946158587703,0.1957776841023316,0.3070722742457114,2.357590667801068e-07
2025-03-05 14:18:52.118,-1.0,0.1750280538077553,0.2912642848668861,0.4662923132788614,2.2792023927006535e-07
2025-03-05 14:18:52.120,-1.0,0.2702307014306118,0.3569876787179789,0.627218355082587,2.2010030994913777e-07
2025-03-05 14:18:52.122,-1.0,0.369186631689067,0.388186109915276,0.7573727169003749,2.122989988868323e-07
2025-03-05 14:18:52.124,-1.0,0.4350184751083894,0.3907272144096836,0.8257456652149067,2.0451614020874397e-07
2025-03-05 14:18:52.126,-1.0,0.4372966336326508,0.3760156045349149,0.8133122142916556,1.9675186673509805e-07
2025-03-05 14:18:52.128,-1.0,0.3663595840600591,0.3543520720945862,0.7207116327077905,1.8900663795370698e-07
2025-03-05 14:18:52.130,-1.0,0.2365881851131717,0.3324355807184893,0.5690237427914345,1.8128110244159114e-07
2025-03-05 14:18:52.132,-1.0,0.07728341060487,0.3152701478733909,0.3925535358108458,1.735758702452198e-07
2025-03-05 14:18:52.134,-1.0,-0.0803058033430705,0.307242749324427,0.2269369236600171,1.6589131370599932e-07
2025-03-05 14:18:52.136,-1.0,-0.2111750423534664,0.3095737888497971,0.0983987245159398,1.5822749629524792e-07
2025-03-05 14:18:52.138,-1.0,-0.2989522003395392,0.317459697661666,0.0185074757023538,1.505842601988866e-07
2025-03-05 14:18:52.139,-1.0,-0.3362251759061482,0.3211176808648004,-0.0151075162655907,1.4296142173550856e-07
2025-03-05 14:18:52.141,-1.0,-0.3250123228672408,0.3106084832019489,-0.0144038604609626,1.3535897131410768e-07
2025-03-05 14:18:52.143,-1.0,-0.2764602877610235,0.2809247228881601,0.0044644147754977,1.277771769228357e-07
2025-03-05 14:18:52.145,-1.0,-0.2082180318678819,0.2342051702982651,0.0259871185143491,1.2021654347216545e-07
2025-03-05 14:18:52.147,-1.0,-0.1395282776001236,0.1783573865115129,0.0388290894047017,1.126776552334479e-07
2025-03-05 14:18:52.149,-1.0,-0.085786960365125,0.1234685541963698,0.0376815747047552,1.0516098610904187e-07
2025-03-05 14:18:52.151,-1.0,-0.0547530846518029,0.0780709550066143,0.0233178515923965,9.766677432819416e-08
2025-03-05 14:18:52.153,-1.0,-0.0457162763143967,0.0467532696023756,0.0010369748952872,9.01950207404274e-08
2025-03-05 14:18:52.155,-1.0,-0.0515568405554195,0.0295898304786582,-0.0219670280749305,8.274560471104342e-08
2025-03-05 14:18:52.157,-1.0,-0.0625701428642073,0.023110450191405,-0.0394597102447264,7.531845314243845e-08
2025-03-05 14:18:52.159,-1.0,-0.0704845305576489,0.0221854322798415,-0.0482991154000791,6.791367542819844e-08
2025-03-05 14:18:52.161,-1.0,-0.0712266109119469,0.0220645757650909,-0.0491620518147681,6.05315994747206e-08
2025-03-05 14:18:52.163,-1.0,-0.0655697636213323,0.0198416632506313,-0.0457281165987134,5.3172697285639496e-08
2025-03-05 14:18:52.165,-1.0,-0.0576813839201084,0.0149057159869897,-0.042775683745614,4.583744422612325e-08
2025-03-05 14:18:52.167,-1.0,-0.0524415472225556,0.0084104983724298,-0.0440310642675953,3.8526185941849425e-08
2025-03-05 14:18:52.169,-1.0,-0.0528564504432092,0.0021859085424803,-0.0506705569286117,3.1239077799996725e-08
2025-03-05 14:18:52.171,-1.0,-0.0587175701663466,-0.002352260797088,-0.061069845589134,2.3976120903756005e-08
2025-03-05 14:18:52.173,-1.0,-0.066968658231131,-0.0048474657566234,-0.0718161381869149,1.6737268935806803e-08
2025-03-05 14:18:52.175,-1.0,-0.0734168835014226,-0.0060060785174399,-0.0794229757672265,9.522546983156217e-09
2025-03-05 14:18:52.177,-1.0,-0.0748632232494605,-0.0070607492027585,-0.0819239857367417,2.3321224503947157e-09
2025-03-05 14:18:52.179,-1.0,-0.0706308659702115,-0.0090317057742689,-0.0796625845681169,-4.83370284222534e-09
2025-03-05 14:18:52.180,-1.0,-0.0628151721968291,-0.0121858618200251,-0.0750010463949744,-1.1974568327203874e-08
2025-03-05 14:18:52.182,-1.0,-0.0551905805196796,-0.0159459814327579,-0.0711365739032096,-1.9090154366591105e-08
2025-03-05 14:18:52.184,-1.0,-0.0513302265498069,-0.0192383313289854,-0.0705685694127998,-2.6180254322364836e-08
2025-03-05 14:18:52.186,-1.0,-0.0528586136910198,-0.021048229090504,-0.0739068538959304,-3.3244786057907807e-08
2025-03-05 14:18:52.188,-1.0,-0.0586911212541413,-0.0208964691717091,-0.0795876011057511,-4.028374318021236e-08
2025-03-05 14:18:52.190,-1.0,-0.0656273794464736,-0.0190462202249261,-0.0846736098971533,-4.729711608768743e-08
2025-03-05 14:18:52.192,-1.0,-0.0699919696420407,-0.0163942532085406,-0.0863862326069519,-5.428482449413964e-08
2025-03-05 14:18:52.194,-1.0,-0.0694906857554963,-0.0141146995271392,-0.0836053945649631,-6.124669257269875e-08
2025-03-05 14:18:52.196,-1.0,-0.0643248301565471,-0.0132030371412559,-0.0775278761123084,-6.818247301115226e-08
2025-03-05 14:18:52.198,-1.0,-0.0569701327424333,-0.0141041287177626,-0.0710742698187561,-7.509190144127242e-08
2025-03-05 14:18:52.200,-1.0,-0.0507605720108892,-0.0165652695711125,-0.0673258494945374,-8.197475051019573e-08
2025-03-05 14:18:52.202,-1.0,-0.0481122361412031,-0.0197519238786336,-0.0678641674884068,-8.883085773512996e-08
2025-03-05 14:18:52.204,-1.0,-0.0493825754092701,-0.022577358179124,-0.0719599406058518,-9.566011817867882e-08
2025-03-05 14:18:52.206,-1.0,-0.0528854000092979,-0.0241490359093083,-0.0770344424720567,-1.0246245140779839e-07
2025-03-05 14:18:52.208,-1.0,-0.0558920747178032,-0.0241754611644537,-0.0800675419590567,-1.092377625990311e-07
2025-03-05 14:18:52.210,-1.0,-0.0560177715435943,-0.0231266384561568,-0.0791444155926988,-1.1598591626734318e-07
2025-03-05 14:18:52.212,-1.0,-0.0523366224682059,-0.0220097514373535,-0.0743463790146939,-1.2270673100936182e-07
2025-03-05 14:18:52.214,-1.0,-0.0457630771227608,-0.0218319134288328,-0.0675949951820586,-1.293999919926505e-07
2025-03-05 14:18:52.216,-1.0,-0.0385649195250154,-0.0230322074343715,-0.0615971311169427,-1.360654711745491e-07
2025-03-05 14:18:52.218,-1.0,-0.033250893958448,-0.0252160756194736,-0.0584669732647425,-1.4270294560092354e-07
2025-03-05 14:18:52.220,-1.0,-0.0313616898136053,-0.0273691964601096,-0.0587308894866476,-1.493122091338991e-07
2025-03-05 14:18:52.221,-1.0,-0.0327433957691452,-0.0284430357988547,-0.0611864342998739,-1.5589307803422097e-07
2025-03-05 14:18:52.223,-1.0,-0.0356588069899672,-0.0279645166322926,-0.0636233258651155,-1.6244539268087514e-07
2025-03-05 14:18:52.225,-1.0,-0.0376858821642309,-0.0262981697768902,-0.0639840536893168,-1.6896901613829786e-07
2025-03-05 14:18:52.227,-1.0,-0.0369499739640003,-0.0244093582866998,-0.0613593335021993,-1.754638278410404e-07
2025-03-05 14:18:52.229,-1.0,-0.033050635514066,-0.0232990354173845,-0.0563496716868476,-1.819297106062615e-07
2025-03-05 14:18:52.231,-1.0,-0.0272016993904573,-0.0234796476404896,-0.0506813472911566,-1.8836653276260042e-07
2025-03-05 14:18:52.233,-1.0,-0.0215340328630319,-0.024790355791125,-0.0463243884183628,-1.94774132327011e-07
2025-03-05 14:18:52.235,-1.0,-0.0179630233760787,-0.02658305329984,-0.0445460759410109,-2.011523127220074e-07
2025-03-05 14:18:52.237,-1.0,-0.0172352133419007,-0.0280870707169721,-0.0453222828205243,-2.0750085636071322e-07
2025-03-05 14:18:52.239,-1.0,-0.0186353780843557,-0.0287312618635685,-0.047366638202374,-2.138195539411901e-07
2025-03-05 14:18:52.241,-1.0,-0.0204525825966421,-0.0283119517699447,-0.0487645321117985,-2.201082376437989e-07
2025-03-05 14:18:52.243,-1.0,-0.0208997897263805,-0.0270075197413558,-0.0479073067031062,-2.2636680146764493e-07
2025-03-05 14:18:52.245,-1.0,-0.0189796273623768,-0.0252869938182623,-0.0442666179054723,-2.3259519584232447e-07
2025-03-05 14:18:52.247,-1.0,-0.0148708946564993,-0.0237558120663061,-0.0386267029346693,-2.387933958082129e-07
2025-03-05 14:18:52.249,-1.0,-0.0096911199786174,-0.0229709094112791,-0.0326620250841022,-2.449613565894868e-07
2025-03-05 14:18:52.251,-1.0,-0.0048089727596529,-0.0232723840528585,-0.0280813519832599,-2.510989790432601e-07
2025-03-05 14:18:52.253,-1.0,-0.0010980751649378,-0.0247003288321305,-0.0257983986396692,-2.572061044319732e-07
2025-03-05 14:18:52.255,-1.0,0.001444740217537,-0.027023213550658,-0.0255784674458764,-2.6328254364148613e-07
2025-03-05 14:18:52.257,-1.0,0.0034823227251583,-0.0297983316446915,-0.0263160025039411,-2.693281273809354e-07
2025-03-05 14:18:52.259,-1.0,0.0056422885564024,-0.032353867448025,-0.0267115719505033,-2.7534275119592465e-07
2025-03-05 14:18:52.261,-1.0,0.0078072565477135,-0.0337276126254636,-0.0259203486122109,-2.813263899511258e-07
2025-03-05 14:18:52.262,-1.0,0.0089409774080198,-0.0327826930924411,-0.0238417076914257,-2.87279071354555e-07
2025-03-05 14:18:52.264,-1.0,0.0077114598439128,-0.028692448721501,-0.0209809803497244,-2.932008197940395e-07
2025-03-05 14:18:52.266,-1.0,0.0036307271948387,-0.0216816841861963,-0.0180509479192207,-2.990915987008479e-07
2025-03-05 14:18:52.268,-1.0,-0.0020425385190047,-0.0135366929163179,-0.015579221811377,-3.049512822993298e-07
2025-03-05 14:18:52.270,-1.0,-0.0064435801870756,-0.007279974718475,-0.0137235447273342,-3.107796737560174e-07
2025-03-05 14:18:52.272,-1.0,-0.0064957000508275,-0.0058350485124619,-0.0123307378340087,-3.1657656306228325e-07
2025-03-05 14:18:52.274,-1.0,-0.0007409126437636,-0.0103851682497709,-0.0111260696194548,-3.223417967087433e-07
2025-03-05 14:18:52.276,-1.0,0.0097745711817106,-0.0196560525568505,-0.0098814695609927,-3.280753237645048e-07
2025-03-05 14:18:52.278,-1.0,0.0222515881827716,-0.0307316407069293,-0.0084800401690323,-3.3377719381166974e-07
2025-03-05 14:18:52.280,-1.0,0.0338374124722159,-0.040724490472613,-0.0068870650964911,-3.394475062275088e-07
2025-03-05 14:18:52.282,-1.0,0.0429597060094967,-0.0480409899414661,-0.0050812704671137,-3.450863353603305e-07
2025-03-05 14:18:52.284,-1.0,0.0495691346476506,-0.0525708785153649,-0.0030017298305098,-3.5069366908843865e-07
2025-03-05 14:18:52.286,-1.0,0.0545031727698444,-0.0550577020455672,-0.0005545146605814,-3.562693919685785e-07
2025-03-05 14:18:52.288,-1.0,0.0586538776832219,-0.0563300681344364,0.0023238247395119,-3.618133215627689e-07
2025-03-05 14:18:52.290,-1.0,0.062518503568893,-0.0568996811749977,0.0056188381520415,-3.673252792087891e-07
2025-03-05 14:18:52.292,-1.0,0.0662748947750116,-0.0570058159220383,0.0092690951699912,-3.7280515876276537e-07
2025-03-05 14:18:52.294,-1.0,0.0700960628235045,-0.056865216289667,0.013230863406701,-3.782529579886379e-07
2025-03-05 14:18:52.296,-1.0,0.0743211998267162,-0.0568384624935041,0.0174827547675766,-3.836687566731815e-07
2025-03-05 14:18:52.298,-1.0,0.0793480360847269,-0.0573821506252036,0.0219659034682885,-3.8905265309179973e-07
2025-03-05 14:18:52.300,-1.0,0.0853981990013525,-0.0588498737101215,0.0265483438890998,-3.9440469185928243e-07
2025-03-05 14:18:52.302,-1.0,0.0923735092718904,-0.0613035721309833,0.0310699563377499,-3.997248204570457e-07
2025-03-05 14:18:52.303,-1.0,0.0998872984019859,-0.0644587384006527,0.0354285797979157,-4.050128967712529e-07
2025-03-05 14:18:52.305,-1.0,0.1074041069689701,-0.0677743726251976,0.0396297547322439,-4.102687436144601e-07
2025-03-05 14:18:52.307,-1.0,0.1143843829865647,-0.0706269868652507,0.0437574170903478,-4.154922219920644e-07
2025-03-05 14:18:52.309,-1.0,0.1203903980756984,-0.0725112228271115,0.0478791967905439,-4.2068328522192537e-07
2025-03-05 14:18:52.311,-1.0,0.1251600147950917,-0.0732177365693664,0.0519423003420411,-4.2584198587592964e-07
2025-03-05 14:18:52.313,-1.0,0.1286456972211152,-0.0729192350864108,0.0557264848365553,-4.30968431787938e-07
2025-03-05 14:18:52.315,-1.0,0.1309977233521917,-0.072101134396139,0.0588966122598232,-4.36062713489559e-07
2025-03-05 14:18:52.317,-1.0,0.1324869488294702,-0.0713386461698391,0.0611483265794884,-4.4112483990011756e-07
2025-03-05 14:18:52.319,-1.0,0.1333899621655915,-0.0710152117097735,0.062374774997305,-4.46154714582554e-07
2025-03-05 14:18:52.321,-1.0,0.1338761794555338,-0.0711355754605964,0.0627406291530273,-4.511521639348167e-07
2025-03-05 14:18:52.323,-1.0,0.1339532888514457,-0.0713533759611711,0.0625999386530041,-4.5611700219373773e-07
2025-03-05 14:18:52.325,-1.0,0.133529999141997,-0.0712101078694929,0.0623199176283464,-4.61049099626375e-07
2025-03-05 14:18:52.327,-1.0,0.1325921236116739,-0.0704482835442387,0.0621438670125492,-4.659484191655345e-07
2025-03-05 14:18:52.329,-1.0,0.1313656253155868,-0.0692060245581611,0.0621596282989353,-4.7081500344494313e-07
2025-03-05 14:18:52.331,-1.0,0.1302886656908986,-0.0679621413002202,0.062326552544195,-4.756489198645347e-07
2025-03-05 14:18:52.333,-1.0,0.1297517749822233,-0.0672517820975596,0.0625000216673034,-4.804501925355419e-07
2025-03-05 14:18:52.335,-1.0,0.129790253006513,-0.0673273734328727,0.0624629089961917,-4.852187558742961e-07
2025-03-05 14:18:52.337,-1.0,0.1299837421553002,-0.0679896842544042,0.0619940879632702,-4.899544526380344e-07
2025-03-05 14:18:52.339,-1.0,0.1296512911452785,-0.0686963049410233,0.0609550168966307,-4.946570761229007e-07
2025-03-05 14:18:52.341,-1.0,0.1281998514992855,-0.068846787394645,0.0593530954137166,-4.99326434306973e-07
2025-03-05 14:18:52.343,-1.0,0.1254033966206263,-0.0680395925856088,0.0573638359520915,-5.039624038462114e-07
2025-03-05 14:18:52.345,-1.0,0.1214822517401769,-0.0661833782328195,0.0552989060339832,-5.085649481951867e-07
2025-03-05 14:18:52.346,-1.0,0.1169822208809061,-0.0634839070620939,0.0534983469670775,-5.131340927831519e-07
2025-03-05 14:18:52.348,-1.0,0.1125262052861216,-0.0603609117593652,0.0521653273140557,-5.17669871567644e-07
2025-03-05 14:18:52.350,-1.0,0.1085418206457657,-0.0573120744251144,0.051229780661722,-5.22172272878414e-07
2025-03-05 14:18:52.352,-1.0,0.105077799320705,-0.0547463343592382,0.0503315000618693,-5.266412117276275e-07
2025-03-05 14:18:52.354,-1.0,0.1017929678303625,-0.0528508693757575,0.0489421342090379,-5.310765414566811e-07
2025-03-05 14:18:52.356,-1.0,0.0981339443315691,-0.0515543841541038,0.0465795965737407,-5.35478097354866e-07
2025-03-05 14:18:52.358,-1.0,0.0936330873757758,-0.050588461816262,0.0430446625860517,-5.398457491240335e-07
2025-03-05 14:18:52.360,-1.0,0.0881807263187331,-0.0495914507078893,0.0385893132637281,-5.441794355798539e-07
2025-03-05 14:18:52.362,-1.0,0.0821078697011277,-0.0482035935565787,0.0339043144304809,-5.484791651560205e-07
2025-03-05 14:18:52.364,-1.0,0.0760113527052943,-0.0461486622861965,0.0298627293527845,-5.527449839377222e-07
2025-03-05 14:18:52.366,-1.0,0.0704218350681878,-0.0433094459472243,0.0271124287184115,-5.569769293623164e-07
2025-03-05 14:18:52.368,-1.0,0.0655253708347377,-0.03976769985749,0.0257577112485347,-5.6117499389358e-07
2025-03-05 14:18:52.370,-1.0,0.0611078306457884,-0.0357701759240869,0.0253376956669913,-5.653391161947804e-07
2025-03-05 14:18:52.372,-1.0,0.056728106219013,-0.0316323553393393,0.0250957924904617,-5.69469201876094e-07
2025-03-05 14:18:52.374,-1.0,0.0519734473522798,-0.0276363739303302,0.0243371156867457,-5.735651604122077e-07
2025-03-05 14:18:52.376,-1.0,0.0466380182665698,-0.0239717492601326,0.0226663119178074,-5.776269374058559e-07
2025-03-05 14:18:52.378,-1.0,0.040781369730504,-0.0207289991292151,0.0200524141605557,-5.816545252741885e-07
2025-03-05 14:18:52.380,-1.0,0.0347136080465816,-0.0179244922059423,0.016789160057879,-5.856479478214496e-07
2025-03-05 14:18:52.382,-1.0,0.0289237704058267,-0.0155229483966757,0.0134008668986602,-5.896072279962357e-07
2025-03-05 14:18:52.384,-1.0,0.0239083139577662,-0.0134305578574793,0.0104778016740438,-5.935323560879139e-07
2025-03-05 14:18:52.386,-1.0,0.0199033506783678,-0.0114630986426958,0.0084402982982742,-5.974232741094184e-07
2025-03-05 14:18:52.387,-1.0,0.0166566923456215,-0.0093433704956983,0.0073133687975685,-6.012798828987931e-07
2025-03-05 14:18:52.389,-1.0,0.0134329107666312,-0.0067925854827048,0.0066403729077858,-6.051020669419025e-07
2025-03-05 14:18:52.391,-1.0,0.0093249182256236,-0.0037012843544875,0.0056236821631497,-6.088897238469075e-07
2025-03-05 14:18:52.393,-1.0,0.0037325414751314,-0.0002621558295179,0.0034704346035651,-6.126427842758802e-07
2025-03-05 14:18:52.395,-1.0,-0.0032627690221108,0.0030552913792481,-0.0002074280136038,-6.163612139353967e-07
2025-03-05 14:18:52.397,-1.0,-0.0108521137624898,0.0056940162246497,-0.0051580472266353,-6.200449986242353e-07
2025-03-05 14:18:52.399,-1.0,-0.0178248609035208,0.0072506177628387,-0.0105741921365419,-6.236941213927606e-07
2025-03-05 14:18:52.401,-1.0,-0.0231091344606619,0.0076353655125704,-0.015473717244454,-6.273085436975273e-07
2025-03-05 14:18:52.403,-1.0,-0.0262630225834357,0.0070894595590127,-0.019173510621285,-6.308881992407528e-07
2025-03-05 14:18:52.405,-1.0,-0.0276756238548832,0.0060838287004917,-0.0215917420568483,-6.344330022564536e-07
2025-03-05 14:18:52.407,-1.0,-0.0283685575928282,0.0051566823955254,-0.023211821411529,-6.379428650215142e-07
2025-03-05 14:18:52.409,-1.0,-0.0294820974777329,0.0047335740858897,-0.0247484689208442,-6.414177154856703e-07
2025-03-05 14:18:52.411,-1.0,-0.0317064575605137,0.0049757339684836,-0.0267306684334529,-6.448575065933617e-07
2025-03-05 14:18:52.413,-1.0,-0.0349642773302505,0.0057306959681663,-0.0292335255090948,-6.482622134843663e-07
2025-03-05 14:18:52.415,-1.0,-0.0385067328596173,0.0066383022461556,-0.0318683740579504,-6.516318208247874e-07
2025-03-05 14:18:52.417,-1.0,-0.0413454527068382,0.0073428029382613,-0.0340025925047379,-6.549663068680157e-07
2025-03-05 14:18:52.419,-1.0,-0.0427757283503635,0.0076718953051809,-0.0351037750714603,-6.582656314624687e-07
2025-03-05 14:18:52.421,-1.0,-0.0427303331338731,0.0076678143363964,-0.035062460115948,-6.615297323504674e-07
2025-03-05 14:18:52.423,-1.0,-0.0418006686030814,0.0074763210089105,-0.0343242882079563,-6.647585297692914e-07
2025-03-05 14:18:52.425,-1.0,-0.040924194295099,0.0072062833478013,-0.0337178508576757,-6.679519359542593e-07
2025-03-05 14:18:52.427,-1.0,-0.0409108075515846,0.0068718402554859,-0.0340389065010342,-6.711098650186968e-07
2025-03-05 14:18:52.428,-1.0,-0.0420664068210177,0.0064361602560006,-0.0356301850598507,-6.742322396878813e-07
2025-03-05 14:18:52.430,-1.0,-0.0440997457433803,0.0058961511323949,-0.0382035323906733,-6.773189933952063e-07
2025-03-05 14:18:52.432,-1.0,-0.0463261211746918,0.0053438674171904,-0.0409821908188881,-6.80370068189051e-07
2025-03-05 14:18:52.434,-1.0,-0.0480330354591398,0.0049754949254721,-0.0430574768763329,-6.833854100626153e-07
2025-03-05 14:18:52.436,-1.0,-0.0488148344307375,0.0050437996061723,-0.0437709704497564,-6.863649635552753e-07
2025-03-05 14:18:52.438,-1.0,-0.0487149775044391,0.0057650948238581,-0.0429498175889966,-6.893086671334913e-07
2025-03-05 14:18:52.440,-1.0,-0.0481231650736846,0.0072133738449944,-0.0409097254186296,-6.922164504656758e-07
2025-03-05 14:18:52.442,-1.0,-0.0475145727935346,0.0092558912883438,-0.0382586149723671,-6.950882344786961e-07
2025-03-05 14:18:52.444,-1.0,-0.0471995444265584,0.011577899456213,-0.0356215777095824,-6.979239347555143e-07
2025-03-05 14:18:52.446,-1.0,-0.0472169468188411,0.013794688583025,-0.0334221902436014,-7.007234679586102e-07
2025-03-05 14:18:52.448,-1.0,-0.0473847744003002,0.0155865375050756,-0.0317981681714379,-7.034867595604535e-07
2025-03-05 14:18:52.450,-1.0,-0.0474195392834105,0.0167757003596115,-0.0306437694713384,-7.06213750013926e-07
2025-03-05 14:18:52.452,-1.0,-0.0470420506799045,0.0173214079104116,-0.0297205725917845,-7.089043965766984e-07
2025-03-05 14:18:52.454,-1.0,-0.0460611136523534,0.0172830444390632,-0.0287779983110461,-7.11558669572723e-07
2025-03-05 14:18:52.456,-1.0,-0.0444436348252704,0.0168070762972555,-0.0276364868972484,-7.141765442389339e-07
2025-03-05 14:18:52.458,-1.0,-0.0423360714417791,0.0161319303518544,-0.0262040687226642,-7.167579913761649e-07
2025-03-05 14:18:52.460,-1.0,-0.0400063937736401,0.0155599823246287,-0.0244463383366324,-7.193029709098983e-07
2025-03-05 14:18:52.462,-1.0,-0.0377405045631108,0.0153638481258988,-0.0223765825746711,-7.218114316706207e-07
2025-03-05 14:18:52.464,-1.0,-0.035761332143341,0.015655458204012,-0.0201057993278293,-7.242833182220103e-07
2025-03-05 14:18:52.466,-1.0,-0.0342054660287978,0.0163082224167726,-0.0178971682583074,-7.267185821537145e-07
2025-03-05 14:18:52.468,-1.0,-0.0331365233054815,0.0170210851390852,-0.0161153620786655,-7.291171924706767e-07
2025-03-05 14:18:52.469,-1.0,-0.0325467224551895,0.0175043960204459,-0.0150422496172389,-7.314791392983692e-07
2025-03-05 14:18:52.471,-1.0,-0.0323195955215775,0.0176351353600439,-0.0146843826107613,-7.338044279330021e-07
2025-03-05 14:18:52.473,-1.0,-0.0321845462841397,0.0174414296819385,-0.0147430383071966,-7.36093065354994e-07
2025-03-05 14:18:52.475,-1.0,-0.0317389686039172,0.0169550310929083,-0.0147838584578985,-7.383450459741709e-07
2025-03-05 14:18:52.477,-1.0,-0.0305958411365635,0.0161158167146195,-0.0144799446006359,-7.405603445330574e-07
2025-03-05 14:18:52.479,-1.0,-0.0286283272243217,0.0148519710510161,-0.0137762755827185,-7.427389206138354e-07
2025-03-05 14:18:52.481,-1.0,-0.0261735697535402,0.0132684609513533,-0.0129050274509289,-7.448807329207956e-07
2025-03-05 14:18:52.483,-1.0,-0.0240110216426257,0.0117572170374818,-0.0122537225068544,-7.469857560714591e-07
2025-03-05 14:18:52.485,-1.0,-0.0230291045449378,0.0108890380005798,-0.0121399837098526,-7.490539910743047e-07
2025-03-05 14:18:52.487,-1.0,-0.0237148249282231,0.0111062467431265,-0.0126084946154212,-7.5108546379191e-07
2025-03-05 14:18:52.489,-1.0,-0.0257758117892852,0.0123920584953241,-0.0133836689782776,-7.530802118061416e-07
2025-03-05 14:18:52.491,-1.0,-0.0281663526144975,0.0141417487652623,-0.0140245187690807,-7.550382661045208e-07
2025-03-05 14:18:52.493,-1.0,-0.0295492652327272,0.0153665013421328,-0.0141826780286436,-7.569596369238806e-07
2025-03-05 14:18:52.495,-1.0,-0.0289589358124843,0.0151749717290388,-0.0137838774322911,-7.58844311384917e-07
2025-03-05 14:18:52.497,-1.0,-0.026316108088436,0.0132953119564081,-0.0130207086981753,-7.606922647985741e-07
2025-03-05 14:18:52.499,-1.0,-0.0225293602818954,0.0103251881976703,-0.0122040838847975,-7.625034803514783e-07
2025-03-05 14:18:52.501,-1.0,-0.019119174907352,0.0075073500812381,-0.011611735879594,-7.642779669914194e-07
2025-03-05 14:18:52.503,-1.0,-0.0175170664335821,0.0061023514847118,-0.0114146252645384,-7.66015765665637e-07
2025-03-05 14:18:52.505,-1.0,-0.0183588216189301,0.0067005943373437,-0.0116581368533076,-7.677169398904032e-07
2025-03-05 14:18:52.507,-1.0,-0.0211284030871876,0.0088717611613665,-0.0122565507337998,-7.693815550071347e-07
2025-03-05 14:18:52.509,-1.0,-0.0243532227091732,0.0113446307631366,-0.0130084999660389,-7.710096567318246e-07
2025-03-05 14:18:52.510,-1.0,-0.0262700396941126,0.0126122190522726,-0.0136577278573151,-7.726012601447419e-07
2025-03-05 14:18:52.512,-1.0,-0.0256508321049471,0.0116572567894582,-0.0139934817262066,-7.741563548259758e-07
2025-03-05 14:18:52.514,-1.0,-0.0224179775078079,0.0084554840061045,-0.0139623991240831,-7.756749234736825e-07
2025-03-05 14:18:52.516,-1.0,-0.0177712139270595,0.0040160871352326,-0.0137550316503661,-7.771569644749276e-07
2025-03-05 14:18:52.518,-1.0,-0.0137277988544612,-7.94156561656394e-05,-0.0138071186246079,-7.786025069811968e-07
2025-03-05 14:18:52.520,-1.0,-0.01221030004398,-0.002435612464044,-0.0146458158804087,-7.800116109447493e-07
2025-03-05 14:18:52.522,-1.0,-0.0140663563254231,-0.0025228938285174,-0.0165891527685051,-7.81384352266148e-07
2025-03-05 14:18:52.524,-1.0,-0.0185396808434907,-0.0009253542275236,-0.0194649368996175,-7.827208007858837e-07
2025-03-05 14:18:52.526,-1.0,-0.0235612232836535,0.0009705833748027,-0.0225905409253762,-7.840210024936147e-07
2025-03-05 14:18:52.528,-1.0,-0.0267885031292603,0.0016859262391999,-0.0251024770838555,-7.852849751610842e-07
2025-03-05 14:18:52.530,-1.0,-0.0268453332874818,0.0004007191791605,-0.0264445134899353,-7.865127196735699e-07
2025-03-05 14:18:52.532,-1.0,-0.0240447317053236,-0.0026345744323848,-0.0266792047335709,-7.877042412049396e-07
2025-03-05 14:18:52.534,-1.0,-0.0201631084284158,-0.0062484682494999,-0.0264114745163811,-7.888595694059257e-07
2025-03-05 14:18:52.536,-1.0,-0.0174085774291585,-0.0089813112361971,-0.0263897857612379,-7.899787676352427e-07
2025-03-05 14:18:52.538,-1.0,-0.0172140485754834,-0.0098479188303236,-0.0270618637515894,-7.91061927363539e-07
2025-03-05 14:18:52.540,-1.0,-0.0195555414228399,-0.0088110807124698,-0.0283665177039359,-7.921091517579966e-07
2025-03-05 14:18:52.542,-1.0,-0.0231234529255604,-0.0067362917062003,-0.0298596393899028,-7.931205377861473e-07
2025-03-05 14:18:52.544,-1.0,-0.0261559075168706,-0.0048939575898855,-0.0310497590318409,-7.940961662318352e-07
2025-03-05 14:18:52.546,-1.0,-0.0274160409422337,-0.0042995872265425,-0.0317155212608376,-7.950361041898632e-07
2025-03-05 14:18:52.548,-1.0,-0.0267878628018053,-0.0052435429571869,-0.0320312980408996,-7.959404178595974e-07
2025-03-05 14:18:52.550,-1.0,-0.0252145479365818,-0.0072356870161053,-0.0324501264582932,-7.968091882848594e-07
2025-03-05 14:18:52.552,-1.0,-0.0240664944829877,-0.0093415034199768,-0.0334078886591227,-7.976425214143022e-07
2025-03-05 14:18:52.553,-1.0,-0.0243236233242812,-0.0106834020818673,-0.0350069154179728,-7.984405468955912e-07
2025-03-05 14:18:52.555,-1.0,-0.0260256377869496,-0.0108468548826166,-0.0368723819168348,-7.992034057599986e-07
2025-03-05 14:18:52.557,-1.0,-0.028261165238918,-0.0100268112996295,-0.038287864985439,-7.999312327014213e-07
2025-03-05 14:18:52.559,-1.0,-0.0296672326945455,-0.0088791834529941,-0.0385463037608685,-8.006241413234106e-07
2025-03-05 14:18:52.561,-1.0,-0.0291645774951924,-0.0081673470482359,-0.037331811309922,-8.012822193454343e-07
2025-03-05 14:18:52.563,-1.0,-0.0265586724422237,-0.008387898561112,-0.0349464569367777,-8.019055360493785e-07
2025-03-05 14:18:52.565,-1.0,-0.0227115392227489,-0.0095586253378573,-0.0322700496948419,-8.024941584781554e-07
2025-03-05 14:18:52.567,-1.0,-0.0191992249829027,-0.0112409859699283,-0.0304400953240381,-8.030481688620344e-07
2025-03-05 14:18:52.569,-1.0,-0.0176221701838435,-0.0127475893871481,-0.0303696431983797,-8.0356767533854e-07
2025-03-05 14:18:52.571,-1.0,-0.0189076620882182,-0.0134371912870429,-0.0323447362503815,-8.040528113527494e-07
2025-03-05 14:18:52.573,-1.0,-0.0229389923990551,-0.0129909401060067,-0.0359298145955448,-8.045037245606808e-07
2025-03-05 14:18:52.575,-1.0,-0.0286608713424294,-0.0115529041463033,-0.0402136567547341,-8.049205609696498e-07
2025-03-05 14:18:52.577,-1.0,-0.0345586881674828,-0.00965563582721,-0.0442142044095711,-8.053034519677066e-07
2025-03-05 14:18:52.579,-1.0,-0.0392475720324669,-0.0079638045965505,-0.0472112561933776,-8.056525099275617e-07
2025-03-05 14:18:52.581,-1.0,-0.0419111669557407,-0.0069745795907321,-0.048885625288049,-8.0596783350063e-07
2025-03-05 14:18:52.583,-1.0,-0.0424549992149955,-0.006828291776787,-0.0492831689510112,-8.062495191019648e-07
2025-03-05 14:18:52.585,-1.0,-0.0413911959114545,-0.0073054587006047,-0.048696531820765,-8.064976726445886e-07
2025-03-05 14:18:52.587,-1.0,-0.0395705318661371,-0.0079751435190543,-0.0475455518495541,-8.06712416160187e-07
2025-03-05 14:18:52.589,-1.0,-0.0378851841851324,-0.0083936654034366,-0.0462787252854271,-8.06893886918764e-07
2025-03-05 14:18:52.591,-1.0,-0.0370135684830684,-0.0082677633092386,-0.0452812066809075,-8.070422304355744e-07
2025-03-05 14:18:52.593,-1.0,-0.0372445992040179,-0.0075439576750585,-0.0447884309222392,-8.071575915296411e-07
2025-03-05 14:18:52.594,-1.0,-0.0384201680159922,-0.0064125529958627,-0.0448325941954705,-8.072401081036006e-07
2025-03-05 14:18:52.596,-1.0,-0.0400180059228025,-0.0052325413837623,-0.0452504196471151,-8.072899103969354e-07
2025-03-05 14:18:52.598,-1.0,-0.041349461143017,-0.0044086225767625,-0.0457579552558024,-8.073071252851056e-07
2025-03-05 14:18:52.600,-1.0,-0.0418134030839233,-0.004261752515792,-0.0460750263715885,-8.072918825683769e-07
2025-03-05 14:18:52.602,-1.0,-0.0411375694556564,-0.0049241358265169,-0.0460615753108037,-8.072443194856658e-07
2025-03-05 14:18:52.604,-1.0,-0.0395246285713764,-0.0062805975893276,-0.0458050954363617,-8.071645811218205e-07
2025-03-05 14:18:52.606,-1.0,-0.0376207903984385,-0.0079750967809714,-0.0455957556666604,-8.070528169176019e-07
2025-03-05 14:18:52.608,-1.0,-0.0362862478019406,-0.009493926823924,-0.0457800422820801,-8.069091755278105e-07
2025-03-05 14:18:52.610,-1.0,-0.0362495488576605,-0.0103298954278287,-0.0465793110832333,-8.06733800773224e-07
2025-03-05 14:18:52.612,-1.0,-0.0377933828148156,-0.0102137784768397,-0.0480070272331487,-8.065268304575715e-07
2025-03-05 14:18:52.614,-1.0,-0.0406028021317418,-0.0093342463708985,-0.0499369136186533,-8.062883981227392e-07
2025-03-05 14:18:52.616,-1.0,-0.0438386651696591,-0.0083810506187924,-0.0522195801221779,-8.060186362907505e-07
2025-03-05 14:18:52.618,-1.0,-0.0464303992048183,-0.0082690195388052,-0.0546992823280155,-8.057176790841554e-07
2025-03-05 14:18:52.620,-1.0,-0.047514027237462,-0.0096108051338428,-0.057124695211813,-8.053856625733406e-07
2025-03-05 14:18:52.622,-1.0,-0.0468508951652167,-0.012256196858551,-0.0591069540955787,-8.050227225122846e-07
2025-03-05 14:18:52.624,-1.0,-0.0450023693805859,-0.0152421339743271,-0.0602443646161231,-8.046289906589048e-07
2025-03-05 14:18:52.626,-1.0,-0.0431114311879529,-0.0172313866845538,-0.0603426782862612,-8.042045918039615e-07
2025-03-05 14:18:52.628,-1.0,-0.0423596339554589,-0.0171840988128304,-0.0595435923222041,-8.037496433233252e-07
2025-03-05 14:18:52.630,-1.0,-0.0433803780076408,-0.0148801339649943,-0.0582603706852851,-8.032642576633075e-07
2025-03-05 14:18:52.632,-1.0,-0.0459462213330946,-0.0110436579771652,-0.0569897372213753,-8.027485466347675e-07
2025-03-05 14:18:52.634,-1.0,-0.0490794180014351,-0.0070536230071634,-0.0561328981582157,-8.022026257178119e-07
2025-03-05 14:18:52.635,-1.0,-0.051497112688645,-0.0043911270715578,-0.0558880961678051,-8.016266169635056e-07
2025-03-05 14:18:52.637,-1.0,-0.0521542951329217,-0.0040343613495678,-0.0561885121371159,-8.01020649956127e-07
2025-03-05 14:18:52.639,-1.0,-0.0506369473347439,-0.0060039745449154,-0.0566407767460948,-8.003848609783304e-07
2025-03-05 14:18:52.641,-1.0,-0.0472487372046877,-0.0092275605861274,-0.0564761518284699,-7.997193907660903e-07
2025-03-05 14:18:52.643,-1.0,-0.0427848270972089,-0.01182534787085,-0.0546100281524867,-7.990243813307403e-07
2025-03-05 14:18:52.645,-1.0,-0.0381378646798298,-0.0117821989953119,-0.0499199160108598,-7.98299972551364e-07
2025-03-05 14:18:52.647,-1.0,-0.0339472470665757,-0.0077778195951846,-0.0417249181797309,-7.975462994572376e-07
2025-03-05 14:18:52.649,-1.0,-0.0304438181849075,0.0001905387673624,-0.0302531301588307,-7.967634909984391e-07
2025-03-05 14:18:52.651,-1.0,-0.0275206966481656,0.0107139137970699,-0.0168066328454556,-7.959516706295939e-07
2025-03-05 14:18:52.653,-1.0,-0.0249707938037176,0.0214867513147558,-0.0034838917397023,-7.951109584956059e-07
2025-03-05 14:18:52.655,-1.0,-0.0227907724448179,0.0302063376096826,0.0074157166819269,-7.942414746261356e-07
2025-03-05 14:18:52.657,-1.0,-0.0214060994544123,0.0354415647159887,0.0140356175847162,-7.933433422756309e-07
2025-03-05 14:18:52.659,-1.0,-0.0216256899757978,0.0370844452979461,0.0154589084831686,-7.92416690303474e-07
2025-03-05 14:18:52.661,-1.0,-0.0242060837775425,0.0362101693707817,0.0120042396006575,-7.914616535088055e-07
2025-03-05 14:18:52.663,-1.0,-0.0291585804330357,0.0344460742170823,0.005287648618778,-7.904783705178234e-07
2025-03-05 14:18:52.665,-1.0,-0.0352061090769499,0.033162097491813,-0.0020438559595716,-7.894669800423857e-07
2025-03-05 14:18:52.667,-1.0,-0.0398321576355832,0.0328637843430179,-0.0069682169109488,-7.884276172621571e-07
2025-03-05 14:18:52.669,-1.0,-0.0400802815676335,0.0330704896725151,-0.0070096347727536,-7.873604120090977e-07
2025-03-05 14:18:52.671,-1.0,-0.0338251734061461,0.0327326774880612,-0.0010923380436092,-7.862654894692756e-07
2025-03-05 14:18:52.673,-1.0,-0.0209162390394988,0.0309738939508357,0.0100578135690099,-7.851429729576603e-07
2025-03-05 14:18:52.675,-1.0,-0.0035802975529312,0.0277604184901423,0.0241802804117879,-7.83992987538479e-07
2025-03-05 14:18:52.676,-1.0,0.0142341769744684,0.0241079216512609,0.0383422589354679,-7.828156630534193e-07
2025-03-05 14:18:52.678,-1.0,0.0284118282096224,0.0216489279919026,0.0500609173396844,-7.816111354549916e-07
2025-03-05 14:18:52.680,-1.0,0.0364833690926647,0.0217283597419488,0.058211890773201,-7.803795461092186e-07
2025-03-05 14:18:52.682,-1.0,0.0387904005176638,0.0245052598386958,0.0632958230608649,-7.791210397083371e-07
2025-03-05 14:18:52.684,-1.0,0.0382696158610552,0.0286234665321273,0.0668932458402986,-7.778357621855161e-07
2025-03-05 14:18:52.686,-1.0,0.0387833170687153,0.0317634977972547,0.0705469790549528,-7.765238600623545e-07
2025-03-05 14:18:52.688,-1.0,0.0427796202247992,0.031886311580639,0.0746660967573507,-7.751854818433601e-07
2025-03-05 14:18:52.690,-1.0,0.0495923987708642,0.0284977711562966,0.0780903356727441,-7.738207807755884e-07
2025-03-05 14:18:52.692,-1.0,0.0554700513848551,0.0231250082644385,0.0785952262121368,-7.724299172642368e-07
2025-03-05 14:18:52.694,-1.0,0.0554886283612572,0.0185703383920295,0.0740591341372223,-7.710130591669814e-07
2025-03-05 14:18:52.696,-1.0,0.0463921092184642,0.0172350190772248,0.0636272964828644,-7.695703792016262e-07
2025-03-05 14:18:52.698,-1.0,0.0287916653215358,0.0194479316627588,0.0482397659445938,-7.681020502856617e-07
2025-03-05 14:18:52.700,-1.0,0.0074088026090459,0.0228650441943698,0.0302740165099576,-7.666082409761193e-07
2025-03-05 14:18:52.702,-1.0,-0.0109594158368359,0.0234788951661144,0.012519649771714,-7.650891135058963e-07
2025-03-05 14:18:52.704,-1.0,-0.0208215545550288,0.0178358974744315,-0.0029854858918517,-7.635448258810418e-07
2025-03-05 14:18:52.706,-1.0,-0.0209322062240871,0.0052532177069848,-0.015678816557607,-7.619755375793666e-07
2025-03-05 14:18:52.708,-1.0,-0.0151053543370614,-0.0112967633534336,-0.0264019449356313,-7.603814166147222e-07
2025-03-05 14:18:52.710,-1.0,-0.0103283260503878,-0.0262723712561399,-0.0366005237449966,-7.587626450603008e-07
2025-03-05 14:18:52.712,-1.0,-0.0131185068440401,-0.0341509667418625,-0.0472692992258578,-7.571194208448377e-07
2025-03-05 14:18:52.714,-1.0,-0.0260593411546251,-0.0321915016009167,-0.0582506676204059,-7.554519552380828e-07
2025-03-05 14:18:52.716,-1.0,-0.0463428211962603,-0.0219114741118597,-0.0682541194246027,-7.5376046709395e-07
2025-03-05 14:18:52.717,-1.0,-0.06706260251397,-0.0084752764815786,-0.0755377023803624,-7.520451760405225e-07
2025-03-05 14:18:52.719,-1.0,-0.0805974366279164,0.0017260440670921,-0.0788712152130573,-7.503062971059518e-07
2025-03-05 14:18:52.721,-1.0,-0.0824024666114588,0.0040965117115158,-0.0783057768028773,-7.485440385651352e-07
2025-03-05 14:18:52.723,-1.0,-0.0733284311315114,-0.0020395375465613,-0.0753677898092044,-7.467586032212149e-07
2025-03-05 14:18:52.725,-1.0,-0.0592940016399995,-0.0132391723252586,-0.0725329943090427,-7.449501916019339e-07
2025-03-05 14:18:52.727,-1.0,-0.0484290468033429,-0.0237404243282251,-0.0721692906881713,-7.431190046278645e-07
2025-03-05 14:18:52.729,-1.0,-0.0470676228320606,-0.0283611922671078,-0.0754286338847834,-7.412652438278963e-07
2025-03-05 14:18:52.731,-1.0,-0.0565681636686408,-0.0250737639999347,-0.0816417457073891,-7.393891089527594e-07
2025-03-05 14:18:52.733,-1.0,-0.0725747303956962,-0.0159875763265717,-0.0885621240345019,-7.374907948073086e-07
2025-03-05 14:18:52.735,-1.0,-0.087167542070677,-0.0062489189726255,-0.0934162776356718,-7.35570489934394e-07
2025-03-05 14:18:52.737,-1.0,-0.0929008754311509,-0.0014043119223368,-0.0943050032169836,-7.336283787857577e-07
2025-03-05 14:18:52.739,-1.0,-0.086693913017327,-0.0045495035425728,-0.0912432316758636,-7.316646467767076e-07
2025-03-05 14:18:52.741,-1.0,-0.0715319699696565,-0.0146915866466786,-0.0862233709674477,-7.2967948559091e-07
2025-03-05 14:18:52.743,-1.0,-0.0550429847526015,-0.0271539066388344,-0.0821967049717776,-7.276730956925442e-07
2025-03-05 14:18:52.745,-1.0,-0.0456450215632072,-0.0358700730485869,-0.0815149074307547,-7.256456845550445e-07
2025-03-05 14:18:52.747,-1.0,-0.0482224034319208,-0.0364829660176041,-0.0847051815276599,-7.23597461554204e-07
2025-03-05 14:18:52.749,-1.0,-0.0615442284682269,-0.0286908049936027,-0.0902348448209916,-7.215286321618994e-07
2025-03-05 14:18:52.751,-1.0,-0.0787787289842352,-0.0165568100636962,-0.0953353497009307,-7.194393941070665e-07
2025-03-05 14:18:52.753,-1.0,-0.0908991193236599,-0.0065039824881022,-0.0974029117569507,-7.173299368869187e-07
2025-03-05 14:18:52.755,-1.0,-0.0912943429083147,-0.0039699098292051,-0.0952640619610371,-7.152004444368681e-07
2025-03-05 14:18:52.757,-1.0,-0.0792490089921073,-0.0104779786481734,-0.0897267961246755,-7.130510996634198e-07
2025-03-05 14:18:52.759,-1.0,-0.06048813106707,-0.0227151227703593,-0.0832030615720832,-7.108820890886389e-07
2025-03-05 14:18:52.760,-1.0,-0.0444463477429426,-0.0341639351005575,-0.0786100898314108,-7.086936059771887e-07
2025-03-05 14:18:52.762,-1.0,-0.0395798510445637,-0.0384763188523283,-0.0780559761543301,-7.064858509054253e-07
2025-03-05 14:18:52.764,-1.0,-0.0490327596196302,-0.0328345541018463,-0.0818671192707655,-7.042590295894369e-07
2025-03-05 14:18:52.766,-1.0,-0.0687842108867335,-0.0195589139644096,-0.088342929710365,-7.020133487358697e-07
2025-03-05 14:18:52.768,-1.0,-0.0891452032599334,-0.005197255697787,-0.0943422631327107,-6.997490115535744e-07
2025-03-05 14:18:52.770,-1.0,-0.098807472864493,0.0023081851255188,-0.0964990912217453,-6.97466214944889e-07
2025-03-05 14:18:52.772,-1.0,-0.0894473790998697,-0.0031507978056234,-0.092597979679879,-6.951651497967479e-07
2025-03-05 14:18:52.774,-1.0,-0.0587862932565221,-0.0237511526112334,-0.0825372479193357,-6.928460043500097e-07
2025-03-05 14:18:52.776,-1.0,-0.0110086063109952,-0.0574402635302603,-0.0684486711664155,-6.905089691365761e-07
2025-03-05 14:18:52.778,-1.0,0.045129802805557,-0.0989677417549136,-0.053837739558797,-6.881542412200764e-07
2025-03-05 14:18:52.780,-1.0,0.0992178058379134,-0.1411313754734703,-0.041913369550433,-6.8578202579602e-07
2025-03-05 14:18:52.782,-1.0,0.1418897077473977,-0.1754423679452353,-0.0335524594405126,-6.833925344555171e-07
2025-03-05 14:18:52.784,-1.0,0.1669182939880311,-0.1925194386823396,-0.0256009432784829,-6.80985980993317e-07
2025-03-05 14:18:52.786,-1.0,0.1732199868903586,-0.1835742959462834,-0.0103541069812345,-6.785625767110464e-07
2025-03-05 14:18:52.788,-1.0,0.1673484166486215,-0.1442362344305963,0.023112384964145,-6.761225271662526e-07
2025-03-05 14:18:52.790,-1.0,0.165719533336113,-0.0800215776345417,0.0856981591356946,-6.7366603133605e-07
2025-03-05 14:18:52.792,-1.0,0.1937686431644986,-0.0098406927646159,0.1839281545322691,-6.711932828247313e-07
2025-03-05 14:18:52.794,-1.0,0.2786353384308995,0.0372967382186454,0.3159322814769872,-6.68704471833942e-07
2025-03-05 14:18:52.796,-1.0,0.4349295589163181,0.0342507816264823,0.4691805460483259,-6.661997866845389e-07
2025-03-05 14:18:52.798,-1.0,0.6491651315537191,-0.0281936889925468,0.62097164872076,-6.636794146185513e-07
2025-03-05 14:18:52.800,-1.0,0.8733792359914297,-0.1310813400181996,0.742298102766106,-6.61143542606112e-07
2025-03-05 14:18:52.801,-1.0,1.03674880275897,-0.2315981936657522,0.8051508165104535,-6.585923591233583e-07
2025-03-05 14:18:52.803,-1.0,1.0738446572405742,-0.2820383981289786,0.7918064671586253,-6.560260572677503e-07
2025-03-05 14:18:52.805,-1.0,0.9554381775844812,-0.2529690653021046,0.7024693209741749,-6.534448386708603e-07
2025-03-05 14:18:52.807,-1.0,0.7033500752400423,-0.1464774130291918,0.5568728715622915,-6.508489169812292e-07
2025-03-05 14:18:52.809,-1.0,0.3803501669579494,0.0075738982862698,0.3879242752605693,-6.48238519478008e-07
2025-03-05 14:18:52.811,-1.0,0.0625694782229298,0.1675767279475343,0.23014641684282,-6.456138857375735e-07
2025-03-05 14:18:52.813,-1.0,-0.1885257544538549,0.2973224501980159,0.1087969070520449,-6.429752631428091e-07
2025-03-05 14:18:52.815,-1.0,-0.3413662138539315,0.3757847968547439,0.0344187949204801,-6.403229000963011e-07
2025-03-05 14:18:52.817,-1.0,-0.3945237222892101,0.3981353371748996,0.0036118273998627,-6.376570386605388e-07
2025-03-05 14:18:52.819,-1.0,-0.3678403022097166,0.3715502825482625,0.0037101934426703,-6.349779086914659e-07
2025-03-05 14:18:52.821,-1.0,-0.2914568915406919,0.3100180516671436,0.0185613738284678,-6.322857252285706e-07
2025-03-05 14:18:52.823,-1.0,-0.1967676758488536,0.230338673206039,0.0335712116711385,-6.295806899298006e-07
2025-03-05 14:18:52.825,-1.0,-0.1102214466196636,0.1493039160946185,0.0390826844118352,-6.268629958242391e-07
2025-03-05 14:18:52.827,-1.0,-0.0494896009487755,0.0811867489274382,0.0316973635391106,-6.241328331724198e-07
2025-03-05 14:18:52.829,-1.0,-0.0215904096325287,0.0352218908706459,0.0136316974105006,-6.213903937183226e-07
2025-03-05 14:18:52.831,-1.0,-0.0230816059523042,0.013747457217482,-0.0093339319702798,-6.186358716317991e-07
2025-03-05 14:18:52.833,-1.0,-0.0425672597121203,0.0120734179837951,-0.0304936243917096,-6.158694614078968e-07
2025-03-05 14:18:52.835,-1.0,-0.065253892228811,0.020612621971197,-0.0446410523617921,-6.130913545679153e-07
2025-03-05 14:18:52.837,-1.0,-0.0784058658754673,0.0287313986240096,-0.049674248798469,-6.103017372678164e-07
2025-03-05 14:18:52.839,-1.0,-0.0758567030976354,0.0288375870871786,-0.0470188969932874,-6.075007900421357e-07
2025-03-05 14:18:52.841,-1.0,-0.0597849758515816,0.0189894109019959,-0.040795345358092,-6.046886897108235e-07
2025-03-05 14:18:52.842,-1.0,-0.038943246541646,0.0029264826144792,-0.0360165437550353,-6.018656126095674e-07
2025-03-05 14:18:52.844,-1.0,-0.0240728386954898,-0.0124088650588282,-0.0364814830037088,-5.99031737954805e-07
2025-03-05 14:18:52.846,-1.0,-0.0226016842410136,-0.0206345957561295,-0.0432360586790527,-5.961872502033689e-07
2025-03-05 14:18:52.848,-1.0,-0.035149311512902,-0.0191560360790741,-0.0543051257225272,-5.933323396344302e-07
2025-03-05 14:18:52.850,-1.0,-0.055503354064145,-0.0103143864459006,-0.0658175181047749,-5.904672010519648e-07
2025-03-05 14:18:52.852,-1.0,-0.0739625621187336,3.254184180962903e-05,-0.0739297973458466,-5.875920312134882e-07
2025-03-05 14:18:52.854,-1.0,-0.0822394689316058,0.0056705001972262,-0.0765687452799653,-5.847070259151358e-07
2025-03-05 14:18:52.856,-1.0,-0.0774221331326139,0.003225941286239,-0.0741959678650404,-5.818123775557425e-07
2025-03-05 14:18:52.858,-1.0,-0.063103405226318,-0.0062539199741868,-0.0693571006866065,-5.789082737640307e-07
2025-03-05 14:18:52.860,-1.0,-0.0472771855403893,-0.0180662577748256,-0.0653432182655597,-5.75994897425264e-07
2025-03-05 14:18:52.862,-1.0,-0.0381864779845851,-0.0264480100103037,-0.0646342624117859,-5.730724280889976e-07
2025-03-05 14:18:52.864,-1.0,-0.040238258650071,-0.0276002908762285,-0.0678383234180245,-5.70141044324596e-07
2025-03-05 14:18:52.866,-1.0,-0.0519772075742288,-0.0216002948470932,-0.0735772758000643,-5.672009263540016e-07
2025-03-05 14:18:52.868,-1.0,-0.0670376390150679,-0.0122652600064273,-0.0793026718998709,-5.642522583534876e-07
2025-03-05 14:18:52.870,-1.0,-0.0775047535851351,-0.0050856097818071,-0.082590135754598,-5.612952299848122e-07
2025-03-05 14:18:52.872,-1.0,-0.0779371074015678,-0.0043385056145065,-0.0822753849177106,-5.583300367510017e-07
2025-03-05 14:18:52.874,-1.0,-0.0680160616608834,-0.0109059494655257,-0.0789217825418878,-5.5535687879355e-07
2025-03-05 14:18:52.876,-1.0,-0.052531643833224,-0.0219137228053706,-0.0744451375649669,-5.523759581108324e-07
2025-03-05 14:18:52.878,-1.0,-0.0387902168884535,-0.0323058943580814,-0.0710958816811298,-5.493874748992208e-07
2025-03-05 14:18:52.880,-1.0,-0.0328264020498463,-0.0374491543545156,-0.0702753263477173,-5.463916242799975e-07
2025-03-05 14:18:52.882,-1.0,-0.0363742476691437,-0.0353870579268792,-0.0717610750535065,-5.433885945441921e-07
2025-03-05 14:18:52.883,-1.0,-0.0461315143172594,-0.0276478654357992,-0.0737791487345063,-5.403785672817843e-07
2025-03-05 14:18:52.885,-1.0,-0.0556535343462076,-0.0183186604571602,-0.0739719633208189,-5.373617189358388e-07
2025-03-05 14:18:52.887,-1.0,-0.0588413890243218,-0.0119528203943708,-0.0707939774830815,-5.343382229252694e-07
2025-03-05 14:18:52.889,-1.0,-0.0531590944178386,-0.0113676778404786,-0.0645265398764878,-5.313082515534243e-07
2025-03-05 14:18:52.891,-1.0,-0.0408886306623677,-0.0163710336431715,-0.0572594314789253,-5.282719772186459e-07
2025-03-05 14:18:52.893,-1.0,-0.0278214231747899,-0.0240017957567981,-0.0518229856572771,-5.25229572787861e-07
2025-03-05 14:18:52.895,-1.0,-0.0201642697142096,-0.0301503912789877,-0.0503144272670672,-5.221812113785446e-07
2025-03-05 14:18:52.897,-1.0,-0.0213335585892985,-0.0317200619453905,-0.053053386355301,-5.191270661259194e-07
2025-03-05 14:18:52.899,-1.0,-0.0302827726443588,-0.0281839106736433,-0.0584664486894435,-5.16067310536819e-07
2025-03-05 14:18:52.901,-1.0,-0.042147157074941,-0.0217241167905667,-0.0638710387977316,-5.13002119695829e-07
2025-03-05 14:18:52.903,-1.0,-0.0507874629965098,-0.0159408643164078,-0.0667280918192302,-5.099316721512679e-07
2025-03-05 14:18:52.905,-1.0,-0.0518780235985003,-0.0138930817820533,-0.0657708694732989,-5.068561520276276e-07
2025-03-05 14:18:52.907,-1.0,-0.0449572620886991,-0.0165356388573945,-0.0614926646325713,-5.037757508652754e-07
2025-03-05 14:18:52.909,-1.0,-0.0334352404168626,-0.0223363792337595,-0.0557713829313075,-5.00690668810325e-07
2025-03-05 14:18:52.911,-1.0,-0.02263546094599,-0.0281991949474681,-0.0508344187635575,-4.976011149377173e-07
2025-03-05 14:18:52.913,-1.0,-0.0169733195746892,-0.0311457819479643,-0.0481188639763884,-4.945073066160491e-07
2025-03-05 14:18:52.915,-1.0,-0.017783867471811,-0.0298526888606864,-0.0476363183680647,-4.914094679298357e-07
2025-03-05 14:18:52.917,-1.0,-0.0228824035118328,-0.0252614586261837,-0.0481436237607153,-4.883078272667444e-07
2025-03-05 14:18:52.919,-1.0,-0.0279513235990205,-0.0199942823658838,-0.0479453671867376,-4.852026142466121e-07
2025-03-05 14:18:52.921,-1.0,-0.0288967885942258,-0.0169339955789284,-0.0458305450089709,-4.820940562711641e-07
2025-03-05 14:18:52.923,-1.0,-0.0239174898377791,-0.0177331328196183,-0.0416503831194369,-4.789823751641555e-07
2025-03-05 14:18:52.924,-1.0,-0.0142983837370237,-0.0220090161085457,-0.0363071599391808,-4.758677845836981e-07
2025-03-05 14:18:52.926,-1.0,-0.0036467697987421,-0.0276043297814672,-0.0312508593029979,-4.727504889112308e-07
2025-03-05 14:18:52.928,-1.0,0.0039579882222598,-0.0317520923193864,-0.0277938634420719,-4.6963068398112556e-07
2025-03-05 14:18:52.930,-1.0,0.0059616760363514,-0.0325264072873765,-0.0265644902120499,-4.665085593925963e-07
2025-03-05 14:18:52.932,-1.0,0.0025326265233062,-0.0298112987812915,-0.027278430835135,-4.633843015105993e-07
2025-03-05 14:18:52.934,-1.0,-0.0035720908684529,-0.0252895113093726,-0.02886136037935,-4.602580958660604e-07
2025-03-05 14:18:52.936,-1.0,-0.0083747817120979,-0.0214998771110536,-0.0298744166633451,-4.5713012775826294e-07
2025-03-05 14:18:52.938,-1.0,-0.0086036578958804,-0.0205027557179281,-0.0291061711076646,-4.5400058061203043e-07
2025-03-05 14:18:52.940,-1.0,-0.0032217033438206,-0.0228617669025595,-0.0260832274038062,-4.508696327958215e-07
2025-03-05 14:18:52.942,-1.0,0.0062017328539375,-0.0274433045163203,-0.0212413284849949,-4.4773745451770525e-07
2025-03-05 14:18:52.944,-1.0,0.01642258082869,-0.0320841604590096,-0.0156613361125193,-4.446042065082242e-07
2025-03-05 14:18:52.946,-1.0,0.0242173017003613,-0.0347319782722949,-0.0105144327057448,-4.414700413474206e-07
2025-03-05 14:18:52.948,-1.0,0.0279345560904792,-0.0344637871880104,-0.0065289868786928,-4.3833510694638645e-07
2025-03-05 14:18:52.950,-1.0,0.0281291626710222,-0.0319046169530908,-0.0037752097142034,-4.351995506464546e-07
2025-03-05 14:18:52.952,-1.0,0.0270458644065343,-0.0288883074460233,-0.0018421981341585,-4.320635222527517e-07
2025-03-05 14:18:52.954,-1.0,0.0273436048644682,-0.0275531300976862,-0.0002092800058191,-4.289271750701955e-07
2025-03-05 14:18:52.956,-1.0,0.0307793841049775,-0.0293041727957687,0.0014754568455659,-4.257906651225738e-07
2025-03-05 14:18:52.958,-1.0,0.0374691190902786,-0.0341241359919961,0.0033452289377162,-4.226541495562478e-07
2025-03-05 14:18:52.960,-1.0,0.0459818659080644,-0.0405666760317223,0.0054154360213774,-4.195177853927396e-07
2025-03-05 14:18:52.962,-1.0,0.0541411146964303,-0.0464624190842872,0.0076789420705131,-4.163817293133776e-07
2025-03-05 14:18:52.964,-1.0,0.0601257052468629,-0.049997414808604,0.0101285372170096,-4.13246138311247e-07
2025-03-05 14:18:52.965,-1.0,0.0633419118729349,-0.050576777470554,0.01276538150236,-4.101111703291858e-07
2025-03-05 14:18:52.967,-1.0,0.0646404197022486,-0.0489856530893346,0.0156550140265184,-4.0697698393506553e-07
2025-03-05 14:18:52.969,-1.0,0.0657816318737305,-0.0468080116348444,0.0189738679522283,-4.038437367200426e-07
2025-03-05 14:18:52.971,-1.0,0.0684631468194659,-0.0455316744054748,0.0229317204123404,-4.007115829221656e-07
2025-03-05 14:18:52.973,-1.0,0.0734600622854763,-0.0458927484337327,0.0275675621253976,-3.97580671195168e-07
2025-03-05 14:18:52.975,-1.0,0.0803287873743554,-0.0477561388819807,0.032572897039907,-3.944511433243213e-07
2025-03-05 14:18:52.977,-1.0,0.0877672892404286,-0.0504495515805282,0.0373179864871076,-3.913231343083125e-07
2025-03-05 14:18:52.979,-1.0,0.0943602880280575,-0.0532430262904991,0.0411175108526752,-3.881967738111273e-07
2025-03-05 14:18:52.981,-1.0,0.0992819220396197,-0.0556918837218091,0.0435902877254951,-3.850721885829778e-07
2025-03-05 14:18:52.983,-1.0,0.102618109072765,-0.0577314849885296,0.0448868737814517,-3.819495051747118e-07
2025-03-05 14:18:52.985,-1.0,0.1051999764732377,-0.0595588226252463,0.045641403823914,-3.788288523169762e-07
2025-03-05 14:18:52.987,-1.0,0.1080845391102057,-0.0614043715733105,0.0466804177768601,-3.757103626277887e-07
2025-03-05 14:18:52.989,-1.0,0.1119858702812947,-0.0633300556161645,0.0486560651565643,-3.7259417354671204e-07
2025-03-05 14:18:52.991,-1.0,0.1169662846837806,-0.0651770587201291,0.0517894767009016,-3.694804274435029e-07
2025-03-05 14:18:52.993,-1.0,0.1225184135489292,-0.0666836562794374,0.0558350082550627,-3.663692708522497e-07
2025-03-05 14:18:52.995,-1.0,0.1279149335252775,-0.0676587299514205,0.0602564548154408,-3.632608529042858e-07
2025-03-05 14:18:52.997,-1.0,0.1325583166191724,-0.0680701009770834,0.0644884671469396,-3.601553233114605e-07
2025-03-05 14:18:52.999,-1.0,0.136126969421554,-0.0680102177377849,0.0681170034533335,-3.570528305286055e-07
2025-03-05 14:18:53.001,-1.0,0.1385114968194609,-0.0676095949474641,0.0709021538995626,-3.539535207120549e-07
2025-03-05 14:18:53.003,-1.0,0.1396894002060054,-0.066982163379799,0.0727074890987562,-3.508575376480924e-07
2025-03-05 14:18:53.005,-1.0,0.1396836615730027,-0.0662283095346132,0.0734556045416921,-3.477650231593193e-07
2025-03-05 14:18:53.007,-1.0,0.138632076016777,-0.0654645587231702,0.0731677700179246,-3.446761170552033e-07
2025-03-05 14:18:53.008,-1.0,0.1368819136761356,-0.0648359222439256,0.0720462443756941,-3.415909558436157e-07
2025-03-05 14:18:53.010,-1.0,0.1349911363523043,-0.0644872566971535,0.0705041328231942,-3.3850967015914854e-07
2025-03-05 14:18:53.012,-1.0,0.1335681999970724,-0.0644933893755448,0.0690750640224108,-3.3543238177570085e-07
2025-03-05 14:18:53.014,-1.0,0.1329921338920881,-0.0647670015042533,0.0682253860268919,-3.323592015671936e-07
2025-03-05 14:18:53.016,-1.0,0.1331606615480945,-0.0649882970711076,0.0681726183522714,-3.292902294662037e-07
2025-03-05 14:18:53.018,-1.0,0.1334360902442248,-0.0646254503291346,0.0688108940167509,-3.262255564537318e-07
2025-03-05 14:18:53.020,-1.0,0.1328700933053509,-0.0631036360348114,0.0697667115842234,-3.231652675109486e-07
2025-03-05 14:18:53.022,-1.0,0.1306375384469421,-0.0600964206520852,0.0705413723074086,-3.2010944401021545e-07
2025-03-05 14:18:53.024,-1.0,0.1264728792558058,-0.0557903214414699,0.0706828125188983,-3.170581645459168e-07
2025-03-05 14:18:53.026,-1.0,0.1208551670223516,-0.0509236102803516,0.0699318116399264,-3.1401150436070453e-07
2025-03-05 14:18:53.028,-1.0,0.1147872505194316,-0.046502543402427,0.068284962215608,-3.109695345110138e-07
2025-03-05 14:18:53.030,-1.0,0.1092500700036557,-0.0433059609480688,0.0659443643628557,-3.079323220906755e-07
2025-03-05 14:18:53.032,-1.0,0.1046492888751474,-0.0414609775736168,0.0631885668204763,-3.0489993217610085e-07
2025-03-05 14:18:53.034,-1.0,0.1006105230234676,-0.0403657229416616,0.0602450558072929,-3.018724311857297e-07
2025-03-05 14:18:53.036,-1.0,0.0962546506678019,-0.0390207858334593,0.0572341207540122,-2.988498906632684e-07
2025-03-05 14:18:53.038,-1.0,0.0907662641962622,-0.0365588423826407,0.0542076779124684,-2.958323904198328e-07
2025-03-05 14:18:53.040,-1.0,0.0838988827848613,-0.0326505400919054,0.051248598959279,-2.928200203840592e-07
2025-03-05 14:18:53.042,-1.0,0.0761306595133551,-0.0275864317354277,0.0485444842076702,-2.898128810231625e-07
2025-03-05 14:18:53.044,-1.0,0.0684085054376545,-0.022060223526342,0.0463485385085954,-2.868110825527541e-07
2025-03-05 14:18:53.046,-1.0,0.061644910649792,-0.0168314504177574,0.0448137170055767,-2.838147433481861e-07
2025-03-05 14:18:53.048,-1.0,0.0562392494401662,-0.0124465524543633,0.0437929539429928,-2.808239880428184e-07
2025-03-05 14:18:53.049,-1.0,0.0518561708545956,-0.009092795973772,0.0427636320223946,-2.778389456980155e-07
2025-03-05 14:18:53.051,-1.0,0.0475649033485063,-0.006573329278092,0.0409918313884039,-2.748597481417767e-07
2025-03-05 14:18:53.053,-1.0,0.0422882595290855,-0.0043935062612188,0.0378950107479156,-2.718865282628096e-07
2025-03-05 14:18:53.055,-1.0,0.0353653949643349,-0.0019657621405003,0.0333998904507152,-2.689194179925743e-07
2025-03-05 14:18:53.057,-1.0,0.0269493532864312,0.0011165287455599,0.0280661397956262,-2.659585460443e-07
2025-03-05 14:18:53.059,-1.0,0.0180080476943018,0.0048682572319229,0.0228765628251901,-2.630040360067873e-07
2025-03-05 14:18:53.061,-1.0,0.0098915987755222,0.0088966239384743,0.0187884807547365,-2.600560056516294e-07
2025-03-05 14:18:53.063,-1.0,0.0036776164358093,0.0126129105851355,0.0162907852130563,-2.57114567922822e-07
2025-03-05 14:18:53.065,-1.0,-0.0003524971364453,0.0155714017088222,0.0152191629222822,-2.54179833157232e-07
2025-03-05 14:18:53.067,-1.0,-0.0028249777859354,0.017736092609822,0.0149113733300323,-2.512519112765556e-07
2025-03-05 14:18:53.069,-1.0,-0.0049313719758347,0.0194859169157921,0.0145548035919339,-2.483309126035866e-07
2025-03-05 14:18:53.071,-1.0,-0.007838572228402,0.0213300253620474,0.0134917119156895,-2.454169466454937e-07
2025-03-05 14:18:53.073,-1.0,-0.0121642867402302,0.0235206477655194,0.0113566199224573,-2.4251011919621055e-07
2025-03-05 14:18:53.075,-1.0,-0.017757762739265,0.0258334063056986,0.0080759025704069,-2.396105288734912e-07
2025-03-05 14:18:53.077,-1.0,-0.0238472162397767,0.0276630412556233,0.0038160841275015,-2.3671826442543441e-07
2025-03-05 14:18:53.079,-1.0,-0.0294459999151873,0.0283747469901695,-0.001070993697552,-2.3383340382516158e-07
2025-03-05 14:18:53.081,-1.0,-0.0338181473250621,0.0277062124836405,-0.0061116754882757,-2.3095601548416257e-07
2025-03-05 14:18:53.083,-1.0,-0.0367979819758972,0.0259930857508127,-0.0108046367410361,-2.2808616114948397e-07
2025-03-05 14:18:53.085,-1.0,-0.0388212066060967,0.0240866942574704,-0.0147342527372338,-2.2522389957058843e-07
2025-03-05 14:18:53.087,-1.0,-0.0406453735146122,0.0229969740782259,-0.0176481397098489,-2.2236928995595002e-07
2025-03-05 14:18:53.089,-1.0,-0.0428977839650198,0.023434596057678,-0.0194629280821496,-2.1952239441308158e-07
2025-03-05 14:18:53.090,-1.0,-0.0457119591848596,0.0254740805771552,-0.0202376186981965,-2.1668327885955266e-07
2025-03-05 14:18:53.092,-1.0,-0.0486796455150429,0.028500620573855,-0.0201787649541436,-2.1385201235766685e-07
2025-03-05 14:18:53.094,-1.0,-0.0511391840882347,0.0314661477134788,-0.019672776307638,-2.1102866539447762e-07
2025-03-05 14:18:53.096,-1.0,-0.0526061225262562,0.0333372529361175,-0.0192686094338352,-2.082133079956927e-07
2025-03-05 14:18:53.098,-1.0,-0.0530931663329735,0.0335435388154009,-0.0195493672623147,-2.054060084496856e-07
2025-03-05 14:18:53.100,-1.0,-0.0531562702753097,0.0322349864778548,-0.0209210234390654,-2.0260683291261877e-07
2025-03-05 14:18:53.102,-1.0,-0.0536397605391701,0.0302117806112227,-0.0234277194714232,-1.9981584569252346e-07
2025-03-05 14:18:53.104,-1.0,-0.0552296840996649,0.0285264619890943,-0.0267029615692864,-1.970331099059346e-07
2025-03-05 14:18:53.106,-1.0,-0.0580442954322214,0.0279564373309624,-0.0300875974921688,-1.942586883787165e-07
2025-03-05 14:18:53.108,-1.0,-0.0615130843490673,0.0286550867051383,-0.032857736981054,-1.9149264477513405e-07
2025-03-05 14:18:53.110,-1.0,-0.0646470663583088,0.0301812334001897,-0.0344655722474151,-1.887350447945985e-07
2025-03-05 14:18:53.112,-1.0,-0.0665599846218014,0.0318504709684878,-0.0347092528913614,-1.859859570074151e-07
2025-03-05 14:18:53.114,-1.0,-0.0669452815913484,0.0331573420694277,-0.0337876786990678,-1.8324545277795545e-07
2025-03-05 14:18:53.116,-1.0,-0.0662472690340001,0.0340186326963393,-0.032228375444142,-1.8051360490848417e-07
2025-03-05 14:18:53.118,-1.0,-0.0654371281077095,0.0347403191182705,-0.0306965480215938,-1.777904851101706e-07
2025-03-05 14:18:53.120,-1.0,-0.0655041206185752,0.0357728718285091,-0.0297309877537206,-1.7507616098554874e-07
2025-03-05 14:18:53.122,-1.0,-0.0669111960246076,0.0374002859972525,-0.0295106489367622,-1.723706936154916e-07
2025-03-05 14:18:53.124,-1.0,-0.0692934489252538,0.0395147735518002,-0.0297784142462618,-1.6967413683679545e-07
2025-03-05 14:18:53.126,-1.0,-0.071577509403369,0.0415923613511799,-0.0299848869027756,-1.6698653873610406e-07
2025-03-05 14:18:53.128,-1.0,-0.0724908236248203,0.0429046132408644,-0.0295859492182312,-1.6430794489384234e-07
2025-03-05 14:18:53.130,-1.0,-0.071212199022206,0.0428887762317116,-0.0283231616046267,-1.616384020046233e-07
2025-03-05 14:18:53.131,-1.0,-0.0678282817610449,0.0414999748507896,-0.0263280456939528,-1.5897796034425737e-07
2025-03-05 14:18:53.133,-1.0,-0.0633574813592147,0.0393391910854217,-0.024018029016671,-1.563266743613863e-07
2025-03-05 14:18:53.135,-1.0,-0.0593155423639297,0.0374352344158809,-0.0218800466461556,-1.5368460187131886e-07
2025-03-05 14:18:53.137,-1.0,-0.0570202337321457,0.0367537097434658,-0.0202662626481395,-1.510518030386302e-07
2025-03-05 14:18:53.139,-1.0,-0.0569706239389691,0.0376957225061478,-0.0192746400688378,-1.4842834013986065e-07
2025-03-05 14:18:53.141,-1.0,-0.0586125590663025,0.0398786634164854,-0.0187336342814,-1.4581427824627426e-07
2025-03-05 14:18:53.143,-1.0,-0.0606119949020132,0.0423320414283607,-0.0182796921164226,-1.432096860634631e-07
2025-03-05 14:18:53.145,-1.0,-0.0615040728318462,0.0440084257007704,-0.0174953857914594,-1.4061463580571552e-07
2025-03-05 14:18:53.147,-1.0,-0.0604068722595717,0.0443359776834209,-0.0160706332497213,-1.3802920143623688e-07
2025-03-05 14:18:53.149,-1.0,-0.0574560308657655,0.0435053278924064,-0.0139504416482341,-1.3545345564819066e-07
2025-03-05 14:18:53.151,-1.0,-0.0537294524747051,0.0423192389997489,-0.0114099521388345,-1.3288746697529426e-07
2025-03-05 14:18:53.153,-1.0,-0.050667409502214,0.0416881782625552,-0.0089789698873246,-1.3033129868908978e-07
2025-03-05 14:18:53.155,-1.0,-0.0492768271860974,0.0420787083913706,-0.0071978574325052,-1.2778501035195358e-07
2025-03-05 14:18:53.157,-1.0,-0.0495722206797451,0.0432500021275899,-0.0063219571970822,-1.2524866151854322e-07
2025-03-05 14:18:53.159,-1.0,-0.0505958375007223,0.044415599094925,-0.0061799770796567,-1.227223160263577e-07
2025-03-05 14:18:53.161,-1.0,-0.0510075658902929,0.0446974657952899,-0.006309838815815,-1.202060451836125e-07
2025-03-05 14:18:53.163,-1.0,-0.0498827251989396,0.043600278897009,-0.0062821850768184,-1.1769992888452272e-07
2025-03-05 14:18:53.165,-1.0,-0.0472530496597469,0.0412800536614324,-0.0059727348212282,-1.1520405467554215e-07
2025-03-05 14:18:53.167,-1.0,-0.0441052977631996,0.0385069819987145,-0.0055980546201402,-1.1271851542988533e-07
2025-03-05 14:18:53.169,-1.0,-0.0418533853559636,0.036333372170548,-0.0055197520579045,-1.1024340644519778e-07
2025-03-05 14:18:53.171,-1.0,-0.0415659500790909,0.0355811378885257,-0.0059845510727621,-1.077788227530983e-07
2025-03-05 14:18:53.172,-1.0,-0.0433659837420388,0.0363728672064487,-0.0069928554348461,-1.0532485727823145e-07
2025-03-05 14:18:53.174,-1.0,-0.0463424004249516,0.0379764098906772,-0.0083657294714057,-1.0288160000631325e-07
2025-03-05 14:18:53.176,-1.0,-0.0490239564772371,0.0391182932685419,-0.009905402210331,-1.0044913766764565e-07
2025-03-05 14:18:53.178,-1.0,-0.0501339231961206,0.0386534820759519,-0.0114801802077663,-9.802755318761449e-08
2025-03-05 14:18:53.180,-1.0,-0.0492023097085493,0.0362252585670937,-0.0129767903221511,-9.561692456438839e-08
2025-03-05 14:18:53.182,-1.0,-0.0467341025824221,0.0325158447259684,-0.0142179971203757,-9.321732351614241e-08
2025-03-05 14:18:53.184,-1.0,-0.043892732357718,0.0289256219964247,-0.0149668496871114,-9.08288146480635e-08
2025-03-05 14:18:53.186,-1.0,-0.041894131119883,0.0268657558433659,-0.0150281146430445,-8.845145578527515e-08
2025-03-05 14:18:53.188,-1.0,-0.0414205022944256,0.0270647294264102,-0.014355512266523,-8.608529959944423e-08
2025-03-05 14:18:53.190,-1.0,-0.0423248444606977,0.0292403922231786,-0.0130841916786688,-8.373039602175796e-08
2025-03-05 14:18:53.192,-1.0,-0.043743009461588,0.0322511784837184,-0.0114915704894181,-8.138679452553032e-08
2025-03-05 14:18:53.194,-1.0,-0.0445416842159944,0.0346065747170779,-0.0099348491146871,-7.905454545874209e-08
2025-03-05 14:18:53.196,-1.0,-0.043889762094672,0.03510442461571,-0.0087850772240087,-7.673370019424726e-08
2025-03-05 14:18:53.198,-1.0,-0.0416934326736639,0.0333494665968392,-0.0083437059560011,-7.44243104430719e-08
2025-03-05 14:18:53.200,-1.0,-0.0386844945209623,0.0299423756565695,-0.0087418588603453,-7.212642716780782e-08
2025-03-05 14:18:53.202,-1.0,-0.0360844654965615,0.0262233916488731,-0.009860813929955,-6.984009930305048e-08
2025-03-05 14:18:53.204,-1.0,-0.0349742038765806,0.0236428782030655,-0.0113310658148879,-6.756537240296393e-08
2025-03-05 14:18:53.206,-1.0,-0.0357028603489242,0.0230543992428756,-0.0126482012983792,-6.530228746307374e-08
2025-03-05 14:18:53.208,-1.0,-0.0377011092719697,0.0243164690585053,-0.0133843804748155,-6.30508802313132e-08
2025-03-05 14:18:53.210,-1.0,-0.0398329835891736,0.0264316820226158,-0.0134010419354562,-6.08111812005929e-08
2025-03-05 14:18:53.212,-1.0,-0.041075450660169,0.0281355969559511,-0.0129395942230735,-5.8583216261582004e-08
2025-03-05 14:18:53.214,-1.0,-0.0411099728986941,0.0285925794490445,-0.0125171341451108,-5.6367007813403824e-08
2025-03-05 14:18:53.215,-1.0,-0.0404728576707575,0.0278127039890692,-0.0126598945518116,-5.416257602688367e-08
2025-03-05 14:18:53.217,-1.0,-0.0401810189618286,0.0265692733114236,-0.0136114866656778,-5.1969939907483894e-08
2025-03-05 14:18:53.219,-1.0,-0.0410612669484599,0.0258734614345525,-0.0151875466324911,-4.978911779639356e-08
2025-03-05 14:18:53.221,-1.0,-0.0431853504062979,0.0263214843608884,-0.0168636072356575,-4.7620127002686825e-08
2025-03-05 14:18:53.223,-1.0,-0.0457523173894428,0.0277248248830862,-0.0180272337654496,-4.546298243515703e-08
2025-03-05 14:18:53.225,-1.0,-0.0475064494642216,0.029269739400378,-0.0182364514226847,-4.331769447677049e-08
2025-03-05 14:18:53.227,-1.0,-0.0474688538398515,0.0300965542132703,-0.0173720411375877,-4.1184266839611865e-08
2025-03-05 14:18:53.229,-1.0,-0.0455572340364982,0.0298867855128966,-0.0156701902366864,-3.906269542688905e-08
2025-03-05 14:18:53.231,-1.0,-0.0427138067028772,0.0290459629335591,-0.0136675857077987,-3.695296901910615e-08
2025-03-05 14:18:53.233,-1.0,-0.0404550177650066,0.0283858387425944,-0.0120689211713159,-3.4855071906133926e-08
2025-03-05 14:18:53.235,-1.0,-0.040098787589105,0.0285747693516823,-0.0115237605509481,-3.276898771344163e-08
2025-03-05 14:18:53.237,-1.0,-0.0420968126993752,0.0297465412171481,-0.0123500139075519,-3.069470309578169e-08
2025-03-05 14:18:53.239,-1.0,-0.0458274923241587,0.0314867626844213,-0.0143404721457097,-2.8632210062255792e-08
2025-03-05 14:18:53.241,-1.0,-0.0499357914263103,0.0331321841943812,-0.0168033498280139,-2.6581506391781674e-08
2025-03-05 14:18:53.243,-1.0,-0.052995575555313,0.034136389254356,-0.0188589290360983,-2.4542594431927898e-08
2025-03-05 14:18:53.245,-1.0,-0.0541335362932205,0.034279093784038,-0.0198541854501516,-2.2515479052825647e-08
2025-03-05 14:18:53.247,-1.0,-0.0533485352327804,0.0336634560740703,-0.0196848223581707,-2.0500165478396345e-08
2025-03-05 14:18:53.249,-1.0,-0.0514370755626694,0.0325900286200002,-0.0188467904130532,-1.8496657343680528e-08
2025-03-05 14:18:53.251,-1.0,-0.0495827001515726,0.0314184955420937,-0.0181639483165198,-1.65049550020581e-08
2025-03-05 14:18:53.253,-1.0,-0.0487970219377519,0.0304735778026951,-0.0183231880152463,-1.4525054055616324e-08
2025-03-05 14:18:53.255,-1.0,-0.0494844372835997,0.0299986142969549,-0.0194855669806123,-1.25569442360522e-08
2025-03-05 14:18:53.256,-1.0,-0.0513413157980498,0.0301351342639849,-0.0212059256192244,-1.060060893326491e-08
2025-03-05 14:18:53.258,-1.0,-0.0535987839809382,0.0309099803344122,-0.0226885478519916,-8.656025727749011e-09
2025-03-05 14:18:53.260,-1.0,-0.0554347297818405,0.0322307913019323,-0.0232036828751953,-6.723168149901508e-09
2025-03-05 14:18:53.262,-1.0,-0.056341582162921,0.033895109651953,-0.0224462171732998,-4.802008538396437e-09
2025-03-05 14:18:53.264,-1.0,-0.0563081617358213,0.0356106552351296,-0.0206972514770699,-2.8925214146583393e-09
2025-03-05 14:18:53.266,-1.0,-0.0557615723598899,0.0370341191152826,-0.0187271985281595,-9.946864845762854e-10
2025-03-05 14:18:53.268,-1.0,-0.0552949598111847,0.0378426283528762,-0.0174520769917249,8.915095332845074e-10
2025-03-05 14:18:53.270,-1.0,-0.055306292038254,0.0378231856451233,-0.0174828520983704,2.766072576302053e-09
2025-03-05 14:18:53.272,-1.0,-0.0557652003764658,0.0369427748176892,-0.0188221713785095,4.629002193058171e-09
2025-03-05 14:18:53.274,-1.0,-0.0562993431600707,0.0353862306895501,-0.0209128584001677,6.480293306133437e-09
2025-03-05 14:18:53.276,-1.0,-0.0565697332600337,0.0335605233860554,-0.0230089559674038,8.31993827937833e-09
2025-03-05 14:18:53.278,-1.0,-0.0566183256045871,0.032013272408317,-0.024604799541355,1.0147928872294952e-08
2025-03-05 14:18:53.280,-1.0,-0.056842434843368,0.0312048994091365,-0.0256372821101176,1.196425785552358e-08
2025-03-05 14:18:53.282,-1.0,-0.057600215986682,0.0312182497215566,-0.0263817133028068,1.3768920269945756e-08
2025-03-05 14:18:53.284,-1.0,-0.0588265724190498,0.0316468168010984,-0.0271795029847644,1.5561914297649472e-08
2025-03-05 14:18:53.286,-1.0,-0.0600143832710024,0.031822301268951,-0.0281918296187416,1.7343241471507047e-08
2025-03-05 14:18:53.288,-1.0,-0.0605570857787491,0.0312586893685505,-0.029298144192524,1.911290583691901e-08
2025-03-05 14:18:53.290,-1.0,-0.0601699395778539,0.0300075914933234,-0.0301620959884019,2.0870911980939245e-08
2025-03-05 14:18:53.292,-1.0,-0.0591143062075431,0.0286985794026475,-0.0304154748517209,2.2617262445255618e-08
2025-03-05 14:18:53.294,-1.0,-0.0581107823319063,0.0282468555559681,-0.0298636750445987,2.4351955544244712e-08
2025-03-05 14:18:53.296,-1.0,-0.0579826075634091,0.0293751449871772,-0.0286072111651751,2.6074984630612504e-08
2025-03-05 14:18:53.297,-1.0,-0.059196073317367,0.0321774621949206,-0.0270183601009657,2.77863392732972e-08
2025-03-05 14:18:53.299,-1.0,-0.0615495587673426,0.0359548837653165,-0.0255944243757791,2.9486007932324115e-08
2025-03-05 14:18:53.301,-1.0,-0.0642281731355775,0.0394481153428716,-0.0247798075015686,3.117398104067253e-08
2025-03-05 14:18:53.303,-1.0,-0.0662470387226993,0.0413943299983657,-0.0248524586742045,3.2850253283175764e-08
2025-03-05 14:18:53.305,-1.0,-0.0670502621959617,0.0411541577883943,-0.0258958545201451,3.451482431862116e-08
2025-03-05 14:18:53.307,-1.0,-0.0668892918730076,0.0390904823091956,-0.0277985598188246,3.6167697909755455e-08
2025-03-05 14:18:53.309,-1.0,-0.0667001095000798,0.0364634358465627,-0.0302364241014715,3.7808879981124783e-08
2025-03-05 14:18:53.311,-1.0,-0.0675115773652766,0.0348257001636192,-0.0326856279402009,3.9438376344426817e-08
2025-03-05 14:18:53.313,-1.0,-0.0697484390226776,0.0351931694121548,-0.034555020736295,4.1056190774191834e-08
2025-03-05 14:18:53.315,-1.0,-0.0728901341290141,0.037458665062749,-0.0354312206269196,4.266232384152466e-08
2025-03-05 14:18:53.317,-1.0,-0.0757200215404913,0.0404290560434484,-0.0352907174682216,4.425677256801127e-08
2025-03-05 14:18:53.319,-1.0,-0.0770071960110809,0.0424992700907942,-0.0345076782195724,4.583953081697806e-08
2025-03-05 14:18:53.321,-1.0,-0.0761900924394968,0.0425721614955481,-0.0336176834747498,4.741059042335547e-08
2025-03-05 14:18:53.323,-1.0,-0.0736622341004501,0.0406887023427868,-0.0329732844604747,4.8969943043511447e-08
2025-03-05 14:18:53.325,-1.0,-0.070531958441969,0.0380419065589625,-0.0324898047676249,5.051758237258137e-08
2025-03-05 14:18:53.327,-1.0,-0.068016431810903,0.036427205412591,-0.0315889795404,5.2053505997032465e-08
2025-03-05 14:18:53.329,-1.0,-0.0667818207505535,0.0374527141472013,-0.0293288601071731,5.3577716153561204e-08
2025-03-05 14:18:53.331,-1.0,-0.066553588360291,0.0418667478121199,-0.024686594494778,5.509021911686919e-08
2025-03-05 14:18:53.333,-1.0,-0.0662262739447258,0.049242144077463,-0.0169838842748668,5.659102351297885e-08
2025-03-05 14:18:53.335,-1.0,-0.0644906220316126,0.0581195134413694,-0.006370863407075,5.808013822791129e-08
2025-03-05 14:18:53.337,-1.0,-0.0607023297640473,0.0665745309868044,0.0058724460896644,5.955757063939345e-08
2025-03-05 14:18:53.338,-1.0,-0.0555026544213996,0.0730012643573861,0.0174988545712037,6.102332568308644e-08
2025-03-05 14:18:53.340,-1.0,-0.0507536008193633,0.0767575885641391,0.0260042321797555,6.24774058813352e-08
2025-03-05 14:18:53.342,-1.0,-0.0487002623956308,0.0783456600022841,0.0296456418027736,6.391981201027607e-08
2025-03-05 14:18:53.344,-1.0,-0.0507333744197835,0.0790303925293392,0.0282972619772406,6.535054371727074e-08
2025-03-05 14:18:53.346,-1.0,-0.0564065249060269,0.0800894617115677,0.0236831802491005,6.67695994036948e-08
2025-03-05 14:18:53.348,-1.0,-0.0632804874111408,0.0820853421836511,0.0188050977372927,6.817697517468067e-08
2025-03-05 14:18:53.350,-1.0,-0.0677651724107462,0.0845632408434425,0.0167983109303715,6.957266333358106e-08
2025-03-05 14:18:53.352,-1.0,-0.0666221216834212,0.0863591348265572,0.0197372552426371,7.095665133358096e-08
2025-03-05 14:18:53.354,-1.0,-0.0584363257160095,0.0863365411651845,0.0279004572387043,7.232892205330834e-08
2025-03-05 14:18:53.356,-1.0,-0.0443541995959118,0.0841122306140907,0.0397582725583993,7.36894557458632e-08
2025-03-05 14:18:53.358,-1.0,-0.027722110065904,0.0803608267793885,0.0526389580060191,7.503823327563135e-08
2025-03-05 14:18:53.360,-1.0,-0.0127550872944921,0.0765387421659172,0.0637838958582897,7.637523965185681e-08
