Timestamp,GSR_Filtered,PPG_Filtered
2025-03-05 14:19:55.954,-0.0016163885543430498,-5.017587303403847
2025-03-05 14:19:55.962,-0.0020781788662962244,-5.005804769839894
2025-03-05 14:19:55.969,-0.00253651015711989,-4.9993854276960175
2025-03-05 14:19:55.977,-0.002985149050397159,-4.9904940768095045
2025-03-05 14:19:55.985,-0.003418120782039687,-4.972113677308618
2025-03-05 14:19:55.993,-0.0038298265923308087,-4.938192969123611
2025-03-05 14:19:56.001,-0.004215152544347501,-4.8837592528690905
2025-03-05 14:19:56.009,-0.00456956745294018,-4.804994864837789
2025-03-05 14:19:56.016,-0.004889207206868439,-4.699276920020934
2025-03-05 14:19:56.024,-0.005170942471258907,-4.565180883812336
2025-03-05 14:19:56.032,-0.005412426880427054,-4.402449460554182
2025-03-05 14:19:56.040,-0.005612123474954724,-4.2119291531585805
2025-03-05 14:19:56.048,-0.005769308125806086,-3.9954776485544055
2025-03-05 14:19:56.055,-0.0058840497775313775,-3.7558459052948803
2025-03-05 14:19:56.063,-0.0059571683936964805,-3.4965394362695656
2025-03-05 14:19:56.071,-0.005990172461648463,-3.22166376030619
2025-03-05 14:19:56.079,-0.005985178785685728,-2.935759320614243
2025-03-05 14:19:56.087,-0.005944818008249022,-2.6436313322942335
2025-03-05 14:19:56.094,-0.005872129787376932,-2.3501800340878356
2025-03-05 14:19:56.102,-0.00577045181879174,-2.0602366895315827
2025-03-05 14:19:56.110,-0.005643306953291733,-1.7784104111300607
2025-03-05 14:19:56.118,-0.005494292553214751,-1.5089504631048793
2025-03-05 14:19:56.126,-0.005326975985904415,-1.2556281262108624
2025-03-05 14:19:56.134,-0.005144799776490905,-1.021641478092336
2025-03-05 14:19:56.141,-0.004950999397663324,-0.8095455619169218
2025-03-05 14:19:56.149,-0.004748535955036258,-0.6212094097172739
2025-03-05 14:19:56.157,-0.004540045247937695,-0.45780030117997567
2025-03-05 14:19:56.165,-0.004327803997326139,-0.31979453751736425
2025-03-05 14:19:56.173,-0.0041137134654678185,-0.20701296439440306
2025-03-05 14:19:56.180,-0.003899300150422602,-0.11867855155927805
2025-03-05 14:19:56.188,-0.0036857326339657394,-0.05349257830064448
2025-03-05 14:19:56.196,-0.003473852981715179,-0.00972541516481569
2025-03-05 14:19:56.204,-0.0032642203603570757,0.014682450445506888
2025-03-05 14:19:56.212,-0.0030571638042492647,0.022013626386173733
2025-03-05 14:19:56.219,-0.002852840468263782,0.014665683721406694
2025-03-05 14:19:56.227,-0.0026512954144219084,-0.0049541256489281085
2025-03-05 14:19:56.235,-0.002452519074401676,-0.03452746175473187
2025-03-05 14:19:56.243,-0.002256498933142184,-0.0719134186939513
2025-03-05 14:19:56.251,-0.002063262529856215,-0.11522413839876865
2025-03-05 14:19:56.259,-0.0018729094767836558,-0.162885285222628
2025-03-05 14:19:56.266,-0.0016856309022534413,-0.21367979966779604
2025-03-05 14:19:56.274,-0.0015017156224024328,-0.26677401982722254
2025-03-05 14:19:56.282,-0.0013215434050292585,-0.32172593070831107
2025-03-05 14:19:56.290,-0.0011455667550625591,-0.37847595656521393
2025-03-05 14:19:56.298,-0.0009742835794455485,-0.437321333670544
2025-03-05 14:19:56.305,-0.0008082038093406673,-0.4988756753923299
2025-03-05 14:19:56.313,-0.0006478135053938392,-0.5640158513766994
2025-03-05 14:19:56.321,-0.0004935400543627299,-0.6338187287074644
2025-03-05 14:19:56.329,-0.00034572173926365393,-0.7094906448945892
2025-03-05 14:19:56.337,-0.00020458431858517496,-0.7922926848138195
2025-03-05 14:19:56.345,-7.022647823586824e-05,-0.8834649105566015
2025-03-05 14:19:56.352,5.738470590439064e-05,-0.995905742049983
2025-03-05 14:19:56.360,0.00017840781347170284,-1.0777245314750454
2025-03-05 14:19:56.368,0.0002931108375303179,-1.1303780640452417
2025-03-05 14:19:56.376,0.0004018456291472924,-1.1558069150527173
2025-03-05 14:19:56.384,0.000505014763415987,-1.1563730910319676
2025-03-05 14:19:56.391,0.0006030331441687412,-1.1347967863461281
2025-03-05 14:19:56.399,0.0006962869543942866,-1.0940936147753797
2025-03-05 14:19:56.407,0.0007850925539219614,-1.0375132786523005
2025-03-05 14:19:56.415,0.0008696577346258485,-0.9684802972073637
2025-03-05 14:19:56.423,0.0009500475294958436,-0.890537142893351
2025-03-05 14:19:56.430,0.0010261566227858356,-0.8072899279273826
2025-03-05 14:19:56.438,0.001097690257150259,-0.7223566333708186
2025-03-05 14:19:56.446,0.0011641552423104261,-0.6393177659325101
2025-03-05 14:19:56.454,0.0012248621800249604,-0.561669248855884
2025-03-05 14:19:56.462,0.0012789394202464266,-0.492777291065699
2025-03-05 14:19:56.470,0.0013253587207327673,-0.43583492663660517
2025-03-05 14:19:56.477,0.0013629721925573215,-0.3938198735437308
2025-03-05 14:19:56.485,0.001390559816726098,-0.36945333070823483
2025-03-05 14:19:56.493,0.0014068864744300868,-0.36515932493272063
2025-03-05 14:19:56.501,0.001410766958658363,-0.383024249107267
2025-03-05 14:19:56.509,0.0014011368447078088,-0.42475631865230296
2025-03-05 14:19:56.516,0.0013771264898974542,-0.491644832676397
2025-03-05 14:19:56.524,0.001338134920540759,-0.5845193716869841
2025-03-05 14:19:56.532,0.0012839000040764292,-0.7037093979357567
2025-03-05 14:19:56.540,0.0012145610910024578,-0.8490051422571017
2025-03-05 14:19:56.548,0.0011307102044515482,-1.0196211470706114
2025-03-05 14:19:56.555,0.0010334278343804557,-1.2141643578692614
2025-03-05 14:19:56.563,0.0009242995496463295,-1.4306091655814481
2025-03-05 14:19:56.571,0.0008054101468786352,-1.6662822377823698
2025-03-05 14:19:56.579,0.0006793129895076273,-1.9178602728909806
2025-03-05 14:19:56.587,0.000548973493573514,-2.1813839064295717
2025-03-05 14:19:56.595,0.0004176872928502452,-2.452290837619438
2025-03-05 14:19:56.602,0.00028897536153679217,-2.72547078827604
2025-03-05 14:19:56.610,0.00016646014940020163,-2.995344139370108
2025-03-05 14:19:56.618,5.372842638127438e-05,-3.2559650302895466
2025-03-05 14:19:56.626,-4.581215071459422e-05,-3.5011483993845194
2025-03-05 14:19:56.634,-0.00012907494906737378,-3.724618967242257
2025-03-05 14:19:56.641,-0.00019342679490954212,-3.9201786159534917
2025-03-05 14:19:56.649,-0.00023680340031789605,-4.08188711601383
2025-03-05 14:19:56.657,-0.0002578010977179598,-4.204249822344931
2025-03-05 14:19:56.665,-0.00025573938777597946,-4.282404921721428
2025-03-05 14:19:56.673,-0.00023069035061786515,-4.31230216823351
2025-03-05 14:19:56.680,-0.00018347287870244713,-4.290864866015319
2025-03-05 14:19:56.688,-0.00011561184804125734,-4.216127185240932
2025-03-05 14:19:56.696,-2.9264549950830514e-05,-4.087339718402322
2025-03-05 14:19:56.704,7.288120921457701e-05,-3.905037444323567
2025-03-05 14:19:56.712,0.00018773111643991615,-3.6710658761955277
2025-03-05 14:19:56.720,0.00031192292451939985,-3.3885630136311584
2025-03-05 14:19:56.727,0.0004419714447959518,-3.0618966772354748
2025-03-05 14:19:56.735,0.0005744119670697893,-2.696558763643594
2025-03-05 14:19:56.743,0.000705934845469302,-2.299019817447106
2025-03-05 14:19:56.751,0.0008335050902887305,-1.8765489844207397
2025-03-05 14:19:56.759,0.0009544621213279107,-1.437005813512996
2025-03-05 14:19:56.766,0.0010665962808757408,-0.9886114600846464
2025-03-05 14:19:56.774,0.0011682002250581103,-0.5397075829379989
2025-03-05 14:19:56.782,0.001258094836360238,-0.09851162019086665
2025-03-05 14:19:56.790,0.001335630708208974,0.32712281198223697
2025-03-05 14:19:56.798,0.001400667437109805,0.729931907509404
2025-03-05 14:19:56.805,0.0014535338641869864,1.1034461021518454
2025-03-05 14:19:56.813,0.0014949730189125563,1.4421658293395032
2025-03-05 14:19:56.821,0.0015260758320565203,1.7417025640546975
2025-03-05 14:19:56.829,0.0015482077109661657,1.9988804343336612
2025-03-05 14:19:56.837,0.0015629318255960313,2.2117951847158115
2025-03-05 14:19:56.845,0.0015719324635214927,2.3798289122846734
2025-03-05 14:19:56.852,0.0015769411138213934,2.5036206978582833
2025-03-05 14:19:56.860,0.0015796671134050851,2.5849949537724637
2025-03-05 14:19:56.868,0.0015817339141781168,2.6268509369438817
2025-03-05 14:19:56.876,0.0015846215604853175,2.6330183631099784
2025-03-05 14:19:56.884,0.0015896159424675673,2.608085337174351
2025-03-05 14:19:56.891,0.0015977656635343973,2.557205820134941
2025-03-05 14:19:56.899,0.0016098476166364814,2.4858945279206943
2025-03-05 14:19:56.907,0.0016263424089541863,2.3998174584871452
2025-03-05 14:19:56.915,0.0016474206070905206,2.304586148469991
2025-03-05 14:19:56.923,0.001672940459988087,2.2055632757693746
2025-03-05 14:19:56.930,0.001702457337600535,2.107686389368999
2025-03-05 14:19:56.938,0.0017352446462559068,2.015315434176182
2025-03-05 14:19:56.946,0.001770325527266402,1.9321084408795342
2025-03-05 14:19:56.954,0.0018065142667804063,1.8609283699839596
2025-03-05 14:19:56.962,0.0018424659803336545,1.803782726867178
2025-03-05 14:19:56.970,0.001876732680984539,1.7617962716728912
2025-03-05 14:19:56.977,0.0019078233413296665,1.7352159822763724
2025-03-05 14:19:56.985,0.0019342652278586,1.7234464197138015
2025-03-05 14:19:56.993,0.0019546637793412427,1.7251128070915953
2025-03-05 14:19:57.001,0.0019677585795946223,1.738148465779999
2025-03-05 14:19:57.009,0.0019724733888586967,1.759902748138006
2025-03-05 14:19:57.016,0.0019679586316908243,1.7872652505590085
2025-03-05 14:19:57.024,0.001953625148597085,1.8168018679989422
2025-03-05 14:19:57.032,0.0019291683945103083,1.84489814349524
2025-03-05 14:19:57.040,0.0018945826089199302,1.867905355652691
2025-03-05 14:19:57.048,0.0018501647916924872,1.8822848577149207
2025-03-05 14:19:57.055,0.0017965085991500512,1.8847463214932991
2025-03-05 14:19:57.063,0.0017344885320035477,1.872375742500522
2025-03-05 14:19:57.071,0.00166523502630345,1.842749332976997
2025-03-05 14:19:57.079,0.001590101286891239,1.7940297792417417
2025-03-05 14:19:57.087,0.0015106229256801227,1.7250417825534468
2025-03-05 14:19:57.095,0.0014284716891823418,1.635324346047138
2025-03-05 14:19:57.102,0.001345404778806319,1.5251579135848978
2025-03-05 14:19:57.110,0.0012632114527193939,1.395565202227474
2025-03-05 14:19:57.118,0.001183658680273869,1.2482853867185888
2025-03-05 14:19:57.126,0.001108437558421643,1.0857221769218839
2025-03-05 14:19:57.134,0.0010391120747091087,0.9108672595330743
2025-03-05 14:19:57.141,0.0009770717635782396,0.727201530483326
2025-03-05 14:19:57.149,0.0009234898941760341,0.5385774924391232
2025-03-05 14:19:57.157,0.0008792889225928911,0.3490870891200932
2025-03-05 14:19:57.165,0.0008451148840249879,0.1629200397119483
2025-03-05 14:19:57.173,0.0008213221518808805,-0.01578163986641883
2025-03-05 14:19:57.180,0.0008079696145853794,-0.18306685007843926
2025-03-05 14:19:57.188,0.0008048288620132096,-0.33531017333359586
2025-03-05 14:19:57.196,0.0008114043989700495,-0.4693322376032026
2025-03-05 14:19:57.204,0.0008269651837030886,-0.5825002983481633
2025-03-05 14:19:57.212,0.00085058601414679,-0.6728045659354416
2025-03-05 14:19:57.220,0.0008811966204314725,-0.7389069992459902
2025-03-05 14:19:57.227,0.00091763585772258,-0.780160694946325
2025-03-05 14:19:57.235,0.0009587080985178927,-0.7965995369081363
2025-03-05 14:19:57.243,0.0010032387633773453,-0.7888993348655275
2025-03-05 14:19:57.251,0.0010501259465823887,-0.7583131802113771
2025-03-05 14:19:57.259,0.0010983853537491581,-0.7065850905324759
2025-03-05 14:19:57.266,0.0011471862605872615,-0.6358471222989516
2025-03-05 14:19:57.274,0.0011958768326648817,-0.5485059360832296
2025-03-05 14:19:57.282,0.001243997818770231,-0.4471252555747776
2025-03-05 14:19:57.290,0.0012912842918145968,-0.33431075182544767
2025-03-05 14:19:57.298,0.0013376557363056292,-0.21260361433365213
2025-03-05 14:19:57.305,0.0013831953528744441,-0.08438846773362747
2025-03-05 14:19:57.313,0.0014281199531509638,0.048179603408920114
2025-03-05 14:19:57.321,0.0014727422398763805,0.1832253046873351
2025-03-05 14:19:57.329,0.0015174275974455037,0.3191783887728273
2025-03-05 14:19:57.337,0.0015625477495302205,0.4547731516672501
2025-03-05 14:19:57.345,0.0016084337680124666,0.589022988191297
2025-03-05 14:19:57.352,0.0016553309386221845,0.7211724204634783
2025-03-05 14:19:57.360,0.001703357903395286,0.8506305197663397
2025-03-05 14:19:57.368,0.0017524723107773012,0.97689095941091
2025-03-05 14:19:57.376,0.0018024449158016598,1.0994449605815724
2025-03-05 14:19:57.384,0.0018528436926176324,1.2176940317739027
2025-03-05 14:19:57.391,0.0019030290595105233,1.3308695876149823
2025-03-05 14:19:57.399,0.0019521607846180301,1.4379662339371848
2025-03-05 14:19:57.407,0.001999216553307224,1.5376947334800406
2025-03-05 14:19:57.415,0.002043021552377046,1.6284594686944183
2025-03-05 14:19:57.423,0.002082287786080689,1.7083636728737128
2025-03-05 14:19:57.430,0.0021156612424397684,1.775243907053966
2025-03-05 14:19:57.438,0.0021417745976669714,1.8267333298260702
2025-03-05 14:19:57.446,0.0021593030100709463,1.8603513616009886
2025-03-05 14:19:57.454,0.002167020686711829,1.8736155109313004
2025-03-05 14:19:57.462,0.002163856084482857,1.8641695320232763
2025-03-05 14:19:57.470,0.0021489436378029857,1.8299208262852131
2025-03-05 14:19:57.477,0.002121669832184898,1.7691791656013551
2025-03-05 14:19:57.485,0.0020817114354238957,1.6807884492527254
2025-03-05 14:19:57.493,0.002029063801026108,1.5642433285831752
2025-03-05 14:19:57.501,0.001964057307022671,1.419783133851027
2025-03-05 14:19:57.509,0.001887360229889488,1.2484565802970997
2025-03-05 14:19:57.516,0.001799966846847836,1.0521521563127003
2025-03-05 14:19:57.524,0.0017031703787704704,0.8335908261571805
2025-03-05 14:19:57.532,0.0015985213982843563,0.5962796149551801
2025-03-05 14:19:57.540,0.0014877733664944463,0.34442667280191036
2025-03-05 14:19:57.548,0.0013728179596625375,0.0828204216090086
2025-03-05 14:19:57.555,0.0012556137469856917,-0.1833227349534229
2025-03-05 14:19:57.563,0.0011381124027694733,-0.4485360026459575
2025-03-05 14:19:57.571,0.0010221867496966856,-0.7072975938670794
2025-03-05 14:19:57.579,0.0009095644913484336,-0.9542354349707426
2025-03-05 14:19:57.587,0.0008017707390995433,-1.1843320969090276
2025-03-05 14:19:57.595,0.0007000816653067963,-1.393120717166826
2025-03-05 14:19:57.602,0.00060549090914969,-1.5768629928115805
2025-03-05 14:19:57.610,0.0005186896341155969,-1.7327010741092805
2025-03-05 14:19:57.618,0.00044006033358472087,-1.8587763281993233
2025-03-05 14:19:57.626,0.0003696836638937722,-1.9543094085394381
2025-03-05 14:19:57.634,0.00030735683974865495,-2.0196377861738815
2025-03-05 14:19:57.641,0.0002526215067607927,-2.056208794077771
2025-03-05 14:19:57.649,0.0002047985629464,-2.0665282163280576
2025-03-05 14:19:57.657,0.00016302724103342873,-2.054066419824807
2025-03-05 14:19:57.665,0.00012630599315386192,-2.023125872492555
2025-03-05 14:19:57.673,9.353328723262955e-05,-1.9786755167680912
2025-03-05 14:19:57.680,6.354707373081748e-05,-1.9261587848397503
2025-03-05 14:19:57.688,3.516215449072117e-05,-1.8712829933980692
2025-03-05 14:19:57.696,7.204926069322516e-06,-1.8197984140249306
2025-03-05 14:19:57.704,-2.1454922597847435e-05,-1.777275485797851
2025-03-05 14:19:57.712,-5.18761089797362e-05,-1.7488884497369659
2025-03-05 14:19:57.720,-8.502113820712592e-05,-1.7392131889179199
2025-03-05 14:19:57.727,-0.0001217355901521838,-1.752046312786326
2025-03-05 14:19:57.735,-0.0001627314767445695,-1.7902515911709336
2025-03-05 14:19:57.743,-0.00020857477931736016,-1.8556387770833809
2025-03-05 14:19:57.751,-0.00025967722500484905,-1.9488786989065618
2025-03-05 14:19:57.759,-0.00031629231293964666,-2.0694572827984596
2025-03-05 14:19:57.766,-0.0003785155531609532,-2.2156699123410544
2025-03-05 14:19:57.774,-0.0004462888312126652,-2.384656272730122
2025-03-05 14:19:57.782,-0.0005194087566151489,-2.572474590564697
2025-03-05 14:19:57.790,-0.0005975387910135844,-2.7742129971868135
2025-03-05 14:19:57.798,-0.0006802248794228718,-2.9841346406755043
2025-03-05 14:19:57.805,-0.0007669142237557325,-3.195852170477796
2025-03-05 14:19:57.813,-0.0008569767406923369,-3.4025263345815207
2025-03-05 14:19:57.821,-0.0009497286358887518,-3.5970826739989854
2025-03-05 14:19:57.829,-0.0010444574046556418,-3.772439684534721
2025-03-05 14:19:57.837,-0.0011404474379678347,-3.921741353198917
2025-03-05 14:19:57.845,-0.001237005275708395,-4.038586678506001
2025-03-05 14:19:57.852,-0.0013334834167904033,-4.117248663805728
2025-03-05 14:19:57.860,-0.0014293015064300457,-4.152875346941484
2025-03-05 14:19:57.868,-0.0015239637496479745,-4.141665718201393
2025-03-05 14:19:57.876,-0.0016170715920791206,-4.08101390640319
2025-03-05 14:19:57.884,-0.0017083309914816683,-3.9696158050876225
2025-03-05 14:19:57.891,-0.0017975538576282817,-3.8075333820984656
2025-03-05 14:19:57.899,-0.0018846534876365607,-3.5962132592896188
2025-03-05 14:19:57.907,-0.0019696342208805322,-3.3384577317888944
2025-03-05 14:19:57.915,-0.002052576111502743,-3.0383481646257366
2025-03-05 14:19:57.923,-0.0021336159586273443,-2.7011225916018162
2025-03-05 14:19:57.930,-0.0022129263101427713,-2.333011268982558
2025-03-05 14:19:57.938,-0.002290694028484257,-1.9410358137795125
2025-03-05 14:19:57.946,-0.0023670997952826177,-1.5327792777606084
2025-03-05 14:19:57.954,-0.00244229965076579,-1.1161359591543416
2025-03-05 14:19:57.962,-0.0025164093655911353,-0.6990508214611612
2025-03-05 14:19:57.970,-0.0025894921472529404,-0.28925897680112006
2025-03-05 14:19:57.977,-0.0026615499041761025,0.105964263296364
2025-03-05 14:19:57.985,-0.0027325180408348734,0.48003277981534304
2025-03-05 14:19:57.993,-0.002802263548115734,0.8272495257633016
2025-03-05 14:19:58.001,-0.0028705859944354937,1.1429694121285636
2025-03-05 14:19:58.009,-0.002937220922742164,1.4237195210655822
2025-03-05 14:19:58.016,-0.003001845122362614,1.6672729728568871
2025-03-05 14:19:58.024,-0.0030640832764711697,1.8726748566503153
2025-03-05 14:19:58.032,-0.003123515587267478,2.040220675886702
2025-03-05 14:19:58.040,-0.003179686145676013,2.1713896528179992
2025-03-05 14:19:58.048,-0.0032321120055653517,2.2687369026937065
2025-03-05 14:19:58.055,-0.003280293065583184,2.335749878356067
2025-03-05 14:19:58.063,-0.0033237228731764477,2.376675582085682
2025-03-05 14:19:58.071,-0.00336190032290376,2.396325848164916
2025-03-05 14:19:58.079,-0.003394341973302096,2.3998685317806485
2025-03-05 14:19:58.087,-0.003420594470901045,2.392612712421492
2025-03-05 14:19:58.095,-0.003440246507017082,2.3797960408154806
2025-03-05 14:19:58.102,-0.003452939900448156,2.366382125574963
2025-03-05 14:19:58.110,-0.003458379647882391,2.3568753592610863
2025-03-05 14:19:58.118,-0.003456342918907938,2.3551598153001203
2025-03-05 14:19:58.126,-0.0034466869649958155,2.3643678117325444
2025-03-05 14:19:58.134,-0.0034293558513863688,2.386782460281415
2025-03-05 14:19:58.141,-0.003404385851190069,2.423777047549189
2025-03-05 14:19:58.149,-0.003371909263617608,2.475792497967733
2025-03-05 14:19:58.157,-0.003332156388582846,2.5423525289408677
2025-03-05 14:19:58.165,-0.00328545546168349,2.622114515403431
2025-03-05 14:19:58.173,-0.003232230458475008,2.7129526140278695
2025-03-05 14:19:58.180,-0.0031729967024430646,2.812068420921074
2025-03-05 14:19:58.188,-0.0031083541709228937,2.9161233993448614
2025-03-05 14:19:58.196,-0.0030389784107873927,3.021386553684415
2025-03-05 14:19:58.204,-0.002965609123460141,3.123890373907212
2025-03-05 14:19:58.212,-0.0028890366893771927,3.2195879545181056
2025-03-05 14:19:58.220,-0.0028100870298766907,3.304504413771423
2025-03-05 14:19:58.227,-0.0027296051763415026,3.3748762948600652
2025-03-05 14:19:58.235,-0.002648437814472497,3.4272734941784244
2025-03-05 14:19:58.243,-0.0025674150497761446,3.4586993887568287
2025-03-05 14:19:58.251,-0.0024873317734224413,3.466666166078105
2025-03-05 14:19:58.259,-0.0024089292236771508,3.449243819303931
2025-03-05 14:19:58.266,-0.002332877485808419,3.4050827698667563
2025-03-05 14:19:58.274,-0.0022597596727187094,3.3334115203478496
2025-03-05 14:19:58.282,-0.0021900584491361588,3.234012029223986
2025-03-05 14:19:58.290,-0.0021241455185072628,3.107176552953864
2025-03-05 14:19:58.298,-0.002062274683143919,2.9536504554640493
2025-03-05 14:19:58.305,-0.002004578999077927,2.7745658985203234
2025-03-05 14:19:58.313,-0.001951072307122765,2.57137138362536
2025-03-05 14:19:58.321,-0.0019016551106377014,2.345761830020612
2025-03-05 14:19:58.329,-0.00185612454032913,2.0996132827588756
2025-03-05 14:19:58.337,-0.0018141880704712432,1.8349255095557213
2025-03-05 14:19:58.345,-0.0017754806569396989,1.5537747427820776
2025-03-05 14:19:58.352,-0.0017395849049817625,1.258277744718351
2025-03-05 14:19:58.360,-0.0017060536606211968,0.9505673164610206
2025-03-05 14:19:58.368,-0.0016744341007675439,0.6327784222424044
2025-03-05 14:19:58.376,-0.0016442920625543516,0.3070433296994974
2025-03-05 14:19:58.384,-0.0016152350766201694,-0.02450638661160008
2025-03-05 14:19:58.391,-0.001586932468007818,-0.3597334553397735
2025-03-05 14:19:58.399,-0.0015591310830432702,-0.6964867178143264
2025-03-05 14:19:58.407,-0.001531665651130504,-1.0325936434364167
2025-03-05 14:19:58.415,-0.00150446328697301,-1.3658558200215807
2025-03-05 14:19:58.423,-0.001477542018638904,-1.6940493195325472
2025-03-05 14:19:58.430,-0.0014510035149339492,-2.0149313678661223
2025-03-05 14:19:58.438,-0.001425020485461191,-2.326254205515913
2025-03-05 14:19:58.446,-0.0013998195612164878,-2.6257864534108135
2025-03-05 14:19:58.454,-0.0013756607784334144,-2.911341736774478
2025-03-05 14:19:58.462,-0.0013528150457060824,-3.180813806835346
2025-03-05 14:19:58.470,-0.001331541159101218,-3.432216962108815
2025-03-05 14:19:58.477,-0.0013120640019392545,-3.663730220361626
2025-03-05 14:19:58.485,-0.0012945554776580836,-3.87374343072835
2025-03-05 14:19:58.493,-0.0012791194762015545,-4.060903339353261
2025-03-05 14:19:58.501,-0.0012657818153198946,-4.224157527919968
2025-03-05 14:19:58.509,-0.0012544856693432731,-4.362794130851974
2025-03-05 14:19:58.516,-0.001245092515911644,-4.476475303873945
2025-03-05 14:19:58.524,-0.0012373881408249522,-4.565262563945391
2025-03-05 14:19:58.532,-0.001231092836123789,-4.629632344493352
2025-03-05 14:19:58.540,-0.0012258746863384178,-4.670480399490703
2025-03-05 14:19:58.548,-0.0012213647664016058,-4.689114027415295
2025-03-05 14:19:58.555,-0.00121717310550524,-4.68723145111348
2025-03-05 14:19:58.563,-0.001212904350555539,-4.6668880654534
2025-03-05 14:19:58.571,-0.0012081722219700736,-4.630449643729998
2025-03-05 14:19:58.579,-0.0012026121275250685,-4.580532980103902
2025-03-05 14:19:58.587,-0.0011958915992024322,-4.519934852722005
2025-03-05 14:19:58.595,-0.00118771841257532,-4.451550635622395
2025-03-05 14:19:58.602,-0.0011778463352772345,-4.3782843716645345
2025-03-05 14:19:58.610,-0.0011660785394764818,-4.302952630952605
2025-03-05 14:19:58.618,-0.0011522688692355797,-4.228184992345075
2025-03-05 14:19:58.626,-0.0011363213335298195,-4.156324465800471
2025-03-05 14:19:58.634,-0.001118188317370454,-4.089331585667762
2025-03-05 14:19:58.641,-0.001097868029850933,-4.02869621366245
2025-03-05 14:19:58.649,-0.0010754016376751877,-3.9753612548571162
2025-03-05 14:19:58.657,-0.0010508703680664239,-3.929662465659951
2025-03-05 14:19:58.665,-0.0010243926437822958,-3.891288276844825
2025-03-05 14:19:58.673,-0.0009961211234526138,-3.8592630379692423
2025-03-05 14:19:58.680,-0.0009662394439939205,-3.8319563047751455
2025-03-05 14:19:58.688,-0.0009349585269396723,-3.807119756440244
2025-03-05 14:19:58.696,-0.0009025124809082519,-3.781952087611552
2025-03-05 14:19:58.704,-0.0008691542924261593,-3.7531908370449667
2025-03-05 14:19:58.712,-0.0008351514938763012,-3.717228676338828
2025-03-05 14:19:58.720,-0.0008007817855093029,-3.670250287412029
2025-03-05 14:19:58.727,-0.0007663283190067858,-3.608384707958582
2025-03-05 14:19:58.735,-0.0007320742241078442,-3.527867015165005
2025-03-05 14:19:58.743,-0.0006982960116228677,-3.425202527134995
2025-03-05 14:19:58.751,-0.0006652555980931605,-3.2973263795416865
2025-03-05 14:19:58.759,-0.0006331907921592866,-3.1417514015410792
2025-03-05 14:19:58.766,-0.000602304190947632,-2.9566976592174257
2025-03-05 14:19:58.774,-0.0005727505863376966,-2.7411978193590842
2025-03-05 14:19:58.782,-0.0005446231286591116,-2.4951735513350575
2025-03-05 14:19:58.790,-0.0005179385918868404,-2.2194794549970243
2025-03-05 14:19:58.798,-0.0004926221967902674,-1.915912397564925
2025-03-05 14:19:58.806,-0.00046849271249279614,-1.5871855864458784
2025-03-05 14:19:58.813,-0.0004452489945080554,-1.2368681305030438
2025-03-05 14:19:58.821,-0.00042245955534746704,-0.8692921910891505
2025-03-05 14:19:58.829,-0.00039955695862583086,-0.4894310480220602
2025-03-05 14:19:58.837,-0.0003758386571457431,-0.10275246907922117
2025-03-05 14:19:58.845,-0.0003504754284175755,0.2849473474628991
2025-03-05 14:19:58.852,-0.000322527957859601,0.6677233007801873
2025-03-05 14:19:58.860,-0.00029097150319378824,1.0396679437707004
2025-03-05 14:19:58.868,-0.00025472799698334414,1.3950983487906552
2025-03-05 14:19:58.876,-0.00021270442839267884,1.7287365055630344
2025-03-05 14:19:58.884,-0.00016383590393736542,2.0358766422873464
2025-03-05 14:19:58.891,-0.00010713143257933966,2.3125332618711854
2025-03-05 14:19:58.899,-4.172022367925467e-05,2.555564320963726
2025-03-05 14:19:58.907,3.3103864167604234e-05,2.7627648472775697
2025-03-05 14:19:58.915,0.00011784212282291949,2.9329273772979736
2025-03-05 14:19:58.923,0.0002127573622705926,3.0658668706247885
2025-03-05 14:19:58.931,0.0003178489665655988,3.1624091659056184
2025-03-05 14:19:58.938,0.0004328384411388281,3.2243435172694994
2025-03-05 14:19:58.946,0.000557166823343966,3.2543412160398213
2025-03-05 14:19:58.954,0.0006900047904523389,3.2558436941691618
2025-03-05 14:19:58.962,0.0008302756660622878,3.2329247679806277
2025-03-05 14:19:58.970,0.000976690811620977,3.1901327665664074
2025-03-05 14:19:58.977,0.0011277961179804695,3.1323191566582587
2025-03-05 14:19:58.985,0.0012820275416678135,3.064460885403506
2025-03-05 14:19:58.993,0.0014377729922375592,2.991483977431352
2025-03-05 14:19:59.001,0.0015934375356587182,2.918095914169176
2025-03-05 14:19:59.009,0.0017475088881436522,2.8486339789027397
2025-03-05 14:19:59.016,0.0018986203904612414,2.7869360778735213
2025-03-05 14:19:59.024,0.0020456088765175326,2.7362395702946616
2025-03-05 14:19:59.032,0.002187565047351621,2.699112395006696
2025-03-05 14:19:59.040,0.002323874246879172,2.67741931472672
2025-03-05 14:19:59.048,0.0024542459736878568,2.672324467986787
2025-03-05 14:19:59.056,0.002578730975552959,2.6843296934560756
2025-03-05 14:19:59.063,0.0026977252160997884,2.7133463476717723
2025-03-05 14:19:59.071,0.002811960300550925,2.7587966500785366
2025-03-05 14:19:59.079,0.0029224801754369036,2.819739028781532
2025-03-05 14:19:59.087,0.003030604234658482,2.895010575589718
2025-03-05 14:19:59.095,0.0031378774516287737,2.983378622012266
2025-03-05 14:19:59.102,0.00324600876918248,3.0836926909748836
2025-03-05 14:19:59.110,0.003356799637273824,3.195027721914192
2025-03-05 14:19:59.118,0.003472065243467709,3.3168095449083563
2025-03-05 14:19:59.126,0.0035935515808918784,3.4489141011912894
2025-03-05 14:19:59.134,0.0037228519524696415,3.591732861517908
2025-03-05 14:19:59.141,0.0038613267312031184,3.7461982568926073
2025-03-05 14:19:59.149,0.004010030182514111,3.913764674880197
2025-03-05 14:19:59.157,0.004169648006899106,4.096342644045847
2025-03-05 14:19:59.165,0.00434044909263446,4.296186168513938
2025-03-05 14:19:59.173,0.00452225477704556,4.5157357043588915
2025-03-05 14:19:59.181,0.004714428552083807,4.757421886514786
2025-03-05 14:19:59.188,0.004915888465702598,5.0234376912680965
2025-03-05 14:19:59.196,0.0051251434758631635,5.3154891080072835
2025-03-05 14:19:59.204,0.0053403538491564925,5.634536441797235
2025-03-05 14:19:59.212,0.005559414491610029,5.980539931976209
2025-03-05 14:19:59.220,0.005780058923780284,6.352224327832989
2025-03-05 14:19:59.227,0.005999980502612281,6.746877313814773
2025-03-05 14:19:59.235,0.006216966480357193,7.160196159763485
2025-03-05 14:19:59.243,0.006429039607317635,7.586195659916449
2025-03-05 14:19:59.251,0.006634601260702629,8.017188330410232
2025-03-05 14:19:59.259,0.006832569545254002,8.443845012249623
2025-03-05 14:19:59.266,0.007022505489047639,8.85534057387113
2025-03-05 14:19:59.274,0.007204720373199886,9.239585469602261
2025-03-05 14:19:59.282,0.007380357406031567,9.583539670066836
2025-03-05 14:19:59.290,0.007551441394040415,9.87360114184808
2025-03-05 14:19:59.298,0.007720890780710516,10.096056826831441
2025-03-05 14:19:59.306,0.007892487418946634,10.23758016569053
2025-03-05 14:19:59.313,0.008070800704222225,10.285755831882309
2025-03-05 14:19:59.321,0.008261064204203986,10.229609696750666
2025-03-05 14:19:59.329,0.008469004647203317,10.060120329431545
2025-03-05 14:19:59.337,0.008700625036188892,9.77068772420876
2025-03-05 14:19:59.345,0.00896194568649773,9.357535584038434
2025-03-05 14:19:59.352,0.00925870908279184,8.82002545705761
2025-03-05 14:19:59.360,0.00959605654387398,8.160864326658904
2025-03-05 14:19:59.368,0.009978186694424534,7.386191791933945
2025-03-05 14:19:59.376,0.01040800758629205,6.5055385182799395
2025-03-05 14:19:59.384,0.010886795900883695,5.531653847315983
2025-03-05 14:19:59.391,0.011413877910123018,4.480206911242888
2025-03-05 14:19:59.399,0.011986347690884691,3.3693718529682672
2025-03-05 14:19:59.407,0.012598838397908851,2.2193133898108184
2025-03-05 14:19:59.415,0.013243362129346034,1.0515936246173172
2025-03-05 14:19:59.423,0.013909232976514278,-0.11147554991415205
2025-03-05 14:19:59.431,0.014583086100656764,-1.247508033315664
2025-03-05 14:19:59.438,0.015249003007824348,-2.3347199929063147
2025-03-05 14:19:59.446,0.015888749657687756,-3.352580809817791
2025-03-05 14:19:59.454,0.016482129901010056,-4.282413952437625
2025-03-05 14:19:59.462,0.017007452213538946,-5.107926140889358
2025-03-05 14:19:59.470,0.01744210279244482,-5.815646884853128
2025-03-05 14:19:59.477,0.01776321277809394,-6.395264778891454
2025-03-05 14:19:59.485,0.017948401835140227,-6.839851594690055
2025-03-05 14:19:59.493,0.017976574949421786,-7.145969994729901
2025-03-05 14:19:59.501,0.01782874449771399,-7.313665394471653
2025-03-05 14:19:59.509,0.017488845770991288,-7.3463469258707725
2025-03-05 14:19:59.516,0.016944511371260906,-7.250566436334222
2025-03-05 14:19:59.524,0.0161877683610631,-7.035707860530388
2025-03-05 14:19:59.532,0.015215621889513404,-6.713602032162504
2025-03-05 14:19:59.540,0.014030490512503695,-6.298083999310295
2025-03-05 14:19:59.548,0.01264046182299559,-5.804511140553638
2025-03-05 14:19:59.556,0.01105934247911855,-5.249260845823727
2025-03-05 14:19:59.563,0.009306484342983916,-4.649226247869729
2025-03-05 14:19:59.571,0.007406378217876307,-4.021327516067731
2025-03-05 14:19:59.579,0.0053880184828328246,-3.3820546255336668
2025-03-05 14:19:59.587,0.0032840555218855367,-2.747055380800394
2025-03-05 14:19:59.595,0.0011297677724207938,-2.1307799125448703
2025-03-05 14:19:59.602,-0.0010380996057272648,-1.546190005585959
2025-03-05 14:19:59.610,-0.0031825694050958975,-1.0045385984177906
2025-03-05 14:19:59.618,-0.005267672883836597,-0.515221761109634
2025-03-05 14:19:59.626,-0.007259629088829362,-0.08570253774255619
2025-03-05 14:19:59.634,-0.009127903854943472,0.2784966620217174
2025-03-05 14:19:59.641,-0.010846101850158437,0.5737388371851295
2025-03-05 14:19:59.649,-0.012392659214927246,0.7981620861992758
2025-03-05 14:19:59.657,-0.013751318332436369,0.9515235921896251
2025-03-05 14:19:59.665,-0.014911379061907782,1.0350084647424151
2025-03-05 14:19:59.673,-0.01586773178693374,1.0510147117451858
2025-03-05 14:19:59.681,-0.016620686626660785,1.0029258267106842
2025-03-05 14:19:59.688,-0.017175620208991306,0.8948821739527123
2025-03-05 14:19:59.696,-0.017542466745124746,0.7315615442735056
2025-03-05 14:19:59.704,-0.01773508397618903,0.5179779786503437
2025-03-05 14:19:59.712,-0.017770527003715543,0.25930628958897867
2025-03-05 14:19:59.720,-0.01766826410528522,-0.03926225506001781
2025-03-05 14:19:59.727,-0.017449368359931758,-0.3726297749371734
2025-03-05 14:19:59.735,-0.0171357172732403,-0.7358660672411169
2025-03-05 14:19:59.743,-0.016749229703521478,-1.1242484661618355
2025-03-05 14:19:59.751,-0.01631116544772354,-1.5332704660933891
2025-03-05 14:19:59.759,-0.01584150812065377,-1.9586241521928631
2025-03-05 14:19:59.766,-0.015358446798892983,-2.3961630136205
2025-03-05 14:19:59.774,-0.014877966676969244,-2.8418528348421326
2025-03-05 14:19:59.782,-0.014413553974061724,-3.2917189857201374
2025-03-05 14:19:59.790,-0.013976015634879876,-3.7417985067363326
2025-03-05 14:19:59.798,-0.01357341001483783,-4.188104896221749
2025-03-05 14:19:59.806,-0.013211080838965786,-4.626612477996473
2025-03-05 14:19:59.813,-0.012891783473340085,-5.053265722454424
2025-03-05 14:19:59.821,-0.012615890076156076,-5.46401700316606
2025-03-05 14:19:59.829,-0.012381658487595567,-5.854894108613949
2025-03-05 14:19:59.837,-0.012185548725273528,-6.222096522981689
2025-03-05 14:19:59.845,-0.012022570690660787,-6.5621171715183975
2025-03-05 14:19:59.852,-0.011886647156402518,-6.871884117037866
2025-03-05 14:19:59.860,-0.01177097718028767,-7.148914704925414
2025-03-05 14:19:59.868,-0.011668386624799037,-7.3914729875157885
2025-03-05 14:19:59.876,-0.011571654340162989,-7.598720015317359
2025-03-05 14:19:59.884,-0.011473804702209468,-7.770845857526137
2025-03-05 14:19:59.891,-0.011368359494559421,-7.909172086575265
2025-03-05 14:19:59.899,-0.011249544507935447,-8.016213981971088
2025-03-05 14:19:59.907,-0.01111244859220509,-8.095692894009701
2025-03-05 14:19:59.915,-0.010953135094349205,-8.152491040529547
2025-03-05 14:19:59.923,-0.010768707521575055,-8.192543440683101
2025-03-05 14:19:59.931,-0.010557332816150948,-8.222664640247132
2025-03-05 14:19:59.938,-0.010318226794129574,-8.25031124282399
2025-03-05 14:19:59.946,-0.01005160708266396,-8.283284884089571
2025-03-05 14:19:59.954,-0.009758619303807519,-8.329383989600691
2025-03-05 14:19:59.962,-0.00944124232337187,-8.396016228943841
2025-03-05 14:19:59.970,-0.009102178149430835,-8.489786792865868
2025-03-05 14:19:59.977,-0.008744731572891924,-8.616080252143302
2025-03-05 14:19:59.985,-0.008372683944887674,-8.778655611287927
2025-03-05 14:19:59.993,-0.007990164644333773,-8.979275097728998
2025-03-05 14:20:00.001,-0.007601522898894743,-9.217387135781365
2025-03-05 14:20:00.009,-0.007211201845843434,-9.489882810948073
2025-03-05 14:20:00.016,-0.0068236162517822194,-9.790942956762967
2025-03-05 14:20:00.024,-0.006443035255938713,-10.111989867996334
2025-03-05 14:20:00.032,-0.006073471788381145,-10.441753679662513
2025-03-05 14:20:00.040,-0.005718580744346489,-10.766458808400007
2025-03-05 14:20:00.048,-0.005381568334190379,-11.070130724760814
2025-03-05 14:20:00.056,-0.0050651150716989205,-11.335017935717321
2025-03-05 14:20:00.063,-0.004771314554714127,-11.542118646300747
2025-03-05 14:20:00.071,-0.004501629703864852,-11.671796374144058
2025-03-05 14:20:00.079,-0.0042568677193927885,-11.704464032281706
2025-03-05 14:20:00.087,-0.004037174760088699,-11.621311883285848
2025-03-05 14:20:00.095,-0.0038420510383359602,-11.405051506901437
2025-03-05 14:20:00.102,-0.003670386425459287,-11.040645714785972
2025-03-05 14:20:00.110,-0.0035205157398530253,-10.51599337709424
2025-03-05 14:20:00.118,-0.003390291804289693,-9.822538556648059
2025-03-05 14:20:00.126,-0.003277173332448732,-8.955775292138242
2025-03-05 14:20:00.134,-0.0031783239403137126,-7.9156228738429935
2025-03-05 14:20:00.141,-0.003090718163255369,-6.706651448988208
2025-03-05 14:20:00.149,-0.0030112502163639355,-5.338144084769738
2025-03-05 14:20:00.157,-0.002936841209900443,-3.8239886804259795
2025-03-05 14:20:00.165,-0.002864540544901938,-2.1824009246666876
2025-03-05 14:20:00.173,-0.0027916173303271807,-0.43548734867064565
2025-03-05 14:20:00.181,-0.0027156380231496816,1.39133507172914
2025-03-05 14:20:00.188,-0.002634527162597673,3.270039812738762
2025-03-05 14:20:00.196,-0.0025466089576156956,5.170784023517882
2025-03-05 14:20:00.204,-0.002450628426657281,7.062762211627863
2025-03-05 14:20:00.212,-0.0023457516916648266,8.915086528584537
2025-03-05 14:20:00.220,-0.002231545947676958,10.697659490880984
2025-03-05 14:20:00.227,-0.00210794069085032,12.38200629405669
2025-03-05 14:20:00.235,-0.0019751730089631026,13.94203665219488
2025-03-05 14:20:00.243,-0.0018337209113867949,15.35471008654381
2025-03-05 14:20:00.251,-0.0016842294745116756,16.600583515541786
2025-03-05 14:20:00.259,-0.0015274348089232854,17.664225565301997
2025-03-05 14:20:00.266,-0.0013640905612700945,18.53448792560306
2025-03-05 14:20:00.274,-0.0011949010221312415,19.204630037971004
2025-03-05 14:20:00.282,-0.001020464096687824,19.67229916381654
2025-03-05 14:20:00.290,-0.000841226560186103,19.93937322440507
2025-03-05 14:20:00.298,-0.0006574532837552686,20.011678556771475
2025-03-05 14:20:00.306,-0.0004692115104391244,19.898598759249538
2025-03-05 14:20:00.313,-0.0002763707368718993,19.612594014669817
2025-03-05 14:20:00.321,-7.861825382368443e-05,19.168652621644977
2025-03-05 14:20:00.329,0.00012451012551794834,18.58369791010676
2025-03-05 14:20:00.337,0.00033358522683259265,17.875974268489045
2025-03-05 14:20:00.345,0.0005492273814249329,17.064435688462883
2025-03-05 14:20:00.352,0.0007720396547497883,16.16815907681834
2025-03-05 14:20:00.360,0.0010025349239134811,15.205802650408371
2025-03-05 14:20:00.368,0.0012410609999201593,14.19512710334116
2025-03-05 14:20:00.376,0.0014877285090238396,13.15259402990177
2025-03-05 14:20:00.384,0.0017423465346823918,12.093052439448504
2025-03-05 14:20:00.391,0.002004371020436508,11.029520260163144
2025-03-05 14:20:00.399,0.002272870553127914,9.973063648829406
2025-03-05 14:20:00.407,0.0025465133006332364,8.932772851524827
2025-03-05 14:20:00.415,0.002823577548476338,7.915829433571306
2025-03-05 14:20:00.423,0.0031019865056615427,6.927656042055565
2025-03-05 14:20:00.431,0.0033793659538025865,5.972136596301953
2025-03-05 14:20:00.438,0.003653121202432967,5.051892032747159
2025-03-05 14:20:00.446,0.003920528137030211,4.168594572160874
2025-03-05 14:20:00.454,0.004178832217671039,3.3233020354783194
2025-03-05 14:20:00.462,0.004425349119923768,2.5167931004746125
2025-03-05 14:20:00.470,0.004657561161405588,1.7498846272809976
2025-03-05 14:20:00.477,0.004873204569911165,1.0237133071380322
2025-03-05 14:20:00.485,0.00507034384136641,0.33996587694307423
2025-03-05 14:20:00.493,0.005247430710609258,-0.29895508575883895
2025-03-05 14:20:00.501,0.005403346472404411,-0.889839333550448
2025-03-05 14:20:00.509,0.005537427476954111,-1.42865667084223
2025-03-05 14:20:00.516,0.0056494745505617115,-1.910625499047082
2025-03-05 14:20:00.524,0.005739747811477671,-2.3303589911549794
2025-03-05 14:20:00.532,0.005808948787950168,-2.6820813042005383
2025-03-05 14:20:00.540,0.0058581918625292126,-2.9599021505771095
2025-03-05 14:20:00.548,0.0058889669559537335,-3.1581345160521805
2025-03-05 14:20:00.556,0.005903095200449711,-3.2716375644596214
2025-03-05 14:20:00.563,0.005902679236201526,-3.2961650032240626
2025-03-05 14:20:00.571,0.005890049674428658,-3.2286985410924185
2025-03-05 14:20:00.579,0.005867709154099603,-3.067746613554984
2025-03-05 14:20:00.587,0.005838275261163059,-2.8135902560225747
2025-03-05 14:20:00.595,0.005804423389468558,-2.4684607565282572
2025-03-05 14:20:00.602,0.005768830415406986,-2.0366373376124987
2025-03-05 14:20:00.610,0.005734119845819193,-1.5244573777047992
2025-03-05 14:20:00.618,0.00570280889051051,-0.940236339549084
2025-03-05 14:20:00.626,0.005677257713602303,-0.2940993699760962
2025-03-05 14:20:00.634,0.005659620941222385,0.4022687867354843
2025-03-05 14:20:00.641,0.005651801385012685,1.1359446084367049
2025-03-05 14:20:00.649,0.005655405985194009,1.8931426756180114
2025-03-05 14:20:00.657,0.005671704316154322,2.659631011290921
2025-03-05 14:20:00.665,0.0057015906434974145,3.4211652980208602
2025-03-05 14:20:00.673,0.0057455512573451216,4.163921471548298
2025-03-05 14:20:00.681,0.005803639318851654,4.874906388493438
2025-03-05 14:20:00.688,0.0058754595942023605,5.542327564790218
2025-03-05 14:20:00.696,0.0059601652677002724,6.1559052951588775
2025-03-05 14:20:00.704,0.006056468583407047,6.707113642465912
2025-03-05 14:20:00.712,0.0061626663523128835,7.189340631753192
2025-03-05 14:20:00.720,0.0062766804534721155,7.597962267670006
2025-03-05 14:20:00.727,0.0063961125639149085,7.93032946831849
2025-03-05 14:20:00.735,0.006518311636500058,8.18567142012032
2025-03-05 14:20:00.743,0.006640452109466432,8.364922962914093
2025-03-05 14:20:00.751,0.006759620441717671,8.470487190361794
2025-03-05 14:20:00.759,0.006872907367070179,8.505947312335161
2025-03-05 14:20:00.766,0.006977503282722756,8.47574383819212
2025-03-05 14:20:00.774,0.0070707943429304245,8.384834229771487
2025-03-05 14:20:00.782,0.007150456957990168,8.238352332044421
2025-03-05 14:20:00.790,0.007214548388677498,8.041284166188612
2025-03-05 14:20:00.798,0.007261590943686855,7.798175159389971
2025-03-05 14:20:00.806,0.007290646941527249,7.512881719610887
2025-03-05 14:20:00.813,0.007301381118495234,7.188377398804023
2025-03-05 14:20:00.821,0.007294106626797507,6.826620892306277
2025-03-05 14:20:00.829,0.00726981035508375,6.428489959609297
2025-03-05 14:20:00.837,0.007230153311739677,5.993782172044758
2025-03-05 14:20:00.845,0.007177442487293395,5.521280325330075
2025-03-05 14:20:00.852,0.007114571954512699,5.008877508443245
2025-03-05 14:20:00.860,0.007044932726309063,4.453754288881546
2025-03-05 14:20:00.868,0.00697229280339178,3.852598340398859
2025-03-05 14:20:00.876,0.006900650779346965,3.201855171726224
2025-03-05 14:20:00.884,0.006834068275062156,2.497997464840525
2025-03-05 14:20:00.891,0.006776488207894792,1.737799931134169
2025-03-05 14:20:00.899,0.006731547255360249,0.9186065576248126
2025-03-05 14:20:00.907,0.00670239172293254,0.038577640769687636
2025-03-05 14:20:00.915,0.006691506369918345,-0.9030949284019908
2025-03-05 14:20:00.923,0.006700565591583769,-1.90601410061135
2025-03-05 14:20:00.931,0.006730315614565952,-2.968453805020602
2025-03-05 14:20:00.938,0.006780494928635035,-4.087290428155672
2025-03-05 14:20:00.946,0.00684979810369674,-5.257992698353307
2025-03-05 14:20:00.954,0.006935885692274139,-6.47467033004207
2025-03-05 14:20:00.962,0.0070354403770771365,-7.730179059446165
2025-03-05 14:20:00.970,0.007144267020003409,-9.016277086920494
2025-03-05 14:20:00.977,0.007257431889037321,-10.323825553056801
2025-03-05 14:20:00.985,0.007369434290896918,-11.643023635708827
2025-03-05 14:20:00.993,0.0074744023577386215,-12.963667272682926
2025-03-05 14:20:01.001,0.0075663038874974175,-14.275419480139055
2025-03-05 14:20:01.009,0.007639162814910787,-15.568079813597349
2025-03-05 14:20:01.016,0.007687271994433707,-16.83184073878545
2025-03-05 14:20:01.024,0.007705393470803141,-18.057519535378297
2025-03-05 14:20:01.032,0.007688938278122619,-19.2367557921088
2025-03-05 14:20:01.040,0.0076341190249832975,-20.36216646450523
2025-03-05 14:20:01.048,0.007538070040910285,-21.427452723168305
2025-03-05 14:20:01.056,0.007398931543792314,-22.42745527710773
2025-03-05 14:20:01.063,0.007215895961751346,-23.3581573724775
2025-03-05 14:20:01.071,0.006989216082937468,-24.21663710825711
2025-03-05 14:20:01.079,0.006720176068396175,-25.00097295242357
2025-03-05 14:20:01.087,0.0064110275429469284,-25.710108276764814
2025-03-05 14:20:01.095,0.006064893986164465,-26.34368227338136
2025-03-05 14:20:01.102,0.005685647494716754,-26.901835722835493
2025-03-05 14:20:01.110,0.005277762696516108,-27.385000745351547
2025-03-05 14:20:01.118,0.004846153185769182,-27.79368391847781
2025-03-05 14:20:01.126,0.004395996334891074,-28.128252059906636
2025-03-05 14:20:01.134,0.003932552740910615,-28.388729644694944
2025-03-05 14:20:01.142,0.0034609868878532494,-28.57461634068048
2025-03-05 14:20:01.149,0.0029861958232112063,-28.68473256925499
2025-03-05 14:20:01.157,0.0025126526529284285,-28.71710035780279
2025-03-05 14:20:01.165,0.002044271309375779,-28.668866030567205
2025-03-05 14:20:01.173,0.0015842982702556788,-28.536270437574032
2025-03-05 14:20:01.181,0.001135235760090454,-28.31467137689046
2025-03-05 14:20:01.188,0.0006987995251561285,-27.998621549593178
2025-03-05 14:20:01.196,0.00027591255946390235,-27.5820037376619
2025-03-05 14:20:01.204,-0.00013326575507527697,-27.058222881458263
2025-03-05 14:20:01.212,-0.0005292775739525404,-26.42045236956189
2025-03-05 14:20:01.220,-0.0009132758748209697,-25.661929205716657
2025-03-05 14:20:01.227,-0.001286910972252347,-24.77628990156896
2025-03-05 14:20:01.235,-0.0016522012891580884,-23.757936117317055
2025-03-05 14:20:01.243,-0.002011395902532656,-22.602416424739253
2025-03-05 14:20:01.251,-0.002366836101927206,-21.30680831043903
2025-03-05 14:20:01.259,-0.002720822327043364,-19.87008289443047
2025-03-05 14:20:01.267,-0.003075491758390204,-18.293434024474664
2025-03-05 14:20:01.274,-0.0034327108333026663,-16.58055359828705
2025-03-05 14:20:01.282,-0.003793986126077715,-14.737836279491475
2025-03-05 14:20:01.290,-0.004160396281527583,-12.774499239211952
2025-03-05 14:20:01.298,-0.004532546945445326,-10.702606100090247
2025-03-05 14:20:01.306,-0.004910549874013344,-8.53698869709401
2025-03-05 14:20:01.313,-0.005294026638191584,-6.295065309374804
2025-03-05 14:20:01.321,-0.00568213658369035,-3.9965592939874215
2025-03-05 14:20:01.329,-0.006073627976156113,-1.6631271673000128
2025-03-05 14:20:01.337,-0.006466910567634646,0.68209024961094
2025-03-05 14:20:01.345,-0.006860147176525888,3.0149763030401484
2025-03-05 14:20:01.352,-0.007251361291017937,5.310986673968079
2025-03-05 14:20:01.360,-0.007638557197105794,7.545715931047453
2025-03-05 14:20:01.368,-0.008019848708418336,9.695460993071714
2025-03-05 14:20:01.376,-0.008393592247784347,11.737760987319273
2025-03-05 14:20:01.384,-0.008758519805796686,13.651894924500256
2025-03-05 14:20:01.392,-0.009113867158545405,15.41932132325364
2025-03-05 14:20:01.399,-0.00945949260722555,17.02404719749641
2025-03-05 14:20:01.407,-0.009795981378159081,18.452917454159095
2025-03-05 14:20:01.415,-0.010124730780912175,19.695819524967003
2025-03-05 14:20:01.423,-0.010448011395380496,20.745801770854523
2025-03-05 14:20:01.431,-0.010768999931356287,21.599107665755966
2025-03-05 14:20:01.438,-0.011091779826875788,22.25513082838112
2025-03-05 14:20:01.446,-0.011421306087037187,22.716298498239784
2025-03-05 14:20:01.454,-0.01176333147359709,22.987892953068386
2025-03-05 14:20:01.462,-0.012124292047528702,23.077821586913018
2025-03-05 14:20:01.470,-0.012511151108132845,22.99634690652622
2025-03-05 14:20:01.477,-0.01293120155085249,22.755787604671447
2025-03-05 14:20:01.485,-0.013391827528589646,22.370201226363744
2025-03-05 14:20:01.493,-0.01390022713934131,21.855057887170407
2025-03-05 14:20:01.501,-0.014463098789516923,21.22691317834777
2025-03-05 14:20:01.509,-0.015086295037949832,20.50308695010931
2025-03-05 14:20:01.517,-0.01577444932048438,19.701353238323314
2025-03-05 14:20:01.524,-0.01653058316873395,18.839645304937687
2025-03-05 14:20:01.532,-0.017355704360484003,17.93577867820421
2025-03-05 14:20:01.540,-0.018248409649264365,17.007194243441756
2025-03-05 14:20:01.548,-0.01920450896099024,16.07072284349361
2025-03-05 14:20:01.556,-0.020216690812034695,15.142372458447245
2025-03-05 14:20:01.563,-0.021274250817975585,14.237138781887909
2025-03-05 14:20:01.571,-0.022362906216684082,13.368839825884224
2025-03-05 14:20:01.579,-0.02346471905379371,12.549975010871355
2025-03-05 14:20:01.587,-0.024558148839202733,11.79160899549205
2025-03-05 14:20:01.595,-0.025618251985739634,11.103280268743251
2025-03-05 14:20:01.602,-0.026617040307873062,10.492934277051502
2025-03-05 14:20:01.610,-0.027524004553578636,9.966880615517285
2025-03-05 14:20:01.618,-0.028306801649454937,9.529773597420645
2025-03-05 14:20:01.626,-0.028932096328521523,9.18461534510516
2025-03-05 14:20:01.634,-0.029366539373235,8.932780425803841
2025-03-05 14:20:01.642,-0.02957785617721342,8.774060982773507
2025-03-05 14:20:01.649,-0.029536011083173774,8.706731267963029
2025-03-05 14:20:01.657,-0.029214405404147784,8.727630445630783
2025-03-05 14:20:01.665,-0.028591060650423824,8.832262491065388
2025-03-05 14:20:01.673,-0.027649733843000693,9.014911948903467
2025-03-05 14:20:01.681,-0.026380909569104948,9.268774240365621
2025-03-05 14:20:01.688,-0.02478261422438314,9.58609911404518
2025-03-05 14:20:01.696,-0.02286100198702925,9.958345711527079
2025-03-05 14:20:01.704,-0.02063066942870689,10.376347557384245
2025-03-05 14:20:01.712,-0.018114665995151418,10.830485578199282
2025-03-05 14:20:01.720,-0.015344180433447428,11.310867009122758
2025-03-05 14:20:01.727,-0.012357898021018221,11.807507767742633
2025-03-05 14:20:01.735,-0.009201039577945463,12.310515579941168
2025-03-05 14:20:01.743,-0.005924110325907754,12.81027085553005
2025-03-05 14:20:01.751,-0.002581404464565838,13.297602062777724
2025-03-05 14:20:01.759,0.0007706708626031249,13.763952168821465
2025-03-05 14:20:01.767,0.0040753730517422105,14.201532618159254
2025-03-05 14:20:01.774,0.007277414396503602,14.603461327750761
2025-03-05 14:20:01.782,0.010324676351292968,14.963881296393366
2025-03-05 14:20:01.790,0.013169767201396456,15.278056669558177
2025-03-05 14:20:01.798,0.0157713571658965,15.54244347670037
2025-03-05 14:20:01.806,0.018095242332068908,15.754732763961258
2025-03-05 14:20:01.813,0.020115106803225563,15.913864464675587
2025-03-05 14:20:01.821,0.021812969647584984,16.020011055653363
2025-03-05 14:20:01.829,0.023179318736005705,16.074530809027596
2025-03-05 14:20:01.837,0.024212946867226203,16.07989124155233
2025-03-05 14:20:01.845,0.02492051664744075,16.03956416164538
2025-03-05 14:20:01.852,0.025315889464976895,15.95789449166331
2025-03-05 14:20:01.860,0.02541926044124471,15.839945764754988
2025-03-05 14:20:01.868,0.025256145267948157,15.691325822483032
2025-03-05 14:20:01.876,0.02485626645409755,15.517996730081485
2025-03-05 14:20:01.884,0.0242523860738132,15.326073247229706
2025-03-05 14:20:01.892,0.023479130017649754,15.121614331946061
2025-03-05 14:20:01.899,0.022571845274603416,14.91041213613154
2025-03-05 14:20:01.907,0.02156552708538071,14.697782831650335
2025-03-05 14:20:01.915,0.02049384707771336,14.48836346875989
2025-03-05 14:20:01.923,0.019388306982555087,14.285919002062446
2025-03-05 14:20:01.931,0.018277535636101704,14.093163689989034
2025-03-05 14:20:01.938,0.017186740143663483,13.911601304774008
2025-03-05 14:20:01.946,0.016137315674932682,13.741388947443692
2025-03-05 14:20:01.954,0.015146612581853779,13.581229660880329
2025-03-05 14:20:01.962,0.014227854431950659,13.428299351155683
2025-03-05 14:20:01.970,0.013390196087259415,13.278213626180015
2025-03-05 14:20:01.977,0.012638907122691879,13.125039915257055
2025-03-05 14:20:01.985,0.011975662774891753,12.961359550356518
2025-03-05 14:20:01.993,0.011398922393299147,12.778383322849276
2025-03-05 14:20:02.001,0.01090437410288913,12.566122380602426
2025-03-05 14:20:02.009,0.01048542405511204,12.313614248614401
2025-03-05 14:20:02.017,0.01013370915305422,12.009201331129098
2025-03-05 14:20:02.024,0.009839613375941615,11.64085660921986
2025-03-05 14:20:02.032,0.00959276966998285,11.19654854414009
2025-03-05 14:20:02.040,0.00938253168260364,10.66463462536254
2025-03-05 14:20:02.048,0.009198402258848276,10.034270778139913
2025-03-05 14:20:02.056,0.009030408458886146,9.295822180977469
2025-03-05 14:20:02.063,0.008869415768686242,8.441260114145582
2025-03-05 14:20:02.071,0.008707377047951527,7.46452937566221
2025-03-05 14:20:02.079,0.008537514490507013,6.361871587614063
2025-03-05 14:20:02.087,0.008354435378865602,5.132091313576236
2025-03-05 14:20:02.095,0.008154184630329308,3.7767541804300233
2025-03-05 14:20:02.102,0.007934239008079033,2.3003089521027116
2025-03-05 14:20:02.110,0.007693449375979202,0.7101285199316452
2025-03-05 14:20:02.118,0.007431938495423106,-0.983532156218759
2025-03-05 14:20:02.126,0.00715096259664004,-2.767660175797161
2025-03-05 14:20:02.134,0.006852745318874628,-4.626687218444207
2025-03-05 14:20:02.142,0.006540292628305932,-6.54276441569402
2025-03-05 14:20:02.149,0.006217197023041975,-8.496101531506804
2025-03-05 14:20:02.157,0.0058874387666234766,-10.465360783600293
2025-03-05 14:20:02.165,0.005555191131917983,-12.428094377799182
2025-03-05 14:20:02.173,0.005224635801245197,-14.361213924890883
2025-03-05 14:20:02.181,0.0048997937406364605,-16.241479356242536
2025-03-05 14:20:02.188,0.004584376011279679,-18.04599474039207
2025-03-05 14:20:02.196,0.004281658010897841,-19.752698508879444
2025-03-05 14:20:02.204,0.003994379574925079,-21.34083599621579
2025-03-05 14:20:02.212,0.0037246723298342563,-22.79140285048279
2025-03-05 14:20:02.220,0.0034740147271049536,-24.087548742640724
2025-03-05 14:20:02.227,0.003243214262964835,-25.214931864664052
2025-03-05 14:20:02.235,0.0030324154958637603,-26.16201593674715
2025-03-05 14:20:02.243,0.0028411316245788047,-26.92030282599628
2025-03-05 14:20:02.251,0.0026682966182164382,-27.484495400520668
2025-03-05 14:20:02.259,0.002512334306566063,-27.852586889293196
2025-03-05 14:20:02.267,0.0023712405668806845,-28.025874767559948
2025-03-05 14:20:02.274,0.002242674764213848,-28.00889900700723
2025-03-05 14:20:02.282,0.0021240567787062406,-27.809306379466285
2025-03-05 14:20:02.290,0.0020126661599161014,-27.437644344399942
2025-03-05 14:20:02.298,0.00190574013298749,-26.90708985104884
2025-03-05 14:20:02.306,0.0018005673555821417,-26.233120113137943
2025-03-05 14:20:02.313,0.0016945745522613832,-25.433134024836864
2025-03-05 14:20:02.321,0.0015854035058777364,-24.526034323072803
2025-03-05 14:20:02.329,0.0014709763803221422,-23.531781791172918
2025-03-05 14:20:02.337,0.0013495479414999108,-22.47093366272067
2025-03-05 14:20:02.345,0.0012197438513564221,-21.364178845468828
2025-03-05 14:20:02.352,0.0010805847476400292,-20.23188258211094
2025-03-05 14:20:02.360,0.0009314962791189859,-19.09365266859627
2025-03-05 14:20:02.368,0.0007723057167136883,-17.96793837669187
2025-03-05 14:20:02.376,0.0006032262491238808,-16.871671836596082
2025-03-05 14:20:02.384,0.00042483054307750057,-15.819959923202353
2025-03-05 14:20:02.392,0.00023801550156123455,-14.825832768325826
2025-03-05 14:20:02.399,4.3960290522994475e-05,-13.900053003119403
2025-03-05 14:20:02.407,-0.00015592041123452613,-13.050987822137458
2025-03-05 14:20:02.415,-0.0003600262579084768,-12.28454403985545
2025-03-05 14:20:02.423,-0.0005666227542462936,-11.604164549571305
2025-03-05 14:20:02.431,-0.0007738931642887703,-11.010883038578159
2025-03-05 14:20:02.438,-0.0009799895886517952,-10.503432485540785
2025-03-05 14:20:02.446,-0.0011830820199541406,-10.078401875004793
2025-03-05 14:20:02.454,-0.0013814042184430854,-9.730434713872533
2025-03-05 14:20:02.462,-0.0015732952890339896,-9.452462327726845
2025-03-05 14:20:02.470,-0.0017572359168238508,-9.235964547439256
2025-03-05 14:20:02.477,-0.0019318783988986005,-9.071250254418878
2025-03-05 14:20:02.485,-0.002096069935251421,-8.947750311171504
2025-03-05 14:20:02.493,-0.0022488690283348363,-8.85431563021548
2025-03-05 14:20:02.501,-0.0023895551307217323,-8.77951349625247
2025-03-05 14:20:02.509,-0.002517631795328053,-8.711915730374308
2025-03-05 14:20:02.517,-0.0026328235757573457,-8.640372860990835
2025-03-05 14:20:02.524,-0.0027350669079036984,-8.554269140267218
2025-03-05 14:20:02.532,-0.0028244952912396325,-8.44375400558716
2025-03-05 14:20:02.540,-0.002901419335005186,-8.299946405252124
2025-03-05 14:20:02.548,-0.002966302566935593,-8.11510924578451
2025-03-05 14:20:02.556,-0.0030197341676107075,-7.88279203139583
2025-03-05 14:20:02.563,-0.0030623999165688754,-7.597940518197527
2025-03-05 14:20:02.571,-0.003095052664411591,-7.256972875315387
2025-03-05 14:20:02.579,-0.003118483655175874,-6.857822428942799
2025-03-05 14:20:02.587,-0.003133496048793028,-6.399947575238529
2025-03-05 14:20:02.595,-0.0031408820070497664,-5.8843099042789895
2025-03-05 14:20:02.602,-0.00314140461002373,-5.313322003176244
2025-03-05 14:20:02.610,-0.0031357855522536776,-4.690766822377626
2025-03-05 14:20:02.618,-0.0031246990377969174,-4.021690906979945
2025-03-05 14:20:02.626,-0.0031087716903585604,-3.3122742134821994
2025-03-05 14:20:02.634,-0.0030885877228950635,-2.5696796372401525
2025-03-05 14:20:02.642,-0.0030646980816422475,-1.8018857438003675
2025-03-05 14:20:02.649,-0.00303763185001096,-1.0175065031147241
2025-03-05 14:20:02.657,-0.0030079080079043986,-0.22560204711891
2025-03-05 14:20:02.665,-0.0029760457633518844,0.5645154082005459
2025-03-05 14:20:02.673,-0.0029425720262943145,1.343476324301857
2025-03-05 14:20:02.681,-0.002908025020889994,2.1020452331879813
2025-03-05 14:20:02.688,-0.002872953409865957,2.8313049146928777
2025-03-05 14:20:02.696,-0.0028379106133309393,3.522829806869237
2025-03-05 14:20:02.704,-0.0028034443093554557,4.168845468265054
2025-03-05 14:20:02.712,-0.002770081468696221,4.762371332734577
2025-03-05 14:20:02.720,-0.0027383097197143783,5.297344449410579
2025-03-05 14:20:02.727,-0.0027085563442120725,5.768722363325728
2025-03-05 14:20:02.735,-0.002681166712051383,6.172563752542308
2025-03-05 14:20:02.743,-0.0026563843424307425,6.506085890100064
2025-03-05 14:20:02.751,-0.0026343348636843913,6.767698442773619
2025-03-05 14:20:02.759,-0.002615015847848521,6.957013549800017
2025-03-05 14:20:02.767,-0.0025982939011755246,7.0748325333459805
2025-03-05 14:20:02.774,-0.0025839096631731437,7.123109966174026
2025-03-05 14:20:02.782,-0.00257149063202868,7.104896152304821
2025-03-05 14:20:02.790,-0.0025605710510288606,7.024259362610406
2025-03-05 14:20:02.798,-0.002550617487686541,6.886189416054565
2025-03-05 14:20:02.806,-0.0025410582625627004,6.696484420765966
2025-03-05 14:20:02.813,-0.002531314619630694,6.461622701566393
2025-03-05 14:20:02.821,-0.002520831527556341,6.188622156388244
2025-03-05 14:20:02.829,-0.002509106214597864,5.884889515305008
2025-03-05 14:20:02.837,-0.0024957128776935556,5.558062228582844
2025-03-05 14:20:02.845,-0.002480322422374181,5.215845980355367
2025-03-05 14:20:02.852,-0.002462716536396151,4.865851098719861
2025-03-05 14:20:02.860,-0.0024427957801047397,4.515431392396609
2025-03-05 14:20:02.868,-0.0024205816351900544,4.171529167202992
2025-03-05 14:20:02.876,-0.00239621263194073,3.8405303355973657
2025-03-05 14:20:02.884,-0.0023699348395183127,3.5281335925083455
2025-03-05 14:20:02.892,-0.0023420871834341278,3.2392375451414273
2025-03-05 14:20:02.899,-0.0023130822510039847,2.977849409770714
2025-03-05 14:20:02.907,-0.0022833834543891903,2.747018397202674
2025-03-05 14:20:02.915,-0.0022534796308070846,2.5487961992980903
2025-03-05 14:20:02.923,-0.0022238583319065634,2.3842260865781415
2025-03-05 14:20:02.931,-0.0021949791134942545,2.253361076922664
2025-03-05 14:20:02.938,-0.0021672480374081786,2.1553104991059713
2025-03-05 14:20:02.946,-0.002140994411888224,2.0883131272581545
2025-03-05 14:20:02.954,-0.0021164506484731634,2.0498339854947822
2025-03-05 14:20:02.962,-0.002093736010410635,2.036680993799813
2025-03-05 14:20:02.970,-0.002072844884168238,2.0451369081036455
2025-03-05 14:20:02.977,-0.002053640028375279,2.0711015372009727
2025-03-05 14:20:02.985,-0.002035851158015065,2.110239009833156
2025-03-05 14:20:02.993,-0.0020190792365338012,2.1581249075496927
2025-03-05 14:20:03.001,-0.002002806823730285,2.210388346324996
2025-03-05 14:20:03.009,-0.0019864145758338625,2.262844548159543
2025-03-05 14:20:03.017,-0.001969203520581496,2.3116140610575986
2025-03-05 14:20:03.024,-0.001950422262651929,2.353225533750033
2025-03-05 14:20:03.032,-0.0019292980154185938,2.38469979843523
2025-03-05 14:20:03.040,-0.0019050702408210372,2.4036139172609494
2025-03-05 14:20:03.048,-0.001877025487319654,2.4081447509224043
2025-03-05 14:20:03.056,-0.0018445316835339375,2.397092449370426
2025-03-05 14:20:03.063,-0.0018070698740292345,2.36988498785242
2025-03-05 14:20:03.071,-0.0017642614070184236,2.326565433652681
2025-03-05 14:20:03.079,-0.0017158889316338606,2.2677640093346914
2025-03-05 14:20:03.087,-0.0016619100821470745,2.1946572191411304
2025-03-05 14:20:03.095,-0.001602463233052443,2.1089163468192003
2025-03-05 14:20:03.102,-0.0015378651100099964,2.0126475487101425
2025-03-05 14:20:03.110,-0.0014686003946230652,1.9083255972496125
2025-03-05 14:20:03.118,-0.0013953038790331875,1.7987231223169562
2025-03-05 14:20:03.126,-0.0013187362016994436,1.6868369918120214
2025-03-05 14:20:03.134,-0.0012397545999718476,1.5758132950815296
2025-03-05 14:20:03.142,-0.0011592803697639464,1.468872250380332
2025-03-05 14:20:03.149,-0.0010782648612642394,1.3692342403423146
2025-03-05 14:20:03.157,-0.0009976558987108432,1.2800480698276337
2025-03-05 14:20:03.165,-0.0009183664492469474,1.2043224240342776
2025-03-05 14:20:03.173,-0.0008412471144319397,1.144861376384802
2025-03-05 14:20:03.181,-0.0007670635871765895,1.1042046603511266
2025-03-05 14:20:03.188,-0.0006964796963481536,1.0845732887442565
2025-03-05 14:20:03.196,-0.0006300461428861008,1.0878209931267437
2025-03-05 14:20:03.204,-0.0005681945681384349,1.1153918808842602
2025-03-05 14:20:03.212,-0.0005112362375436481,1.1682846803008358
2025-03-05 14:20:03.220,-0.00045936444865074083,1.2470239658489126
2025-03-05 14:20:03.227,-0.0004126598255146275,1.351638814505621
2025-03-05 14:20:03.235,-0.000371097858545404,1.4816494199212773
2025-03-05 14:20:03.243,-0.00033455822615504894,1.636062265718598
2025-03-05 14:20:03.251,-0.00030283550439482484,1.8133745130718883
2025-03-05 14:20:03.259,-0.0002756508681157109,2.0115882672047283
2025-03-05 14:20:03.267,-0.0002526643769280451,2.2282353234739483
2025-03-05 14:20:03.274,-0.0002334874494187981,2.4604128280202215
2025-03-05 14:20:03.282,-0.00021769516052727144,2.7048300033388193
2025-03-05 14:20:03.290,-0.00020483804476618527,2.9578656897255757
2025-03-05 14:20:03.298,-0.00019445314704655904,3.215635968991346
2025-03-05 14:20:03.306,-0.0001860741282392511,3.474070615872565
2025-03-05 14:20:03.313,-0.00017924029957547315,3.7289966206686715
2025-03-05 14:20:03.321,-0.00017350452429204272,3.976226594656377
2025-03-05 14:20:03.329,-0.0001684399828950351,4.211649545823004
2025-03-05 14:20:03.337,-0.00016364584708325691,4.431321315974203
2025-03-05 14:20:03.345,-0.00015875194456219105,4.631551902461308
2025-03-05 14:20:03.352,-0.00015342252134592092,4.808986940073285
2025-03-05 14:20:03.360,-0.00014735921919565055,4.960680782894004
2025-03-05 14:20:03.368,-0.00014030338392031211,5.084158896509894
2025-03-05 14:20:03.376,-0.00013203780649860891,5.17746764003622
2025-03-05 14:20:03.384,-0.00012238797522111752,5.239209971520159
2025-03-05 14:20:03.392,-0.00011122288576458021,5.268566131182992
2025-03-05 14:20:03.399,-9.845542026958712e-05,5.265298923345402
2025-03-05 14:20:03.407,-8.404226943619954e-05,5.229743804175815
2025-03-05 14:20:03.415,-6.798333693750516e-05,5.162784557797476
2025-03-05 14:20:03.423,-5.0320536698328635e-05,5.0658158746040085
2025-03-05 14:20:03.431,-3.1135874315455375e-05,4.94069460276364
2025-03-05 14:20:03.438,-1.0548697366101424e-05,4.7896818038340205
2025-03-05 14:20:03.446,1.1287991594530169e-05,4.615377991502942
2025-03-05 14:20:03.454,3.4192238628559e-05,4.420654062009128
2025-03-05 14:20:03.462,5.79588915208356e-05,4.208580435996748
2025-03-05 14:20:03.470,8.23663687229365e-05,3.9823568299611427
2025-03-05 14:20:03.478,0.00010718432377278519,3.7452448695991905
2025-03-05 14:20:03.485,0.00013218197911515423,3.500505457055461
2025-03-05 14:20:03.493,0.0001571367805929756,3.2513424215155435
2025-03-05 14:20:03.501,0.00018184288735284163,3.0008535361025794
2025-03-05 14:20:03.509,0.00020611887090763524,2.7519894984887663
2025-03-05 14:20:03.517,0.00022981388851148332,2.507520975527571
2025-03-05 14:20:03.524,0.00025281159889025334,2.2700133305375476
2025-03-05 14:20:03.532,0.00027503127794264217,2.0418082152592913
2025-03-05 14:20:03.540,0.00029642595614365547,1.8250108539573642
2025-03-05 14:20:03.548,0.0003169778228164693,1.621481615570948
2025-03-05 14:20:03.556,0.0003366914917027906,1.432830393640184
2025-03-05 14:20:03.563,0.0003555859472208385,1.26041240514655
2025-03-05 14:20:03.571,0.00037368612107942836,1.1053242670073917
2025-03-05 14:20:03.579,0.00039101507992522696,0.9683995809753745
2025-03-05 14:20:03.587,0.0004075876655394128,0.8502037066933845
2025-03-05 14:20:03.595,0.0004234061194566955,0.751027871506307
2025-03-05 14:20:03.603,0.0004384579052854045,0.6708831974711827
2025-03-05 14:20:03.610,0.00045271580817776757,0.6094955759698449
2025-03-05 14:20:03.618,0.00046614044562202667,0.5663025613890005
2025-03-05 14:20:03.626,0.0004786853432647443,0.540453575263661
2025-03-05 14:20:03.634,0.0004903044914284097,0.530814706486471
2025-03-05 14:20:03.642,0.000500961815516975,0.5359792602943536
2025-03-05 14:20:03.649,0.0005106415042013013,0.5542849527907313
2025-03-05 14:20:03.657,0.000519357913594169,0.5838382849332285
2025-03-05 14:20:03.665,0.0005271639246432415,0.6225461929981956
2025-03-05 14:20:03.673,0.0005341570933904039,0.6681546080390863
2025-03-05 14:20:03.681,0.0005404834941185571,0.7182931157920148
2025-03-05 14:20:03.688,0.0005463395779037813,0.770524535689578
2025-03-05 14:20:03.696,0.0005519724556195543,0.8223979650193644
2025-03-05 14:20:03.704,0.0005576787195846993,0.871503679168626
2025-03-05 14:20:03.712,0.0005638014366098726,0.9155282440185123
2025-03-05 14:20:03.720,0.0005707245972391865,0.9523082688944108
2025-03-05 14:20:03.728,0.0005788642882307607,0.979881380583311
2025-03-05 14:20:03.735,0.0005886561315317102,0.9965331950352327
2025-03-05 14:20:03.743,0.0006005389480322384,1.0008392683378193
2025-03-05 14:20:03.751,0.0006149350350286776,0.9917011953369991
2025-03-05 14:20:03.759,0.0006322278381960199,0.9683761769091415
2025-03-05 14:20:03.767,0.0006527381307582496,0.9304994885844523
2025-03-05 14:20:03.774,0.0006767000702149344,0.8780993524886231
2025-03-05 14:20:03.782,0.000704238674187785,0.8116037439412744
2025-03-05 14:20:03.790,0.0007353503317927806,0.7318386625837132
2025-03-05 14:20:03.798,0.0007698879382127174,0.6400173839524357
2025-03-05 14:20:03.806,0.000807552103633086,0.5377202083756392
2025-03-05 14:20:03.813,0.0008478896424762547,0.4268642730618766
2025-03-05 14:20:03.821,0.000890300197488122,0.3096631231999293
2025-03-05 14:20:03.829,0.0009340514019217149,0.18857597367286438
2025-03-05 14:20:03.837,0.0009783024417984113,0.0662469437518235
2025-03-05 14:20:03.845,0.0010221352627391512,-0.05456499792802887
2025-03-05 14:20:03.853,0.0010645919948986697,-0.17106411091501628
2025-03-05 14:20:03.860,0.0011047165032758465,-0.2805021518476428
2025-03-05 14:20:03.868,0.0011415974384040707,-0.38026644963505235
2025-03-05 14:20:03.876,0.0011744099330142667,-0.46796889983951245
2025-03-05 14:20:03.884,0.0012024532477322193,-0.5415325809453404
2025-03-05 14:20:03.892,0.0012251821340756926,-0.5992724185678434
2025-03-05 14:20:03.899,0.0012422302917732867,-0.6399662261949637
2025-03-05 14:20:03.907,0.0012534249247500874,-0.6629125749869506
2025-03-05 14:20:03.915,0.0012587919915927417,-0.6679723153360244
2025-03-05 14:20:03.923,0.0012585522821921247,-0.6555911847973889
2025-03-05 14:20:03.931,0.001253108920996162,-0.6268017541205937
2025-03-05 14:20:03.938,0.0012430272900857118,-0.5832039229269806
2025-03-05 14:20:03.946,0.0012290086759767925,-0.5269242009470398
2025-03-05 14:20:03.954,0.0012118591690302065,-0.4605550181280089
2025-03-05 14:20:03.962,0.0011924554823127924,-0.387076224699844
2025-03-05 14:20:03.970,0.0011717094085059953,-0.309761715271578
2025-03-05 14:20:03.978,0.0011505326016791905,-0.23207470510200778
2025-03-05 14:20:03.985,0.001129803259775543,-0.15755558970825748
2025-03-05 14:20:03.993,0.001110336099280973,-0.08970653855182605
2025-03-05 14:20:04.001,0.0010928567627999178,-0.031877028572887094
2025-03-05 14:20:04.009,0.00107798149126899,0.012845566948590008
2025-03-05 14:20:04.017,0.0010662025343681472,0.04173644024836994
2025-03-05 14:20:04.024,0.0010578793752287344,0.05252131104430834
2025-03-05 14:20:04.032,0.0010532354247648813,0.043448796982989354
2025-03-05 14:20:04.040,0.00105235944544032,0.013344670366326668
2025-03-05 14:20:04.048,0.0010552107111358438,-0.03835384869443271
2025-03-05 14:20:04.056,0.0010616269481019912,-0.11158484900062132
2025-03-05 14:20:04.063,0.00107133446231323,-0.20566978324558755
2025-03-05 14:20:04.071,0.0010839603444704165,-0.31934218399915393
2025-03-05 14:20:04.079,0.0010990469631858017,-0.4507955134268128
2025-03-05 14:20:04.087,0.001116068979708866,-0.597747786075391
2025-03-05 14:20:04.095,0.001134452919169373,-0.7575198970782289
2025-03-05 14:20:04.103,0.0011535989926753198,-0.9271240711669668
2025-03-05 14:20:04.110,0.0011729043862843834,-1.1033585649704931
2025-03-05 14:20:04.118,0.001191786702678116,-1.282904723855761
2025-03-05 14:20:04.126,0.0012097058768690495,-1.4624227042677396
2025-03-05 14:20:04.134,0.0012261828470403501,-1.6386425851950468
2025-03-05 14:20:04.142,0.0012408135050370028,-1.808448149175441
2025-03-05 14:20:04.149,0.0012532768311039136,-1.968951246237279
2025-03-05 14:20:04.157,0.0012633365474622883,-2.1175552987871686
2025-03-05 14:20:04.165,0.0012708361248656166,-2.252007108685356
2025-03-05 14:20:04.173,0.0012756875683759522,-2.3704366522094436
2025-03-05 14:20:04.181,0.0012778550003202185,-2.471384975247198
2025-03-05 14:20:04.188,0.0012773344870781187,-2.553820630401752
2025-03-05 14:20:04.196,0.0012741317673792992,-2.6171453463935137
2025-03-05 14:20:04.204,0.001268239642019835,-2.661189811574989
2025-03-05 14:20:04.212,0.001259616890644957,-2.686200606273516
2025-03-05 14:20:04.220,0.00124817064607112,-2.6928194409035804
2025-03-05 14:20:04.228,0.0012337440347459075,-2.6820559467593044
2025-03-05 14:20:04.235,0.0012161105136522027,-2.655255317212187
2025-03-05 14:20:04.243,0.0011949757567868368,-2.6140620983472656
2025-03-05 14:20:04.251,0.0011699872598587059,-2.5603813676716816
2025-03-05 14:20:04.259,0.0011407511034034464,-2.4963384091803262
2025-03-05 14:20:04.267,0.0011068546126853838,-2.4242377968188196
2025-03-05 14:20:04.274,0.0010678931066632903,-2.3465225560638885
2025-03-05 14:20:04.282,0.0010234986725844398,-2.265733814021903
2025-03-05 14:20:04.290,0.0009733689224205221,-2.1844710978272954
2025-03-05 14:20:04.298,0.0009172937970060547,-2.1053532138196793
2025-03-05 14:20:04.306,0.0008551785657232842,-2.0309794435579853
2025-03-05 14:20:04.313,0.0007870613394535112,-1.9638906380274161
2025-03-05 14:20:04.321,0.0007131238285944801,-1.9065296986977807
2025-03-05 14:20:04.329,0.0006336946801208593,-1.8612009306365918
2025-03-05 14:20:04.337,0.0005492453156701378,-1.8300278638465397
2025-03-05 14:20:04.345,0.00046037865629552834,-1.8149093764695365
2025-03-05 14:20:04.353,0.00036781151443189504,-1.817474307477744
2025-03-05 14:20:04.360,0.00027235186049206323,-1.839035180907619
2025-03-05 14:20:04.368,0.00017487262161595068,-1.8805421203254982
2025-03-05 14:20:04.376,7.6283987681035e-05,-1.942538444510904
2025-03-05 14:20:04.384,-2.249377268961353e-05,-2.02511974907727
2025-03-05 14:20:04.392,-0.00012055524325068973,-2.127898467121511
2025-03-05 14:20:04.399,-0.00021703121285007498,-2.249975965121055
2025-03-05 14:20:04.407,-0.00031110558058331954,-2.3899241823017188
2025-03-05 14:20:04.415,-0.00040202738566279917,-2.545778676970044
2025-03-05 14:20:04.423,-0.0004891179408378503,-2.7150447096511874
2025-03-05 14:20:04.431,-0.000571773407766904,-2.894717672116136
2025-03-05 14:20:04.438,-0.0006494634557909248,-3.0813187640173165
2025-03-05 14:20:04.446,-0.0007217268852805867,-3.2709463296156644
2025-03-05 14:20:04.454,-0.0007881652690558127,-3.4593427092580047
2025-03-05 14:20:04.462,-0.0008484357689228604,-3.64197585645725
2025-03-05 14:20:04.470,-0.000902244320333209,-3.814134350519231
2025-03-05 14:20:04.478,-0.0009493403447715124,-3.971033828189237
2025-03-05 14:20:04.485,-0.0009895140205409224,-4.107932298121122
2025-03-05 14:20:04.493,-0.0010225968578339221,-4.220251320069345
2025-03-05 14:20:04.501,-0.0010484658557647151,-4.3036996509744405
2025-03-05 14:20:04.509,-0.0010670509649291968,-4.354395695304056
2025-03-05 14:20:04.517,-0.0010783451151310745,-4.368984949306921
2025-03-05 14:20:04.524,-0.0010824157918506241,-4.344748597495598
2025-03-05 14:20:04.532,-0.0010794170295290433,-4.279699508272765
2025-03-05 14:20:04.540,-0.0010696006748891183,-4.172662092427345
2025-03-05 14:20:04.548,-0.0010533258335865554,-4.023332839855757
2025-03-05 14:20:04.556,-0.0010310655471954654,-3.8323188337655516
2025-03-05 14:20:04.563,-0.0010034099511414378,-3.601152143519529
2025-03-05 14:20:04.571,-0.0009710654046918495,-3.3322786946058374
2025-03-05 14:20:04.579,-0.0009348492895866973,-3.029020980820701
2025-03-05 14:20:04.587,-0.0008956802951831892,-2.695514791368991
2025-03-05 14:20:04.595,-0.000854564090151077,-2.3366209440588905
2025-03-05 14:20:04.603,-0.0008125744074576746,-1.9578138169759174
2025-03-05 14:20:04.610,-0.000770829768216937,-1.5650492355962504
2025-03-05 14:20:04.618,-0.0007304663380125335,-1.1646149918026925
2025-03-05 14:20:04.626,-0.0006926077451802472,-0.7629679421905803
2025-03-05 14:20:04.634,-0.0006583330460355633,-0.3665622470293553
2025-03-05 14:20:04.642,-0.0006286443037888207,0.01832615171717471
2025-03-05 14:20:04.649,-0.0006044353745355412,0.38577328716807024
2025-03-05 14:20:04.657,-0.0005864634258102084,0.7303733550434852
2025-03-05 14:20:04.665,-0.00057532447625031,1.0473914422969843
2025-03-05 14:20:04.673,-0.000571433923090716,1.3328970526660742
2025-03-05 14:20:04.681,-0.0005750126981681438,1.5838730912319483
2025-03-05 14:20:04.688,-0.000586079399576457,1.798295653130873
2025-03-05 14:20:04.696,-0.0006044484927836673,1.9751809170788552
2025-03-05 14:20:04.704,-0.0006297344620788359,2.1145966424778835
2025-03-05 14:20:04.712,-0.0006613616189877869,2.217637153974041
2025-03-05 14:20:04.720,-0.0006985791356235581,2.28636219458704
2025-03-05 14:20:04.728,-0.0007404807635840558,2.323701553339374
2025-03-05 14:20:04.735,-0.0007860286180792996,2.333328840109349
2025-03-05 14:20:04.743,-0.0008340803473266624,2.319509109445991
2025-03-05 14:20:04.751,-0.0008834189639151957,2.286926157698193
2025-03-05 14:20:04.759,-0.0009327845833509374,2.2404961816774662
2025-03-05 14:20:04.767,-0.0009809072917289204,2.1851750611541414
2025-03-05 14:20:04.774,-0.0010265403468925401,2.125766803296007
2025-03-05 14:20:04.782,-0.0010684929042552329,2.0667406711090885
2025-03-05 14:20:04.790,-0.001105661449748707,2.012064217896608
2025-03-05 14:20:04.798,-0.0011370591195728453,1.9650588675441991
2025-03-05 14:20:04.806,-0.0011618420923013152,1.928283816347093
2025-03-05 14:20:04.813,-0.0011793322573371064,1.903452895266205
2025-03-05 14:20:04.821,-0.0011890353995237725,1.8913876483646326
2025-03-05 14:20:04.829,-0.0011906541983301492,1.8920083017484848
2025-03-05 14:20:04.837,-0.0011840954271320012,1.904362588161971
2025-03-05 14:20:04.845,-0.0011694708592730838,1.9266906458245947
2025-03-05 14:20:04.853,-0.001147091547801853,1.9565225296776023
2025-03-05 14:20:04.860,-0.0011174553490572222,1.9908033659954136
2025-03-05 14:20:04.868,-0.0010812278092082242,2.0260399461276823
2025-03-05 14:20:04.876,-0.0010392168282145856,2.0584616700743594
2025-03-05 14:20:04.884,-0.0009923418560804423,2.0841882639046
2025-03-05 14:20:04.892,-0.0009415987525241984,2.099396623288808
2025-03-05 14:20:04.899,-0.0008880218148432977,2.1004794684296026
2025-03-05 14:20:04.907,-0.0008326447672365105,2.084189202130943
2025-03-05 14:20:04.915,-0.0007764626273459601,2.0477613915442827
2025-03-05 14:20:04.923,-0.000720396321334378,1.989013573202203
2025-03-05 14:20:04.931,-0.00066526178086822,1.9064165193006786
2025-03-05 14:20:04.938,-0.0006117450723243095,1.7991365995793835
2025-03-05 14:20:04.946,-0.0005603848428793347,1.6670493296349076
2025-03-05 14:20:04.954,-0.0005115629571634345,1.5107255320684836
2025-03-05 14:20:04.962,-0.00046550365323351625,1.331392695749505
2025-03-05 14:20:04.970,-0.00042228095847169603,1.1308750693426015
2025-03-05 14:20:04.978,-0.000381833566436116,0.9115167520953469
2025-03-05 14:20:04.985,-0.00034398593144621963,0.6760925363357105
2025-03-05 14:20:04.993,-0.0003084740051635051,0.42771150087774046
2025-03-05 14:20:05.001,-0.00027497382584278405,0.16971834436340746
2025-03-05 14:20:05.009,-0.00024313107969910918,-0.09440281724332483
2025-03-05 14:20:05.017,-0.00021258978468149066,-0.3611179719765349
2025-03-05 14:20:05.024,-0.00018301839602457505,-0.6269225581376222
2025-03-05 14:20:05.032,-0.00015413189304444133,-0.8884080384456331
2025-03-05 14:20:05.040,-0.0001257087673799993,-1.1423141170571016
2025-03-05 14:20:05.048,-9.760227562097912e-05,-1.38556607103129
2025-03-05 14:20:05.056,-6.974579616545465e-05,-1.6152976929370282
2025-03-05 14:20:05.063,-4.2152555058819415e-05,-1.8288612625688296
2025-03-05 14:20:05.071,-1.4910296128905544e-05,-2.0238267234063185
2025-03-05 14:20:05.079,1.1828305061127556e-05,-2.1979727937069464
2025-03-05 14:20:05.087,3.785850955718245e-05,-2.349273076121893
2025-03-05 14:20:05.095,6.293864186151247e-05,-2.475880345935439
2025-03-05 14:20:05.103,8.680660702603985e-05,-2.5761121087067305
2025-03-05 14:20:05.110,0.00010919717648737875,-2.648440236289249
2025-03-05 14:20:05.118,0.00012985951854453955,-2.6914870301119382
2025-03-05 14:20:05.126,0.00014857432433275938,-2.7040294476812057
2025-03-05 14:20:05.134,0.00016516972105968524,-2.6850125070660904
2025-03-05 14:20:05.142,0.0001795351668745533,-2.6335721129819256
2025-03-05 14:20:05.149,0.00019163265068854413,-2.5490667840951087
2025-03-05 14:20:05.157,0.00020150461777903388,-2.4311170482898894
2025-03-05 14:20:05.165,0.00020927808081636803,-2.2796506395364227
2025-03-05 14:20:05.173,0.0002151644709953389,-2.0949510934424165
2025-03-05 14:20:05.181,0.00021945500536145677,-1.877706906350019
2025-03-05 14:20:05.188,0.00022251164683694205,-1.6290580977778852
2025-03-05 14:20:05.196,0.00022475403553759614,-1.3506368050009236
2025-03-05 14:20:05.204,0.00022664303363283188,-1.0445984618843287
2025-03-05 14:20:05.212,0.00022866173902093457,-0.7136402051129233
2025-03-05 14:20:05.220,0.00023129497995488444,-0.36100344536587875
2025-03-05 14:20:05.228,0.00023500839932622872,0.009541936312269872
2025-03-05 14:20:05.235,0.00024022827087680622,0.393733551668396
2025-03-05 14:20:05.243,0.00024732315888914005,0.7868734492196809
2025-03-05 14:20:05.251,0.0002565884381109011,1.1839057433686937
2025-03-05 14:20:05.259,0.0002682345335047248,1.5795134438300849
2025-03-05 14:20:05.267,0.00028237952311469954,1.9682318346962182
2025-03-05 14:20:05.274,0.0002990464766779623,2.344574703094162
2025-03-05 14:20:05.282,0.00031816558390013075,2.703168861690956
2025-03-05 14:20:05.290,0.00033958076740191027,3.0388918022419005
2025-03-05 14:20:05.298,0.0003630600909300667,3.3470069922764583
2025-03-05 14:20:05.306,0.0003883089115884496,3.6232912970877202
2025-03-05 14:20:05.313,0.00041498449759893197,3.864149266820172
2025-03-05 14:20:05.321,0.000442710858552353,4.066709546966767
2025-03-05 14:20:05.329,0.00047109278273966117,4.228899411497365
2025-03-05 14:20:05.337,0.0004997283466455304,4.349494337765132
2025-03-05 14:20:05.345,0.0005282193254353608,4.428140593765403
2025-03-05 14:20:05.353,0.0005561791017006185,4.46534993740178
2025-03-05 14:20:05.360,0.0005832380191207598,4.462466675370321
2025-03-05 14:20:05.368,0.0006090466345499369,4.42160843738781
2025-03-05 14:20:05.376,0.0006332777476958944,4.345583035687198
2025-03-05 14:20:05.384,0.0006556281698612411,4.237784655075663
2025-03-05 14:20:05.392,0.0006758208551948957,4.102073326296062
2025-03-05 14:20:05.399,0.0006936074512636935,3.942642166926618
2025-03-05 14:20:05.407,0.0007087708546542672,3.763877239364053
2025-03-05 14:20:05.415,0.0007211271843022683,3.5702150887366564
2025-03-05 14:20:05.423,0.000730526681487193,3.3660030887127146
2025-03-05 14:20:05.431,0.0007368532645819274,3.1553676288571135
2025-03-05 14:20:05.438,0.0007400226954618635,2.9420949046277567
2025-03-05 14:20:05.446,0.000739979509394116,2.7295286056597856
2025-03-05 14:20:05.454,0.0007366930114013599,2.520488137422901
2025-03-05 14:20:05.462,0.0007301527468354546,2.317210169679192
2025-03-05 14:20:05.470,0.0007203639112794023,2.1213153143311065
2025-03-05 14:20:05.478,0.0007073431757080327,1.9338006443739866
2025-03-05 14:20:05.485,0.0006911153694809539,1.7550576368706168
2025-03-05 14:20:05.493,0.0006717113901116836,1.584914023245251
2025-03-05 14:20:05.501,0.0006491676000912848,1.4226970221937705
2025-03-05 14:20:05.509,0.0006235268337439147,1.267314564808447
2025-03-05 14:20:05.517,0.0005948409785210573,1.1173504358982334
2025-03-05 14:20:05.524,0.0005631749234139703,0.9711687779616822
2025-03-05 14:20:05.532,0.0005286114962699694,0.8270231537526544
2025-03-05 14:20:05.540,0.0004912568825906787,0.6831653444609048
2025-03-05 14:20:05.548,0.0004512460077578787,0.5379492582455331
2025-03-05 14:20:05.556,0.0004087475181108247,0.38992570544971145
2025-03-05 14:20:05.563,0.0003639682350562804,0.2379243203500579
2025-03-05 14:20:05.571,0.0003171571231883262,0.08111953480471262
2025-03-05 14:20:05.579,0.0002686088288938584,-0.08092179243948597
2025-03-05 14:20:05.587,0.00021866675465447277,-0.2482127317394811
2025-03-05 14:20:05.595,0.000167725511622579,-0.42033946009796985
2025-03-05 14:20:05.603,0.00011623247793694742,-0.596475248463993
2025-03-05 14:20:05.610,6.46880942259056e-05,-0.7754143667617135
2025-03-05 14:20:05.618,1.3644456107957396e-05,-0.9556241234125493
2025-03-05 14:20:05.626,-3.629827959556951e-05,-1.1353123881971672
2025-03-05 14:20:05.634,-8.449816988506067e-05,-1.3125071489227764
2025-03-05 14:20:05.642,-0.00013028091017650416,-1.4851439769363735
2025-03-05 14:20:05.649,-0.00017295277994130005,-1.651156777801933
2025-03-05 14:20:05.657,-0.00021181724732330468,-1.8085669281311052
2025-03-05 14:20:05.665,-0.00024619496660770065,-1.9555658809330436
2025-03-05 14:20:05.673,-0.0002754464193530127,-2.0905865770545518
2025-03-05 14:20:05.681,-0.00029899605843474624,-2.2123595320848444
2025-03-05 14:20:05.688,-0.0003163566069703666,-2.319950267399213
2025-03-05 14:20:05.696,-0.0003271521097481328,-2.4127757961899627
2025-03-05 14:20:05.704,-0.00033113837040252926,-2.4905991103882466
2025-03-05 14:20:05.712,-0.00032821950546316995,-2.5535019611221266
2025-03-05 14:20:05.720,-0.00031845950440594946,-2.6018375800956823
2025-03-05 14:20:05.728,-0.0003020879048471541,-2.6361662477204906
2025-03-05 14:20:05.735,-0.00027949897432493826,-2.657177692575289
2025-03-05 14:20:05.743,-0.00025124413310592306,-2.6656051511903325
2025-03-05 14:20:05.751,-0.0002180177470439615,-2.6621364948466835
2025-03-05 14:20:05.759,-0.0001806368276830288,-2.647328119544993
2025-03-05 14:20:05.767,-0.0001400155220169822,-2.6215272797886113
2025-03-05 14:20:05.774,-9.713550862980201e-05,-2.584808216551808
2025-03-05 14:20:05.782,-5.301360832886235e-05,-2.536926788955817
2025-03-05 14:20:05.790,-8.66817708492712e-06,-2.477297391951759
2025-03-05 14:20:05.798,3.491386079388602e-05,-2.4049947746083973
2025-03-05 14:20:05.806,7.68073626153653e-05,-2.3187820305522
2025-03-05 14:20:05.813,0.00011617492509732507,-2.2171645923217618
2025-03-05 14:20:05.821,0.000152287146295882,-2.098468608778512
2025-03-05 14:20:05.829,0.0001845364690916965,-1.9609407005190915
2025-03-05 14:20:05.837,0.00021244444838535969,-1.8028648462961172
2025-03-05 14:20:05.845,0.00023566277806475315,-1.622691117518577
2025-03-05 14:20:05.853,0.00025396881824275673,-1.4191701979014102
2025-03-05 14:20:05.860,0.00026725666884028096,-1.1914871329874115
2025-03-05 14:20:05.868,0.00027552503685439783,-0.9393875623100546
2025-03-05 14:20:05.876,0.00027886324000088095,-0.6632897940938156
2025-03-05 14:20:05.884,0.00027743668093493983,-0.36437648054887417
2025-03-05 14:20:05.892,0.0002714730194568515,-0.04466033034264392
2025-03-05 14:20:05.899,0.0002612500736630734,0.292980761831055
2025-03-05 14:20:05.907,0.0002470862063517102,0.6448026072230272
2025-03-05 14:20:05.915,0.00022933361395613118,1.0062296975444858
2025-03-05 14:20:05.923,0.00020837454762586801,1.3719268053870746
2025-03-05 14:20:05.931,0.00018462008240311632,1.7359061633793331
2025-03-05 14:20:05.939,0.00015851066094769734,2.091667585769016
2025-03-05 14:20:05.946,0.0001305173650162309,2.432367383909291
2025-03-05 14:20:05.954,0.0001011427984597397,2.751010560102724
2025-03-05 14:20:05.962,7.092059908398461e-05,3.040659596632876
2025-03-05 14:20:05.970,4.041282279207784e-05,3.2946522299298304
2025-03-05 14:20:05.978,1.0204610431395411e-05,3.5068199501924893
2025-03-05 14:20:05.985,-1.9104418349316007e-05,3.6716986325921757
2025-03-05 14:20:05.993,-4.6912596299618794e-05,3.7847227262268954
2025-03-05 14:20:06.001,-7.263282156944563e-05,3.8423948340290446
2025-03-05 14:20:06.009,-9.571321004139306e-05,3.8424233282872247
2025-03-05 14:20:06.017,-0.0001156609723140533,3.7838218533572716
2025-03-05 14:20:06.024,-0.00013206807436017155,3.666966124207578
2025-03-05 14:20:06.032,-0.00014463675519409505,3.4936052536695263
2025-03-05 14:20:06.040,-0.000153202645109317,3.266826823058724
2025-03-05 14:20:06.048,-0.0001577531506278133,2.9909769316455015
2025-03-05 14:20:06.056,-0.00015843907279716821,2.671538406451345
2025-03-05 14:20:06.064,-0.00015557808721239946,2.314972121414195
2025-03-05 14:20:06.071,-0.00014964956787797616,1.9285278724264636
2025-03-05 14:20:06.079,-0.00014128107982410703,1.5200324067765651
2025-03-05 14:20:06.087,-0.00013122755393303338,1.0976629609790205
2025-03-05 14:20:06.095,-0.00012034463457665659,0.6697149974450716
2025-03-05 14:20:06.103,-0.0001095579442882136,0.24437275063988712
2025-03-05 14:20:06.110,-9.98300351992601e-05,-0.17050928037653065
2025-03-05 14:20:06.118,-9.212662941941953e-05,-0.5676065815949392
2025-03-05 14:20:06.126,-8.738347919270041e-05,-0.9403004175740739
2025-03-05 14:20:06.134,-8.647488885776755e-05,-1.2828242905337905
2025-03-05 14:20:06.142,-9.018467688413749e-05,-1.5903776272205365
2025-03-05 14:20:06.149,-9.918013081541062e-05,-1.8592047329623762
2025-03-05 14:20:06.157,-0.0001139893259538371,-2.0866384894371803
2025-03-05 14:20:06.165,-0.00013498204241927563,-2.271109605290432
2025-03-05 14:20:06.173,-0.00016235442448268294,-2.4121234121873605
2025-03-05 14:20:06.181,-0.00019611747800080527,-2.5102072100149595
2025-03-05 14:20:06.189,-0.00023608949135959118,-2.566831994008723
2025-03-05 14:20:06.196,-0.0002818924857287023,-2.5843130343314407
2025-03-05 14:20:06.204,-0.00033295284338553786,-2.5656942101575937
2025-03-05 14:20:06.212,-0.0003885063191873449,-2.5146212112090134
2025-03-05 14:20:06.220,-0.00044760770030986434,-2.4352087061933654
2025-03-05 14:20:06.228,-0.0005091454335465437,-2.3319063479150306
2025-03-05 14:20:06.235,-0.0005718615787503571,-2.2093680526966053
2025-03-05 14:20:06.243,-0.0006343774580508561,-2.072328375599936
2025-03-05 14:20:06.251,-0.0006952253094539339,-1.925489034179281
2025-03-05 14:20:06.259,-0.0007528860157184695,-1.7734177623155047
2025-03-05 14:20:06.267,-0.0008058324576159418,-1.620460767002482
2025-03-05 14:20:06.274,-0.0008525772847479674,-1.4706691858729908
2025-03-05 14:20:06.282,-0.0008917231609213074,-1.3277391707307942
2025-03-05 14:20:06.290,-0.0009220130797502595,-1.1949646107776892
2025-03-05 14:20:06.298,-0.0009423782130831395,-1.0752010987730674
2025-03-05 14:20:06.306,-0.0009519808481320343,-0.9708395522551918
2025-03-05 14:20:06.314,-0.000950250191248903,-0.8837879259693119
2025-03-05 14:20:06.321,-0.00093690913127953,-0.8154596646636513
2025-03-05 14:20:06.329,-0.0009119904581773063,-0.766767901568127
2025-03-05 14:20:06.337,-0.0008758415216083141,-0.7381248467116933
2025-03-05 14:20:06.345,-0.0008291168860855326,-0.7294462629707198
2025-03-05 14:20:06.353,-0.0007727591823415375,-0.7401613297638567
2025-03-05 14:20:06.360,-0.0007079690229768352,-0.7692284883108604
2025-03-05 14:20:06.368,-0.0006361654319070608,-0.8151580094250913
2025-03-05 14:20:06.376,-0.0005589386061030551,-0.8760420060525652
2025-03-05 14:20:06.384,-0.0004779969783973529,-0.949592429291912
2025-03-05 14:20:06.392,-0.0003951106055757897,-1.0331872602388237
2025-03-05 14:20:06.399,-0.00031205294897098724,-1.1239246840845403
2025-03-05 14:20:06.407,-0.00023054310767501684,-1.2186845673871836
2025-03-05 14:20:06.415,-0.00015219047434194072,-1.3141961177930568
2025-03-05 14:20:06.423,-7.844366383357262e-05,-1.4071102400592803
2025-03-05 14:20:06.431,-1.0545483759676621e-05,-1.4940748455251704
2025-03-05 14:20:06.439,5.050433246062061e-05,-1.5718112357290677
2025-03-05 14:20:06.446,0.00010397702568263985,-1.637189658645175
2025-03-05 14:20:06.454,0.00014943204572104063,-1.687302209634081
2025-03-05 14:20:06.462,0.0001867228207834547,-1.7195313931971752
2025-03-05 14:20:06.470,0.000215990827336687,-1.731612847402358
2025-03-05 14:20:06.478,0.00023764827374516312,-1.7216909318873073
2025-03-05 14:20:06.485,0.0002523502699516976,-1.6883660692027302
2025-03-05 14:20:06.493,0.0002609579221661172,-1.6307328960853327
2025-03-05 14:20:06.501,0.00026449423821003134,-1.5484084285133417
2025-03-05 14:20:06.509,0.0002640949370725625,-1.441549583629403
2025-03-05 14:20:06.517,0.00026095627008037415,-1.3108595445663653
2025-03-05 14:20:06.524,0.0002562819333511555,-1.1575826089489951
2025-03-05 14:20:06.532,0.0002512311642232121,-0.9834873357643368
2025-03-05 14:20:06.540,0.00024687012867976427,-0.7908380084007547
2025-03-05 14:20:06.548,0.0002441286538582434,-0.582354673425884
2025-03-05 14:20:06.556,0.00024376420899024898,-0.3611622957170435
2025-03-05 14:20:06.564,0.0002463347875582977,-0.13072987648229747
2025-03-05 14:20:06.571,0.0002521819984342164,0.10519931633157256
2025-03-05 14:20:06.579,0.00026142524166118024,0.3426849879548047
2025-03-05 14:20:06.587,0.00027396733480900047,0.5776729016312872
2025-03-05 14:20:06.595,0.0002895113800334322,0.8060820433794281
2025-03-05 14:20:06.603,0.0003075880337979843,1.023894023957319
2025-03-05 14:20:06.610,0.00032759168183864226,1.2272428429030808
2025-03-05 14:20:06.618,0.000348823381172567,1.41250313167367
2025-03-05 14:20:06.626,0.00037053790186515953,1.5763749897254795
2025-03-05 14:20:06.634,0.00039199187950884684,1.7159635160500597
2025-03-05 14:20:06.642,0.00041249001606568806,1.8288511192049186
2025-03-05 14:20:06.649,0.0004314264432284468,1.9131606757183228
2025-03-05 14:20:06.657,0.00044831878252214215,1.9676076253039567
2025-03-05 14:20:06.665,0.0004628330541454292,1.9915391713683173
2025-03-05 14:20:06.673,0.00047479830202967895,1.9849589250167354
2025-03-05 14:20:06.681,0.0004842105188120184,1.9485356135183876
2025-03-05 14:20:06.689,0.0004912261183661058,1.8835948850044428
2025-03-05 14:20:06.696,0.0004961457916363821,1.7920937792718499
2025-03-05 14:20:06.704,0.0004993900785968244,1.67657807474207
2025-03-05 14:20:06.712,0.0005014683831686883,1.5401234125971033
2025-03-05 14:20:06.720,0.0005029434400462976,1.3862617736535177
2025-03-05 14:20:06.728,0.0005043934069580548,1.2188954761368762
2025-03-05 14:20:06.735,0.0005063738004555018,1.0422013250267224
2025-03-05 14:20:06.743,0.0005093814184941946,0.8605278518952366
2025-03-05 14:20:06.751,0.0005138222024680092,0.6782887353509155
2025-03-05 14:20:06.759,0.0005199846915019031,0.4998554974240482
2025-03-05 14:20:06.767,0.0005280203219914502,0.32945244883937663
2025-03-05 14:20:06.774,0.0005379313428967707,0.17105662888975556
2025-03-05 14:20:06.782,0.0005495665985299072,0.028305180538290106
2025-03-05 14:20:06.790,0.0005626249655872974,-0.09558775192120353
2025-03-05 14:20:06.798,0.0005766659076331127,-0.1979028894768983
2025-03-05 14:20:06.806,0.0005911264298186439,-0.27647511180378226
2025-03-05 14:20:06.814,0.0006053435792000405,-0.3297392073597776
2025-03-05 14:20:06.821,0.0006185814297215248,-0.35676146478979115
2025-03-05 14:20:06.829,0.0006300612201954186,-0.3572568280846533
2025-03-05 14:20:06.837,0.0006389931260212705,-0.3315916522138518
2025-03-05 14:20:06.845,0.0006446081650992034,-0.2807723778018727
2025-03-05 14:20:06.853,0.0006461888950545606,-0.2064206838957315
2025-03-05 14:20:06.860,0.0006430976870245792,-0.11073587219124534
2025-03-05 14:20:06.868,0.0006348014320722724,0.0035546114259658234
2025-03-05 14:20:06.876,0.0006208916641098825,0.13325548737490087
2025-03-05 14:20:06.884,0.0006010993384432651,0.274773639001565
2025-03-05 14:20:06.892,0.0005753038414850328,0.42419652873755403
2025-03-05 14:20:06.899,0.0005435361494285657,0.5773776329333883
2025-03-05 14:20:06.907,0.0005059763642130014,0.7300273466262465
2025-03-05 14:20:06.915,0.000462946124773284,0.8778076563535714
2025-03-05 14:20:06.923,0.00041489661814064874,1.0164287335185345
2025-03-05 14:20:06.931,0.0003623930976001169,1.1417454730797427
2025-03-05 14:20:06.939,0.00030609694877184457,1.2498518984282112
2025-03-05 14:20:06.946,0.0002467463984210477,1.3371712809612726
2025-03-05 14:20:06.954,0.00018513686891188374,1.4005397970563402
2025-03-05 14:20:06.962,0.00012210170892980554,1.4372815853669665
2025-03-05 14:20:06.970,5.849366790111011e-05,1.4452731900143212
2025-03-05 14:20:06.978,-4.832805394153529e-06,1.4229955878184593
2025-03-05 14:20:06.985,-6.703848205970916e-05,1.3695722972516686
2025-03-05 14:20:06.993,-0.00012731552757605445,1.2847924428335915
2025-03-05 14:20:07.001,-0.000184902906967259,1.1691180873327285
2025-03-05 14:20:07.009,-0.0002391009120093748,1.0236756280266281
2025-03-05 14:20:07.017,-0.00028928460580219395,0.8502315583946928
2025-03-05 14:20:07.024,-0.0003349158779133659,0.6511533928814075
2025-03-05 14:20:07.032,-0.00037555370206667524,0.4293570094263245
2025-03-05 14:20:07.040,-0.00041086210104326925,0.18824205806609434
2025-03-05 14:20:07.048,-0.00044061529020174886,-0.06838259949237363
2025-03-05 14:20:07.056,-0.00046469956804574955,-0.3363812161748933
2025-03-05 14:20:07.064,-0.00048311179447429515,-0.611378882691088
2025-03-05 14:20:07.071,-0.000495954665167749,-0.8888521811684593
2025-03-05 14:20:07.079,-0.0005034292957907482,-1.1642202774743313
2025-03-05 14:20:07.087,-0.000505825791709989,-1.4329340146366445
2025-03-05 14:20:07.095,-0.0005035125405454973,-1.6905607099360045
2025-03-05 14:20:07.103,-0.0004969249939043367,-1.932862585815951
2025-03-05 14:20:07.110,-0.00048655469985272334,-2.155867075772181
2025-03-05 14:20:07.118,-0.00047293921729971513,-2.3559276314573454
2025-03-05 14:20:07.126,-0.00045665318391199415,-2.529774100055126
2025-03-05 14:20:07.134,-0.00043830027014623587,-2.6745522164410924
2025-03-05 14:20:07.142,-0.0004185052828797972,-2.7878522314990426
2025-03-05 14:20:07.149,-0.00039790552389341925,-2.8677271461183897
2025-03-05 14:20:07.157,-0.00037714066965403257,-2.9127014161126517
2025-03-05 14:20:07.165,-0.00035684073286870586,-2.9217713184094385
2025-03-05 14:20:07.173,-0.0003376119386808263,-2.8943984082425813
2025-03-05 14:20:07.181,-0.00032002062230842876,-2.830497637893991
2025-03-05 14:20:07.189,-0.0003045756281362647,-2.7304217393648242
2025-03-05 14:20:07.196,-0.0002917101165079328,-2.594943388567543
2025-03-05 14:20:07.204,-0.0002817639590076611,-2.425236465255236
2025-03-05 14:20:07.212,-0.00027496790131452896,-2.2228574108622148
2025-03-05 14:20:07.220,-0.00027143050540231345,-1.9897272926025829
2025-03-05 14:20:07.228,-0.00027112874124663014,-1.728114747881311
2025-03-05 14:20:07.235,-0.0002739030161167489,-1.4406195533904917
2025-03-05 14:20:07.243,-0.0002794572928691234,-1.1301561763920676
2025-03-05 14:20:07.251,-0.0002873646878336508,-0.7999363510305726
2025-03-05 14:20:07.259,-0.0002970786015335654,-0.4534495055930081
2025-03-05 14:20:07.267,-0.0003079490990333424,-0.09443977056885576
2025-03-05 14:20:07.274,-0.0003192439612281517,0.27312166383008274
2025-03-05 14:20:07.282,-0.00033017358599538325,0.6450699015017701
2025-03-05 14:20:07.290,-0.0003399187342495237,1.017086185050006
2025-03-05 14:20:07.298,-0.0003476599946853049,1.3847446505611791
2025-03-05 14:20:07.306,-0.00035260778516745276,1.7435660108210838
2025-03-05 14:20:07.314,-0.0003540317198395243,2.0890777816736796
2025-03-05 14:20:07.321,-0.0003512882492882339,2.416880294958078
2025-03-05 14:20:07.329,-0.00034384562003769367,2.7227174235958955
2025-03-05 14:20:07.337,-0.00033130536483358646,3.0025506802273343
2025-03-05 14:20:07.345,-0.00031341965476011006,3.252635124473701
2025-03-05 14:20:07.353,-0.00029010387601354393,3.469595308298642
2025-03-05 14:20:07.360,-0.0002614438182871531,3.6504992974823893
2025-03-05 14:20:07.368,-0.00022769702907966002,3.7929286353364353
2025-03-05 14:20:07.376,-0.00018928823723716038,3.895041975657683
2025-03-05 14:20:07.384,-0.00014679912876459922,3.95563002368395
2025-03-05 14:20:07.392,-0.00010095297868350512,3.9741594092632404
2025-03-05 14:20:07.399,-5.2594697730161474e-05,3.9508032017402006
2025-03-05 14:20:07.407,-2.6669289437261722e-06,3.8864559852766445
2025-03-05 14:20:07.415,4.781695239936607e-05,3.7827317607698445
2025-03-05 14:20:07.423,9.780184326639338e-05,3.64194342606787
2025-03-05 14:20:07.431,0.00014622076391905835,3.467063195232475
2025-03-05 14:20:07.439,0.00019202453240724243,3.2616640226136093
2025-03-05 14:20:07.446,0.000234210455626438,3.029842858956341
2025-03-05 14:20:07.454,0.0002718494179773465,2.7761273356220277
2025-03-05 14:20:07.462,0.00030411086526686913,2.5053681963575203
2025-03-05 14:20:07.470,0.0003302852200803358,2.222620425307208
2025-03-05 14:20:07.478,0.0003498032337436369,1.933016518819849
2025-03-05 14:20:07.485,0.00036225171815819265,1.6416356972132922
2025-03-05 14:20:07.493,0.0003673850869700158,1.3533730466979197
2025-03-05 14:20:07.501,0.0003651322206423597,1.0728126278121737
2025-03-05 14:20:07.509,0.0003555982891783584,0.8041084973902446
2025-03-05 14:20:07.517,0.0003390612110038383,0.5508773798425831
2025-03-05 14:20:07.524,0.0003159624366276793,0.3161064023669437
2025-03-05 14:20:07.532,0.0002868919180952438,0.10207888866293645
2025-03-05 14:20:07.540,0.0002525675700294386,-0.0896792995084327
2025-03-05 14:20:07.548,0.00021381009215191234,-0.25843095626682666
2025-03-05 14:20:07.556,0.0001715144355649668,-0.40423496752265153
2025-03-05 14:20:07.564,0.0001266193667883313,-0.5279293588811945
2025-03-05 14:20:07.571,8.007666452611623e-05,-0.631090025901107
2025-03-05 14:20:07.579,3.28215888592399e-05,-0.7159659481048579
2025-03-05 14:20:07.587,-1.425372777172826e-05,-0.7853924338905374
2025-03-05 14:20:07.595,-6.032258493443084e-05,-0.8426846799476732
2025-03-05 14:20:07.603,-0.00010464085787907984,-0.891514631769188
2025-03-05 14:20:07.610,-0.00014655870992191382,-0.9357747806511959
2025-03-05 14:20:07.618,-0.00018552707644196333,-0.9794331056896336
2025-03-05 14:20:07.626,-0.0002210994699086897,-1.0263838396252707
2025-03-05 14:20:07.634,-0.00025292990300245476,-1.0802990737809608
2025-03-05 14:20:07.642,-0.0002807678007314674,-1.1444863894028898
2025-03-05 14:20:07.649,-0.0003044505938172687,-1.221757682508128
2025-03-05 14:20:07.657,-0.0003238943789355571,-1.314314111082912
2025-03-05 14:20:07.665,-0.00033908287628703885,-1.4236516183462047
2025-03-05 14:20:07.673,-0.0003500550616165274,-1.5504907720685224
2025-03-05 14:20:07.681,-0.0003568921573909657,-1.6947337308905832
2025-03-05 14:20:07.689,-0.0003597048656309262,-1.8554500521401918
2025-03-05 14:20:07.696,-0.0003586217016819353,-2.030891856906266
2025-03-05 14:20:07.704,-0.00035377916106167715,-2.2185376397114127
2025-03-05 14:20:07.712,-0.0003453143679050481,-2.4151628242013765
2025-03-05 14:20:07.720,-0.00033336081921052694,-2.6169340893760022
2025-03-05 14:20:07.728,-0.0003180477447143233,-2.81952357987946
2025-03-05 14:20:07.735,-0.00029950335107230345,-3.0182384117175833
2025-03-05 14:20:07.743,-0.000277861816800512,-3.208160417929631
2025-03-05 14:20:07.751,-0.0002532734430357464,-3.3842908581095474
2025-03-05 14:20:07.759,-0.00022591693889199225,-3.541694839286444
2025-03-05 14:20:07.767,-0.00019601248456014062,-3.675640450565266
2025-03-05 14:20:07.774,-0.00016383402272970483,-3.7817280780138662
2025-03-05 14:20:07.782,-0.00012971925891158535,-3.856006010955948
2025-03-05 14:20:07.790,-9.407614832631889e-05,-3.895069241930937
2025-03-05 14:20:07.798,-5.738512769995023e-05,-3.896139259056808
2025-03-05 14:20:07.806,-2.019684374864938e-05,-3.857123582840214
2025-03-05 14:20:07.814,1.687449196455131e-05,-3.776654756012631
2025-03-05 14:20:07.821,5.3161799983249933e-05,-3.654109400277561
2025-03-05 14:20:07.829,8.795960069712968e-05,-3.4896087562261413
2025-03-05 14:20:07.837,0.00012054217675629197,-3.2840027745858267
2025-03-05 14:20:07.845,0.0001501854821109484,-3.038840285886349
2025-03-05 14:20:07.853,0.0001761926689267595,-2.75632800947143
2025-03-05 14:20:07.860,0.00019792259366335183,-2.43928116049583
2025-03-05 14:20:07.868,0.0002148199947879672,-2.0910681918332172
2025-03-05 14:20:07.876,0.0002264454437125693,-1.7155518072362264
2025-03-05 14:20:07.884,0.0002325028711556148,-1.3170278575831662
2025-03-05 14:20:07.892,0.0002328625594936575,-0.9001631457548761
2025-03-05 14:20:07.899,0.00022757789470197266,-0.46993258195900617
2025-03-05 14:20:07.907,0.00021689473000712607,-0.03155561071623666
2025-03-05 14:20:07.915,0.00020125280076973046,0.40956857621484954
2025-03-05 14:20:07.923,0.00018127916230591763,0.8479277837270138
2025-03-05 14:20:07.931,0.00015777401241285594,1.27796634373475
2025-03-05 14:20:07.939,0.00013168945905814655,1.6941581731724151
2025-03-05 14:20:07.946,0.00010410187688022795,2.0910838440914468
2025-03-05 14:20:07.954,7.617861853227016e-05,2.4635117448846775
2025-03-05 14:20:07.962,4.9140085462077824e-05,2.806482888629122
2025-03-05 14:20:07.970,2.421847050354905e-05,3.115398323774451
2025-03-05 14:20:07.978,2.614778230904002e-06,3.38610746948501
2025-03-05 14:20:07.985,-1.4544065508819694e-05,3.6149950852022443
2025-03-05 14:20:07.993,-2.624616918441579e-05,3.7990640524092134
2025-03-05 14:20:08.001,-3.163203359814273e-05,3.9360107613193156
2025-03-05 14:20:08.009,-3.002697143558115e-05,4.024289713546105
2025-03-05 14:20:08.017,-2.0967550795743387e-05,4.063164010819397
2025-03-05 14:20:08.024,-4.2212302712003865e-06,4.052738711442805
2025-03-05 14:20:08.032,2.0201496457876343e-05,3.993974588341663
2025-03-05 14:20:08.040,5.204295931936864e-05,3.888680580042897
2025-03-05 14:20:08.048,9.080246251548971e-05,3.7394841308687417
2025-03-05 14:20:08.056,0.00013574872931206808,3.5497795936083456
2025-03-05 14:20:08.064,0.00018594029437806747,3.323655835432001
2025-03-05 14:20:08.071,0.0002402530944858944,3.065805069879957
2025-03-05 14:20:08.079,0.0002974140951699636,2.781415671325277
2025-03-05 14:20:08.087,0.00035603947628487005,2.4760522687781594
2025-03-05 14:20:08.095,0.000414675800716646,2.155526743951042
2025-03-05 14:20:08.103,0.00047184267890856596,1.8257638840393837
2025-03-05 14:20:08.110,0.0005260755221110101,1.4926653973606199
2025-03-05 14:20:08.118,0.0005759669262166167,1.1619758376455283
2025-03-05 14:20:08.126,0.0006202051658934602,0.8391537482249598
2025-03-05 14:20:08.134,0.0006576083979754548,0.5292510689505732
2025-03-05 14:20:08.142,0.000687153500174705,0.23680357190950085
2025-03-05 14:20:08.149,0.0007079988868367995,-0.0342651797255666
2025-03-05 14:20:08.157,0.0007195010372666899,-0.2807241195367083
2025-03-05 14:20:08.165,0.0007212248003300482,-0.5000972466436407
2025-03-05 14:20:08.173,0.0007129477936361851,-0.6907067905857399
2025-03-05 14:20:08.181,0.0006946593976699961,-0.851695606143831
2025-03-05 14:20:08.189,0.000666554959052015,-0.9830278110753138
2025-03-05 14:20:08.196,0.0006290258697518164,-1.0854671391632247
2025-03-05 14:20:08.204,0.0005826461899073998,-1.1605330321754743
2025-03-05 14:20:08.212,0.0005281564419371453,-1.2104351345032827
2025-03-05 14:20:08.220,0.0004664451349612335,-1.2379875634008046
2025-03-05 14:20:08.228,0.00039852849370642794,-1.2465050709507672
2025-03-05 14:20:08.235,0.00032552877740969836,-1.2396839473258567
2025-03-05 14:20:08.243,0.0002486514933644202,-1.2214711920928283
2025-03-05 14:20:08.251,0.00016916174697840052,-1.1959260562447571
2025-03-05 14:20:08.259,8.835993408241738e-05,-1.1670784922723154
2025-03-05 14:20:08.267,7.5569781287667724e-06,-1.1387893109599558
2025-03-05 14:20:08.275,-7.195065122701482e-05,-1.114616909440695
2025-03-05 14:20:08.282,-0.00014890582961519787,-1.0976952923871013
2025-03-05 14:20:08.290,-0.00022211516224767195,-1.090627753793108
2025-03-05 14:20:08.298,-0.000290472308048239,-1.0954000293662554
2025-03-05 14:20:08.306,-0.0003529795668830497,-1.1133159920171776
2025-03-05 14:20:08.314,-0.0004087670187494069,-1.144958081733452
2025-03-05 14:20:08.321,-0.00045710860716220237,-1.1901736816518118
2025-03-05 14:20:08.329,-0.0004974347318036887,-1.2480876223891568
2025-03-05 14:20:08.337,-0.0005293410396083868,-1.3171399638745862
2025-03-05 14:20:08.345,-0.0005525931762800249,-1.3951472155699134
2025-03-05 14:20:08.353,-0.0005671273732802543,-1.4793842602555012
2025-03-05 14:20:08.360,-0.0005730469033164649,-1.5666834870786333
2025-03-05 14:20:08.368,-0.0005706145578428033,-1.6535470480928345
2025-03-05 14:20:08.376,-0.0005602413881399895,-1.7362677478717672
2025-03-05 14:20:08.384,-0.0005424720993080816,-1.8110538692209923
2025-03-05 14:20:08.392,-0.0005179676923537694,-1.8741532367805795
2025-03-05 14:20:08.400,-0.00048748609643822137,-1.9219720245321923
2025-03-05 14:20:08.407,-0.0004518615541685377,-1.9511842110472524
2025-03-05 14:20:08.415,-0.000411983467249683,-1.9588281529484797
2025-03-05 14:20:08.423,-0.000368775356418518,-1.9423874475628136
2025-03-05 14:20:08.431,-0.00032317457820899654,-1.8998540492791323
2025-03-05 14:20:08.439,-0.00027611347661344736,-1.8297724481377815
2025-03-05 14:20:08.446,-0.0002285026943832338,-1.7312645719436572
2025-03-05 14:20:08.454,-0.00018121731944540674,-1.6040358939330561
2025-03-05 14:20:08.462,-0.00013508625466461841,-1.4483639765350702
2025-03-05 14:20:08.470,-9.088464754287547e-05,-1.2650713205579367
2025-03-05 14:20:08.478,-4.932860352133391e-05,-1.0554848886253276
2025-03-05 14:20:08.485,-1.1071049866079876e-05,-0.8213850155864492
2025-03-05 14:20:08.493,2.3302326487229658e-05,-0.5649466052470352
2025-03-05 14:20:08.501,5.327781828364465e-05,-0.2886755512115778
2025-03-05 14:20:08.509,7.84195438529673e-05,0.0046567755152480215
2025-03-05 14:20:08.517,9.837660652579126e-05,0.31207834019779535
2025-03-05 14:20:08.525,0.00011289151285529243,0.6304782307748745
2025-03-05 14:20:08.532,0.0001218093947811514,0.9566634569465361
2025-03-05 14:20:08.540,0.00012508717958033968,1.2874092074938752
2025-03-05 14:20:08.548,0.0001228016567353742,1.6195014344829444
2025-03-05 14:20:08.556,0.0001151554419827023,1.9497710678838833
2025-03-05 14:20:08.564,0.00010248002650571861,2.2751196152326574
2025-03-05 14:20:08.571,8.523532011752108e-05,2.592536370528785
2025-03-05 14:20:08.579,6.400531140797744e-05,2.8991079329436333
2025-03-05 14:20:08.587,3.948966792658494e-05,3.1920211916172474
2025-03-05 14:20:08.595,1.2491284137569006e-05,3.4685613330353653
2025-03-05 14:20:08.603,-1.6100046943377894e-05,3.726106741694898
2025-03-05 14:20:08.610,-4.5327511738635227e-05,3.962122873588833
2025-03-05 14:20:08.618,-7.41902445406308e-05,4.174157275998121
2025-03-05 14:20:08.626,-0.00010166881404550845,4.359837900136908
2025-03-05 14:20:08.634,-0.0001267525631216274,4.516876698224202
2025-03-05 14:20:08.642,-0.00014846806666767785,4.643080208129883
2025-03-05 14:20:08.650,-0.00016590792634606195,4.7363684101960155
2025-03-05 14:20:08.657,-0.00017825910139734715,4.794802608033014
2025-03-05 14:20:08.665,-0.00018482998417289245,4.816622464887866
2025-03-05 14:20:08.673,-0.00018507546473958323,4.800291654089143
2025-03-05 14:20:08.681,-0.00017861926153455956,4.74455089554363
2025-03-05 14:20:08.689,-0.0001652727589061853,4.648476491699459
2025-03-05 14:20:08.696,-0.00014504945238420937,4.511541885217914
2025-03-05 14:20:08.704,-0.00011817394666091506,4.333679270826407
2025-03-05 14:20:08.712,-8.508444409247268e-05,4.115337933022981
2025-03-05 14:20:08.720,-4.642788733290063e-05,3.8575357721745083
2025-03-05 14:20:08.728,-3.0473306883631454e-06,3.561900444626204
2025-03-05 14:20:08.735,4.4038397638048384e-05,3.230696697037217
2025-03-05 14:20:08.743,9.366222780180892e-05,2.866836836811978
2025-03-05 14:20:08.751,0.00014454270580742534,2.473871855386203
2025-03-05 14:20:08.759,0.00019532301328104755,2.055961499070728
2025-03-05 14:20:08.767,0.0002446136837894949,1.6178225302130502
2025-03-05 14:20:08.775,0.0002910372505258581,1.1646554810392404
2025-03-05 14:20:08.782,0.00033327284806783635,0.7020512935277415
2025-03-05 14:20:08.790,0.00037009874346537446,0.2358802715204701
2025-03-05 14:20:08.798,0.0004004309246689139,-0.22783333571838826
2025-03-05 14:20:08.806,0.0004233561981486693,-0.6830471045036619
2025-03-05 14:20:08.814,0.00043815865509280613,-1.1238420784504313
2025-03-05 14:20:08.821,0.0004443387733829682,-1.5445655482283975
2025-03-05 14:20:08.829,0.0004416247916973494,-1.9399701830075227
2025-03-05 14:20:08.837,0.0004299763132312277,-2.305344833343983
2025-03-05 14:20:08.845,0.0004095803684110212,-2.6366325575436416
2025-03-05 14:20:08.853,0.0003808403897900399,-2.930531759336795
2025-03-05 14:20:08.860,0.00034435873125108064,-3.1845767580149396
2025-03-05 14:20:08.868,0.0003009135024665658,-3.3971946541720515
2025-03-05 14:20:08.876,0.0002514305941241523,-3.567736025136624
2025-03-05 14:20:08.884,0.00019695184614234405,-3.6964777985068777
2025-03-05 14:20:08.892,0.00013860036650589083,-3.7845976041780305
2025-03-05 14:20:08.900,7.754404862381553e-05,-3.8341199638712924
2025-03-05 14:20:08.907,1.4958365680164914e-05,-3.8478357922522237
2025-03-05 14:20:08.915,-4.801045435573264e-05,-3.829197796254877
2025-03-05 14:20:08.923,-0.00011028074658445972,-3.7821954079005486
2025-03-05 14:20:08.931,-0.00017086807154965112,-3.711213809203917
2025-03-05 14:20:08.939,-0.00022891405300725037,-3.6208823465613365
2025-03-05 14:20:08.946,-0.000283710204062701,-3.515918134971663
2025-03-05 14:20:08.954,-0.0003347155482506259,-3.4009708817892648
2025-03-05 14:20:08.962,-0.00038156688916520095,-3.280474895042419
2025-03-05 14:20:08.970,-0.0004240807883131733,-3.158513881762902
2025-03-05 14:20:08.978,-0.00046224678720255795,-3.038703506898025
2025-03-05 14:20:08.985,-0.0004962121129330062,-2.92409581210851
2025-03-05 14:20:08.993,-0.0005262587971520573,-2.817108539750545
2025-03-05 14:20:09.001,-0.0005527746039991035,-2.7194812325197995
2025-03-05 14:20:09.009,-0.0005762194305329221,-2.6322587483200897
2025-03-05 14:20:09.017,-0.0005970890651053406,-2.5558016082221706
2025-03-05 14:20:09.025,-0.0006158783891096004,-2.4898214481135854
2025-03-05 14:20:09.032,-0.0006330461694158239,-2.4334388332138106
2025-03-05 14:20:09.040,-0.0006489834433613515,-2.3852598693735474
2025-03-05 14:20:09.048,-0.0006639871954179618,-2.343467440732396
2025-03-05 14:20:09.056,-0.000678240646183775,-2.305922541044187
2025-03-05 14:20:09.064,-0.0006918010658362759,-2.270271056046895
2025-03-05 14:20:09.071,-0.0007045956046126057,-2.234051492787652
2025-03-05 14:20:09.079,-0.0007164252155306884,-2.1947995146637242
2025-03-05 14:20:09.087,-0.0007269763421805928,-2.1501456821700695
2025-03-05 14:20:09.095,-0.0007358396690658892,-2.097903457588317
2025-03-05 14:20:09.103,-0.0007425348949027155,-2.036145241822594
2025-03-05 14:20:09.110,-0.0007465402007843399,-1.9632649159288078
2025-03-05 14:20:09.118,-0.000747324854416822,-1.8780260170047445
2025-03-05 14:20:09.126,-0.0007443832267618693,-1.7795952631732923
2025-03-05 14:20:09.134,-0.0007372684051020423,-1.6675616429391875
2025-03-05 14:20:09.142,-0.0007256235720294925,-1.541941696010465
2025-03-05 14:20:09.150,-0.0007092093868041397,-1.4031719390978639
2025-03-05 14:20:09.157,-0.0006879257558171714,-1.2520896416903002
2025-03-05 14:20:09.165,-0.0006618266124889422,-1.0899033469729613
2025-03-05 14:20:09.173,-0.0006311266416947451,-0.9181546736298765
2025-03-05 14:20:09.181,-0.0005961992753752512,-0.7386730325724591
2025-03-05 14:20:09.189,-0.0005575657476104493,-0.5535249508123092
2025-03-05 14:20:09.196,-0.0005158755145534388,-0.3649597098526451
2025-03-05 14:20:09.204,-0.00047187887357151803,-0.1753529732117307
2025-03-05 14:20:09.212,-0.0004263930745571024,0.012850004836695704
2025-03-05 14:20:09.220,-0.00038026355119375973,0.19719012598421543
2025-03-05 14:20:09.228,-0.0003343221738190042,0.3752478539613944
2025-03-05 14:20:09.235,-0.00028934474498463976,0.5446931781207978
2025-03-05 14:20:09.243,-0.0002460102819753901,0.7033312382277515
2025-03-05 14:20:09.251,-0.00020486475241263477,0.849142912485
2025-03-05 14:20:09.259,-0.00016629169877083479,0.9803198467030302
2025-03-05 14:20:09.267,-0.0001304916539021233,1.0952935506765573
2025-03-05 14:20:09.275,-9.74715732911618e-05,1.1927583145380403
2025-03-05 14:20:09.282,-6.704481812592007e-05,1.2716878162194067
2025-03-05 14:20:09.290,-3.884157357494123e-05,1.3313454146869135
2025-03-05 14:20:09.298,-1.2329001749970613e-05,1.3712882632926209
2025-03-05 14:20:09.306,1.3160076360555909e-05,1.391365541252079
2025-03-05 14:20:09.314,3.839158886767776e-05,1.3917112918881849
2025-03-05 14:20:09.321,6.418964123970281e-05,1.3727325679781037
2025-03-05 14:20:09.329,9.139309804944315e-05,1.3350937981597086
2025-03-05 14:20:09.337,0.00012081154126800755,1.2796984706567587
2025-03-05 14:20:09.345,0.00015318280331796908,1.2076693405226566
2025-03-05 14:20:09.353,0.00018913413444849166,1.1203283682101515
2025-03-05 14:20:09.360,0.0002291488149935543,1.0191774730812826
2025-03-05 14:20:09.368,0.0002735396697187824,0.9058809432747164
2025-03-05 14:20:09.376,0.00032243049226807837,0.7822500131687518
2025-03-05 14:20:09.384,0.00037574585905661727,0.6502297425232352
2025-03-05 14:20:09.392,0.00043320925459751683,0.5118879453227614
2025-03-05 14:20:09.400,0.0004943489599759189,0.3694055483626103
2025-03-05 14:20:09.407,0.0005585109013478399,0.22506742807319025
2025-03-05 14:20:09.415,0.0006248776180757805,0.08125249637851295
2025-03-05 14:20:09.423,0.0006924925343916444,-0.05957839793093317
2025-03-05 14:20:09.431,0.0007602886520958795,-0.19489829786224305
2025-03-05 14:20:09.439,0.000827120622071413,-0.32213524537497984
2025-03-05 14:20:09.446,0.0008917990142391731,-0.4387000928050266
2025-03-05 14:20:09.454,0.0009531255937811053,-0.5420221818961366
2025-03-05 14:20:09.462,0.0010099285307647431,-0.6295936474164062
2025-03-05 14:20:09.470,0.0010610966414253422,-0.6990225647572162
2025-03-05 14:20:09.478,0.0011056119025426763,-0.7480945206072596
2025-03-05 14:20:09.485,0.0011425795613903271,-0.7748414793540688
2025-03-05 14:20:09.493,0.001171255179169976,-0.7776160833531718
2025-03-05 14:20:09.501,0.0011910679015286316,-0.7551688019341019
2025-03-05 14:20:09.509,0.0012016391605527597,-0.7067246763712582
2025-03-05 14:20:09.517,0.0012027959231860903,-0.6320558472348516
2025-03-05 14:20:09.525,0.0011945775946238084,-0.5315456518285212
2025-03-05 14:20:09.532,0.0011772358214155567,-0.40623989734745175
2025-03-05 14:20:09.540,0.0011512266866128204,-0.2578809982009927
2025-03-05 14:20:09.548,0.0011171951025868588,-0.08892104738621699
2025-03-05 14:20:09.556,0.0010759516292063963,0.09748942012276444
2025-03-05 14:20:09.564,0.001028442514533986,0.29753924575096724
2025-03-05 14:20:09.571,0.0009757143755643294,0.5068221323296211
2025-03-05 14:20:09.579,0.0009188754438531761,0.7204295512678118
2025-03-05 14:20:09.587,0.0008590555825109415,0.9330694430198879
2025-03-05 14:20:09.595,0.0007973672957708623,1.139207722047521
2025-03-05 14:20:09.603,0.0007348697318649668,1.3332283316264102
2025-03-05 14:20:09.610,0.0006725373167294768,1.509606481599149
2025-03-05 14:20:09.618,0.0006112342407905035,1.6630887944772417
2025-03-05 14:20:09.626,0.0005516956016711322,1.7888734283092294
2025-03-05 14:20:09.634,0.0004945156017342098,1.8827828847018484
2025-03-05 14:20:09.642,0.0004401428232453655,1.9414221936673772
2025-03-05 14:20:09.650,0.0003888822658209774,1.962315530391294
2025-03-05 14:20:09.657,0.0003409035387529259,1.9440150743405251
2025-03-05 14:20:09.665,0.00029625436063429047,1.8861770436711123
2025-03-05 14:20:09.673,0.0002548783341866827,1.7896012650193764
2025-03-05 14:20:09.681,0.00021663583704154558,1.6562322771416433
2025-03-05 14:20:09.689,0.0001813267993285137,1.4891217047038732
2025-03-05 14:20:09.696,0.00014871412447149465,1.2923533590563314
2025-03-05 14:20:09.704,0.00011854654730814188,1.0709341165423192
2025-03-05 14:20:09.712,9.05798089833953e-05,0.8306549997090044
2025-03-05 14:20:09.720,6.459515541789997e-05,0.5779279747154449
2025-03-05 14:20:09.728,4.041432906133288e-05,0.3196047366021148
2025-03-05 14:20:09.735,1.791041499908798e-05,0.06278416424395765
2025-03-05 14:20:09.743,-2.985885289677352e-06,-0.1853848052240676
2025-03-05 14:20:09.751,-2.228475399730614e-05,-0.41789837531603097
2025-03-05 14:20:09.759,-3.994050213402444e-05,-0.6280851560813442
2025-03-05 14:20:09.767,-5.585930380054321e-05,-0.8097801877181561
2025-03-05 14:20:09.775,-6.991094726180427e-05,-0.9574812443672239
2025-03-05 14:20:09.782,-8.194393251727585e-05,-1.0664838491755588
2025-03-05 14:20:09.790,-9.180307260013791e-05,-1.1329923631736107
2025-03-05 14:20:09.798,-9.934861546267033e-05,-1.1542054138284707
2025-03-05 14:20:09.806,-0.00010447580090173003,-1.1283747589485495
2025-03-05 14:20:09.814,-0.00010713370760503904,-1.0548374041596216
2025-03-05 14:20:09.821,-0.00010734223314991309,-0.9340213917690494
2025-03-05 14:20:09.829,-0.00010520608764837552,-0.7674261591569254
2025-03-05 14:20:09.837,-0.00010092477144672601,-0.5575787434680556
2025-03-05 14:20:09.845,-9.479764921209464e-05,-0.307967410112983
2025-03-05 14:20:09.853,-8.722342572626194e-05,-0.022954529826604536
2025-03-05 14:20:09.860,-7.86935699999243e-05,0.29232925453910746
2025-03-05 14:20:09.868,-6.977951946992555e-05,0.63210732315995
2025-03-05 14:20:09.876,-6.111381886349541e-05,0.990093367634497
2025-03-05 14:20:09.884,-5.3365700885398196e-05,1.3596389475235855
2025-03-05 14:20:09.892,-4.721198859579784e-05,1.7338892817733451
2025-03-05 14:20:09.900,-4.330458100716659e-05,2.1059438852624885
2025-03-05 14:20:09.907,-4.223615607425043e-05,2.4690182845106
2025-03-05 14:20:09.915,-4.450604315371478e-05,2.816602698735
2025-03-05 14:20:09.923,-5.048839219546362e-05,3.142613308085549
2025-03-05 14:20:09.931,-6.040471544730881e-05,3.4415316029896186
2025-03-05 14:20:09.939,-7.430260314957362e-05,3.70852736425374
2025-03-05 14:20:09.946,-9.20420252367437e-05,3.939561100670208
2025-03-05 14:20:09.954,-0.00011329025343869909,4.131462289980097
2025-03-05 14:20:09.962,-0.00013752611204553036,4.281980525097522
2025-03-05 14:20:09.970,-0.00016405392598648914,4.389807627344738
2025-03-05 14:20:09.978,-0.00019202711165042696,4.454569897103909
2025-03-05 14:20:09.985,-0.00022048085204047445,4.476790864727203
2025-03-05 14:20:09.993,-0.00024837274155945936,4.4578261156509145
2025-03-05 14:20:10.001,-0.00027462968131986075,4.399772931384555
2025-03-05 14:20:10.009,-0.0002981987092900351,4.305358552801535
2025-03-05 14:20:10.017,-0.0003180990255283997,4.177811778730969
2025-03-05 14:20:10.025,-0.000333472354422178,4.020723315373323
2025-03-05 14:20:10.032,-0.0003436289089836017,3.8379007576516706
2025-03-05 14:20:10.040,-0.00034808642433125313,3.6332242922839595
2025-03-05 14:20:10.048,-0.00034659997933459617,3.4105091546025403
2025-03-05 14:20:10.056,-0.00033918073754743693,3.173380545603795
2025-03-05 14:20:10.064,-0.0003261023687660901,2.925166128891849
2025-03-05 14:20:10.071,-0.00030789467190847186,2.6688103952585083
2025-03-05 14:20:10.079,-0.00028532465091022545,2.40681413381101
2025-03-05 14:20:10.087,-0.0002593659062408348,2.1412010237962025
2025-03-05 14:20:10.095,-0.0002311577476116926,1.8735120124944493
2025-03-05 14:20:10.103,-0.00020195601066608942,1.6048267323209209
2025-03-05 14:20:10.110,-0.00017307812642315112,1.3358098037495048
2025-03-05 14:20:10.118,-0.00014584534442295546,1.0667785487141734
2025-03-05 14:20:10.126,-0.00012152502750951577,0.7977874881758242
2025-03-05 14:20:10.134,-0.0001012757325424723,0.5287241035161901
2025-03-05 14:20:10.142,-8.609756269700364e-05,0.25940977707762536
2025-03-05 14:20:10.150,-7.679006178728558e-05,-0.010300360375734013
2025-03-05 14:20:10.157,-7.391960973008678e-05,-0.2804247444475763
2025-03-05 14:20:10.165,-7.779780578465895e-05,-0.5507753504118543
2025-03-05 14:20:10.173,-8.847174459099211e-05,-0.8208949288440767
2025-03-05 14:20:10.181,-0.00010572648095956464,-1.090014966778082
2025-03-05 14:20:10.189,-0.0001290993870724712,-1.3570365319149778
2025-03-05 14:20:10.196,-0.0001579055465420799,-1.6205347725177557
2025-03-05 14:20:10.204,-0.00019127281338849025,-1.878786463172174
2025-03-05 14:20:10.212,-0.0002281846991634815,-2.129818682690148
2025-03-05 14:20:10.220,-0.0002675288460311592,-2.3714755574500668
2025-03-05 14:20:10.228,-0.0003081485101367681,-2.601499066924335
2025-03-05 14:20:10.235,-0.0003488942619489888,-2.8176192367311357
2025-03-05 14:20:10.243,-0.0003886731144418234,-3.0176486622843495
2025-03-05 14:20:10.251,-0.00042649262639435847,-3.199576213585455
