Timestamp,GSR_Filtered,PPG_Filtered,FMSQ
2025-03-05 14:24:58.313,-0.0030076222025877,-1.89840074892421,7
2025-03-05 14:24:58.321,-0.0029817887833451,-1.5962778361751322,7
2025-03-05 14:24:58.329,-0.0029531413098287,-1.2934730942386934,7
2025-03-05 14:24:58.337,-0.0029216392034082,-0.9967155349943568,7
2025-03-05 14:24:58.345,-0.0028872459784712,-0.7127087154693632,7
2025-03-05 14:24:58.352,-0.0028499301522705,-0.4479623187681312,7
2025-03-05 14:24:58.360,-0.0028096661253412,-0.2086255533280182,7
2025-03-05 14:24:58.368,-0.0027664350084087,-0.0003270486859249,7
2025-03-05 14:24:58.376,-0.0027202253690258,0.1719739787091105,7
2025-03-05 14:24:58.384,-0.0026710338690024,0.3041206092873298,7
2025-03-05 14:24:58.391,-0.0026188657622815,0.3928707653372409,7
2025-03-05 14:24:58.399,-0.0025637352225222,0.4359855130795192,7
2025-03-05 14:24:58.407,-0.0025056654705035,0.432289877516595,7
2025-03-05 14:24:58.415,-0.0024446886737592,0.3817037394092466,7
2025-03-05 14:24:58.423,-0.0023808455947451,0.2852413294528781,7
2025-03-05 14:24:58.431,-0.002314184969421,0.1449788912202239,7
2025-03-05 14:24:58.438,-0.0022447626054127,-0.036008773877765,7
2025-03-05 14:24:58.446,-0.0021726401978561,-0.2537409773293493,7
2025-03-05 14:24:58.454,-0.0020978838714541,-0.503449946106414,7
2025-03-05 14:24:58.462,-0.0020205624689696,-0.7797215696609635,7
2025-03-05 14:24:58.470,-0.0019407456190023,-1.0766529581606883,7
2025-03-05 14:24:58.477,-0.0018585016290198,-1.3880209688882243,7
2025-03-05 14:24:58.485,-0.0017738952627623,-1.7074554453402038,7
2025-03-05 14:24:58.493,-0.0016869854737132,-2.028610831670641,7
2025-03-05 14:24:58.501,-0.0015978231777396,-2.345330073071876,7
2025-03-05 14:24:58.509,-0.0015064491575776,-2.651795259994622,7
2025-03-05 14:24:58.517,-0.0014128921989259,-2.9426602702357587,7
2025-03-05 14:24:58.524,-0.0013171675618779,-3.213161647832974,7
2025-03-05 14:24:58.532,-0.0012192758916715,-3.459205068129259,7
2025-03-05 14:24:58.540,-0.0011192026687709,-3.677425909231465,7
2025-03-05 14:24:58.548,-0.001016918289716,-3.865223616406625,7
2025-03-05 14:24:58.556,-0.0009123788567404,-4.020770648512044,7
2025-03-05 14:24:58.563,-0.0008055277357801,-4.142997785767424,7
2025-03-05 14:24:58.571,-0.0006962979193084,-4.231558417063459,7
2025-03-05 14:24:58.579,-0.0005846152027618,-4.286775079013773,7
2025-03-05 14:24:58.587,-0.0004704021517412,-4.309571960234953,7
2025-03-05 14:24:58.595,-0.0003535828024865,-4.3013972969923095,7
2025-03-05 14:24:58.602,-0.0002340880013602,-4.264139572496797,7
2025-03-05 14:24:58.610,-0.0001118612514936,-4.20004121169818,7
2025-03-05 14:24:58.618,1.313510220672098e-05,-4.111613068004261,7
2025-03-05 14:24:58.626,0.0001409135532299,-4.0015524645186025,7
2025-03-05 14:24:58.634,0.0002714552131349,-3.872666919400272,7
2025-03-05 14:24:58.642,0.000404703950142,-3.7278049975012753,7
2025-03-05 14:24:58.649,0.0005405611636797,-3.5697950405115795,7
2025-03-05 14:24:58.657,0.0006788814804215,-3.401391889248608,7
2025-03-05 14:24:58.665,0.0008194696552191,-3.225231169089789,7
2025-03-05 14:24:58.673,0.0009620789463275,-3.04379029150833,7
2025-03-05 14:24:58.681,0.0011064112075204,-2.859355046117316,7
2025-03-05 14:24:58.688,0.0012521188995964,-2.6739905252562077,7
2025-03-05 14:24:58.696,0.0013988091703761,-2.4895151394174384,7
2025-03-05 14:24:58.704,0.0015460500861179,-2.3074766473739188,7
2025-03-05 14:24:58.712,0.0016933790194819,-2.12912943730257,7
2025-03-05 14:24:58.720,0.0018403131115048,-1.955412740627444,7
2025-03-05 14:24:58.727,0.0019863616299371,-1.78693000318704,7
2025-03-05 14:24:58.735,0.0021310399467512,-1.6239302196152132,7
2025-03-05 14:24:58.743,0.0022738847572792,-1.4662925830482345,7
2025-03-05 14:24:58.751,0.0024144700663849,-1.3135162396143876,7
2025-03-05 14:24:58.759,0.0025524233778448,-1.1647172057078423,7
2025-03-05 14:24:58.767,0.0026874414464931,-1.0186345713497036,7
2025-03-05 14:24:58.774,0.0028193048935762,-0.8736479689669866,7
2025-03-05 14:24:58.782,0.0029478909490068,-0.7278079478855287,7
2025-03-05 14:24:58.790,0.0030731835743448,-0.5788803843954111,7
2025-03-05 14:24:58.798,0.0031952802414402,-0.4244054047531717,7
2025-03-05 14:24:58.806,0.0033143946970803,-0.2617705406148185,7
2025-03-05 14:24:58.813,0.0034308551360938,-0.0882970168894849,7
2025-03-05 14:24:58.821,0.0035450973353984,0.0986627621871844,7
2025-03-05 14:24:58.829,0.0036576524693217,0.3016192657895105,7
2025-03-05 14:24:58.837,0.0037691295305128,0.522834893047097,7
2025-03-05 14:24:58.845,0.0038801925175953,0.7642121090924955,7
2025-03-05 14:24:58.852,0.00399153281536,1.0271851856362348,7
2025-03-05 14:24:58.860,0.0041038374789694,1.312620313053676,7
2025-03-05 14:24:58.868,0.0042177544318762,1.620728843276484,7
2025-03-05 14:24:58.876,0.0043338558878948,1.9509981385894,7
2025-03-05 14:24:58.884,0.0044526015996653,2.302143940507708,7
2025-03-05 14:24:58.892,0.0045743038060978,2.672087362859725,7
2025-03-05 14:24:58.899,0.0046990959869779,3.057958600508394,7
2025-03-05 14:24:58.907,0.0048269077201364,3.4561282862887315,7
2025-03-05 14:24:58.915,0.0049574480432625,3.862266187928965,7
2025-03-05 14:24:58.923,0.0050901996244111,4.271425686507159,7
2025-03-05 14:24:58.931,0.0052244254940599,4.6781512973686095,7
2025-03-05 14:24:58.938,0.0053591889489436,5.0766054637870415,7
2025-03-05 14:24:58.946,0.0054933857994676,5.460710046284359,7
2025-03-05 14:24:58.954,0.0056257869673449,5.8242974005844745,7
2025-03-05 14:24:58.962,0.0057550888456198,6.161265709137858,7
2025-03-05 14:24:58.970,0.0058799686746355,6.465733297621962,7
2025-03-05 14:24:58.977,0.0059991422213236,6.732186996008166,7
2025-03-05 14:24:58.985,0.0061114211575776,6.955620144396087,7
2025-03-05 14:24:58.993,0.0062157676915853,7.131656538098822,7
2025-03-05 14:24:59.001,0.0063113442081843,7.256657392136395,7
2025-03-05 14:24:59.009,0.0063975559155224,7.327809221757453,7
2025-03-05 14:24:59.017,0.0064740847710955,7.343191327517799,7
2025-03-05 14:24:59.024,0.0065409132666144,7.301822294012173,7
2025-03-05 14:24:59.032,0.0065983369844495,7.203685526202342,7
2025-03-05 14:24:59.040,0.0066469651950261,7.049734336657452,7
2025-03-05 14:24:59.048,0.0066877091406656,6.841877455378569,7
2025-03-05 14:24:59.056,0.0067217580426781,6.582946068423331,7
2025-03-05 14:24:59.063,0.0067505432698383,6.276643620750963,7
2025-03-05 14:24:59.071,0.0067756915114885,5.927479669939011,7
2025-03-05 14:24:59.079,0.0067989681998106,5.540689082763497,7
2025-03-05 14:24:59.087,0.0068222128142318,5.122137857945615,7
2025-03-05 14:24:59.095,0.0068472680658395,4.678216864313158,7
2025-03-05 14:24:59.102,0.0068759052889301,4.215724830474048,7
2025-03-05 14:24:59.110,0.0069097486468903,3.741742036220831,7
2025-03-05 14:24:59.118,0.0069502009759337,3.2634963622342053,7
2025-03-05 14:24:59.126,0.006998374227545,2.7882236682593886,7
2025-03-05 14:24:59.134,0.0070550275134702,2.323024884760273,7
2025-03-05 14:24:59.142,0.0071205156909279,1.8747226858247883,7
2025-03-05 14:24:59.149,0.0071947512368693,1.4497211035744133,7
2025-03-05 14:24:59.157,0.0072771818371648,1.053871872467408,7
2025-03-05 14:24:59.165,0.0073667856510883,0.6923515781220431,7
2025-03-05 14:24:59.173,0.0074620855987501,0.3695537612431909,7
2025-03-05 14:24:59.181,0.0075611832592231,0.0889999451800451,7
2025-03-05 14:24:59.188,0.0076618120654055,-0.1467269020242221,7
2025-03-05 14:24:59.196,0.007761408449603,-0.3360236758672607,7
2025-03-05 14:24:59.204,0.0078571984680172,-0.4782813426728231,7
2025-03-05 14:24:59.212,0.0079462963488204,-0.5738712379598496,7
2025-03-05 14:24:59.220,0.0080258106356437,-0.6241037790261539,7
2025-03-05 14:24:59.227,0.0080929533026124,-0.631161053233296,7
2025-03-05 14:24:59.235,0.008145147158221,-0.5980058412906939,7
2025-03-05 14:24:59.243,0.008180126639063,-0.5282706478892366,7
2025-03-05 14:24:59.251,0.0081960268424018,-0.4261311887688855,7
2025-03-05 14:24:59.259,0.0081914560289226,-0.2961694620654598,7
2025-03-05 14:24:59.267,0.0081655482131674,-0.1432319491669058,7
2025-03-05 14:24:59.274,0.0081179943044977,0.027711403464954,7
2025-03-05 14:24:59.282,0.0080490516138587,0.2117019963630039,7
2025-03-05 14:24:59.290,0.0079595320874675,0.4039163026061121,7
2025-03-05 14:24:59.298,0.0078507699094027,0.5997744430064913,7
2025-03-05 14:24:59.306,0.0077245696644494,0.7950305653416428,7
2025-03-05 14:24:59.313,0.0075831370130563,0.9858431171476242,7
2025-03-05 14:24:59.321,0.0074289945476317,1.168824261815982,7
2025-03-05 14:24:59.329,0.0072648860681143,1.341068785087311,7
2025-03-05 14:24:59.337,0.0070936727946978,1.5001638026062445,7
2025-03-05 14:24:59.345,0.0069182248757111,1.6441813645188013,7
2025-03-05 14:24:59.352,0.0067413110916313,1.7716566425871998,7
2025-03-05 14:24:59.360,0.0065654893326022,1.8815547817918865,7
2025-03-05 14:24:59.368,0.0063930006016181,1.973229715154591,7
2025-03-05 14:24:59.376,0.0062256699546242,2.0463782909709285,7
2025-03-05 14:24:59.384,0.0060648185208654,2.100992952965018,7
2025-03-05 14:24:59.392,0.0059111910026234,2.1373159470771834,7
2025-03-05 14:24:59.399,0.0057649025414359,2.155797603586217,7
2025-03-05 14:24:59.407,0.0056254077976268,2.1570606665534253,7
2025-03-05 14:24:59.415,0.0054914940591493,2.1418719353524907,7
2025-03-05 14:24:59.423,0.0053612994476215,2.111121686302545,7
2025-03-05 14:24:59.431,0.0052323566734789,2.0658105160585687,7
2025-03-05 14:24:59.438,0.0051016620588111,2.0070424648368075,7
2025-03-05 14:24:59.446,0.0049657685822336,1.9360226116935388,7
2025-03-05 14:24:59.454,0.0048209005146412,1.854056851005259,7
2025-03-05 14:24:59.462,0.0046630859411504,1.7625513020752226,7
2025-03-05 14:24:59.470,0.0044883023744132,1.6630087873137445,7
2025-03-05 14:24:59.477,0.0042926299520284,1.557020028907126,7
2025-03-05 14:24:59.485,0.0040724062433019,1.4462476337227648,7
2025-03-05 14:24:59.493,0.003824376219962,1.3324015258866555,7
2025-03-05 14:24:59.501,0.0035458305107082,1.2172052001863742,7
2025-03-05 14:24:59.509,0.0032347249483474,1.1023529509033592,7
2025-03-05 14:24:59.517,0.0028897748938041,0.9894590207405336,7
2025-03-05 14:24:59.524,0.0025105189990394,0.8800003634201774,7
2025-03-05 14:24:59.532,0.0020973488387277,0.7752553865927096,7
2025-03-05 14:24:59.540,0.0016515028805459,0.6762416147980158,7
2025-03-05 14:24:59.548,0.0011750252691505,0.583655663418725,7
2025-03-05 14:24:59.556,0.0006706917145223,0.4978192173217969,7
2025-03-05 14:24:59.563,0.0001419063468881,0.4186348282105219,7
2025-03-05 14:24:59.571,-0.0004074253005552,0.34555524598755,7
2025-03-05 14:24:59.579,-0.0009730410149655,0.2775696547245986,7
2025-03-05 14:24:59.587,-0.0015504774715503,0.2132095872039522,7
2025-03-05 14:24:59.595,-0.0021352294072767,0.1505764617202125,7
2025-03-05 14:24:59.602,-0.0027229051085734,0.0873916599397607,7
2025-03-05 14:24:59.610,-0.0033093711894859,0.0210688991346463,7
2025-03-05 14:24:59.618,-0.0038908802217919,-0.0511925903900766,7
2025-03-05 14:24:59.626,-0.004464175669936,-0.1322968217894688,7
2025-03-05 14:24:59.634,-0.0050265697663686,-0.2251256641038016,7
2025-03-05 14:24:59.642,-0.0055759914171943,-0.3324042698578849,7
2025-03-05 14:24:59.649,-0.0061110029290902,-0.4565630901589336,7
2025-03-05 14:24:59.657,-0.0066307862659919,-0.5996027693161752,7
2025-03-05 14:24:59.665,-0.0071351016234374,-0.7629683866483006,7
2025-03-05 14:24:59.673,-0.0076242231777458,-0.947439318180438,7
2025-03-05 14:24:59.681,-0.0080988585114402,-1.1530404267714072,7
2025-03-05 14:24:59.688,-0.0085600588858959,-1.3789793886027175,7
2025-03-05 14:24:59.696,-0.0090091269745861,-1.623613789355777,7
2025-03-05 14:24:59.704,-0.0094475272010302,-1.884450257884916,7
2025-03-05 14:24:59.712,-0.0098768020538679,-2.1581764411704314,7
2025-03-05 14:24:59.720,-0.0102984961453689,-2.4407251550092868,7
2025-03-05 14:24:59.727,-0.010714088554514,-2.727368656211712,7
2025-03-05 14:24:59.735,-0.0111249332372713,-3.0128397426317,7
2025-03-05 14:24:59.743,-0.0115322070416267,-3.2914753418727853,7
2025-03-05 14:24:59.751,-0.0119368651397125,-3.557377422233017,7
2025-03-05 14:24:59.759,-0.0123396043565404,-3.804585464628872,7
2025-03-05 14:24:59.767,-0.0127408355472619,-4.027254383914656,7
2025-03-05 14:24:59.774,-0.0131406663145155,-4.219831692362856,7
2025-03-05 14:24:59.782,-0.0135388947078228,-4.37722786152903,7
2025-03-05 14:24:59.790,-0.0139350134053215,-4.494974256041582,7
2025-03-05 14:24:59.798,-0.0143282228221993,-4.569363664929076,7
2025-03-05 14:24:59.806,-0.0147174510450653,-4.59756930509502,7
2025-03-05 14:24:59.813,-0.0151013786011269,-4.577739157233104,7
2025-03-05 14:24:59.821,-0.0154784667304,-4.509063535377669,7
2025-03-05 14:24:59.829,-0.0158469886513274,-4.39181479477999,7
2025-03-05 14:24:59.837,-0.016205063753748,-4.22735896359703,7
2025-03-05 14:24:59.845,-0.0165506944549786,-4.01813978368477,7
2025-03-05 14:24:59.852,-0.0168818049019262,-3.767636145864551,7
2025-03-05 14:24:59.860,-0.0171962803404242,-3.4802942281165783,7
2025-03-05 14:24:59.868,-0.0174920060808096,-3.161435848008906,7
2025-03-05 14:24:59.876,-0.017766905342076,-2.81714469971496,7
2025-03-05 14:24:59.884,-0.0180189753624687,-2.4541323391463616,7
2025-03-05 14:24:59.892,-0.0182463207838767,-2.079586071051263,7
2025-03-05 14:24:59.899,-0.0184471827573853,-1.7010013171682572,7
2025-03-05 14:24:59.907,-0.0186199620368565,-1.3260016121446347,7
2025-03-05 14:24:59.915,-0.0187632348110528,-0.9621500588573256,7
2025-03-05 14:24:59.923,-0.018875760947223,-0.6167568200099968,7
2025-03-05 14:24:59.931,-0.0189564851777409,-0.2966879446608059,7
2025-03-05 14:24:59.938,-0.0190045322820556,-0.0081814276111436,7
2025-03-05 14:24:59.946,-0.0190191976500948,0.2433232218535367,7
2025-03-05 14:24:59.954,-0.0189999349380286,0.4533355502603103,7
2025-03-05 14:24:59.962,-0.018946342721924,0.6184388041802612,7
2025-03-05 14:24:59.970,-0.0188581520030313,0.7363832586484211,7
2025-03-05 14:24:59.977,-0.0187352163120651,0.806143893359363,7
2025-03-05 14:24:59.985,-0.0185775061733318,0.8279394579556145,7
2025-03-05 14:24:59.993,-0.0183851095804715,0.8032115782050101,7
2025-03-05 14:25:00.001,-0.018158239441089,0.7345642851607123,7
2025-03-05 14:25:00.009,-0.0178972474888758,0.6256660871436875,7
2025-03-05 14:25:00.017,-0.0176026422946979,0.4811183511068151,7
2025-03-05 14:25:00.024,-0.0172751074597722,0.3062952307262832,7
2025-03-05 14:25:00.032,-0.0169155154665247,0.107161596755372,7
2025-03-05 14:25:00.040,-0.0165249330775485,-0.1099236785386385,7
2025-03-05 14:25:00.048,-0.0161046152230381,-0.33841121388652,7
2025-03-05 14:25:00.056,-0.0156559856284712,-0.5717634186451666,7
2025-03-05 14:25:00.063,-0.0151806038854972,-0.8036479528139696,7
2025-03-05 14:25:00.071,-0.0146801202260684,-1.02811541937892,7
2025-03-05 14:25:00.079,-0.014156220864839,-1.2397554116538791,7
2025-03-05 14:25:00.087,-0.0136105682908152,-1.4338263312560924,7
2025-03-05 14:25:00.095,-0.013044741936472,-1.6063558234141366,7
2025-03-05 14:25:00.102,-0.0124601847910477,-1.7542101390449216,7
2025-03-05 14:25:00.110,-0.0118581607756783,-1.875132130795968,7
2025-03-05 14:25:00.118,-0.011239726524224,-1.9677488474057845,7
2025-03-05 14:25:00.126,-0.0106057199220731,-2.031550759807979,7
2025-03-05 14:25:00.134,-0.0099567662800433,-2.0668455145137643,7
2025-03-05 14:25:00.142,-0.0092933013190366,-2.0746897690222657,7
2025-03-05 14:25:00.149,-0.0086156085516655,-2.056803136815809,7
2025-03-05 14:25:00.157,-0.0079238677270505,-2.0154685724638286,7
2025-03-05 14:25:00.165,-0.0072182109490527,-1.953423669627076,7
2025-03-05 14:25:00.173,-0.0064987833934652,-1.87374732915009,7
2025-03-05 14:25:00.181,-0.0057658055615339,-1.779746083441531,7
2025-03-05 14:25:00.188,-0.0050196336151208,-1.6748440443434296,7
2025-03-05 14:25:00.196,-0.0042608139831292,-1.562479989123685,7
2025-03-05 14:25:00.204,-0.0034901284938063,-1.4460145335672965,7
2025-03-05 14:25:00.212,-0.0027086268993291,-1.3286496855715502,7
2025-03-05 14:25:00.220,-0.0019176448298542,-1.2133623506873163,7
2025-03-05 14:25:00.227,-0.0011188068037406,-1.1028525984113304,7
2025-03-05 14:25:00.235,-0.0003140156037391,-0.9995067267593768,7
2025-03-05 14:25:00.243,0.0004945692246595,-0.905374422072862,7
2025-03-05 14:25:00.251,0.0013045600539186,-0.8221586441982396,7
2025-03-05 14:25:00.259,0.0021133731844619,-0.7512163156028435,7
2025-03-05 14:25:00.267,0.0029182611233216,-0.6935674912580345,7
2025-03-05 14:25:00.274,0.0037163435039489,-0.6499104574094032,7
2025-03-05 14:25:00.282,0.0045046364993951,-0.6206401615128747,7
2025-03-05 14:25:00.290,0.0052800816796162,-0.60586751177162,7
2025-03-05 14:25:00.298,0.0060395758332451,-0.6054373964138443,7
2025-03-05 14:25:00.306,0.006780003284072,-0.6189437497931088,7
2025-03-05 14:25:00.313,0.0074982718072482,-0.6457406149773138,7
2025-03-05 14:25:00.321,0.0081913526835306,-0.6849488835482138,7
2025-03-05 14:25:00.329,0.0088563249112474,-0.735459174733654,7
2025-03-05 14:25:00.337,0.0094904230351134,-0.7959320728555227,7
2025-03-05 14:25:00.345,0.0100910873445777,-0.8647975924144636,7
2025-03-05 14:25:00.352,0.0106560145275244,-0.9402562086254552,7
2025-03-05 14:25:00.360,0.0111832064627831,-1.0202840238051898,7
2025-03-05 14:25:00.368,0.0116710145976068,-1.1026446117940625,7
2025-03-05 14:25:00.376,0.012118177163291,-1.1849097962089068,7
2025-03-05 14:25:00.384,0.0125238465512171,-1.2644910982776645,7
2025-03-05 14:25:00.392,0.0128876046951424,-1.338682877400346,7
2025-03-05 14:25:00.399,0.013209465124732,-1.4047173351569449,7
2025-03-05 14:25:00.407,0.01348986124616,-1.4598306218593131,7
2025-03-05 14:25:00.415,0.0137296212926989,-1.5013383408414376,7
2025-03-05 14:25:00.423,0.0139299312533951,-1.52671786115795,7
2025-03-05 14:25:00.431,0.0140922879326819,-1.5336940963684114,7
2025-03-05 14:25:00.438,0.0142184450448714,-1.5203248514582806,7
2025-03-05 14:25:00.446,0.0143103556655644,-1.4850815328811238,7
2025-03-05 14:25:00.454,0.0143701143121841,-1.426920986461324,7
2025-03-05 14:25:00.462,0.0143999016066165,-1.3453444751253476,7
2025-03-05 14:25:00.470,0.0144019340905439,-1.240440308433903,7
2025-03-05 14:25:00.477,0.014378421225083,-1.11290734626749,7
2025-03-05 14:25:00.485,0.0143315308206328,-0.9640574666694304,7
2025-03-05 14:25:00.493,0.0142633633263181,-0.7957960518434605,7
2025-03-05 14:25:00.501,0.0141759347758792,-0.6105805412675628,7
2025-03-05 14:25:00.509,0.014071167644855,-0.411358066587955,7
2025-03-05 14:25:00.517,0.013950888323896,-0.2014840757132738,7
2025-03-05 14:25:00.524,0.0138168295546759,0.0153753507589368,7
2025-03-05 14:25:00.532,0.0136706361807372,0.2353541008744843,7
2025-03-05 14:25:00.540,0.0135138727008263,0.4545055923849337,7
2025-03-05 14:25:00.548,0.0133480310056474,0.6689268998648495,7
2025-03-05 14:25:00.556,0.0131745363611263,0.8748827717519504,7
2025-03-05 14:25:00.563,0.0129947496035485,1.0689247605200956,7
2025-03-05 14:25:00.571,0.0128099639074064,1.2480008036141783,7
2025-03-05 14:25:00.579,0.0126213951430389,1.4095509496545429,7
2025-03-05 14:25:00.587,0.0124301653657978,1.551585530118744,7
2025-03-05 14:25:00.595,0.012237279376556,1.6727429047840008,7
2025-03-05 14:25:00.602,0.0120435949668141,1.7723248982248574,7
2025-03-05 14:25:00.610,0.0118497886510708,1.850309106514834,7
2025-03-05 14:25:00.618,0.0116563201086855,1.907338288489832,7
2025-03-05 14:25:00.626,0.0114633996487285,1.9446879711667204,7
2025-03-05 14:25:00.634,0.0112709633760075,1.9642141242489743,7
2025-03-05 14:25:00.642,0.0110786602641091,1.9682832620644048,7
2025-03-05 14:25:00.649,0.0108858541575892,1.959687625160739,7
2025-03-05 14:25:00.657,0.0106916421502766,1.9415482286950512,7
2025-03-05 14:25:00.665,0.0104948891727267,1.917208611727188,7
2025-03-05 14:25:00.673,0.0102942771548102,1.8901221503557089,7
2025-03-05 14:25:00.681,0.0100883658777156,1.8637358589936923,7
2025-03-05 14:25:00.688,0.0098756616736723,1.8413737193054067,7
2025-03-05 14:25:00.696,0.0096546895429398,1.8261227351531155,7
2025-03-05 14:25:00.704,0.0094240641524513,1.8207250771329344,7
2025-03-05 14:25:00.712,0.0091825557347595,1.827479796834472,7
2025-03-05 14:25:00.720,0.0089291480114669,1.848157596844876,7
2025-03-05 14:25:00.727,0.0086630863658979,1.8839319809442896,7
2025-03-05 14:25:00.735,0.0083839150697803,1.9353297403429912,7
2025-03-05 14:25:00.743,0.0080915024403171,2.002203142279224,7
2025-03-05 14:25:00.751,0.0077860527939996,2.08372539152468,7
2025-03-05 14:25:00.759,0.0074681043659758,2.178409975785684,7
2025-03-05 14:25:00.767,0.0071385130251539,2.284153449641621,7
2025-03-05 14:25:00.774,0.0067984223879077,2.3983001428331563,7
2025-03-05 14:25:00.782,0.0064492215652999,2.5177262860187204,7
2025-03-05 14:25:00.790,0.00609249219135,2.6389402077673787,7
2025-03-05 14:25:00.798,0.005729946688679,2.758194624733412,7
2025-03-05 14:25:00.806,0.0053633602003549,2.871606650653196,7
2025-03-05 14:25:00.813,0.0049944994181948,2.9752809950728225,7
2025-03-05 14:25:00.821,0.004625052406418,3.065431901320467,7
2025-03-05 14:25:00.829,0.0042565639260476,3.138499668114119,7
2025-03-05 14:25:00.837,0.00389038045681,3.191258082987724,7
2025-03-05 14:25:00.845,0.0035276082722143,3.220909724785737,7
2025-03-05 14:25:00.853,0.0031690868436951,3.2251668058085188,7
2025-03-05 14:25:00.860,0.0028153787003976,3.202315953034431,7
2025-03-05 14:25:00.868,0.0024667757284851,3.151266010803318,7
2025-03-05 14:25:00.876,0.00212332081335,3.0715785408137286,7
2025-03-05 14:25:00.884,0.0017848427622283,2.9634811756170065,7
2025-03-05 14:25:00.892,0.0014510016415292,2.8278643442562683,7
2025-03-05 14:25:00.899,0.0011213410652457,2.666262146733469,7
2025-03-05 14:25:00.907,0.0007953436141603,2.480818335318428,7
2025-03-05 14:25:00.915,0.0004724854788265,2.274238498401165,7
2025-03-05 14:25:00.923,0.0001522866228743,2.0497296658041155,7
2025-03-05 14:25:00.931,-0.0001656467314592,1.8109286840273289,7
2025-03-05 14:25:00.938,-0.000481589684535,1.5618208582338098,7
2025-03-05 14:25:00.946,-0.0007956776098221,1.306650529975058,7
2025-03-05 14:25:00.954,-0.0011078965419842,1.049825453583325,7
2025-03-05 14:25:00.962,-0.0014180839723182,0.7958170407780162,7
2025-03-05 14:25:00.970,-0.0017259383366776,0.5490587480648587,7
2025-03-05 14:25:00.978,-0.0020310352106479,0.3138450672823578,7
2025-03-05 14:25:00.985,-0.0023328481126069,0.094233724735086,7
2025-03-05 14:25:00.993,-0.0026307716880034,-0.106046229362817,7
2025-03-05 14:25:01.001,-0.002924145039452,-0.2836777876574115,7
2025-03-05 14:25:01.009,-0.0032122732993004,-0.4358283239143333,7
2025-03-05 14:25:01.017,-0.003494446181668,-0.5602087486463878,7
2025-03-05 14:25:01.024,-0.0037699528948328,-0.6551178152709357,7
2025-03-05 14:25:01.032,-0.0040380931387838,-0.719470521258734,7
2025-03-05 14:25:01.040,-0.0042981838346135,-0.7528102305898194,7
2025-03-05 14:25:01.048,-0.0045495608335047,-0.7553048309096323,7
2025-03-05 14:25:01.056,-0.0047915745101738,-0.72772786473962,7
2025-03-05 14:25:01.063,-0.0050235783839935,-0.6714260836395777,7
2025-03-05 14:25:01.071,-0.0052449109723002,-0.5882752322728632,7
2025-03-05 14:25:01.079,-0.0054548726511424,-0.4806260647558407,7
2025-03-05 14:25:01.087,-0.0056527007840014,-0.3512426400581503,7
2025-03-05 14:25:01.095,-0.0058375473363775,-0.2032348661349914,7
2025-03-05 14:25:01.103,-0.0060084634440531,-0.0399871042446788,7
2025-03-05 14:25:01.110,-0.006164394904516,0.1349155522785282,7
2025-03-05 14:25:01.118,-0.0063041913391718,0.3177619108160981,7
2025-03-05 14:25:01.126,-0.0064266299929855,0.5047889879961294,7
2025-03-05 14:25:01.134,-0.0065304532271166,0.6922548997929474,7
2025-03-05 14:25:01.142,-0.0066144173031575,0.8765093395350259,7
2025-03-05 14:25:01.149,-0.0066773493607625,1.0540607128035446,7
2025-03-05 14:25:01.157,-0.0067182093086234,1.2216390320499964,7
2025-03-05 14:25:01.165,-0.0067361531762601,1.3762536917868926,7
2025-03-05 14:25:01.173,-0.0067305940697711,1.5152452601405793,7
2025-03-05 14:25:01.181,-0.0067012564958415,1.636330440683814,7
2025-03-05 14:25:01.188,-0.0066482199862368,1.7376393792943583,7
2025-03-05 14:25:01.196,-0.0065719489295768,1.817744515780625,7
2025-03-05 14:25:01.204,-0.0064733070056881,1.8756802208670376,7
2025-03-05 14:25:01.212,-0.0063535560475538,1.9109525362358184,7
2025-03-05 14:25:01.220,-0.006214340107,1.9235384686531052,7
2025-03-05 14:25:01.228,-0.0060576558337238,1.9138744899139823,7
2025-03-05 14:25:01.235,-0.0058858101020815,1.8828341620854625,7
2025-03-05 14:25:01.243,-0.0057013655257838,1.8316951324739452,7
2025-03-05 14:25:01.251,-0.0055070746293157,1.7620961082393731,7
2025-03-05 14:25:01.259,-0.0053058042581061,1.675984804142004,7
2025-03-05 14:25:01.267,-0.0051004530157859,1.5755582300066486,7
2025-03-05 14:25:01.274,-0.0048938655445956,1.46319701337522,7
2025-03-05 14:25:01.282,-0.004688747895321,1.3413957032103463,7
2025-03-05 14:25:01.290,-0.0044875879284366,1.212691146286135,7
2025-03-05 14:25:01.298,-0.0042925837598979,1.0795910592811022,7
2025-03-05 14:25:01.306,-0.0041055821069392,0.9445048459460156,7
2025-03-05 14:25:01.313,-0.003928027549911,0.8096785553735731,7
2025-03-05 14:25:01.321,-0.003760923476903,0.6771356778922241,7
2025-03-05 14:25:01.329,-0.00360480555949,0.5486252605667292,7
2025-03-05 14:25:01.337,-0.0034597285780812,0.4255786138087066,7
2025-03-05 14:25:01.345,-0.0033252671337982,0.3090756778196665,7
2025-03-05 14:25:01.353,-0.003200530381036,0.1998219144157941,7
2025-03-05 14:25:01.360,-0.003084190469761,0.0981363731558729,7
2025-03-05 14:25:01.368,-0.0029745238865151,0.0039513382843411,7
2025-03-05 14:25:01.376,-0.0028694643371774,-0.0831763128117043,7
2025-03-05 14:25:01.384,-0.0027666652353108,-0.1640422185398338,7
2025-03-05 14:25:01.392,-0.002663569338333,-0.2397606240284891,7
2025-03-05 14:25:01.399,-0.0025574828695099,-0.3117203147653378,7
2025-03-05 14:25:01.407,-0.0024456517152928,-0.3815315878484677,7
2025-03-05 14:25:01.415,-0.0023253377076975,-0.4509657527155955,7
2025-03-05 14:25:01.423,-0.0021938931695358,-0.5218888915864247,7
2025-03-05 14:25:01.431,-0.0020488318019944,-0.5961917781880688,7
2025-03-05 14:25:01.438,-0.0018878940218523,-0.6757179523877853,7
2025-03-05 14:25:01.446,-0.0017091052513232,-0.7621919891029837,7
2025-03-05 14:25:01.454,-0.0015108261719524,-0.8571499969819304,7
2025-03-05 14:25:01.462,-0.0012917941693705,-0.961874345144725,7
2025-03-05 14:25:01.470,-0.0010511551192367,-1.0773345437579984,7
2025-03-05 14:25:01.478,-0.0007884847042605,-1.204136089094964,7
2025-03-05 14:25:01.485,-0.0005037988637456,-1.3424789210229986,7
2025-03-05 14:25:01.493,-0.0001975535177419,-1.4921269325041198,7
2025-03-05 14:25:01.501,0.0001293660186498,-1.6523897224787998,7
2025-03-05 14:25:01.509,0.0004756655014409,-1.8221174996035792,7
2025-03-05 14:25:01.517,0.0008396715102855,-1.9997097260979573,7
2025-03-05 14:25:01.524,0.0012193693229922,-2.1831377390758955,7
2025-03-05 14:25:01.532,0.0016124470386785,-2.369981202303192,7
2025-03-05 14:25:01.540,0.0020163437454669,-2.557477827094406,7
2025-03-05 14:25:01.548,0.0024282998182511,-2.7425853647030998,7
2025-03-05 14:25:01.556,0.002845408076154,-2.922054429093237,7
2025-03-05 14:25:01.563,0.0032646649887999,-3.0925102792765675,7
2025-03-05 14:25:01.571,0.0036830211093307,-3.2505412973403933,7
2025-03-05 14:25:01.579,0.0040974296887142,-3.3927915636221497,7
2025-03-05 14:25:01.587,0.0045048925029118,-3.5160546734507983,7
2025-03-05 14:25:01.595,0.004902502543558,-3.61736577841712,7
2025-03-05 14:25:01.603,0.0052874841207482,-3.694088788695834,7
2025-03-05 14:25:01.610,0.0056572315696622,-3.7439957619077977,7
2025-03-05 14:25:01.618,0.0060093478436772,-3.765335743104901,7
2025-03-05 14:25:01.626,0.0063416839525788,-3.7568907097942064,7
2025-03-05 14:25:01.634,0.0066523796392066,-3.718016795113089,7
2025-03-05 14:25:01.642,0.0069399047670896,-3.64866957117368,7
2025-03-05 14:25:01.649,0.0072030995354053,-3.5494128215317957,7
2025-03-05 14:25:01.657,0.0074412101964072,-3.421410865096889,7
2025-03-05 14:25:01.665,0.0076539160235082,-3.2664050702758605,7
2025-03-05 14:25:01.673,0.00784134327879,-3.086675685716868,7
2025-03-05 14:25:01.681,0.0080040628810784,-2.8849904926558985,7
2025-03-05 14:25:01.688,0.008143070013683,-2.664542046221517,7
2025-03-05 14:25:01.696,0.0082597454785398,-2.428875426323605,7
2025-03-05 14:25:01.704,0.0083557998873103,-2.1818084867681566,7
2025-03-05 14:25:01.712,0.0084332028883404,-1.9273466117937064,7
2025-03-05 14:25:01.720,0.0084941006935406,-1.669594003413022,7
2025-03-05 14:25:01.728,0.0085407260234297,-1.4126635606337994,7
2025-03-05 14:25:01.735,0.0085753050686819,-1.160587480341642,7
2025-03-05 14:25:01.743,0.0085999663188914,-0.9172307913849084,7
2025-03-05 14:25:01.751,0.0086166562844389,-0.6862100901342651,7
2025-03-05 14:25:01.759,0.0086270670660124,-0.4708197309636511,7
2025-03-05 14:25:01.767,0.0086325801503381,-0.273967598291817,7
2025-03-05 14:25:01.774,0.008634229655083,-0.0981223267560846,7
2025-03-05 14:25:01.782,0.0086326865478259,0.0547265537070939,7
2025-03-05 14:25:01.790,0.0086282632907471,0.1830945663244253,7
2025-03-05 14:25:01.798,0.0086209363744574,0.2860139125452556,7
2025-03-05 14:25:01.806,0.008610382887861,0.3630309498686718,7
2025-03-05 14:25:01.813,0.0085960269060484,0.414190277023454,7
2025-03-05 14:25:01.821,0.0085770918224923,0.4400067004880263,7
2025-03-05 14:25:01.829,0.0085526552748554,0.4414267755253798,7
2025-03-05 14:25:01.837,0.0085217037044241,0.4197819036666058,7
2025-03-05 14:25:01.845,0.0084831839550371,0.3767351148900983,7
2025-03-05 14:25:01.853,0.0084360497876016,0.3142236741493819,7
2025-03-05 14:25:01.860,0.0083793015889257,0.234399550682659,7
2025-03-05 14:25:01.868,0.008312017739821,0.1395696044246771,7
2025-03-05 14:25:01.876,0.0082333763310779,0.0321371073193981,7
2025-03-05 14:25:01.884,0.0081426665615571,-0.085454045525345,7
2025-03-05 14:25:01.892,0.0080392901966818,-0.2107713504759217,7
2025-03-05 14:25:01.899,0.0079227544768604,-0.3414411179595568,7
2025-03-05 14:25:01.907,0.0077926585448305,-0.4751907386918229,7
2025-03-05 14:25:01.915,0.0076486759147334,-0.6098854604027464,7
2025-03-05 14:25:01.923,0.0074905358667339,-0.7435595409874258,7
2025-03-05 14:25:01.931,0.0073180067552759,-0.8744418027847128,7
2025-03-05 14:25:01.938,0.0071308839112642,-1.0009757267402422,7
2025-03-05 14:25:01.946,0.0069289842568806,-1.121834295875642,7
2025-03-05 14:25:01.954,0.006712149103121,-1.2359298307063185,7
2025-03-05 14:25:01.962,0.0064802557343267,-1.342419060282076,7
2025-03-05 14:25:01.970,0.0062332371972113,-1.440703641807798,7
2025-03-05 14:25:01.978,0.0059711085051596,-1.530426276847719,7
2025-03-05 14:25:01.985,0.0056939966747346,-1.6114624740882229,7
2025-03-05 14:25:01.993,0.0054021716550587,-1.6839078894054134,7
2025-03-05 14:25:02.001,0.0050960749081318,-1.7480610598991018,7
2025-03-05 14:25:02.009,0.0047763419141685,-1.8044012779865373,7
2025-03-05 14:25:02.017,0.0044438144891428,-1.853561366362673,7
2025-03-05 14:25:02.024,0.0040995390499793,-1.896295247754808,7
2025-03-05 14:25:02.032,0.0037447481924699,-1.9334404669107887,7
2025-03-05 14:25:02.040,0.0033808251113934,-1.9658761984036237,7
2025-03-05 14:25:02.048,0.0030092530341277,-1.994477716634756,7
2025-03-05 14:25:02.056,0.0026315542006289,-2.02006875205293,7
2025-03-05 14:25:02.063,0.0022492242736856,-2.04337354811918,7
2025-03-05 14:25:02.071,0.0018636680837687,-2.064970717000161,7
2025-03-05 14:25:02.079,0.0014761415541733,-2.085251137482361,7
2025-03-05 14:25:02.087,0.0010877031780892,-2.104382135398208,7
2025-03-05 14:25:02.095,0.0006991772055894,-2.1222800388235594,7
2025-03-05 14:25:02.103,0.000311130033419,-2.1385929182126584,7
2025-03-05 14:25:02.110,-7.61390671628018e-05,-2.1526949188094355,7
2025-03-05 14:25:02.118,-0.0004625923164541,-2.163693084949546,7
2025-03-05 14:25:02.126,-0.0008484333623119,-2.1704469835454367,7
2025-03-05 14:25:02.134,-0.0012340745087976,-2.171600784979641,7
2025-03-05 14:25:02.142,-0.0016200938843651,-2.1656267922539523,7
2025-03-05 14:25:02.149,-0.0020071855280297,-2.150878772522436,7
2025-03-05 14:25:02.157,-0.0023961052553581,-2.125652893191568,7
2025-03-05 14:25:02.165,-0.002787614892738,-2.088253646322229,7
2025-03-05 14:25:02.173,-0.0031824271843283,-2.037061891764872,7
2025-03-05 14:25:02.181,-0.0035811534137959,-1.970602070419975,7
2025-03-05 14:25:02.188,-0.0039842555720905,-1.8876057248691016,7
2025-03-05 14:25:02.196,-0.0043920046755924,-1.7870686955580644,7
2025-03-05 14:25:02.204,-0.0048044464528496,-1.6682997115574512,7
2025-03-05 14:25:02.212,-0.0052213751029812,-1.5309585368462126,7
2025-03-05 14:25:02.220,-0.005642315387243,-1.3750823353336787,7
2025-03-05 14:25:02.228,-0.0060665130716595,-1.2010994504479775,7
2025-03-05 14:25:02.235,-0.0064929337159995,-1.0098303315699646,7
2025-03-05 14:25:02.243,-0.0069202700171003,-0.8024758597916555,7
2025-03-05 14:25:02.251,-0.0073469582559067,-0.5805938164249081,7
2025-03-05 14:25:02.259,-0.007771204588124,-0.3460646888657881,7
2025-03-05 14:25:02.267,-0.0081910217039363,-0.1010484046840573,7
2025-03-05 14:25:02.274,-0.0086042756938285,0.1520660963732297,7
2025-03-05 14:25:02.282,-0.0090087419517926,0.4107163266245097,7
2025-03-05 14:25:02.290,-0.0094021680380135,0.6722245313214442,7
2025-03-05 14:25:02.298,-0.0097823410602093,0.9338566037312316,7
2025-03-05 14:25:02.306,-0.0101471572610333,1.19287961671062,7
2025-03-05 14:25:02.313,-0.0104946914861364,1.4466162300579446,7
2025-03-05 14:25:02.321,-0.0108232636733148,1.692494595479915,7
2025-03-05 14:25:02.329,-0.0111314989136467,1.9280927913252333,7
2025-03-05 14:25:02.337,-0.0114183776865966,2.1511772317963693,7
2025-03-05 14:25:02.345,-0.0116832735825025,2.3597348636478306,7
2025-03-05 14:25:02.353,-0.011925976577627,2.5519992487980367,7
2025-03-05 14:25:02.360,-0.0121467002308915,2.726470810653338,7
2025-03-05 14:25:02.368,-0.0123460711947263,2.8819315908260763,7
2025-03-05 14:25:02.376,-0.0125250997288345,3.017454834237125,7
2025-03-05 14:25:02.384,-0.012685130776008,3.132409620477653,7
2025-03-05 14:25:02.392,-0.0128277764707254,3.226460622948929,7
2025-03-05 14:25:02.399,-0.0129548324599011,3.299562945887476,7
2025-03-05 14:25:02.407,-0.0130681819793712,3.3519519061412915,7
2025-03-05 14:25:02.415,-0.0131696931031301,3.3841276283921284,7
2025-03-05 14:25:02.423,-0.0132611156875966,3.396834428552004,7
2025-03-05 14:25:02.431,-0.0133439849841154,3.391035164400995,7
2025-03-05 14:25:02.438,-0.0134195385920586,3.3678810058952093,7
2025-03-05 14:25:02.446,-0.0134886524112643,3.3286773751683154,7
2025-03-05 14:25:02.454,-0.0135517995880248,3.2748470777527583,7
2025-03-05 14:25:02.462,-0.0136090343287022,3.207891846624149,7
2025-03-05 14:25:02.470,-0.0136600002574067,3.129353618514147,7
2025-03-05 14:25:02.478,-0.0137039610794946,3.040776848025982,7
2025-03-05 14:25:02.485,-0.0137398498801203,2.9436730535835425,7
2025-03-05 14:25:02.493,-0.0137663325242057,2.839488613571372,7
2025-03-05 14:25:02.501,-0.0137818803791785,2.729576633129684,7
2025-03-05 14:25:02.509,-0.0137848479624874,2.615173520359265,7
2025-03-05 14:25:02.517,-0.0137735519962809,2.497380770196271,7
2025-03-05 14:25:02.524,-0.0137463493462509,2.3771523604059577,7
2025-03-05 14:25:02.532,-0.0137017118940256,2.255288102938687,7
2025-03-05 14:25:02.540,-0.0136382962873385,2.132433238567401,7
2025-03-05 14:25:02.548,-0.0135550060268842,2.009084484457384,7
2025-03-05 14:25:02.556,-0.0134510430598445,1.8856026222224571,7
2025-03-05 14:25:02.563,-0.0133259463603768,1.7622315406603672,7
2025-03-05 14:25:02.571,-0.0131796159130445,1.6391234273832185,7
2025-03-05 14:25:02.579,-0.0130123217241846,1.5163695485005095,7
2025-03-05 14:25:02.587,-0.0128246984385393,1.3940357802917456,7
2025-03-05 14:25:02.595,-0.0126177265576248,1.2722017787528186,7
2025-03-05 14:25:02.603,-0.0123927013163256,1.1510024103034513,7
2025-03-05 14:25:02.610,-0.012151190274527,1.0306698365702331,7
2025-03-05 14:25:02.618,-0.011894980753379,0.9115744613960178,7
2025-03-05 14:25:02.626,-0.0116260184436477,0.7942628186100923,7
2025-03-05 14:25:02.634,-0.0113463388820586,0.6794904120673309,7
2025-03-05 14:25:02.642,-0.0110579940293514,0.5682475241288155,7
2025-03-05 14:25:02.649,-0.0107629768800384,0.4617760977162545,7
2025-03-05 14:25:02.657,-0.0104631477932131,0.3615759829498849,7
2025-03-05 14:25:02.665,-0.0101601667675336,0.2693991290761787,7
2025-03-05 14:25:02.673,-0.0098554359077874,0.187230694802148,7
2025-03-05 14:25:02.681,-0.0095500557639853,0.1172565377979699,7
2025-03-05 14:25:02.688,-0.009244798098166,0.0618171151126432,7
2025-03-05 14:25:02.696,-0.0089400961109736,0.0233484637627338,7
2025-03-05 14:25:02.704,-0.0086360516760064,0.0043116091636858,7
2025-03-05 14:25:02.712,-0.0083324581550947,0.0071124295465183,7
2025-03-05 14:25:02.720,-0.0080288369397881,0.0340146368333791,7
2025-03-05 14:25:02.728,-0.0077244856068028,0.087049066154906,7
2025-03-05 14:25:02.735,-0.0074185352358457,0.1679228515456516,7
2025-03-05 14:25:02.743,-0.0071100141616632,0.2779322689219231,7
2025-03-05 14:25:02.751,-0.0067979153804234,0.4178830246536975,7
2025-03-05 14:25:02.759,-0.0064812648407633,0.5880215473411706,7
2025-03-05 14:25:02.767,-0.0061591876837697,0.7879804090713535,7
2025-03-05 14:25:02.774,-0.0058309691862488,1.0167403937031645,7
2025-03-05 14:25:02.782,-0.0054961069724192,1.272611003913609,7
2025-03-05 14:25:02.790,-0.0051543512713023,1.5532304315921823,7
2025-03-05 14:25:02.798,-0.0048057307465499,1.8555852789423333,7
2025-03-05 14:25:02.806,-0.0044505626978377,2.176049661118229,7
2025-03-05 14:25:02.813,-0.0040894481567773,2.510442769338702,7
2025-03-05 14:25:02.821,-0.0037232542993889,2.854103523606696,7
2025-03-05 14:25:02.829,-0.0033530879763237,3.2019805737259235,7
2025-03-05 14:25:02.837,-0.0029802643072119,3.548735586590565,7
2025-03-05 14:25:02.845,-0.002606273220407,3.888857464234023,7
2025-03-05 14:25:02.853,-0.0022327453601082,4.216784862534127,7
2025-03-05 14:25:02.860,-0.0018614177580781,4.527034129090816,7
2025-03-05 14:25:02.868,-0.0014940992503509,4.814329561951608,7
2025-03-05 14:25:02.876,-0.0011326354528176,5.0737327214885815,7
2025-03-05 14:25:02.884,-0.0007788729359919,5.300767416798935,7
2025-03-05 14:25:02.892,-0.00043462219209,5.491536942765215,7
2025-03-05 14:25:02.899,-0.0001016192121781,5.642830166967382,7
2025-03-05 14:25:02.907,0.0002185141786954,5.752213155201819,7
2025-03-05 14:25:02.915,0.0005243108171114,5.818103178063472,7
2025-03-05 14:25:02.923,0.000814498792547,5.839822163053864,7
2025-03-05 14:25:02.931,0.0010880408922458,5.8176269631637725,7
2025-03-05 14:25:02.938,0.0013441711534153,5.752714230652653,7
2025-03-05 14:25:02.946,0.001582426463245,5.647198242657243,7
2025-03-05 14:25:02.954,0.0018026709091923,5.5040607428728485,7
2025-03-05 14:25:02.962,0.0020051103029319,5.327072742511024,7
2025-03-05 14:25:02.970,0.002190294186978,5.12068924449464,7
2025-03-05 14:25:02.978,0.0023591029782508,4.889918977995432,7
2025-03-05 14:25:02.985,0.0025127188183811,4.640172400496843,7
2025-03-05 14:25:02.993,0.0026525801823188,4.377092374455646,7
2025-03-05 14:25:03.001,0.0027803222068495,4.106372980784261,7
2025-03-05 14:25:03.009,0.0028977066031129,3.8335728145738375,7
2025-03-05 14:25:03.017,0.0030065463254236,3.563929746382492,7
2025-03-05 14:25:03.024,0.003108630503571,3.302184463035404,7
2025-03-05 14:25:03.032,0.0032056545183411,3.052420079616068,7
2025-03-05 14:25:03.040,0.0032991589106735,2.817924711702656,7
2025-03-05 14:25:03.048,0.0033904796506884,2.6010831083226185,7
2025-03-05 14:25:03.056,0.003480711474892,2.403302296562632,7
2025-03-05 14:25:03.063,0.0035706853282314,2.224974740697438,7
2025-03-05 14:25:03.071,0.0036609600650814,2.065480867116346,7
2025-03-05 14:25:03.079,0.0037518275120137,1.9232310613255037,7
2025-03-05 14:25:03.087,0.0038433292162297,1.795745508713807,7
2025-03-05 14:25:03.095,0.0039352829775494,1.67976861103419,7
2025-03-05 14:25:03.103,0.0040273173437147,1.5714132317967806,7
2025-03-05 14:25:03.110,0.0041189121393432,1.4663287636153848,7
2025-03-05 14:25:03.118,0.0042094425697646,1.359886025223258,7
2025-03-05 14:25:03.126,0.0042982237682457,1.2473713386097611,7
2025-03-05 14:25:03.134,0.0043845523843511,1.124181849897387,7
2025-03-05 14:25:03.142,0.0044677422316168,0.9860142628872048,7
2025-03-05 14:25:03.149,0.004547151884122,0.829039643882265,7
2025-03-05 14:25:03.157,0.0046222030101462,0.6500577898480638,7
2025-03-05 14:25:03.165,0.0046923890331898,0.4466257616233103,7
2025-03-05 14:25:03.173,0.004757274540974,0.2171564876472196,7
2025-03-05 14:25:03.181,0.004816486696855,-0.0390152437768478,7
2025-03-05 14:25:03.188,0.004869700496823,-0.3216006478929589,7
2025-03-05 14:25:03.196,0.0049166199135753,-0.6293585248215559,7
2025-03-05 14:25:03.204,0.0049569569459879,-0.960129168824986,7
2025-03-05 14:25:03.212,0.0049904106182782,-1.310898149543843,7
2025-03-05 14:25:03.220,0.0050166480733308,-1.6778866590265136,7
2025-03-05 14:25:03.228,0.005035289857499,-2.056664484952577,7
2025-03-05 14:25:03.235,0.0050459011767408,-2.442281233303886,7
2025-03-05 14:25:03.243,0.0050479904836397,-2.8294111517563185,7
2025-03-05 14:25:03.251,0.0050410164214347,-3.2125067661900517,7
2025-03-05 14:25:03.259,0.0050244038103149,-3.585956510258984,7
2025-03-05 14:25:03.267,0.0049975688814821,-3.944241584381388,7
2025-03-05 14:25:03.274,0.0049599535378252,-4.282087419040673,7
2025-03-05 14:25:03.282,0.0049110682367799,-4.594605340531579,7
2025-03-05 14:25:03.290,0.0048505428838506,-4.877420352908071,7
2025-03-05 14:25:03.298,0.0047781844233633,-5.126781365559489,7
2025-03-05 14:25:03.306,0.0046940384464505,-5.339650716065885,7
2025-03-05 14:25:03.314,0.0045984504304205,-5.513770463030007,7
2025-03-05 14:25:03.321,0.0044921208933097,-5.647703649814238,7
2025-03-05 14:25:03.329,0.0043761484204204,-5.740849561625396,7
2025-03-05 14:25:03.337,0.0042520552451145,-5.793432908516666,7
2025-03-05 14:25:03.345,0.0041217914432234,-5.806467855657419,7
2025-03-05 14:25:03.353,0.0039877154608818,-5.781698868822905,7
2025-03-05 14:25:03.360,0.0038525504668491,-5.72152140789296,7
2025-03-05 14:25:03.368,0.0037193177443596,-5.628886522576558,7
2025-03-05 14:25:03.376,0.0035912497446782,-5.507194300497774,7
2025-03-05 14:25:03.384,0.0034716863488302,-5.36018179183566,7
2025-03-05 14:25:03.392,0.0033639585674176,-5.191811388118127,7
2025-03-05 14:25:03.399,0.0032712647662302,-5.006165580484477,7
2025-03-05 14:25:03.407,0.0031965455293401,-4.80735350987126,7
2025-03-05 14:25:03.415,0.003142364010998,-4.599433737095574,7
2025-03-05 14:25:03.423,0.0031107987120685,-4.386356247131044,7
2025-03-05 14:25:03.431,0.0031033549562242,-4.171924957789831,7
2025-03-05 14:25:03.439,0.0031209000560846,-3.959780077211544,7
2025-03-05 14:25:03.446,0.0031636256511189,-3.753397731196763,7
2025-03-05 14:25:03.454,0.0032310394475063,-3.556102561296009,7
2025-03-05 14:25:03.462,0.003321987631752,-3.371087671993255,7
2025-03-05 14:25:03.470,0.0034347081761337,-3.201435540868781,7
2025-03-05 14:25:03.478,0.0035669138873535,-3.0501333995191016,7
2025-03-05 14:25:03.485,0.0037159025576125,-2.920077168131501,7
2025-03-05 14:25:03.493,0.0038786902471616,-2.8140592268698272,7
2025-03-05 14:25:03.501,0.0040521626935187,-2.73473700944808,7
2025-03-05 14:25:03.509,0.0042332390445622,-2.6845814369426937,7
2025-03-05 14:25:03.517,0.004419041336212,-2.665806373985453,7
2025-03-05 14:25:03.524,0.004607062264296,-2.680282379592754,7
2025-03-05 14:25:03.532,0.0047953231208714,-2.729439849576995,7
2025-03-05 14:25:03.540,0.0049825137313599,-2.814168047557958,7
2025-03-05 14:25:03.548,0.0051681068826288,-2.934717386235208,7
2025-03-05 14:25:03.556,0.0053524407586043,-3.0906125992606137,7
2025-03-05 14:25:03.564,0.0055367641992338,-3.2805841484413003,7
2025-03-05 14:25:03.571,0.0057232413073889,-3.5025244025727624,7
2025-03-05 14:25:03.579,0.0059149139833414,-3.7534738913821024,7
2025-03-05 14:25:03.587,0.00611562306782,-4.029641375682964,7
2025-03-05 14:25:03.595,0.0063298906388039,-4.326459676682301,7
2025-03-05 14:25:03.603,0.0065627674884269,-4.638677269785985,7
2025-03-05 14:25:03.610,0.0068196509755797,-4.960483673751032,7
2025-03-05 14:25:03.618,0.007106079571482,-5.285664760466863,7
2025-03-05 14:25:03.626,0.0074275117114819,-5.607782376287108,7
2025-03-05 14:25:03.634,0.0077890979815962,-5.920371195027284,7
2025-03-05 14:25:03.642,0.0081954567972667,-6.217144593983285,7
2025-03-05 14:25:03.649,0.0086504640019883,-6.49220061967158,7
2025-03-05 14:25:03.657,0.0091570659376142,-6.740218831408813,7
2025-03-05 14:25:03.665,0.0097171237875756,-6.956638995333044,7
2025-03-05 14:25:03.673,0.0103312949272456,-7.137813238345819,7
2025-03-05 14:25:03.681,0.0109989550456644,-7.281124323717134,7
2025-03-05 14:25:03.689,0.0117181630903003,-7.385064117841779,7
2025-03-05 14:25:03.696,0.0124856696654881,-7.449268002885625,7
2025-03-05 14:25:03.704,0.0132969683685864,-7.474502865261345,7
2025-03-05 14:25:03.712,0.0141463885355142,-7.462608269070707,7
2025-03-05 14:25:03.720,0.0150272266023331,-7.416392429559576,7
2025-03-05 14:25:03.728,0.0159319112493293,-7.339486564648759,7
2025-03-05 14:25:03.735,0.0168521944728311,-7.236163056236799,7
2025-03-05 14:25:03.743,0.0177793572231287,-7.111124531306936,7
2025-03-05 14:25:03.751,0.0187044153962937,-6.969272410666256,7
2025-03-05 14:25:03.759,0.0196183111264816,-6.815464607372794,7
2025-03-05 14:25:03.767,0.0205120763141011,-6.654272829308095,7
2025-03-05 14:25:03.774,0.0213769597274938,-6.489750300557019,7
2025-03-05 14:25:03.782,0.0222045143803904,-6.32522062602914,7
2025-03-05 14:25:03.790,0.0229866468869669,-6.163097962948899,7
2025-03-05 14:25:03.798,0.0237156347245468,-6.004747634410788,7
2025-03-05 14:25:03.806,0.0243841209263827,-5.850394849936384,7
2025-03-05 14:25:03.814,0.0249850985675425,-5.699087328716233,7
2025-03-05 14:25:03.821,0.02551189892483,-5.548715407605825,7
2025-03-05 14:25:03.829,0.0259581967743022,-5.396090725884488,7
2025-03-05 14:25:03.837,0.0263180437548983,-5.237081900279057,7
2025-03-05 14:25:03.845,0.0265859364971909,-5.066802849397734,7
2025-03-05 14:25:03.853,0.0267569211559092,-4.879846729981921,7
2025-03-05 14:25:03.860,0.026826731010127,-4.670555951671466,7
2025-03-05 14:25:03.868,0.0267919495608139,-4.433316583273934,7
2025-03-05 14:25:03.876,0.026650188412847,-4.162863781209818,7
2025-03-05 14:25:03.884,0.0264002672687942,-3.8545837726940686,7
2025-03-05 14:25:03.892,0.0260423823764973,-3.5047975058229026,7
2025-03-05 14:25:03.899,0.0255782493748774,-3.111011405825248,7
2025-03-05 14:25:03.907,0.0250112065335123,-2.672121789095897,7
2025-03-05 14:25:03.915,0.0243462652380334,-2.1885613795281302,7
2025-03-05 14:25:03.923,0.0235900967169005,-1.662378987747762,7
2025-03-05 14:25:03.931,0.0227509474791368,-1.0972466370095235,7
2025-03-05 14:25:03.939,0.0218384803381105,-0.4983920772355193,7
2025-03-05 14:25:03.946,0.0208635429087951,0.1275414955333693,7
2025-03-05 14:25:03.954,0.0198378710120782,0.7727028436147956,7
2025-03-05 14:25:03.962,0.0187737401533589,1.4282979559326543,7
2025-03-05 14:25:03.970,0.0176835832174444,2.0849008162410705,7
2025-03-05 14:25:03.978,0.016579595729002,2.732794877854327,7
2025-03-05 14:25:03.985,0.0154733510314959,3.3623288406145964,7
2025-03-05 14:25:03.993,0.0143754466705705,3.964269628295401,7
2025-03-05 14:25:04.001,0.0132952005457209,4.53013571733571,7
2025-03-05 14:25:04.009,0.0122404115121659,5.052495144781497,7
2025-03-05 14:25:04.017,0.0112171944996982,5.525214535100401,7
2025-03-05 14:25:04.024,0.010229895229575,5.943648186960871,7
2025-03-05 14:25:04.032,0.0092810846729941,6.304759466438509,7
2025-03-05 14:25:04.040,0.008371628911752,6.607170253882535,7
2025-03-05 14:25:04.048,0.0075008262658659,6.8511377744640685,7
2025-03-05 14:25:04.056,0.0066666006286903,7.038461608032728,7
2025-03-05 14:25:04.064,0.0058657381981802,7.172326853693858,7
2025-03-05 14:25:04.071,0.0050941543601112,7.257092187112196,7
2025-03-05 14:25:04.079,0.004347178036525,7.298033796139053,7
2025-03-05 14:25:04.087,0.003619841776454,7.301057842269248,7
2025-03-05 14:25:04.095,0.002907166888073,7.272395126930551,7
2025-03-05 14:25:04.103,0.0022044340246601,7.218292030125461,7
2025-03-05 14:25:04.110,0.001507430898291,7.144711561575372,7
2025-03-05 14:25:04.118,0.0008126698914102,7.057057585765644,7
2025-03-05 14:25:04.126,0.0001175688189915,6.959934038739018,7
2025-03-05 14:25:04.134,-0.0005794119301523,6.856949336574279,7
2025-03-05 14:25:04.142,-0.0012786823872176,6.750574267060329,7
2025-03-05 14:25:04.149,-0.001979491344132,6.642059530744466,7
2025-03-05 14:25:04.157,-0.0026799528126733,6.531416816356027,7
2025-03-05 14:25:04.165,-0.0033771302688432,6.41746490673268,7
2025-03-05 14:25:04.173,-0.0040671750599387,6.297939854894056,7
2025-03-05 14:25:04.181,-0.0047455121232875,6.169665785606509,7
2025-03-05 14:25:04.189,-0.0054070632455337,6.028780410683156,7
2025-03-05 14:25:04.196,-0.0060464958713594,5.871006948988319,7
2025-03-05 14:25:04.204,-0.0066584843050173,5.691961877724657,7
2025-03-05 14:25:04.212,-0.0072379701923787,5.487485889457622,7
2025-03-05 14:25:04.220,-0.0077804103391072,5.253983691177351,7
2025-03-05 14:25:04.228,-0.0082820018130388,4.988756981575343,7
2025-03-05 14:25:04.235,-0.0087398762368306,4.690314218195976,7
2025-03-05 14:25:04.243,-0.0091522566614816,4.3586407715418725,7
2025-03-05 14:25:04.251,-0.0095185714160645,3.9954138675881454,7
2025-03-05 14:25:04.259,-0.0098395203041075,3.6041484050587154,7
2025-03-05 14:25:04.267,-0.010117089882613,3.190262297809564,7
2025-03-05 14:25:04.274,-0.0103545164630288,2.761053364702428,7
2025-03-05 14:25:04.282,-0.0105561979309011,2.325583828611561,7
2025-03-05 14:25:04.290,-0.0107275583748809,1.8944729874654744,7
2025-03-05 14:25:04.298,-0.01087487242878,1.4796033262386592,7
2025-03-05 14:25:04.306,-0.0110050585899835,1.093749958899111,7
2025-03-05 14:25:04.314,-0.0111254521941207,0.7501475227221159,7
2025-03-05 14:25:04.321,-0.011243569099603,0.4620122118577609,7
2025-03-05 14:25:04.329,-0.0113668706027036,0.2420392999479479,7
2025-03-05 14:25:04.337,-0.0115025389930035,0.1018981044818564,7
2025-03-05 14:25:04.345,-0.0116572718287707,0.0517468147616835,7
2025-03-05 14:25:04.353,-0.0118371016496302,0.09978894765105,7
2025-03-05 14:25:04.360,-0.0120472465155865,0.2518914824871461,7
2025-03-05 14:25:04.368,-0.0122919955217927,0.5112820753853873,7
2025-03-05 14:25:04.376,-0.0125746322179242,0.8783393104600566,7
2025-03-05 14:25:04.384,-0.0128973974139328,1.3504858823298989,7
2025-03-05 14:25:04.392,-0.0132614909753143,1.922190113512558,7
2025-03-05 14:25:04.399,-0.0136671099705941,2.5850765001567684,7
2025-03-05 14:25:04.407,-0.0141135183500094,3.328141262409416,7
2025-03-05 14:25:04.415,-0.0145991417917216,4.138064356273876,7
2025-03-05 14:25:04.423,-0.0151216807494726,4.999605272440704,7
2025-03-05 14:25:04.431,-0.01567823481547,5.896066379722592,7
2025-03-05 14:25:04.439,-0.0162654317512309,6.809804726454238,7
2025-03-05 14:25:04.446,-0.016879554674904,7.72277123101145,7
2025-03-05 14:25:04.454,-0.0175166611602243,8.617055177594041,7
2025-03-05 14:25:04.462,-0.0181726888967227,9.475411943502388,7
2025-03-05 14:25:04.470,-0.0188435443187838,10.28175291976141,7
2025-03-05 14:25:04.478,-0.0195251729168926,11.021578590723612,7
2025-03-05 14:25:04.485,-0.0202136122042497,11.682338605001688,7
2025-03-05 14:25:04.493,-0.0209050300878746,12.253706259099197,7
2025-03-05 14:25:04.501,-0.0215957525127772,12.727758956355752,7
2025-03-05 14:25:04.509,-0.0222822846785972,13.09906069805012,7
2025-03-05 14:25:04.517,-0.0229613298856499,13.364647285473714,7
2025-03-05 14:25:04.524,-0.0236298091948029,13.523919421256592,7
2025-03-05 14:25:04.532,-0.0242848836523957,13.578453055193568,7
2025-03-05 14:25:04.540,-0.0249239789493788,13.531739900463332,7
2025-03-05 14:25:04.548,-0.0255448102970383,13.38887386014974,7
2025-03-05 14:25:04.556,-0.0261454035083164,13.156201012435984,7
2025-03-05 14:25:04.564,-0.0267241074139076,12.840951732035698,7
2025-03-05 14:25:04.571,-0.0272795931619179,12.450873471917216,7
2025-03-05 14:25:04.579,-0.0278108374254827,11.9938817542046,7
2025-03-05 14:25:04.587,-0.0283170885516205,11.477745132853386,7
2025-03-05 14:25:04.595,-0.0287978168356592,10.909817434784872,7
2025-03-05 14:25:04.603,-0.0292526522282965,10.29682761668016,7
2025-03-05 14:25:04.610,-0.0296813147078174,9.64473425065905,7
2025-03-05 14:25:04.618,-0.0300835438917651,8.95864812856694,7
2025-03-05 14:25:04.626,-0.0304590347054884,8.242822899066462,7
2025-03-05 14:25:04.634,-0.0308073848567088,7.500710164104197,7
2025-03-05 14:25:04.642,-0.031128057845001,6.735072195709576,7
2025-03-05 14:25:04.649,-0.0314203629190037,5.948142520855765,7
2025-03-05 14:25:04.657,-0.0316834512989005,5.141822189249854,7
2025-03-05 14:25:04.665,-0.0319163263716434,4.317897710466967,7
2025-03-05 14:25:04.673,-0.0321178645752379,3.4782655347447173,7
2025-03-05 14:25:04.681,-0.0322868433896939,2.625147640877296,7
2025-03-05 14:25:04.689,-0.0324219731823103,1.761283328227587,7
2025-03-05 14:25:04.696,-0.0325219302850398,0.8900836830322999,7
2025-03-05 14:25:04.704,-0.0325853891244349,0.0157373495021256,7
2025-03-05 14:25:04.712,-0.0326110512645979,-0.8567409143482791,7
2025-03-05 14:25:04.720,-0.0325976691682914,-1.7215240201076445,7
2025-03-05 14:25:04.728,-0.0325440627942707,-2.572050037000123,7
2025-03-05 14:25:04.735,-0.032449127888518,-3.4011608479213677,7
2025-03-05 14:25:04.743,-0.0323118356445053,-4.201295631293899,7
2025-03-05 14:25:04.751,-0.0321312240833541,-4.964729357600806,7
2025-03-05 14:25:04.759,-0.0319063822184167,-5.68384357660684,7
2025-03-05 14:25:04.767,-0.031636428999096,-6.3514145975045855,7
2025-03-05 14:25:04.774,-0.0313204899345957,-6.960902864921731,7
2025-03-05 14:25:04.782,-0.0309576747148944,-7.506726987157629,7
2025-03-05 14:25:04.790,-0.0305470588701191,-7.984506492586097,7
2025-03-05 14:25:04.798,-0.030087671756035,-8.391258923535121,7
2025-03-05 14:25:04.806,-0.0295784922866367,-8.72553921500512,7
2025-03-05 14:25:04.814,-0.0290184530731076,-8.987512296965354,7
2025-03-05 14:25:04.821,-0.0284064530733169,-9.178953324775485,7
2025-03-05 14:25:04.829,-0.0277413786010055,-9.30317369084335,7
2025-03-05 14:25:04.837,-0.0270221325586238,-9.364874812683176,7
2025-03-05 14:25:04.845,-0.026247671833862,-9.36993545068588,7
2025-03-05 14:25:04.853,-0.0254170527455329,-9.325141816001445,7
2025-03-05 14:25:04.860,-0.0245294842032367,-9.237872820732802,7
2025-03-05 14:25:04.868,-0.0235843879027707,-9.11575533701282,7
2025-03-05 14:25:04.876,-0.0225814643918554,-8.966306120680066,7
2025-03-05 14:25:04.884,-0.0215207630604894,-8.796578006575,7
2025-03-05 14:25:04.892,-0.0204027529951825,-8.612828037128063,7
2025-03-05 14:25:04.899,-0.0192283905515093,-8.420224346028292,7
2025-03-05 14:25:04.907,-0.0179991789784058,-8.222606941326754,7
2025-03-05 14:25:04.915,-0.0167172155720198,-8.02231511620188,7
2025-03-05 14:25:04.923,-0.0153852223123186,-7.820091189674977,7
2025-03-05 14:25:04.931,-0.0140065565638365,-7.615066794391587,7
2025-03-05 14:25:04.939,-0.0125851993928062,-7.404834149394715,7
2025-03-05 14:25:04.946,-0.0111257205235885,-7.185600855529723,7
2025-03-05 14:25:04.954,-0.0096332206895671,-6.952422903556239,7
2025-03-05 14:25:04.962,-0.0081132536329426,-6.699506956814004,7
2025-03-05 14:25:04.970,-0.0065717310086326,-6.420569711855547,7
2025-03-05 14:25:04.978,-0.0050148141094587,-6.109239380642292,7
2025-03-05 14:25:04.985,-0.0034487968379612,-5.7594821838534935,7
2025-03-05 14:25:04.993,-0.0018799845889261,-5.366035283123503,7
2025-03-05 14:25:05.001,-0.0003145735628205,-4.92482687316278,7
2025-03-05 14:25:05.009,0.0012414653038114,-4.433364234480691,7
2025-03-05 14:25:05.017,0.0027824939381229,-3.891071412304144,7
2025-03-05 14:25:05.024,0.0043033028566582,-3.299559808272509,7
2025-03-05 14:25:05.032,0.0057991922968275,-2.6628172997316915,7
2025-03-05 14:25:05.040,0.0072660367730817,-1.9873044709820928,7
2025-03-05 14:25:05.048,0.0087003316950982,-1.2819500662689238,7
2025-03-05 14:25:05.056,0.0100992213175612,-0.5580417455086368,7
2025-03-05 14:25:05.064,0.0114605080767856,0.17098749973942,7
2025-03-05 14:25:05.071,0.0127826441475386,0.8898725028184887,7
2025-03-05 14:25:05.079,0.0140647066669596,1.58191953914084,7
2025-03-05 14:25:05.087,0.0153063586727053,2.229487225641445,7
2025-03-05 14:25:05.095,0.0165077985241314,2.8145279478847214,7
2025-03-05 14:25:05.103,0.0176697011380702,3.3191701658908865,7
2025-03-05 14:25:05.110,0.0187931542761602,3.7263198928184296,7
2025-03-05 14:25:05.118,0.0198795921574167,4.020258529659344,7
2025-03-05 14:25:05.126,0.0209307271646198,4.187214129477938,7
2025-03-05 14:25:05.134,0.0219484790686853,4.215884052703532,7
2025-03-05 14:25:05.142,0.0229349006135531,4.097888795678587,7
2025-03-05 14:25:05.149,0.0238920985521456,3.8281394113743783,7
2025-03-05 14:25:05.157,0.0248221499054394,3.40510424491034,7
2025-03-05 14:25:05.165,0.0257270139552463,2.8309645146675324,7
2025-03-05 14:25:05.173,0.0266084411591277,2.1116524170787083,7
2025-03-05 14:25:05.181,0.0274678807698893,1.2567697576593932,7
2025-03-05 14:25:05.189,0.0283063894310634,0.2793894592275661,7
2025-03-05 14:25:05.196,0.0291245434221529,-0.804253471738076,7
2025-03-05 14:25:05.204,0.0299223575445072,-1.975170963070623,7
2025-03-05 14:25:05.212,0.0306992138545779,-3.2121167328710465,7
2025-03-05 14:25:05.220,0.0314538035896377,-4.492149771436641,7
2025-03-05 14:25:05.228,0.032184085698334,-5.79124682415815,7
2025-03-05 14:25:05.235,0.0328872653741517,-7.084942600852116,7
2025-03-05 14:25:05.243,0.0335597959046391,-8.348975630105274,7
2025-03-05 14:25:05.251,0.0341974068943192,-9.559917752673051,7
2025-03-05 14:25:05.259,0.034795161253563,-10.695766204717618,7
2025-03-05 14:25:05.267,0.0353475421582159,-11.73647904015487,7
2025-03-05 14:25:05.274,0.0358485696864804,-12.664437205256297,7
2025-03-05 14:25:05.282,0.0362919453509899,-13.464819794420352,7
2025-03-05 14:25:05.290,0.0366712213473043,-14.125882733200028,7
2025-03-05 14:25:05.298,0.0369799898770972,-14.639135169825302,7
2025-03-05 14:25:05.306,0.0372120863206177,-14.999412003309518,7
2025-03-05 14:25:05.314,0.0373617985866589,-15.204845021755633,7
2025-03-05 14:25:05.321,0.0374240740150199,-15.25673886814299,7
2025-03-05 14:25:05.329,0.0373947148499239,-15.159361322127324,7
2025-03-05 14:25:05.337,0.0372705533907495,-14.919660056577836,7
2025-03-05 14:25:05.345,0.0370495983928034,-14.546920015263169,7
2025-03-05 14:25:05.353,0.0367311453450413,-14.052376829027342,7
2025-03-05 14:25:05.360,0.0363158450884883,-13.448802250375374,7
2025-03-05 14:25:05.368,0.0358057276372455,-12.750077482299911,7
2025-03-05 14:25:05.376,0.0352041805046621,-11.970769569202048,7
2025-03-05 14:25:05.384,0.0345158829712223,-11.125724780340027,7
2025-03-05 14:25:05.392,0.0337466994829305,-10.229691232644006,7
2025-03-05 14:25:05.399,0.0329035367524779,-9.296980963179616,7
2025-03-05 14:25:05.407,0.0319941702110888,-8.341179374210443,7
2025-03-05 14:25:05.415,0.0310270463123305,-7.37490754133783,7
2025-03-05 14:25:05.423,0.0300110678696337,-6.409640400254014,7
2025-03-05 14:25:05.431,0.0289553701637323,-5.4555814072435815,7
2025-03-05 14:25:05.439,0.0278690959514832,-4.521591995544682,7
2025-03-05 14:25:05.446,0.0267611775372176,-3.615172113683782,7
2025-03-05 14:25:05.454,0.0256401336216854,-2.7424864142954357,7
2025-03-05 14:25:05.462,0.0245138879361465,-1.9084293254816609,7
2025-03-05 14:25:05.470,0.0233896158943883,-1.1167213174764974,7
2025-03-05 14:25:05.478,0.0222736244464862,-0.3700281832704691,7
2025-03-05 14:25:05.485,0.0211712686576199,0.3299049342878365,7
2025-03-05 14:25:05.493,0.0200869063334066,0.9821127528800224,7
2025-03-05 14:25:05.501,0.0190238897651901,1.5862696816724364,7
2025-03-05 14:25:05.509,0.0179845918283696,2.14255679404121,7
2025-03-05 14:25:05.517,0.0169704624063247,2.651541394558194,7
2025-03-05 14:25:05.524,0.0159821104666984,3.114073409700248,7
2025-03-05 14:25:05.532,0.015019406983648,3.5312015078356604,7
2025-03-05 14:25:05.540,0.014081603895837,3.90411048235681,7
2025-03-05 14:25:05.548,0.0131674639914298,4.23408006311218,7
2025-03-05 14:25:05.556,0.0122753960196859,4.522464005912295,7
2025-03-05 14:25:05.564,0.0114035888717316,4.770687100250087,7
2025-03-05 14:25:05.571,0.0105501387399706,4.980256683943239,7
2025-03-05 14:25:05.579,0.0097131638678821,5.152784409830662,7
2025-03-05 14:25:05.587,0.0088909028186371,5.2900134208263925,7
2025-03-05 14:25:05.595,0.0080817939691295,5.393845798679916,7
2025-03-05 14:25:05.603,0.0072845357281295,5.466365192709158,7
2025-03-05 14:25:05.610,0.0064981282075916,5.50984992583517,7
2025-03-05 14:25:05.618,0.00572189747384,5.52677261419837,7
2025-03-05 14:25:05.626,0.0049555033200323,5.519783396469695,7
2025-03-05 14:25:05.634,0.0041989312683161,5.491675193843894,7
2025-03-05 14:25:05.642,0.0034524695430474,5.445330925921829,7
2025-03-05 14:25:05.650,0.0027166719476321,5.383654180668599,7
2025-03-05 14:25:05.657,0.001992307794427,5.309486353808098,7
2025-03-05 14:25:05.665,0.0012803004449811,5.225514610379573,7
2025-03-05 14:25:05.673,0.0005816567551151,5.134176070677385,7
2025-03-05 14:25:05.681,-0.0001026094822278,5.037564305491957,7
2025-03-05 14:25:05.689,-0.000771556546746,4.937344498648354,7
2025-03-05 14:25:05.696,-0.0014243925876054,4.834683489800266,7
2025-03-05 14:25:05.704,-0.0020605483619777,4.73020036484628,7
2025-03-05 14:25:05.712,-0.0026797405763961,4.623942349337724,7
2025-03-05 14:25:05.720,-0.0032820209547618,4.515389526648711,7
2025-03-05 14:25:05.728,-0.0038678061121822,4.403490403393284,7
2025-03-05 14:25:05.735,-0.0044378841319638,4.286728651473145,7
2025-03-05 14:25:05.743,-0.0049933955008004,4.163219560073357,7
2025-03-05 14:25:05.751,-0.005535788571399,4.030832938999057,7
2025-03-05 14:25:05.759,-0.0060667525181054,3.887337542690673,7
2025-03-05 14:25:05.767,-0.006588133174618,3.730560645533117,7
2025-03-05 14:25:05.775,-0.0071018387001329,3.5585552927100768,7
2025-03-05 14:25:05.782,-0.0076097425281544,3.369767051574566,7
2025-03-05 14:25:05.790,-0.0081135904760625,3.163191841508519,7
2025-03-05 14:25:05.798,-0.0086149173481276,2.938516639854352,7
2025-03-05 14:25:05.806,-0.009114976278045,2.6962355324082043,7
2025-03-05 14:25:05.814,-0.009614682023602,2.4377346574534746,7
2025-03-05 14:25:05.821,-0.0101145678662865,2.165341018910788,7
2025-03-05 14:25:05.829,-0.0106147548389758,1.882331835845565,7
2025-03-05 14:25:05.837,-0.0111149317234672,1.592902955769501,7
2025-03-05 14:25:05.845,-0.011614344599953,1.30209677865373,7
2025-03-05 14:25:05.853,-0.012111795622873,1.015692003939548,7
2025-03-05 14:25:05.860,-0.0126056519384742,0.7400592197958992,7
2025-03-05 14:25:05.868,-0.0130938667889342,0.4819878180105196,7
2025-03-05 14:25:05.876,-0.013574015261161,0.2484908778683186,7
2025-03-05 14:25:05.884,-0.0140433465205378,0.0465954770535021,7
2025-03-05 14:25:05.892,-0.0144988529706128,-0.1168736675388583,7
2025-03-05 14:25:05.900,-0.0149373551422078,-0.2355092596608793,7
2025-03-05 14:25:05.907,-0.0153555996445478,-0.3035275158689773,7
2025-03-05 14:25:05.915,-0.0157503663649878,-0.3159582558740342,7
2025-03-05 14:25:05.923,-0.0161185803197546,-0.2688128646472434,7
2025-03-05 14:25:05.931,-0.0164574231445078,-0.1592251005221597,7
2025-03-05 14:25:05.939,-0.0167644391696928,0.0144390719764987,7
2025-03-05 14:25:05.946,-0.0170376313229749,0.2525052217756409,7
2025-03-05 14:25:05.954,-0.0172755426093419,0.5539491851154148,7
2025-03-05 14:25:05.962,-0.0174773193745509,0.9163911333717798,7
2025-03-05 14:25:05.970,-0.0176427527955042,1.3361243457119705,7
2025-03-05 14:25:05.978,-0.0177722953217771,1.8081772028692435,7
2025-03-05 14:25:05.985,-0.0178670496390895,2.326406172040669,7
2025-03-05 14:25:05.993,-0.0179287293609377,2.88361690939591,7
2025-03-05 14:25:06.001,-0.0179595927485519,3.471710060830569,7
2025-03-05 14:25:06.009,-0.0179623526455645,4.081847885525727,7
2025-03-05 14:25:06.017,-0.0179400669075316,4.70463745018899,7
2025-03-05 14:25:06.025,-0.017896013856217,5.330325837256237,7
2025-03-05 14:25:06.032,-0.0178335572330178,5.949002580246671,7
2025-03-05 14:25:06.040,-0.0177560053859641,6.55080439822649,7
2025-03-05 14:25:06.048,-0.0176664702297028,7.126117271804439,7
2025-03-05 14:25:06.056,-0.0175677325838678,7.665771009954917,7
2025-03-05 14:25:06.064,-0.0174621211481075,8.161221719236508,7
2025-03-05 14:25:06.071,-0.0173514120224071,8.604718010336494,7
2025-03-05 14:25:06.079,-0.0172367543152442,8.989447346811021,7
2025-03-05 14:25:06.087,-0.0171186254312642,9.309659619955216,7
2025-03-05 14:25:06.095,-0.0169968175072888,9.560765767667958,7
2025-03-05 14:25:06.103,-0.0168704544559782,9.739409987354527,7
2025-03-05 14:25:06.110,-0.0167380374781619,9.843514779851608,7
2025-03-05 14:25:06.118,-0.0165975158870445,9.87229868171982,7
2025-03-05 14:25:06.126,-0.0164463794053499,9.826267097365324,7
2025-03-05 14:25:06.134,-0.0162817673264211,9.707177143286216,7
2025-03-05 14:25:06.142,-0.0161005890671534,9.517977876326226,7
2025-03-05 14:25:06.150,-0.0158996501175385,9.262727696044674,7
2025-03-05 14:25:06.157,-0.0156757775588213,8.946491073666492,7
2025-03-05 14:25:06.165,-0.015425940246959,8.57521704616877,7
2025-03-05 14:25:06.173,-0.0151473602775319,8.155602111423466,7
2025-03-05 14:25:06.181,-0.0148376139079377,7.694940274678183,7
2025-03-05 14:25:06.189,-0.014494720862254,7.200963053046015,7
2025-03-05 14:25:06.196,-0.0141172204620508,6.681672278884828,7
2025-03-05 14:25:06.204,-0.0137042318594589,6.145168588163867,7
2025-03-05 14:25:06.212,-0.0132554948789536,5.599478557132319,7
2025-03-05 14:25:06.220,-0.0127713882787401,5.05238356798438,7
2025-03-05 14:25:06.228,-0.0122529234926399,4.511253641548316,7
2025-03-05 14:25:06.235,-0.0117017135714475,3.9828896656342136,7
2025-03-05 14:25:06.243,-0.0111199186873866,3.473377654980528,7
2025-03-05 14:25:06.251,-0.0105101710186814,2.987958870702913,7
2025-03-05 14:25:06.259,-0.0098754830340111,2.5309197535942736,7
2025-03-05 14:25:06.267,-0.0092191441153311,2.105505621986862,7
2025-03-05 14:25:06.275,-0.0085446110663447,1.7138618826775769,7
2025-03-05 14:25:06.282,-0.0078553983343937,1.3570060447117782,7
2025-03-05 14:25:06.290,-0.0071549737149127,1.034833077078008,7
2025-03-05 14:25:06.298,-0.0064466649066411,0.7461556108415962,7
2025-03-05 14:25:06.306,-0.0057335815469178,0.4887791834375594,7
2025-03-05 14:25:06.314,-0.005018556291607,0.2596112164074152,7
2025-03-05 14:25:06.321,-0.0043041071332006,0.0548007969928453,7
2025-03-05 14:25:06.329,-0.0035924215006742,-0.1300952824558755,7
2025-03-05 14:25:06.337,-0.0028853608092813,-0.2999262472218837,7
2025-03-05 14:25:06.345,-0.0021844821999459,-0.4597480368179304,7
2025-03-05 14:25:06.353,-0.0014910726426528,-0.6146189755044655,7
2025-03-05 14:25:06.360,-0.0008061899279175,-0.7693987203964078,7
2025-03-05 14:25:06.368,-0.0001307055900198,-0.9285585859284156,7
2025-03-05 14:25:06.376,0.0005346538178332,-1.0960106672749563,7
2025-03-05 14:25:06.384,0.0011892690498086,-1.2749621215703968,7
2025-03-05 14:25:06.392,0.0018325946381503,-1.4677996227592838,7
2025-03-05 14:25:06.400,0.0024641290704592,-1.6760074985210125,7
2025-03-05 14:25:06.407,0.003083387768998,-1.9001214959308517,7
2025-03-05 14:25:06.415,0.0036898780604066,-2.1397186038298464,7
2025-03-05 14:25:06.423,0.0042830759820541,-2.3934419630688,7
2025-03-05 14:25:06.431,0.0048624058650992,-2.6590586759883195,7
2025-03-05 14:25:06.439,0.0054272247750945,-2.9335473138320936,7
2025-03-05 14:25:06.446,0.0059768145377267,-3.21321112390822,7
2025-03-05 14:25:06.454,0.0065103839507533,-3.4938123493304887,7
2025-03-05 14:25:06.462,0.0070270830447423,-3.770722672060882,7
2025-03-05 14:25:06.470,0.0075260301267328,-4.039084545592224,7
2025-03-05 14:25:06.478,0.0080063508534826,-4.293978069508376,7
2025-03-05 14:25:06.485,0.0084672269293104,-4.530588056788544,7
2025-03-05 14:25:06.493,0.0089079507273987,-4.744366046593383,7
2025-03-05 14:25:06.501,0.0093279815317786,-4.9311822120419855,7
2025-03-05 14:25:06.509,0.0097269990738577,-5.0874623980682365,7
2025-03-05 14:25:06.517,0.0101049503622121,-5.210305904955617,7
2025-03-05 14:25:06.525,0.0104620862921831,-5.29758013297591,7
2025-03-05 14:25:06.532,0.0107989849085417,-5.347988858355446,7
2025-03-05 14:25:06.540,0.0111165583528877,-5.361111749108493,7
2025-03-05 14:25:06.548,0.0114160407708623,-5.337413750961884,7
2025-03-05 14:25:06.556,0.0116989553179573,-5.278224137225163,7
2025-03-05 14:25:06.564,0.0119670601361869,-5.1856862451736845,7
2025-03-05 14:25:06.571,0.0122222754870164,-5.062680123362451,7
2025-03-05 14:25:06.579,0.012466596430128,-4.912721403295435,7
2025-03-05 14:25:06.587,0.012701996845588,-4.73984061773775,7
2025-03-05 14:25:06.595,0.0129303309227057,-4.548447873099755,7
2025-03-05 14:25:06.603,0.0131532377387622,-4.343188225265074,7
2025-03-05 14:25:06.610,0.0133720537702897,-4.128793308032416,7
2025-03-05 14:25:06.618,0.0135877374456544,-3.9099347361525,7
2025-03-05 14:25:06.626,0.0138008090694119,-3.691084573912726,7
2025-03-05 14:25:06.634,0.0140113085141453,-3.4763877527167337,7
2025-03-05 14:25:06.642,0.0142187721738728,-3.2695507657336838,7
2025-03-05 14:25:06.650,0.0144222299902543,-3.0737502903354024,7
2025-03-05 14:25:06.657,0.014620222774892,-2.8915646102107546,7
2025-03-05 14:25:06.665,0.0148108394293901,-2.724929846519683,7
2025-03-05 14:25:06.673,0.0149917731810867,-2.575122083068037,7
2025-03-05 14:25:06.681,0.0151603957544119,-2.442765514813757,7
2025-03-05 14:25:06.689,0.0153138482122632,-2.327865799648307,7
2025-03-05 14:25:06.696,0.0154491465322598,-2.2298668892000904,7
2025-03-05 14:25:06.704,0.0155632986161451,-2.147728789909134,7
2025-03-05 14:25:06.712,0.0156534276893162,-2.080022987135111,7
2025-03-05 14:25:06.720,0.0157168956278623,-2.0250416694872904,7
2025-03-05 14:25:06.728,0.0157514192476426,-1.9809164278893585,7
2025-03-05 14:25:06.735,0.015755173063439,-1.9457417808815207,7
2025-03-05 14:25:06.743,0.0157268730727367,-1.917698698566976,7
2025-03-05 14:25:06.751,0.0156658373549201,-1.8951732620846544,7
2025-03-05 14:25:06.759,0.0155720205780355,-1.876865698451348,7
2025-03-05 14:25:06.767,0.0154460208416843,-1.8618852665032224,7
2025-03-05 14:25:06.775,0.01528905862695,-1.84982683790836,7
2025-03-05 14:25:06.782,0.0151029289816546,-1.84082552363018,7
2025-03-05 14:25:06.790,0.0148899294312214,-1.8355863482224015,7
2025-03-05 14:25:06.798,0.0146527674410345,-1.8353867734310072,7
2025-03-05 14:25:06.806,0.0143944525512022,-1.8420508098447577,7
2025-03-05 14:25:06.814,0.0141181794300526,-1.857894511826148,7
2025-03-05 14:25:06.821,0.0138272087526615,-1.8856437990901405,7
2025-03-05 14:25:06.829,0.0135247527402477,-1.9283267507167443,7
2025-03-05 14:25:06.837,0.0132138713208094,-1.989143725798605,7
2025-03-05 14:25:06.845,0.0128973833469973,-2.0713198233461445,7
2025-03-05 14:25:06.853,0.0125777955709687,-2.177945243980373,7
2025-03-05 14:25:06.860,0.0122572506983721,-2.3118099964765526,7
2025-03-05 14:25:06.868,0.0119374950210988,-2.475240035348329,7
2025-03-05 14:25:06.876,0.0116198653775349,-2.669942245881157,7
2025-03-05 14:25:06.884,0.0113052938711453,-2.896865640005021,7
2025-03-05 14:25:06.892,0.0109943269482593,-3.1560856475760635,7
2025-03-05 14:25:06.900,0.0106871539161125,-3.4467174875453286,7
2025-03-05 14:25:06.907,0.0103836395828748,-3.766863337335165,7
2025-03-05 14:25:06.915,0.0100833565357295,-4.113596479106065,7
2025-03-05 14:25:06.923,0.0097856140903758,-4.482983897317964,7
2025-03-05 14:25:06.931,0.0094894824575919,-4.870147038440749,7
2025-03-05 14:25:06.939,0.0091938118298449,-5.269358710124419,7
2025-03-05 14:25:06.946,0.0088972469698056,-5.674172465415263,7
2025-03-05 14:25:06.954,0.0085982386831939,-6.077579350714046,7
2025-03-05 14:25:06.962,0.0082950542411117,-6.47218565754873,7
2025-03-05 14:25:06.970,0.0079857891039478,-6.850404372358805,7
2025-03-05 14:25:06.978,0.0076683820209965,-7.204652422704303,7
2025-03-05 14:25:06.985,0.0073406348892641,-7.527545613247652,7
2025-03-05 14:25:06.993,0.0070002379323495,-7.812083351031115,7
2025-03-05 14:25:07.001,0.0066447999615357,-8.051815879860062,7
2025-03-05 14:25:07.009,0.0062718828436298,-8.240987763840275,7
2025-03-05 14:25:07.017,0.0058790391056664,-8.374652743361612,7
2025-03-05 14:25:07.025,0.0054638520097022,-8.44875676583594,7
2025-03-05 14:25:07.032,0.0050239781345447,-8.46018786887738,7
2025-03-05 14:25:07.040,0.0045571929742514,-8.406793539535519,7
2025-03-05 14:25:07.048,0.0040614400284886,-8.287368047909887,7
2025-03-05 14:25:07.056,0.0035348834545579,-8.101613912256886,7
2025-03-05 14:25:07.064,0.0029759638594046,-7.850082962400504,7
2025-03-05 14:25:07.071,0.0023834563720591,-7.534103321333822,7
2025-03-05 14:25:07.079,0.001756529779955,-7.155698950325683,7
2025-03-05 14:25:07.087,0.0010948052621029,-6.717508173888453,7
2025-03-05 14:25:07.095,0.0003984130191656,-6.222706840911197,7
2025-03-05 14:25:07.103,-0.000331955352544,-5.67494056223965,7
2025-03-05 14:25:07.110,-0.0010950016657852,-5.078268914311204,7
2025-03-05 14:25:07.118,-0.0018887868248724,-4.43712276798582,7
2025-03-05 14:25:07.126,-0.0027107113136681,-3.756274163419361,7
2025-03-05 14:25:07.134,-0.0035575138070098,-3.0408165758519576,7
2025-03-05 14:25:07.142,-0.0044252900403236,-2.296152150961513,7
2025-03-05 14:25:07.150,-0.005309532846733,-1.5279816377814124,7
2025-03-05 14:25:07.157,-0.0062051932943145,-0.7422923650657524,7
2025-03-05 14:25:07.165,-0.007106762019418,0.054660307477445,7
2025-03-05 14:25:07.173,-0.0080083689321598,0.8563821249556937,7
2025-03-05 14:25:07.181,-0.008903898495226,1.6561828717164633,7
2025-03-05 14:25:07.189,-0.0097871170257,2.4472352153919044,7
2025-03-05 14:25:07.196,-0.0106518081246411,3.222650316237172,7
2025-03-05 14:25:07.204,-0.0114919122755167,3.9755697385325046,7
2025-03-05 14:25:07.212,-0.0123016666295432,4.69927190082116,7
2025-03-05 14:25:07.220,-0.0130757409284602,5.387290094635066,7
2025-03-05 14:25:07.228,-0.0138093654399371,6.033538055156924,7
2025-03-05 14:25:07.235,-0.0144984467237462,6.632438245456024,7
2025-03-05 14:25:07.243,-0.0151396670595618,7.179047473314115,7
2025-03-05 14:25:07.251,-0.0157305635243433,7.669174234674744,7
2025-03-05 14:25:07.259,-0.0162695830468414,8.099482286973991,7
2025-03-05 14:25:07.267,-0.0167561103443235,8.467575391357219,7
2025-03-05 14:25:07.275,-0.0171904665319349,8.77205889143257,7
2025-03-05 14:25:07.282,-0.0175738774123344,9.012574759003172,7
2025-03-05 14:25:07.290,-0.0179084120159528,9.1898078579908,7
2025-03-05 14:25:07.298,-0.0181968937779057,9.305462376698449,7
2025-03-05 14:25:07.306,-0.0184427884227732,9.362208585658331,7
2025-03-05 14:25:07.314,-0.0186500736717482,9.3636012411358,7
2025-03-05 14:25:07.321,-0.0188230960786686,9.313972037628927,7
2025-03-05 14:25:07.329,-0.0189664199475393,9.218299490235657,7
2025-03-05 14:25:07.337,-0.0190846729671847,9.082060473193708,7
2025-03-05 14:25:07.345,-0.0191823932508221,8.911068326045756,7
2025-03-05 14:25:07.353,-0.0192638826960207,8.711302939588625,7
2025-03-05 14:25:07.360,-0.0193330716082056,8.488738534557424,7
2025-03-05 14:25:07.368,-0.0193933992646267,8.249174938792807,7
2025-03-05 14:25:07.376,-0.0194477146147486,7.998078049389423,7
2025-03-05 14:25:07.384,-0.0194982005119291,7.740434834689129,7
2025-03-05 14:25:07.392,-0.0195463236516254,7.480627693316662,7
2025-03-05 14:25:07.400,-0.0195928110777416,7.222332259963082,7
2025-03-05 14:25:07.407,-0.0196376531850943,6.968441857801192,7
2025-03-05 14:25:07.415,-0.0196801326187766,6.721020783938088,7
2025-03-05 14:25:07.423,-0.019718877966799,6.4812875253919575,7
2025-03-05 14:25:07.431,-0.0197519403505199,6.249627892708844,7
2025-03-05 14:25:07.439,-0.0197768899575277,6.025636980776351,7
2025-03-05 14:25:07.446,-0.0197909285085187,5.8081878716575455,7
2025-03-05 14:25:07.454,-0.0197910128244456,5.595524126859277,7
2025-03-05 14:25:07.462,-0.0197739839795966,5.385372415029037,7
2025-03-05 14:25:07.470,-0.0197366958873708,5.175071114009914,7
2025-03-05 14:25:07.478,-0.0196761368802867,4.961710423229851,7
2025-03-05 14:25:07.485,-0.0195895383674596,4.742279409361484,7
2025-03-05 14:25:07.493,-0.0194744659787992,4.513815449980962,7
2025-03-05 14:25:07.501,-0.0193288903140815,4.27355169146373,7
2025-03-05 14:25:07.509,-0.0191512361311798,4.019058356383617,7
2025-03-05 14:25:07.517,-0.0189404103831641,3.7483739909261913,7
2025-03-05 14:25:07.525,-0.0186958109023548,3.460123014613262,7
2025-03-05 14:25:07.532,-0.018417318618336,3.1536162131353045,7
2025-03-05 14:25:07.540,-0.018105276755174,2.8289311017799847,7
2025-03-05 14:25:07.548,-0.0177604603630358,2.4869693986688417,7
2025-03-05 14:25:07.556,-0.017384039100079,2.129489215404316,7
2025-03-05 14:25:07.564,-0.0169775358708293,1.7591100345853263,7
2025-03-05 14:25:07.571,-0.0165427838075675,1.3792891278676451,7
2025-03-05 14:25:07.579,-0.016081883790501,0.9942687874423082,7
2025-03-05 14:25:07.587,-0.015597164051978,0.6089945916461958,7
2025-03-05 14:25:07.595,-0.0150911425962577,0.2290058770882013,7
2025-03-05 14:25:07.603,-0.014566492389797,-0.1396993944223238,7
2025-03-05 14:25:07.610,-0.0140260084724521,-0.4908221530292678,7
2025-03-05 14:25:07.618,-0.0134725752412357,-0.8179378993003538,7
2025-03-05 14:25:07.626,-0.0129091314747578,-1.1146853969424355,7
2025-03-05 14:25:07.634,-0.012338630665769,-1.3749624313165092,7
2025-03-05 14:25:07.642,-0.0117639949392,-1.5931220543388145,7
2025-03-05 14:25:07.650,-0.0111880618407582,-1.7641623267592783,7
2025-03-05 14:25:07.657,-0.0106135243280236,-1.8839024348287696,7
2025-03-05 14:25:07.665,-0.0100428654934295,-1.949138252329808,7
2025-03-05 14:25:07.673,-0.0094782909801351,-1.957770978155316,7
2025-03-05 14:25:07.681,-0.0089216634144123,-1.9089034092032915,7
2025-03-05 14:25:07.689,-0.0083744439240011,-1.80289967015494,7
2025-03-05 14:25:07.696,-0.0078376456557405,-1.6414057363299093,7
2025-03-05 14:25:07.704,-0.0073118033979476,-1.427329747116432,7
2025-03-05 14:25:07.712,-0.0067969623744378,-1.1647828028798326,7
2025-03-05 14:25:07.720,-0.0062926880601295,-0.8589825658796896,7
2025-03-05 14:25:07.728,-0.0057980972489262,-0.5161234625450893,7
2025-03-05 14:25:07.735,-0.0053119087470048,-0.1432185472306343,7
2025-03-05 14:25:07.743,-0.0048325106836146,0.252080908764214,7
2025-03-05 14:25:07.751,-0.0043580409807042,0.6616813240207006,7
2025-03-05 14:25:07.759,-0.0038864775983616,1.0772510211192732,7
2025-03-05 14:25:07.767,-0.0034157351100671,1.4904254617001655,7
2025-03-05 14:25:07.775,-0.0029437638641363,1.8930064270360327,7
2025-03-05 14:25:07.782,-0.0024686478393296,2.2771485771569018,7
2025-03-05 14:25:07.790,-0.0019886975352956,2.635527609422309,7
2025-03-05 14:25:07.798,-0.0015025346240522,2.961485276453717,7
2025-03-05 14:25:07.806,-0.0010091652279648,3.249147768524611,7
2025-03-05 14:25:07.814,-0.0005080385703306,3.493515350280309,7
2025-03-05 14:25:07.821,9.122025347704938e-07,3.690522579005353,7
2025-03-05 14:25:07.829,0.0005172497268647,3.837069821008368,7
2025-03-05 14:25:07.837,0.0010400345524268,3.931028021890976,7
2025-03-05 14:25:07.845,0.00156785063726,3.9712196870953496,7
2025-03-05 14:25:07.853,0.0020988538936307,3.957379730223887,7
2025-03-05 14:25:07.860,0.0026308418462523,3.8901002223654335,7
2025-03-05 14:25:07.868,0.0031613407678638,3.7707631368281,7
2025-03-05 14:25:07.876,0.0036877054462522,3.6014649737558484,7
2025-03-05 14:25:07.884,0.0042072263068425,3.3849367341891394,7
2025-03-05 14:25:07.892,0.0047172387126887,3.1244621663533176,7
2025-03-05 14:25:07.900,0.0052152293771557,2.823796593439724,7
2025-03-05 14:25:07.907,0.0056989347085819,2.4870880017408736,7
2025-03-05 14:25:07.915,0.0061664258163489,2.118801456478685,7
2025-03-05 14:25:07.923,0.0066161753659656,1.7236473466509403,7
2025-03-05 14:25:07.931,0.0070471027396042,1.3065134623895849,7
2025-03-05 14:25:07.939,0.007458595749938,0.872400500229676,7
2025-03-05 14:25:07.946,0.0078505089025777,0.4263602932068905,7
2025-03-05 14:25:07.954,0.0082231394932655,-0.0265641093087692,7
2025-03-05 14:25:07.962,0.0085771835289781,-0.4813974198544667,7
2025-03-05 14:25:07.970,0.0089136736939403,-0.933290944825814,7
2025-03-05 14:25:07.978,0.0092339017202218,-1.3775818142781466,7
2025-03-05 14:25:07.986,0.0095393280046736,-1.809852779331084,7
2025-03-05 14:25:07.993,0.0098314821682631,-2.225992273502608,7
2025-03-05 14:25:08.001,0.0101118590622887,-2.6222538937338333,7
2025-03-05 14:25:08.009,0.0103818152189078,-2.9953138949730254,7
2025-03-05 14:25:08.017,0.0106424710715757,-3.34232477174848,7
2025-03-05 14:25:08.025,0.010894624569146,-3.660962594364274,7
2025-03-05 14:25:08.032,0.0111386819084676,-3.9494655460357313,7
2025-03-05 14:25:08.040,0.0113746107762855,-4.206661122691552,7
2025-03-05 14:25:08.048,0.0116019206282805,-4.431979732723691,7
2025-03-05 14:25:08.056,0.0118196731584488,-4.625452957542757,7
2025-03-05 14:25:08.064,0.0120265242794318,-4.7876954585657145,7
2025-03-05 14:25:08.071,0.0122207967143939,-4.919870370430083,7
2025-03-05 14:25:08.079,0.0124005797982605,-5.023638921751535,7
2025-03-05 14:25:08.087,0.0125638505303247,-5.101095893961164,7
2025-03-05 14:25:08.095,0.0127086077896419,-5.154693295266443,7
2025-03-05 14:25:08.103,0.01283301051649,-5.187155233224266,7
2025-03-05 14:25:08.111,0.0129355107852532,-5.201387376255624,7
2025-03-05 14:25:08.118,0.0130149735582293,-5.200384585259433,7
2025-03-05 14:25:08.126,0.0130707758372899,-5.187140279669693,7
2025-03-05 14:25:08.134,0.0131028788071394,-5.1645609052088455,7
2025-03-05 14:25:08.142,0.0131118677887484,-5.135388527942726,7
2025-03-05 14:25:08.150,0.0130989566346399,-5.102134122342841,7
2025-03-05 14:25:08.157,0.01306595542717,-5.06702357255332,7
2025-03-05 14:25:08.165,0.0130152027069672,-5.031957779917874,7
2025-03-05 14:25:08.173,0.012949465788542,-4.998487575439156,7
2025-03-05 14:25:08.181,0.0128718148409062,-4.967803385726683,7
2025-03-05 14:25:08.189,0.0127854780428964,-4.9407388198743165,7
2025-03-05 14:25:08.196,0.0126936860750373,-4.917786575535401,7
2025-03-05 14:25:08.204,0.0125995146299681,-4.899124365262996,7
2025-03-05 14:25:08.212,0.0125057337855646,-4.884648007649494,7
2025-03-05 14:25:08.220,0.0124146729851386,-4.874008476991027,7
2025-03-05 14:25:08.228,0.0123281097634092,-4.866649610221221,7
2025-03-05 14:25:08.236,0.0122471890326018,-4.8618433585362295,7
2025-03-05 14:25:08.243,0.012172377639991,-4.85871994418691,7
2025-03-05 14:25:08.251,0.0121034562160908,-4.856291009434859,7
2025-03-05 14:25:08.259,0.0120395475410309,-4.853464760867189,7
2025-03-05 14:25:08.267,0.0119791783690547,-4.849053127978238,7
2025-03-05 14:25:08.275,0.0119203702082384,-4.841771966836781,7
2025-03-05 14:25:08.282,0.0118607537588209,-4.830236245812723,7
2025-03-05 14:25:08.290,0.0117977010705627,-4.8129528616302775,7
2025-03-05 14:25:08.298,0.0117284687490278,-4.788314181259293,7
2025-03-05 14:25:08.306,0.0116503449043721,-4.754595543204821,7
2025-03-05 14:25:08.314,0.011560792271639,-4.7099597633738925,7
2025-03-05 14:25:08.321,0.0114575801772063,-4.6524711909150565,7
2025-03-05 14:25:08.329,0.011338898813359,-4.580121097439611,7
2025-03-05 14:25:08.337,0.011203450609702,-4.490865237689079,7
2025-03-05 14:25:08.345,0.0110505153196876,-4.382673388014228,7
2025-03-05 14:25:08.353,0.0108799876089745,-4.253589651442759,7
2025-03-05 14:25:08.361,0.0106923880226729,-4.101801403920862,7
2025-03-05 14:25:08.368,0.0104888496591912,-3.925714010889,7
2025-03-05 14:25:08.376,0.0102710834151807,-3.724027902492319,7
2025-03-05 14:25:08.384,0.0100413245733465,-3.4958142723214456,7
2025-03-05 14:25:08.392,0.0098022633517532,-3.240585562502785,7
2025-03-05 14:25:08.400,0.0095569622203534,-2.958357019228004,7
2025-03-05 14:25:08.407,0.0093087633466486,-2.649695941923147,7
2025-03-05 14:25:08.415,0.0090611901129916,-2.315755784440048,7
2025-03-05 14:25:08.423,0.0088178467349575,-1.958292958818019,7
2025-03-05 14:25:08.431,0.0085823193618809,-1.5796649895199573,7
2025-03-05 14:25:08.439,0.0083580809631409,-1.182809508342015,7
2025-03-05 14:25:08.446,0.0081484013770645,-0.7712044037210436,7
2025-03-05 14:25:08.454,0.00795626352481,-0.3488101849084902,7
2025-03-05 14:25:08.462,0.0077842869896228,0.0800037500499432,7
2025-03-05 14:25:08.470,0.0076346605712224,0.5105467621399091,7
2025-03-05 14:25:08.478,0.0075090855044943,0.9379059975002778,7
2025-03-05 14:25:08.486,0.0074087305113131,1.3570540136296358,7
2025-03-05 14:25:08.493,0.0073341990086133,1.7629620769997163,7
2025-03-05 14:25:08.501,0.007285508171349,2.1507161150532754,7
2025-03-05 14:25:08.509,0.0072620795136826,2.5156322559404254,7
2025-03-05 14:25:08.517,0.0072627411939905,2.853368865771481,7
2025-03-05 14:25:08.525,0.0072857429788456,3.160031995424853,7
2025-03-05 14:25:08.532,0.0073287851519206,3.432271185890534,7
2025-03-05 14:25:08.540,0.0073890623363557,3.667362667177411,7
2025-03-05 14:25:08.548,0.0074633224557164,3.863277141983196,7
2025-03-05 14:25:08.556,0.0075479403174818,4.01872960080113,7
2025-03-05 14:25:08.564,0.0076390046949377,4.133209000959633,7
2025-03-05 14:25:08.571,0.0077324171748313,4.206986177063959,7
2025-03-05 14:25:08.579,0.0078240003549775,4.241099030020469,7
2025-03-05 14:25:08.587,0.0079096122443752,4.237314839005744,7
2025-03-05 14:25:08.595,0.0079852629710812,4.19807041378226,7
2025-03-05 14:25:08.603,0.0080472292908665,4.1263917063650055,7
2025-03-05 14:25:08.611,0.0080921622131298,4.025795382821351,7
2025-03-05 14:25:08.618,0.0081171834779795,3.9001756697519463,7
2025-03-05 14:25:08.626,0.0081199673779256,3.753680488519736,7
2025-03-05 14:25:08.634,0.0080988050162501,3.5905814290762232,7
2025-03-05 14:25:08.642,0.0080526482831195,3.415142455162684,7
2025-03-05 14:25:08.650,0.0079811309049158,3.231492343249188,7
2025-03-05 14:25:08.657,0.0078845644282102,3.04350572069698,7
2025-03-05 14:25:08.665,0.0077639082073813,2.854697181956628,7
2025-03-05 14:25:08.673,0.0076207141321907,2.6681323412896574,7
2025-03-05 14:25:08.681,0.0074570484374558,2.4863588633004934,7
2025-03-05 14:25:08.689,0.0072753941860042,2.3113595561468494,7
2025-03-05 14:25:08.696,0.0070785390361692,2.1445285902084845,7
2025-03-05 14:25:08.704,0.0068694538483096,1.986670894068678,7
2025-03-05 14:25:08.712,0.0066511683840918,1.8380238436471128,7
2025-03-05 14:25:08.720,0.0064266505511743,1.6982995401292862,7
2025-03-05 14:25:08.728,0.0061986952701144,1.5667452885543869,7
2025-03-05 14:25:08.736,0.0059698281253286,1.442219349873663,7
2025-03-05 14:25:08.743,0.0057422276520682,1.3232786458891956,7
2025-03-05 14:25:08.751,0.0055176687291016,1.2082748434860522,7
2025-03-05 14:25:08.759,0.0052974883191983,1.0954551214035375,7
2025-03-05 14:25:08.767,0.0050825736259257,0.9830639142502712,7
2025-03-05 14:25:08.775,0.0048733715100559,0.8694420150888493,7
2025-03-05 14:25:08.782,0.0046699169256718,0.7531195782174528,7
2025-03-05 14:25:08.790,0.0044718773821222,0.6328997797186693,7
2025-03-05 14:25:08.798,0.0042786098700175,0.5079301564955077,7
2025-03-05 14:25:08.806,0.0040892260831633,0.3777589596950541,7
2025-03-05 14:25:08.814,0.0039026611643996,0.2423742434344853,7
2025-03-05 14:25:08.821,0.0037177408691447,0.1022238899165218,7
2025-03-05 14:25:08.829,0.0035332422544607,-0.0417846302480496,7
2025-03-05 14:25:08.837,0.0033479438740916,-0.1883052397088537,7
2025-03-05 14:25:08.845,0.0031606628544848,-0.3355946152433806,7
2025-03-05 14:25:08.853,0.0029702778392278,-0.4815726373833823,7
2025-03-05 14:25:08.861,0.002775738309129,-0.6238996676020837,7
2025-03-05 14:25:08.868,0.0025760620377375,-0.7600674391285271,7
2025-03-05 14:25:08.876,0.002370323394725,-0.8874994895571272,7
2025-03-05 14:25:08.884,0.0021576358412041,-1.0036563847499669,7
2025-03-05 14:25:08.892,0.0019371322437639,-1.106140560685079,7
2025-03-05 14:25:08.900,0.0017079465897134,-1.19279549589346,7
2025-03-05 14:25:08.907,0.0014692003293618,-1.261794142822728,7
2025-03-05 14:25:08.915,0.001219995908896,-1.3117120817103116,7
2025-03-05 14:25:08.923,0.0009594191444457,-1.3415816807064584,7
2025-03-05 14:25:08.931,0.0006865509694238,-1.3509245985211351,7
2025-03-05 14:25:08.939,0.0004004878161429,-1.3397611861113756,7
2025-03-05 14:25:08.946,0.0001003686591111,-1.3085966605381794,7
2025-03-05 14:25:08.954,-0.000214594128338,-1.258385261752,7
2025-03-05 14:25:08.962,-0.0005450831812806,-1.1904748815916046,7
2025-03-05 14:25:08.970,-0.0008916464511233,-1.1065357892458672,7
2025-03-05 14:25:08.978,-0.0012546712986675,-1.0084779856019506,7
2025-03-05 14:25:08.986,-0.0016343636349484,-0.8983623282566371,7
2025-03-05 14:25:08.993,-0.0020307329993231,-0.7783108297720092,7
2025-03-05 14:25:09.001,-0.0024435841853622,-0.6504214247785625,7
2025-03-05 14:25:09.009,-0.0028725157376531,-0.5166920398864773,7
2025-03-05 14:25:09.017,-0.0033169253374431,-0.3789580252897463,7
2025-03-05 14:25:09.025,-0.0037760217450754,-0.2388459813335239,7
2025-03-05 14:25:09.032,-0.0042488425663273,-0.0977458155783473,7
2025-03-05 14:25:09.040,-0.0047342766735943,0.0431984163924113,7
2025-03-05 14:25:09.048,-0.0052310896409779,0.1830796096198658,7
2025-03-05 14:25:09.056,-0.0057379501596362,0.3212025535269003,7
2025-03-05 14:25:09.064,-0.0062534553496272,0.4570456334942596,7
2025-03-05 14:25:09.071,-0.0067761533169457,0.5902129650428218,7
2025-03-05 14:25:09.079,-0.0073045620438395,0.7203810999176173,7
2025-03-05 14:25:09.087,-0.0078371844491178,0.847244579174684,7
2025-03-05 14:25:09.095,-0.0083725200665836,0.9704644109843156,7
2025-03-05 14:25:09.103,-0.0089090742367929,1.0896230484729748,7
2025-03-05 14:25:09.111,-0.0094453659521705,1.2041886988237949,7
2025-03-05 14:25:09.118,-0.0099799355280763,1.3134909011182194,7
2025-03-05 14:25:09.126,-0.0105113531108122,1.4167083729292105,7
2025-03-05 14:25:09.134,-0.0110382286672049,1.5128692452110506,7
2025-03-05 14:25:09.142,-0.0115592235465971,1.6008630595033528,7
2025-03-05 14:25:09.150,-0.0120730630095772,1.6794633343406593,7
2025-03-05 14:25:09.157,-0.0125785483119016,1.7473591260194377,7
2025-03-05 14:25:09.165,-0.01307456616865,1.8031937911683085,7
2025-03-05 14:25:09.173,-0.0135600930234027,1.8456090684040372,7
2025-03-05 14:25:09.181,-0.0140341918004388,1.873292593058508,7
2025-03-05 14:25:09.189,-0.0144959998234368,1.8850270040709631,7
2025-03-05 14:25:09.196,-0.0149447082077407,1.879738864005117,7
2025-03-05 14:25:09.204,-0.0153795348376363,1.8565456708643504,7
2025-03-05 14:25:09.212,-0.0157996943388066,1.8147992860216815,7
2025-03-05 14:25:09.220,-0.0162043686950499,1.7541241427825078,7
2025-03-05 14:25:09.228,-0.0165926813481482,1.6744486569738084,7
2025-03-05 14:25:09.236,-0.0169636763354345,1.576028367864451,7
2025-03-05 14:25:09.243,-0.0173163029478848,1.4594595275067983,7
2025-03-05 14:25:09.251,-0.0176494058744393,1.3256821485569683,7
2025-03-05 14:25:09.259,-0.0179617207450783,1.17597191514445,7
2025-03-05 14:25:09.267,-0.0182518751570392,1.0119208434810103,7
2025-03-05 14:25:09.275,-0.0185183955495676,0.8354071238169369,7
2025-03-05 14:25:09.282,-0.0187597205824538,0.6485551493740173,7
2025-03-05 14:25:09.290,-0.0189742217233559,0.4536872982251503,7
2025-03-05 14:25:09.298,-0.0191602314137358,0.2532695341881839,7
2025-03-05 14:25:09.306,-0.0193160786712792,0.0498532914038829,7
2025-03-05 14:25:09.314,-0.0194401315892011,-0.1539836270238131,7
2025-03-05 14:25:09.321,-0.0195308459366429,-0.3556942972659084,7
2025-03-05 14:25:09.329,-0.0195868187481561,-0.552815299087954,7
2025-03-05 14:25:09.337,-0.0196068452172875,-0.7430122030791889,7
2025-03-05 14:25:09.345,-0.0195899764195211,-0.924115850838964,7
2025-03-05 14:25:09.353,-0.0195355746961247,-1.0941479597376564,7
2025-03-05 14:25:09.361,-0.0194433631698445,-1.2513352931848436,7
2025-03-05 14:25:09.368,-0.0193134657450003,-1.3941123888140614,7
2025-03-05 14:25:09.376,-0.0191464339895194,-1.521113563184047,7
2025-03-05 14:25:09.384,-0.0189432577960221,-1.6311555561772804,7
2025-03-05 14:25:09.392,-0.018705357986107,-1.7232127041629888,7
2025-03-05 14:25:09.400,-0.0184345607985039,-1.7963869208599652,7
2025-03-05 14:25:09.407,-0.0181330557989312,-1.8498750156718504,7
2025-03-05 14:25:09.415,-0.0178033397840288,-1.8829359955024532,7
2025-03-05 14:25:09.423,-0.017448149865414,-1.894860984775,7
2025-03-05 14:25:09.431,-0.0170703892684525,-1.8849482667528767,7
2025-03-05 14:25:09.439,-0.0166730493461355,-1.8524857020404029,7
2025-03-05 14:25:09.446,-0.0162591308224592,-1.796742416956245,7
2025-03-05 14:25:09.454,-0.0158315666417469,-1.7169711715782197,7
2025-03-05 14:25:09.462,-0.0153931484616178,-1.6124222180301648,7
2025-03-05 14:25:09.470,-0.0149464588493699,-1.4823687679537445,7
2025-03-05 14:25:09.478,-0.014493811237976,-1.32614345129392,7
2025-03-05 14:25:09.486,-0.0140371994291558,-1.143184424348147,7
2025-03-05 14:25:09.493,-0.0135782580758026,-0.9330891261250736,7
2025-03-05 14:25:09.501,-0.0131182352947114,-0.6956731305167893,7
2025-03-05 14:25:09.509,-0.0126579782087166,-0.431031132070502,7
2025-03-05 14:25:09.517,-0.0121979315950698,-0.139596861940809,7
2025-03-05 14:25:09.525,-0.0117381489762366,0.1778013291103796,7
2025-03-05 14:25:09.532,-0.0112783148076718,0.5198923668243773,7
2025-03-05 14:25:09.540,-0.0108177763212695,0.8849247010577882,7
2025-03-05 14:25:09.548,-0.0103555839908687,1.2706413757148778,7
2025-03-05 14:25:09.556,-0.0098905398351454,1.674269895761448,7
2025-03-05 14:25:09.564,-0.0094212524513682,2.092528309929504,7
2025-03-05 14:25:09.571,-0.0089461971961825,2.521648343422042,7
2025-03-05 14:25:09.579,-0.0084637798693432,2.95741582778506,7
2025-03-05 14:25:09.587,-0.0079724024793603,3.3952281002349816,7
2025-03-05 14:25:09.595,-0.0074705296408726,3.8301674864099393,7
2025-03-05 14:25:09.603,-0.0069567537973766,4.25708943568022,7
2025-03-05 14:25:09.611,-0.0064298572059678,4.670723341773068,7
2025-03-05 14:25:09.618,-0.0058888687381589,5.065783551545277,7
2025-03-05 14:25:09.626,-0.0053331139126795,5.437087547155062,7
2025-03-05 14:25:09.634,-0.0047622569515213,5.779677799925105,7
2025-03-05 14:25:09.642,-0.0041763339405138,6.088943370352075,7
2025-03-05 14:25:09.650,-0.0035757763798859,6.360737011864582,7
2025-03-05 14:25:09.657,-0.0029614245511762,6.591483373808352,7
2025-03-05 14:25:09.665,-0.0023345302302471,6.778273933841722,7
2025-03-05 14:25:09.673,-0.0016967483694763,6.9189445503586615,7
2025-03-05 14:25:09.681,-0.0010501174830818,7.012132023441506,7
2025-03-05 14:25:09.689,-0.0003970286243341,7.057306780539331,7
2025-03-05 14:25:09.696,0.0002598169342889,7.054779732555391,7
2025-03-05 14:25:09.704,0.0009174608977078,7.0056824312046935,7
2025-03-05 14:25:09.712,0.0015727511910347,6.911920841720728,7
2025-03-05 14:25:09.720,0.0022224138990247,6.776104264870725,7
2025-03-05 14:25:09.728,0.0028631319432756,6.601452138441074,7
2025-03-05 14:25:09.736,0.0034916279572089,6.391682561809059,7
2025-03-05 14:25:09.743,0.0041047485184393,6.150887357705285,7
2025-03-05 14:25:09.751,0.004699547030328,5.883399248968924,7
2025-03-05 14:25:09.759,0.0052733628560623,5.593657218002635,7
2025-03-05 14:25:09.767,0.0058238943753849,5.286076269852868,7
2025-03-05 14:25:09.775,0.0063492634384279,4.964927592278747,7
2025-03-05 14:25:09.782,0.0068480685662462,4.634234487180768,7
2025-03-05 14:25:09.790,0.0073194243223399,4.297688465690734,7
2025-03-05 14:25:09.798,0.0077629845286311,3.958588616831869,7
2025-03-05 14:25:09.806,0.0081789476931423,3.619805865039923,7
2025-03-05 14:25:09.814,0.0085680444286329,3.283772130153194,7
2025-03-05 14:25:09.821,0.0089315083455428,2.952492812136449,7
2025-03-05 14:25:09.829,0.0092710329382433,2.627579568052405,7
2025-03-05 14:25:09.837,0.0095887168273252,2.310299155114982,7
2025-03-05 14:25:09.845,0.0098869987919248,2.0016332826282848,7
2025-03-05 14:25:09.853,0.0101685831655862,1.7023440067094768,7
2025-03-05 14:25:09.861,0.010436355895053,1.4130392278586223,7
2025-03-05 14:25:09.868,0.010693291917931,1.1342332861597657,7
2025-03-05 14:25:09.876,0.0109423552762825,0.8663984341646775,7
2025-03-05 14:25:09.884,0.0111863942668323,0.6100040190990742,7
2025-03-05 14:25:09.892,0.0114280348687741,0.3655414197039501,7
2025-03-05 14:25:09.900,0.0116695767836415,0.1335340451907108,7
2025-03-05 14:25:09.907,0.0119128973994119,-0.0854670943044585,7
2025-03-05 14:25:09.915,0.0121593691354316,-0.290900685431724,7
2025-03-05 14:25:09.923,0.0124097945456981,-0.4822228817605172,7
2025-03-05 14:25:09.931,0.0126643617877854,-0.6589425669524411,7
2025-03-05 14:25:09.939,0.0129226215704454,-0.8206608096293868,7
2025-03-05 14:25:09.946,0.0131834859050066,-0.9671111369220934,7
2025-03-05 14:25:09.954,0.0134452486322248,-1.0981974050795145,7
2025-03-05 14:25:09.962,0.0137056275063404,-1.2140263799328708,7
2025-03-05 14:25:09.970,0.0139618275951628,-1.3149326076277623,7
2025-03-05 14:25:09.978,0.0142106256540382,-1.401493705093671,7
2025-03-05 14:25:09.986,0.0144484743760839,-1.4745347873477384,7
2025-03-05 14:25:09.993,0.0146716238930273,-1.5351213481281634,7
2025-03-05 14:25:10.001,0.0148762563013149,-1.5845405104741632,7
2025-03-05 14:25:10.009,0.0150586280250857,-1.6242711627193296,7
2025-03-05 14:25:10.017,0.0152152144045979,-1.655944090254429,7
2025-03-05 14:25:10.025,0.015342850492777,-1.6812937922691704,7
2025-03-05 14:25:10.032,0.0154388615852747,-1.7021042100343862,7
2025-03-05 14:25:10.040,0.0155011769271948,-1.720151052613001,7
2025-03-05 14:25:10.048,0.0155284206013593,-1.73714374662816,7
2025-03-05 14:25:10.056,0.0155199746660713,-1.7546702218311896,7
2025-03-05 14:25:10.064,0.0154760109246855,-1.7741477454961114,7
2025-03-05 14:25:10.071,0.0153974891504584,-1.796782819835147,7
2025-03-05 14:25:10.079,0.0152861211256139,-1.8235427548454608,7
2025-03-05 14:25:10.087,0.0151443014677959,-1.855140935684973,7
2025-03-05 14:25:10.095,0.0149750078919151,-1.8920370454815096,7
2025-03-05 14:25:10.103,0.0147816752690984,-1.9344526231875592,7
2025-03-05 14:25:10.111,0.0145680495709232,-1.9824013853957831,7
2025-03-05 14:25:10.118,0.0143380294766571,-2.0357327815491923,7
2025-03-05 14:25:10.126,0.0140955049075104,-2.094186348754287,7
2025-03-05 14:25:10.134,0.0138442026264436,-2.157453655418841,7
2025-03-05 14:25:10.142,0.0135875487629353,-2.2252440442454278,7
2025-03-05 14:25:10.150,0.0133285564461277,-2.2973500665845,7
2025-03-05 14:25:10.157,0.0130697439841402,-2.3737084761358163,7
2025-03-05 14:25:10.165,0.0128130858360093,-2.4544529165683606,7
2025-03-05 14:25:10.173,0.0125599954908396,-2.539954955412965,7
2025-03-05 14:25:10.181,0.0123113366646311,-2.6308508239323163,7
2025-03-05 14:25:10.189,0.0120674574108196,-2.728052050683928,7
2025-03-05 14:25:10.196,0.011828241261423,-2.832739059108048,7
2025-03-05 14:25:10.204,0.0115931702615619,-2.946337678456523,7
2025-03-05 14:25:10.212,0.0113613959018667,-3.070479345541881,7
2025-03-05 14:25:10.220,0.0111318146489193,-3.206946519576759,7
2025-03-05 14:25:10.228,0.0109031448748127,-3.3576054780584808,7
2025-03-05 14:25:10.236,0.0106740018756843,-3.524329206038101,7
2025-03-05 14:25:10.243,0.0104429677022018,-3.70891353580998,7
2025-03-05 14:25:10.251,0.0102086528320345,-3.912990034169395,7
2025-03-05 14:25:10.259,0.0099697473049395,-4.1379393556720405,7
2025-03-05 14:25:10.267,0.0097250597978746,-4.384808864359839,7
2025-03-05 14:25:10.275,0.0094735441965303,-4.654238256163765,7
2025-03-05 14:25:10.282,0.0092143143767502,-4.946396675699253,7
2025-03-05 14:25:10.290,0.008946648867967,-5.260934404907069,7
2025-03-05 14:25:10.298,0.0086699876379796,-5.596951606302212,7
2025-03-05 14:25:10.306,0.0083839235358472,-5.952985844001166,7
2025-03-05 14:25:10.314,0.008088191126861,-6.327019212189872,7
2025-03-05 14:25:10.321,0.0077826556055787,-6.7165049234374585,7
2025-03-05 14:25:10.329,0.0074673040250338,-7.118412217532099,7
2025-03-05 14:25:10.337,0.007142240429039,-7.529287527401988,7
2025-03-05 14:25:10.345,0.0068076858051434,-7.94532906270714,7
2025-03-05 14:25:10.353,0.0064639829558526,-8.362471406465236,7
2025-03-05 14:25:10.361,0.0061116053258825,-8.776476399327283,7
2025-03-05 14:25:10.368,0.0057511677429426,-9.183026511784751,7
2025-03-05 14:25:10.376,0.0053834362245331,-9.577817052356684,7
2025-03-05 14:25:10.384,0.0050093336285788,-9.95664389030027,7
2025-03-05 14:25:10.392,0.0046299380273986,-10.31548384058372,7
2025-03-05 14:25:10.400,0.0042464712724336,-10.650565423753688,7
2025-03-05 14:25:10.407,0.0038602762832197,-10.958428334180203,7
2025-03-05 14:25:10.415,0.003472783093354,-11.235970590823822,7
2025-03-05 14:25:10.423,0.0030854654443894,-11.480482971691751,7
2025-03-05 14:25:10.431,0.0026997913073114,-11.689670915444228,7
2025-03-05 14:25:10.439,0.002317171557415,-11.861664583573404,7
2025-03-05 14:25:10.447,0.0019389108473852,-11.995018191446484,7
2025-03-05 14:25:10.454,0.0015661637914713,-12.088700019400058,7
2025-03-05 14:25:10.462,0.001199898455468,-12.142074696890088,7
2025-03-05 14:25:10.470,0.0008408682624981,-12.154879415428628,7
2025-03-05 14:25:10.478,0.0004895929199438,-12.127195684484509,7
2025-03-05 14:25:10.486,0.0001463487726255,-12.059418123572282,7
2025-03-05 14:25:10.493,-0.0001888311469219,-11.95222161395784,7
2025-03-05 14:25:10.501,-0.0005161473354143,-11.8065279488296,7
2025-03-05 14:25:10.509,-0.0008360144677946,-11.623472956720557,7
2025-03-05 14:25:10.517,-0.0011490326557528,-11.40437495914333,7
2025-03-05 14:25:10.525,-0.0014559495838736,-11.15070537312531,7
2025-03-05 14:25:10.532,-0.0017576143712253,-10.864062270377504,7
2025-03-05 14:25:10.540,-0.0020549250363443,-10.546147719083342,7
2025-03-05 14:25:10.548,-0.0023487724736455,-10.198749709368338,7
2025-03-05 14:25:10.556,-0.002639984482926,-9.823729351750424,7
2025-03-05 14:25:10.564,-0.0029292734906894,-9.42301381221479,7
2025-03-05 14:25:10.572,-0.0032171912464111,-8.99859510658385,7
2025-03-05 14:25:10.579,-0.0035040932170619,-8.552534440689216,7
2025-03-05 14:25:10.587,-0.0037901148182409,-8.086971286700606,7
2025-03-05 14:25:10.595,-0.0040751608887607,-7.604135874777145,7
2025-03-05 14:25:10.603,-0.0043589088013351,-7.106363304477915,7
2025-03-05 14:25:10.611,-0.0046408245901117,-6.596107099177962,7
2025-03-05 14:25:10.618,-0.0049201908999616,-6.075949797686354,7
2025-03-05 14:25:10.626,-0.0051961454093985,-5.5486081473963536,7
2025-03-05 14:25:10.634,-0.0054677282267934,-5.016930651942827,7
2025-03-05 14:25:10.642,-0.0057339362620073,-4.483885618927556,7
2025-03-05 14:25:10.650,-0.0059937817380172,-3.952538409906859,7
2025-03-05 14:25:10.657,-0.0062463512053836,-3.426017267149735,7
2025-03-05 14:25:10.665,-0.0064908612013194,-2.907467836478836,7
2025-03-05 14:25:10.673,-0.0067267073173322,-2.399997287397497,7
2025-03-05 14:25:10.681,-0.0069535046133354,-1.906609717047425,7
2025-03-05 14:25:10.689,-0.0071711184688176,-1.430135275058799,7
2025-03-05 14:25:10.697,-0.0073796856721762,-0.9731561164897412,7
2025-03-05 14:25:10.704,-0.0075796256769004,-0.5379328275226125,7
2025-03-05 14:25:10.712,-0.007771641605083,-0.1263353180486955,7
2025-03-05 14:25:10.720,-0.0079567101425758,0.2602177141483474,7
2025-03-05 14:25:10.728,-0.0081360594867106,0.6208068071280897,7
2025-03-05 14:25:10.736,-0.0083111352377484,0.9550437555715316,7
2025-03-05 14:25:10.743,-0.0084835552777175,1.2630848522433242,7
2025-03-05 14:25:10.751,-0.0086550556841315,1.5456235047986555,7
2025-03-05 14:25:10.759,-0.0088274301826664,1.803861465037544,7
2025-03-05 14:25:10.767,-0.0090024655280886,2.0394590724497843,7
2025-03-05 14:25:10.775,-0.0091818748675015,2.2544660942736194,7
2025-03-05 14:25:10.782,-0.0093672311091998,2.4512358760484343,7
2025-03-05 14:25:10.790,-0.0095599028422729,2.6323265369283577,7
2025-03-05 14:25:10.798,-0.0097609961263615,2.800393793143763,7
2025-03-05 14:25:10.806,-0.0099713059225719,2.9580806171083704,7
2025-03-05 14:25:10.814,-0.010191280668058,3.107909293045974,7
2025-03-05 14:25:10.822,-0.0104210024912,3.252181479105732,7
2025-03-05 14:25:10.829,-0.0106601841861607,3.392891615830359,7
2025-03-05 14:25:10.837,-0.0109081828602111,3.531658440554886,7
2025-03-05 14:25:10.845,-0.0111640294101164,3.669678510751051,7
2025-03-05 14:25:10.853,-0.0114264724278706,3.807704560978579,7
2025-03-05 14:25:10.861,-0.0116940343769577,3.946050283378767,7
2025-03-05 14:25:10.868,-0.0119650769157667,4.084621794674785,7
2025-03-05 14:25:10.876,-0.0122378714751221,4.222974688834491,7
2025-03-05 14:25:10.884,-0.0125106708866501,4.360394222976777,7
2025-03-05 14:25:10.892,-0.0127817778650224,4.495994895089982,7
2025-03-05 14:25:10.900,-0.0130496062995804,4.62883450196235,7
2025-03-05 14:25:10.907,-0.0133127317359929,4.758036776397679,7
2025-03-05 14:25:10.915,-0.0135699282459248,4.882915958921999,7
2025-03-05 14:25:10.923,-0.0138201899004462,5.003096222698546,7
2025-03-05 14:25:10.931,-0.014062736084316,5.118618793500056,7
2025-03-05 14:25:10.939,-0.0142970010175543,5.2300299251389735,7
2025-03-05 14:25:10.947,-0.0145226091705563,5.338443617957173,7
2025-03-05 14:25:10.954,-0.0147393394525457,5.445574088852487,7
2025-03-05 14:25:10.962,-0.0149470816774573,5.553734469650713,7
2025-03-05 14:25:10.970,-0.0151457888374176,5.665799950215457,7
2025-03-05 14:25:10.978,-0.0153354285275326,5.785135492300198,7
2025-03-05 14:25:10.986,-0.015515936728151,5.915490202006103,7
2025-03-05 14:25:10.993,-0.0156871769272795,6.060862340074691,7
2025-03-05 14:25:11.001,-0.0158489071043827,6.22534065435024,7
2025-03-05 14:25:11.009,-0.0160007565521558,6.412929137872157,7
2025-03-05 14:25:11.017,-0.0161422140416761,6.627363370669866,7
2025-03-05 14:25:11.025,-0.0162726282922589,6.871927237738003,7
2025-03-05 14:25:11.032,-0.0163912209462748,7.149278996704533,7
2025-03-05 14:25:11.040,-0.0164971114344503,7.461295386501328,7
2025-03-05 14:25:11.048,-0.0165893524145937,7.80894173954028,7
2025-03-05 14:25:11.056,-0.0166669737395122,8.192174929416606,7
2025-03-05 14:25:11.064,-0.0167290320238453,8.609884522877657,7
2025-03-05 14:25:11.072,-0.0167746620264094,9.059875791463408,7
2025-03-05 14:25:11.079,-0.0168031255309353,9.538896360087604,7
2025-03-05 14:25:11.087,-0.0168138533024416,10.04270630692798,7
2025-03-05 14:25:11.095,-0.0168064760390899,10.566189555535516,7
2025-03-05 14:25:11.103,-0.0167808410358094,11.103502490043168,7
2025-03-05 14:25:11.111,-0.0167370124794487,11.648253958849509,7
2025-03-05 14:25:11.118,-0.0166752548450198,12.193709302615504,7
2025-03-05 14:25:11.126,-0.0165960005923691,12.733009844996928,7
2025-03-05 14:25:11.134,-0.0164998048376206,13.259398505100592,7
2025-03-05 14:25:11.142,-0.0163872904314581,13.76644188613256,7
2025-03-05 14:25:11.150,-0.0162590869110954,14.24823938035722,7
2025-03-05 14:25:11.157,-0.0161157666115401,14.699610480282605,7
2025-03-05 14:25:11.165,-0.0159577813376025,15.116252544649884,7
2025-03-05 14:25:11.173,-0.0157854034239174,15.494862665177592,7
2025-03-05 14:25:11.181,-0.015598675314128,15.833218939846766,7
2025-03-05 14:25:11.189,-0.0153973715986995,16.13021830084965,7
2025-03-05 14:25:11.197,-0.0151809767621105,16.385869985844145,7
2025-03-05 14:25:11.204,-0.0149486809633671,16.601245690891407,7
2025-03-05 14:25:11.212,-0.0146993952754825,16.77838931075022,7
2025-03-05 14:25:11.220,-0.0144317869611147,16.920190867408895,7
2025-03-05 14:25:11.228,-0.014144334226908,17.03023066972322,7
2025-03-05 14:25:11.236,-0.0138353981167483,17.112600868866437,7
2025-03-05 14:25:11.243,-0.0135033069632784,17.171712325823727,7
2025-03-05 14:25:11.251,-0.0131464469632274,17.212095056515974,7
2025-03-05 14:25:11.259,-0.0127633518096165,17.23820045752509,7
2025-03-05 14:25:11.267,-0.0123527849457556,17.25421305776726,7
2025-03-05 14:25:11.275,-0.0119138092274668,17.263878734028097,7
2025-03-05 14:25:11.282,-0.0114458400289537,17.270355239995204,7
2025-03-05 14:25:11.290,-0.0109486790873485,17.27608961153932,7
2025-03-05 14:25:11.298,-0.0104225277496334,17.282725609728526,7
2025-03-05 14:25:11.306,-0.0098679795797257,17.291042928238973,7
2025-03-05 14:25:11.314,-0.009285993323791,17.30092850186557,7
2025-03-05 14:25:11.322,-0.0086778481485886,17.311378984484197,7
2025-03-05 14:25:11.329,-0.0080450839767655,17.3205323872479,7
2025-03-05 14:25:11.337,-0.0073894303667847,17.325726031444297,7
2025-03-05 14:25:11.345,-0.0067127273429574,17.323577398637553,7
2025-03-05 14:25:11.353,-0.0060168410018683,17.310084148982728,7
2025-03-05 14:25:11.361,-0.005303576294777,17.280739498632606,7
2025-03-05 14:25:11.368,-0.0045745896609383,17.230659251648238,7
2025-03-05 14:25:11.376,-0.0038313050101331,17.154717009849886,7
2025-03-05 14:25:11.384,-0.0030748373712723,17.04768436835967,7
2025-03-05 14:25:11.392,-0.0023059289499622,16.904373181157652,7
2025-03-05 14:25:11.400,-0.0015249022386131,16.71977719874661,7
2025-03-05 14:25:11.407,-0.0007316342694268,16.48921050645336,7
2025-03-05 14:25:11.415,7.444463364658971e-05,16.208440211864982,7
2025-03-05 14:25:11.423,0.0008943249979718,15.873810742338312,7
2025-03-05 14:25:11.431,0.0017293636477386,15.482356932259878,7
2025-03-05 14:25:11.439,0.0025812005052302,15.031902839334698,7
2025-03-05 14:25:11.447,0.0034516490311574,14.521142990433686,7
2025-03-05 14:25:11.454,0.0043425649175934,13.949702606695972,7
2025-03-05 14:25:11.462,0.0052556996243666,13.318173396522928,7
2025-03-05 14:25:11.470,0.0061925467926017,12.628121831961073,7
2025-03-05 14:25:11.478,0.0071541904238858,11.882067507432897,7
2025-03-05 14:25:11.486,0.0081411640372649,11.083430235277492,7
2025-03-05 14:25:11.493,0.0091533300484623,10.236445911063992,7
2025-03-05 14:25:11.501,0.0101897885070987,9.346052776761182,7
2025-03-05 14:25:11.509,0.011248823891576,8.417751381111996,7
2025-03-05 14:25:11.517,0.0123278976243682,7.457443138073217,7
2025-03-05 14:25:11.525,0.0134236922462511,6.47125378652475,7
2025-03-05 14:25:11.532,0.0145322107880447,5.4653491568252095,7
2025-03-05 14:25:11.540,0.0156489318574866,4.445751385868125,7
2025-03-05 14:25:11.548,0.0167690175268112,3.418164059398209,7
2025-03-05 14:25:11.556,0.0178875676225402,2.387814690118999,7
2025-03-05 14:25:11.564,0.018999910848439,1.359322465572588,7
2025-03-05 14:25:11.572,0.0201019205445651,0.3365983267838042,7
2025-03-05 14:25:11.579,0.021190340885238,-0.6772168239167852,7
2025-03-05 14:25:11.587,0.0222631079986657,-1.6797716202762667,7
2025-03-05 14:25:11.595,0.0233196498124761,-2.6694792326814887,7
2025-03-05 14:25:11.603,0.0243611481720947,-3.645447898834032,7
2025-03-05 14:25:11.611,0.0253907468292058,-4.607369412537825,7
2025-03-05 14:25:11.618,0.0264136895514045,-5.5553704513859135,7
2025-03-05 14:25:11.626,0.0274373742736832,-6.48983398696737,7
2025-03-05 14:25:11.634,0.0284713118842313,-7.411200143351033,7
2025-03-05 14:25:11.642,0.0295269814703204,-8.319757603885947,7
2025-03-05 14:25:11.650,0.0306175773328552,-9.21543787589439,7
2025-03-05 14:25:11.657,0.0317576469727508,-10.09762528522851,7
2025-03-05 14:25:11.665,0.0329626238484527,-10.964995390968856,7
2025-03-05 14:25:11.673,0.0342482638616566,-11.81539353066167,7
2025-03-05 14:25:11.681,0.0356299996606254,-12.645763430272616,7
2025-03-05 14:25:11.689,0.0371222313915378,-13.452133300872005,7
2025-03-05 14:25:11.697,0.0387375761765123,-14.229663712107678,7
2025-03-05 14:25:11.704,0.0404861011750361,-14.972757950864498,7
2025-03-05 14:25:11.712,0.0423745665457879,-15.67523176293699,7
2025-03-05 14:25:11.720,0.0444057052197461,-16.330535594517087,7
2025-03-05 14:25:11.728,0.0465775665334863,-16.932018969255417,7
2025-03-05 14:25:11.736,0.0488829506722016,-17.47322370725054,7
2025-03-05 14:25:11.743,0.0513089604062655,-17.9481905225417,7
2025-03-05 14:25:11.751,0.0538366953988095,-18.35176227516757,7
2025-03-05 14:25:11.759,0.0564411121133992,-18.679866887813315,7
2025-03-05 14:25:11.767,0.0590910690921049,-18.9297636867017,7
2025-03-05 14:25:11.775,0.0617495731942285,-19.100238653360943,7
2025-03-05 14:25:11.782,0.0643742370048273,-19.19173668464709,7
2025-03-05 14:25:11.790,0.0669179506715854,-19.206422306011323,7
2025-03-05 14:25:11.798,0.0693297630538229,-19.14816416943353,7
2025-03-05 14:25:11.806,0.0715559578932857,-19.02244285049223,7
2025-03-05 14:25:11.814,0.0735413013828664,-18.836185668099382,7
2025-03-05 14:25:11.822,0.07523042848734,-18.597536211826224,7
2025-03-05 14:25:11.829,0.0765693270629237,-18.31556972799852,7
2025-03-05 14:25:11.837,0.0775068716508592,-17.999968289552477,7
2025-03-05 14:25:11.845,0.0779963532305894,-17.66067162310187,7
2025-03-05 14:25:11.853,0.0779969476686753,-17.307520525440424,7
2025-03-05 14:25:11.861,0.0774750645441961,-16.949909967965084,7
2025-03-05 14:25:11.868,0.0764055198822095,-16.596468302568248,7
2025-03-05 14:25:11.876,0.0747724813413017,-16.254777513168374,7
2025-03-05 14:25:11.884,0.0725701425159817,-15.93114728626579,7
2025-03-05 14:25:11.892,0.0698030938389349,-15.63045290406928,7
2025-03-05 14:25:11.900,0.0664863706303732,-15.356043724719774,7
2025-03-05 14:25:11.907,0.0626451737434326,-15.109725465621976,7
2025-03-05 14:25:11.915,0.0583142744456618,-14.89181582796258,7
2025-03-05 14:25:11.923,0.0535371316978793,-14.70126937806065,7
2025-03-05 14:25:11.931,0.0483647655131654,-14.535864211493877,7
2025-03-05 14:25:11.939,0.0428544429345637,-14.392439931391678,7
2025-03-05 14:25:11.947,0.0370682414450638,-14.267174015772664,7
2025-03-05 14:25:11.954,0.0310715569063521,-14.155881849969116,7
2025-03-05 14:25:11.962,0.024931619448571,-14.054324652352316,7
2025-03-05 14:25:11.970,0.0187160725000531,-13.958509286903068,7
2025-03-05 14:25:11.978,0.0124916591787963,-13.864964556702937,7
2025-03-05 14:25:11.986,0.0063230481678075,-13.770979979617726,7
2025-03-05 14:25:11.993,0.0002718193017002,-13.674795177019382,7
2025-03-05 14:25:12.001,-0.0056043815154921,-13.575730724011976,7
2025-03-05 14:25:12.009,-0.0112525172870446,-13.474254446083773,7
2025-03-05 14:25:12.017,-0.016624671548093,-13.37198051558284,7
2025-03-05 14:25:12.025,-0.0216784105249718,-13.271602111211022,7
2025-03-05 14:25:12.032,-0.0263770167884828,-13.176761671477896,7
2025-03-05 14:25:12.040,-0.0306896213608291,-13.091865734957471,7
2025-03-05 14:25:12.048,-0.0345912641994812,-13.021853883990223,7
2025-03-05 14:25:12.056,-0.0380629113283615,-12.971933298221805,7
2025-03-05 14:25:12.064,-0.0410914505089252,-12.947291814884824,7
2025-03-05 14:25:12.072,-0.043669677435598,-12.952803141657544,7
2025-03-05 14:25:12.079,-0.045796272702846,-12.992737956514365,7
2025-03-05 14:25:12.087,-0.0474757583279567,-13.070494071429671,7
2025-03-05 14:25:12.095,-0.0487184141271315,-13.188357687369498,7
2025-03-05 14:25:12.103,-0.0495401310687079,-13.347306118206513,7
2025-03-05 14:25:12.111,-0.049962181284114,-13.546860328760305,7
2025-03-05 14:25:12.118,-0.0500108910721486,-13.784993346410891,7
2025-03-05 14:25:12.126,-0.0497172116138023,-14.058098192960076,7
2025-03-05 14:25:12.134,-0.0491161902824525,-14.36101655633642,7
2025-03-05 14:25:12.142,-0.0482463522639844,-14.68712707562637,7
2025-03-05 14:25:12.150,-0.0471490072908355,-15.028489927154736,7
2025-03-05 14:25:12.157,-0.0458674996710821,-15.376042439307444,7
2025-03-05 14:25:12.165,-0.0444464216471344,-15.71983877819757,7
2025-03-05 14:25:12.173,-0.0429308106728083,-16.049325361210943,7
2025-03-05 14:25:12.181,-0.0413653506813423,-16.35364257239056,7
2025-03-05 14:25:12.189,-0.0397935960522533,-16.621942556395997,7
2025-03-05 14:25:12.197,-0.0382572349770753,-16.843712335747743,7
2025-03-05 14:25:12.204,-0.0367954064538802,-17.00909121589923,7
2025-03-05 14:25:12.212,-0.0354440823587792,-17.109171415018125,7
2025-03-05 14:25:12.220,-0.0342355230850561,-17.13627109768731,7
2025-03-05 14:25:12.228,-0.0331978123005211,-17.084169538910825,7
2025-03-05 14:25:12.236,-0.0323544737542973,-16.94829504423493,7
2025-03-05 14:25:12.243,-0.0317241710401928,-16.72585754970769,7
2025-03-05 14:25:12.251,-0.0313204898480072,-16.415919547808393,7
2025-03-05 14:25:12.259,-0.0311518014152454,-16.01940112285156,7
2025-03-05 14:25:12.267,-0.0312212056081409,-15.539017380397564,7
2025-03-05 14:25:12.275,-0.0315265523849286,-14.979149327519652,7
2025-03-05 14:25:12.282,-0.0320605413442061,-14.345652175399934,7
2025-03-05 14:25:12.290,-0.0328109003992053,-13.64560793617844,7
2025-03-05 14:25:12.298,-0.033760645827025,-12.887031904281772,7
2025-03-05 14:25:12.306,-0.0348884265833162,-12.0785449895505,7
2025-03-05 14:25:12.314,-0.0361689557553773,-11.229025772807722,7
2025-03-05 14:25:12.322,-0.0375735312925952,-10.347257485411289,7
2025-03-05 14:25:12.329,-0.0390706463871219,-9.44158580413399,7
2025-03-05 14:25:12.337,-0.0406266868218357,-8.519603354585328,7
2025-03-05 14:25:12.345,-0.0422067083707023,-7.587876101485275,7
2025-03-05 14:25:12.353,-0.0437752821150772,-6.651725364312054,7
2025-03-05 14:25:12.361,-0.0452973893046801,-5.7150770512851565,7
2025-03-05 14:25:12.368,-0.0467393403274612,-4.780386906554703,7
2025-03-05 14:25:12.376,-0.0480696853885647,-3.84864720637028,7
2025-03-05 14:25:12.384,-0.0492600791112813,-2.919476548347684,7
2025-03-05 14:25:12.392,-0.0502860587751199,-1.9912903128691493,7
2025-03-05 14:25:12.400,-0.0511276970231822,-1.061545220139241,7
2025-03-05 14:25:12.407,-0.0517700947298632,-0.1270473629331569,7
2025-03-05 14:25:12.415,-0.0522036878409008,0.8156906190201011,7
2025-03-05 14:25:12.423,-0.0524243522705513,1.7700607196657976,7
2025-03-05 14:25:12.431,-0.0524333019402417,2.7389590005359694,7
2025-03-05 14:25:12.439,-0.0522367856000943,3.724394639362631,7
2025-03-05 14:25:12.447,-0.0518455975729223,4.727130348107428,7
2025-03-05 14:25:12.454,-0.0512744258006799,5.746375161352274,7
2025-03-05 14:25:12.462,-0.0505410675290709,6.779548676757122,7
2025-03-05 14:25:12.470,-0.0496655486433083,7.822132788550957,7
2025-03-05 14:25:12.478,-0.0486691869857754,8.867622902014322,7
2025-03-05 14:25:12.486,-0.047573642623106,9.907585727459626,7
2025-03-05 14:25:12.493,-0.046399998431863,10.931825265178484,7
2025-03-05 14:25:12.501,-0.0451679120508505,11.928652799117213,7
2025-03-05 14:25:12.509,-0.0438948751748591,12.885250943420177,7
2025-03-05 14:25:12.517,-0.0425956089949042,13.788116377269052,7
2025-03-05 14:25:12.525,-0.0412816165292289,14.623561202242549,7
2025-03-05 14:25:12.532,-0.0399609047704405,15.37824917776564,7
2025-03-05 14:25:12.540,-0.0386378824206165,16.039740693603893,7
2025-03-05 14:25:12.548,-0.037313432332722,16.597019402793013,7
2025-03-05 14:25:12.556,-0.0359851514618928,17.040974044830158,7
2025-03-05 14:25:12.564,-0.0346477451220986,17.364811112260575,7
2025-03-05 14:25:12.572,-0.0332935565422568,17.564377524568897,7
2025-03-05 14:25:12.579,-0.0319132071499219,17.63837714811263,7
2025-03-05 14:25:12.587,-0.030496318142117,17.588470538968217,7
2025-03-05 14:25:12.595,-0.0290322804080174,17.419253330988294,7
2025-03-05 14:25:12.603,-0.0275110381295469,17.138114860083075,7
2025-03-05 14:25:12.611,-0.0259238512560269,16.754984527680662,7
2025-03-05 14:25:12.618,-0.0242640030636694,16.281978720326503,7
2025-03-05 14:25:12.626,-0.0225274208191572,15.732965548210228,7
2025-03-05 14:25:12.634,-0.0207131800939909,15.123068062036744,7
2025-03-05 14:25:12.642,-0.0188238665565805,14.46812886087485,7
2025-03-05 14:25:12.650,-0.0168657732403264,13.78416008882374,7
2025-03-05 14:25:12.657,-0.0148489167490909,13.086802762205805,7
2025-03-05 14:25:12.665,-0.012786863109581,12.390818238029382,7
2025-03-05 14:25:12.673,-0.0106963631614659,11.709632529169976,7
2025-03-05 14:25:12.681,-0.008596808056359,11.054951222229104,7
2025-03-05 14:25:12.689,-0.0065095267204763,10.436459115115218,7
2025-03-05 14:25:12.697,-0.0044569579540871,9.861614537061374,7
2025-03-05 14:25:12.704,-0.0024617391162009,9.335543832734132,7
2025-03-05 14:25:12.712,-0.0005457600234525,8.8610368831213,7
2025-03-05 14:25:12.720,0.0012707661010419,8.438640001683437,7
2025-03-05 14:25:12.728,0.0029701635487203,8.066838284243891,7
2025-03-05 14:25:12.736,0.0045380405420135,7.742315695272589,7
2025-03-05 14:25:12.743,0.0059638828197463,7.460278015567081,7
2025-03-05 14:25:12.751,0.0072414662354627,7.214821405586901,7
2025-03-05 14:25:12.759,0.0083690710887477,6.999327866551493,7
2025-03-05 14:25:12.767,0.0093494915802005,6.80686837011116,7
2025-03-05 14:25:12.775,0.0101898440349212,6.630594879385162,7
2025-03-05 14:25:12.783,0.010901187304536,6.464103837454595,7
2025-03-05 14:25:12.790,0.0114979775878431,6.301755832402458,7
2025-03-05 14:25:12.798,0.0119973871433816,6.138938895276108,7
2025-03-05 14:25:12.806,0.0124185215364043,5.972266064203767,7
2025-03-05 14:25:12.814,0.0127815730184561,5.799701275639709,7
2025-03-05 14:25:12.822,0.0131069485112399,5.620611164627389,7
2025-03-05 14:25:12.829,0.013414409897601,5.435743833009147,7
2025-03-05 14:25:12.837,0.0137222625279815,5.247138950908036,7
2025-03-05 14:25:12.845,0.0140466253877828,5.057976565974497,7
2025-03-05 14:25:12.853,0.0144008130623339,4.872374579091688,7
2025-03-05 14:25:12.861,0.0147948550403981,4.69514688420358,7
2025-03-05 14:25:12.868,0.0152351717413952,4.5315355641665205,7
2025-03-05 14:25:12.876,0.0157244189587308,4.386931217415304,7
2025-03-05 14:25:12.884,0.0162615034871275,4.266595435932215,7
