Timestamp,GSR_Filtered,PPG_Filtered
2025-06-25 18:09:28.641,-1.6213443190880416e-06,77.71837735589698
2025-06-25 18:09:28.649,1.769059714770033e-05,79.38285646259331
2025-06-25 18:09:28.657,3.660523446381031e-05,81.09262243347213
2025-06-25 18:09:28.665,5.471740056250884e-05,82.84363377687744
2025-06-25 18:09:28.673,7.164549202170968e-05,84.63233491440452
2025-06-25 18:09:28.680,8.704289685123765e-05,86.45570745245601
2025-06-25 18:09:28.688,0.0001006077823399,88.31126812411458
2025-06-25 18:09:28.696,0.0001120909717753,90.197011495288
2025-06-25 18:09:28.704,0.0001213017851526,92.11129803036964
2025-06-25 18:09:28.712,0.0001281118081633,94.0526906404535
2025-06-25 18:09:28.719,0.0001324566044939,96.01974529418838
2025-06-25 18:09:28.727,0.0001343354371301,98.01076356625865
2025-06-25 18:09:28.735,0.0001338091258274,100.02351704904636
2025-06-25 18:09:28.743,0.000130996226299,102.05495528297232
2025-06-25 18:09:28.751,0.0001260677647294,104.10091019598904
2025-06-25 18:09:28.758,0.0001192407919562,106.15581091443153
2025-06-25 18:09:28.766,0.0001107710221317,108.21242316251644
2025-06-25 18:09:28.774,0.0001009448016105,110.26162727188314
2025-06-25 18:09:28.782,9.007064595729758e-05,112.2922480595851
2025-06-25 18:09:28.790,7.847058702189505e-05,114.29094850511578
2025-06-25 18:09:28.798,6.647155536340428e-05,116.242197287568
2025-06-25 18:09:28.805,5.439697648736235e-05,118.1283178772011
2025-06-25 18:09:28.813,4.255871929081349e-05,119.92962407097826
2025-06-25 18:09:28.821,3.1249538040506894e-05,121.62464368607004
2025-06-25 18:09:28.829,2.073618217900001e-05,123.19042865441304
2025-06-25 18:09:28.837,1.125336585966247e-05,124.60294609049942
2025-06-25 18:09:28.844,2.9987673307594657e-06,125.83754116097616
2025-06-25 18:09:28.852,-3.870819926535961e-06,126.86945893183596
2025-06-25 18:09:28.860,-9.242115236194595e-06,127.67440900272652
2025-06-25 18:09:28.868,-1.3046735973296096e-05,128.22915387717327
2025-06-25 18:09:28.876,-1.5261357633551488e-05,128.51209989125445
2025-06-25 18:09:28.883,-1.5906698699084466e-05,128.50386835209122
2025-06-25 18:09:28.891,-1.504540607377188e-05,128.1878245073313
2025-06-25 18:09:28.899,-1.2778937070611502e-05,127.55054319342236
2025-06-25 18:09:28.907,-9.243549719103298e-06,126.58219250360294
2025-06-25 18:09:28.915,-4.605525797222717e-06,125.27682045728642
2025-06-25 18:09:28.923,9.442382337848356e-07,123.63253419213852
2025-06-25 18:09:28.930,7.196127097345324e-06,121.6515662819348
2025-06-25 18:09:28.938,1.3928033578226814e-05,119.34022798832169
2025-06-25 18:09:28.946,2.0911748928486285e-05,116.70875416592506
2025-06-25 18:09:28.954,2.791933594768661e-05,113.77104880716882
2025-06-25 18:09:28.962,3.472929028004569e-05,110.54434359593134
2025-06-25 18:09:28.969,4.113229153364135e-05,107.04878422717891
2025-06-25 18:09:28.977,4.6936372738738325e-05,103.30696065851328
2025-06-25 18:09:28.985,5.197140654883103e-05,99.34339801303716
2025-06-25 18:09:28.993,5.609289437796252e-05,95.1840247531656
2025-06-25 18:09:29.001,5.91851020513591e-05,90.8556342298433
2025-06-25 18:09:29.009,6.11635883543859e-05,86.38535500216952
2025-06-25 18:09:29.016,6.197713499058419e-05,81.80014456976107
2025-06-25 18:09:29.024,6.160903165100877e-05,77.12632040605297
2025-06-25 18:09:29.032,6.007761130004151e-05,72.38914134654632
2025-06-25 18:09:29.040,5.743587529679532e-05,68.06214086143399
2025-06-25 18:09:29.048,5.377001060872144e-05,63.59046371817063
2025-06-25 18:09:29.055,4.91966160390848e-05,58.99370572281863
2025-06-25 18:09:29.063,4.385855625558189e-05,54.29039227309849
2025-06-25 18:09:29.071,3.791953933342944e-05,49.49786764220293
2025-06-25 18:09:29.079,3.155769183232201e-05,44.63227242975999
2025-06-25 18:09:29.087,2.4958511227543365e-05,39.70860716884827
2025-06-25 18:09:29.094,1.8307596067362304e-05,34.740874915902644
2025-06-25 18:09:29.102,1.1783523733274552e-05,29.742290655047945
2025-06-25 18:09:29.110,5.551196752591675e-06,24.725540918617703
2025-06-25 18:09:29.118,-2.440752691860105e-07,19.703073525521628
2025-06-25 18:09:29.126,-5.481546291556108e-06,14.687395061554328
2025-06-25 18:09:29.134,-1.0068900203103669e-05,9.691352865972846
2025-06-25 18:09:29.141,-1.3944909272992504e-05,4.728378930477707
2025-06-25 18:09:29.149,-1.7080831416510866e-05,-0.1873247693572324
2025-06-25 18:09:29.157,-1.948053964485949e-05,-5.040676538675367
2025-06-25 18:09:29.165,-2.1179419397773785e-05,-9.815693289838816
2025-06-25 18:09:29.173,-2.224210710008576e-05,-14.49556402623366
2025-06-25 18:09:29.180,-2.275917606017112e-05,-19.06281975995979
2025-06-25 18:09:29.188,-2.2842903709012963e-05,-23.49959526063381
2025-06-25 18:09:29.196,-2.262227723872393e-05,-27.787972475150465
2025-06-25 18:09:29.204,-2.2237413076871425e-05,-31.9103905681907
2025-06-25 18:09:29.212,-2.183357948860068e-05,-35.850103593354014
2025-06-25 18:09:29.219,-2.1555021081092848e-05,-39.59166401808736
2025-06-25 18:09:29.227,-2.153878920354312e-05,-43.12140880706236
2025-06-25 18:09:29.235,-2.190878324141261e-05,-46.427924545845705
2025-06-25 18:09:29.243,-2.2770204579396494e-05,-49.502469107043495
2025-06-25 18:09:29.251,-2.4204617469855568e-05,-52.33932950242534
2025-06-25 18:09:29.259,-2.6265799053184564e-05,-54.93609864712922
2025-06-25 18:09:29.266,-2.8976544159392376e-05,-57.293857564030944
2025-06-25 18:09:29.274,-3.232656909555173e-05,-59.41725383455261
2025-06-25 18:09:29.282,-3.627163224100366e-05,-61.314471615296334
2025-06-25 18:09:29.290,-4.073395785116266e-05,-62.99709306763602
2025-06-25 18:09:29.298,-4.560401304548402e-05,-64.47985540128744
2025-06-25 18:09:29.305,-5.074364671737587e-05,-65.78031175820654
2025-06-25 18:09:29.313,-5.599055344400042e-05,-66.918407735054
2025-06-25 18:09:29.321,-6.116397601667602e-05,-67.91598836062956
2025-06-25 18:09:29.329,-6.607150784428209e-05,-68.79625273021402
2025-06-25 18:09:29.337,-7.051680236744745e-05,-69.58317519267638
2025-06-25 18:09:29.344,-7.43079422075252e-05,-70.30091294905641
2025-06-25 18:09:29.352,-7.726616778029434e-05,-70.97322013456117
2025-06-25 18:09:29.360,-7.923461549402449e-05,-71.6228879244137
2025-06-25 18:09:29.368,-8.008667159120137e-05,-72.27122895643768
2025-06-25 18:09:29.376,-7.973351149185551e-05,-72.93762244865269
2025-06-25 18:09:29.384,-7.813036853108366e-05,-73.63913387466067
2025-06-25 18:09:29.391,-7.528106423539441e-05,-74.3902200271258
2025-06-25 18:09:29.399,-7.124034829662657e-05,-75.20252685288865
2025-06-25 18:09:29.407,-6.611367246887092e-05,-76.08478370123707
2025-06-25 18:09:29.415,-6.0054192171920566e-05,-77.04279372259212
2025-06-25 18:09:29.423,-5.325703866072337e-05,-78.07951623813156
2025-06-25 18:09:29.430,-4.595115761965641e-05,-79.19523314220403
2025-06-25 18:09:29.438,-3.838919110065831e-05,-80.38778798643483
2025-06-25 18:09:29.446,-3.08359740781954e-05,-81.65288351774801
2025-06-25 18:09:29.454,-2.3556256692987307e-05,-82.98442127501552
2025-06-25 18:09:29.462,-1.6802279060867438e-05,-84.37486552468205
2025-06-25 18:09:29.469,-1.0801828775358316e-05,-85.81561341196662
2025-06-25 18:09:29.477,-5.7474035253452136e-06,-87.29735373225378
2025-06-25 18:09:29.485,-1.7870807600540584e-06,-88.81039813286898
2025-06-25 18:09:29.493,9.823485875341596e-07,-90.34497072872766
2025-06-25 18:09:29.501,2.519525385699658e-06,-91.89144490463984
2025-06-25 18:09:29.509,2.83967715287832e-06,-93.44051930481218
2025-06-25 18:09:29.516,2.0127731819891024e-06,-94.9833284891555
2025-06-25 18:09:29.524,1.5892754632500294e-07,-96.51148728211808
2025-06-25 18:09:29.532,-2.558524533296301e-06,-98.01707127998606
2025-06-25 18:09:29.540,-5.941766867766085e-06,-99.49253916277048
2025-06-25 18:09:29.548,-9.768524507396e-06,-100.93060524861524
2025-06-25 18:09:29.555,-1.3802837386803346e-05,-102.32407303389977
2025-06-25 18:09:29.563,-1.7806074081889212e-05,-103.66564221359344
2025-06-25 18:09:29.571,-2.15477055677954e-05,-104.94770283558202
2025-06-25 18:09:29.579,-2.481540027409285e-05,-106.16213079507628
2025-06-25 18:09:29.587,-2.7424051652569405e-05,-107.30009882197062
2025-06-25 18:09:29.594,-2.9223406337830484e-05,-108.35191646285686
2025-06-25 18:09:29.602,-3.0104023366313372e-05,-109.30691131878658
2025-06-25 18:09:29.610,-3.000136154869293e-05,-110.15336198064648
2025-06-25 18:09:29.618,-2.889786182782263e-05,-110.87849072855292
2025-06-25 18:09:29.626,-2.682296328118088e-05,-111.46852117765587
2025-06-25 18:09:29.634,-2.3851064409765345e-05,-111.90880274822732
2025-06-25 18:09:29.641,-2.009751460430803e-05,-112.18400025303882
2025-06-25 18:09:29.649,-1.57127933022947e-05,-112.27834322402356
2025-06-25 18:09:29.657,-1.0875105405575644e-05,-112.17592608233656
2025-06-25 18:09:29.665,-5.781689988711679e-06,-111.86104715942052
2025-06-25 18:09:29.673,-6.392040387691493e-07,-111.31857217471963
2025-06-25 18:09:29.680,4.346397373808088e-06,-110.53430630848425
2025-06-25 18:09:29.688,8.98000994658517e-06,-109.4953586351992
2025-06-25 18:09:29.696,1.3087038450271384e-05,-108.19048344047188
2025-06-25 18:09:29.704,1.6522011391635585e-05,-106.61038472060032
2025-06-25 18:09:29.712,1.91755900496034e-05,-104.7479727084282
2025-06-25 18:09:29.719,2.09794578041184e-05,-102.59856423626454
2025-06-25 18:09:29.727,2.190871560603813e-05,-100.16002177406511
2025-06-25 18:09:29.735,2.19816375995571e-05,-97.43282876726316
2025-06-25 18:09:29.743,2.125690315554255e-05,-94.4201012528825
2025-06-25 18:09:29.751,1.9828654400576e-05,-91.12753758860362
2025-06-25 18:09:29.759,1.7819892111387184e-05,-87.56330953337353
2025-06-25 18:09:29.766,1.5374801641318565e-05,-83.73789900080148
2025-06-25 18:09:29.774,1.2650600964410296e-05,-79.6638857466352
2025-06-25 18:09:29.782,9.809450534703785e-06,-75.35569223382574
2025-06-25 18:09:29.790,7.010885066073172e-06,-70.82929308998028
2025-06-25 18:09:29.798,4.405133784897372e-06,-66.10189799817896
2025-06-25 18:09:29.805,2.127593460783732e-06,-61.19161849297079
2025-06-25 18:09:29.813,2.9461121327547906e-07,-56.11713079053429
2025-06-25 18:09:29.821,-9.99374727295216e-07,-50.897348183217616
2025-06-25 18:09:29.829,-1.6833934395347917e-06,-45.55111734646824
2025-06-25 18:09:29.837,-1.7103449827847397e-06,-40.09695284115075
2025-06-25 18:09:29.844,-1.0564444224154832e-06,-34.55282293953685
2025-06-25 18:09:29.852,2.801033816598147e-07,-28.93599758647962
2025-06-25 18:09:29.860,2.2810421917258582e-06,-23.262965906906544
2025-06-25 18:09:29.868,4.910477772157232e-06,-17.549426406291833
2025-06-25 18:09:29.876,8.117614538689786e-06,-11.810348210477128
2025-06-25 18:09:29.884,1.1839652907371471e-05,-6.06009674727429
2025-06-25 18:09:29.891,1.6004710292781753e-05,-0.3126125959459426
2025-06-25 18:09:29.899,2.0534675972145067e-05,5.418371786453516
2025-06-25 18:09:29.907,2.5347932769542232e-05,11.119095773138527
2025-06-25 18:09:29.915,3.036185428938701e-05,16.77553479202769
2025-06-25 18:09:29.923,3.54949386770426e-05,22.373185524705736
2025-06-25 18:09:29.930,4.066841423936597e-05,27.896891490730933
2025-06-25 18:09:29.938,4.5807183865532334e-05,33.330726038321764
2025-06-25 18:09:29.946,5.084007268356825e-05,38.65794620813829
2025-06-25 18:09:29.954,5.56994917743222e-05,43.8610264783712
2025-06-25 18:09:29.962,6.032079195492254e-05,48.92177636155684
2025-06-25 18:09:29.969,6.464169427363636e-05,53.8215405695989
2025-06-25 18:09:29.977,6.860219652984583e-05,58.54147536090024
2025-06-25 18:09:29.985,7.214526741364728e-05,63.06289006902788
2025-06-25 18:09:29.993,7.521849091176428e-05,67.36763896272063
2025-06-25 18:09:30.001,7.777665005576599e-05,71.43854570035944
2025-06-25 18:09:30.009,7.978505893533339e-05,75.25984083105628
2025-06-25 18:09:30.016,8.122327539585788e-05,78.81759209126312
2025-06-25 18:09:30.024,8.208867236193454e-05,82.10010761229795
2025-06-25 18:09:30.032,8.239925216418268e-05,85.09829349468953
2025-06-25 18:09:30.040,8.219510539370682e-05,87.80594937807513
2025-06-25 18:09:30.048,8.153806503789254e-05,90.21998846599348
2025-06-25 18:09:30.055,8.050935077129155e-05,92.34057176109502
2025-06-25 18:09:30.063,7.920526242012672e-05,94.17114983463662
2025-06-25 18:09:30.071,7.77312097206191e-05,95.71840911696344
2025-06-25 18:09:30.079,7.619454998029105e-05,96.99212330549042
2025-06-25 18:09:30.087,7.469685144845457e-05,98.00491393029446
2025-06-25 18:09:30.094,7.332628047235442e-05,98.7719273069519
2025-06-25 18:09:30.102,7.215078640727622e-05,99.31043796716982
2025-06-25 18:09:30.110,7.121263236855224e-05,99.63939112479382
2025-06-25 18:09:30.118,7.05246342163473e-05,99.7788987533982
2025-06-25 18:09:30.126,7.006827185472315e-05,99.74970537676174
2025-06-25 18:09:30.134,6.979366693833864e-05,99.57264066648936
2025-06-25 18:09:30.141,6.962130932155373e-05,99.26807637209092
2025-06-25 18:09:30.149,6.944536261374987e-05,98.8554049632336
2025-06-25 18:09:30.157,6.913835538712563e-05,98.35255664415575
2025-06-25 18:09:30.165,6.855702492656591e-05,97.77557012377856
2025-06-25 18:09:30.173,6.754900450284437e-05,97.13823072304103
2025-06-25 18:09:30.180,6.59599662757346e-05,96.45178712082742
2025-06-25 18:09:30.188,6.36408195447238e-05,95.7247553478048
2025-06-25 18:09:30.196,6.04546527870212e-05,94.9628156183173
2025-06-25 18:09:30.204,5.628324904297823e-05,94.16880434550252
2025-06-25 18:09:30.212,5.103310333679081e-05,93.34280033118856
2025-06-25 18:09:30.219,4.464087122510393e-05,92.48230079430388
2025-06-25 18:09:30.227,3.707810139446625e-05,91.58247975037396
2025-06-25 18:09:30.235,2.835502334427498e-05,90.63651843859203
2025-06-25 18:09:30.243,1.8523133469075492e-05,89.63599515967091
2025-06-25 18:09:30.251,7.676361664207077e-06,88.57132015348095
2025-06-25 18:09:30.259,-4.04932484256474e-06,87.43220007996926
2025-06-25 18:09:30.266,-1.6477958470073662e-05,86.20811628577466
2025-06-25 18:09:30.274,-2.939729308391186e-05,84.88880130320541
2025-06-25 18:09:30.282,-4.256422214785616e-05,83.4646988498193
2025-06-25 18:09:30.290,-5.571181653149012e-05,81.92739385452126
2025-06-25 18:09:30.298,-6.855775028111655e-05,80.27000059813669
2025-06-25 18:09:30.305,-8.081372428063182e-05,78.4874988011203
2025-06-25 18:09:30.313,-9.219540796328438e-05,76.57700931840365
2025-06-25 18:09:30.321,-0.0001024324109019,74.53800293833356
2025-06-25 18:09:30.329,-0.0001112778353938,72.3724375878814
2025-06-25 18:09:30.337,-0.0001185170161274,70.08482101277907
2025-06-25 18:09:30.344,-0.000123975111113,67.68219775057885
2025-06-25 18:09:30.352,-0.0001275232668135,65.1740609834556
2025-06-25 18:09:30.360,-0.000129083139363,62.57219168115565
2025-06-25 18:09:30.368,-0.0001286296127973,59.89042934054155
2025-06-25 18:09:30.376,-0.0001261916144849,57.14438058202498
2025-06-25 18:09:30.384,-0.0001218509878026,54.351073818245325
2025-06-25 18:09:30.391,-0.000115739442978,51.528570068190255
2025-06-25 18:09:30.399,-0.0001080336693951,48.69554162195798
2025-06-25 18:09:30.407,-9.89487568713022e-05,45.87083153099278
2025-06-25 18:09:30.415,-8.873013965354663e-05,43.07300768771542
2025-06-25 18:09:30.423,-7.764434502282868e-05,40.319925487118205
2025-06-25 18:09:30.430,-6.596889800155707e-05,37.628312697608514
2025-06-25 18:09:30.438,-5.3981803856102e-05,35.013389223384166
2025-06-25 18:09:30.446,-4.1951099579234986e-05,32.4885329776798
2025-06-25 18:09:30.454,-3.0125030946270923e-05,30.065001209100657
2025-06-25 18:09:30.462,-1.872345956437307e-05,27.751714461316737
2025-06-25 18:09:30.469,-7.931100080761174e-06,25.555108031817326
2025-06-25 18:09:30.477,2.106914618102772e-06,23.47905344310749
2025-06-25 18:09:30.485,1.1286861054260646e-05,21.52485013380722
2025-06-25 18:09:30.493,1.95456603104615e-05,19.6912853676618
2025-06-25 18:09:30.501,2.6857816554250096e-05,17.97475827367876
2025-06-25 18:09:30.509,3.32305378934542e-05,16.36946200109613
2025-06-25 18:09:30.516,3.869757385451325e-05,14.867616252058264
2025-06-25 18:09:30.524,4.331227324273803e-05,13.459741021355487
2025-06-25 18:09:30.532,4.714031267537166e-05,12.134961315258012
2025-06-25 18:09:30.540,5.025249259017605e-05,10.881332016657575
2025-06-25 18:09:30.548,5.271793576747812e-05,9.686171954137617
2025-06-25 18:09:30.555,5.459795816137722e-05,8.536396615928494
2025-06-25 18:09:30.563,5.59408291837686e-05,7.41883978036312
2025-06-25 18:09:30.571,5.677759924848815e-05,6.320555534564692
2025-06-25 18:09:30.579,5.711913500007592e-05,5.229093625950378
2025-06-25 18:09:30.587,5.695446213540642e-05,4.132742733008637
2025-06-25 18:09:30.594,5.625048000158687e-05,3.020737952279532
2025-06-25 18:09:30.602,5.495309374742074e-05,1.8834304888043212
2025-06-25 18:09:30.610,5.2989799377275145e-05,0.7124191336183899
2025-06-25 18:09:30.618,5.027371079863979e-05,-0.4993554491285686
2025-06-25 18:09:30.626,4.6708901635235095e-05,-1.7575513799293243
2025-06-25 18:09:30.634,4.21967753378789e-05,-3.066397967023115
2025-06-25 18:09:30.641,3.664304134829136e-05,-4.428696005729306
2025-06-25 18:09:30.649,2.9964808937888117e-05,-5.845841787636054
2025-06-25 18:09:30.657,2.209732668701156e-05,-7.317870588657149
2025-06-25 18:09:30.665,1.29999863984732e-05,-8.843515613190851
2025-06-25 18:09:30.673,2.66134054449664e-06,-10.42027877920346
2025-06-25 18:09:30.680,-8.8969988025296e-06,-12.044510274120825
2025-06-25 18:09:30.688,-2.161763010527875e-05,-13.711494431489731
2025-06-25 18:09:30.696,-3.540579813102316e-05,-15.415540119702868
2025-06-25 18:09:30.704,-5.01289528707391e-05,-17.15007445668451
2025-06-25 18:09:30.712,-6.561736809692195e-05,-18.907739240005903
2025-06-25 18:09:30.719,-8.166575226644508e-05,-20.680489987910143
2025-06-25 18:09:30.727,-9.803578359419824e-05,-22.45969790326653
2025-06-25 18:09:30.735,-0.0001144595018565,-24.236255382764156
2025-06-25 18:09:30.743,-0.0001306435134257,-26.00068588276559
2025-06-25 18:09:30.751,-0.0001462740243196,-27.743259004168987
2025-06-25 18:09:30.759,-0.0001610227894009,-29.454111552804417
2025-06-25 18:09:30.766,-0.0001745541183677,-31.12337505701974
2025-06-25 18:09:30.774,-0.0001865330678108,-32.741309781389326
2025-06-25 18:09:30.782,-0.0001966348380004,-34.2984446787496
2025-06-25 18:09:30.790,-0.0002045551974672,-35.78572199375019
2025-06-25 18:09:30.798,-0.0002100215543607,-37.1946444001509
2025-06-25 18:09:30.805,-0.0002128041581788,-38.517421667573984
2025-06-25 18:09:30.813,-0.0002127268652001,-39.74711297987734
2025-06-25 18:09:30.821,-0.000209676905487,-40.87776025535008
2025-06-25 18:09:30.829,-0.000203613119956,-41.904507246211445
2025-06-25 18:09:30.837,-0.0001945721829961,-42.82369891149759
2025-06-25 18:09:30.844,-0.0001826723893004,-43.63295562939373
2025-06-25 18:09:30.852,-0.0001681146641362,-44.33121727535863
2025-06-25 18:09:30.860,-0.0001511805550078,-44.9187530412303
2025-06-25 18:09:30.868,-0.0001322270797723,-45.39713407898438
2025-06-25 18:09:30.876,-0.0001116784396695,-45.7691675635486
2025-06-25 18:09:30.884,-9.001474443108367e-05,-46.03879249619792
2025-06-25 18:09:30.891,-6.775801786125758e-05,-46.21093940410254
2025-06-25 18:09:30.899,-4.545584166231881e-05,-46.29135791007343
2025-06-25 18:09:30.907,-2.3663074991365592e-05,-46.28641782688378
2025-06-25 18:09:30.915,-2.922200349507557e-06,-46.20289086273584
2025-06-25 18:09:30.923,1.625699854524e-05,-46.04772112113551
2025-06-25 18:09:30.930,3.341757345893837e-05,-45.82779327954395
2025-06-25 18:09:30.938,4.817443172827266e-05,-45.54970760286458
2025-06-25 18:09:30.946,6.023131627226166e-05,-45.21957078059917
2025-06-25 18:09:30.954,6.939488274110453e-05,-44.84281098574789
2025-06-25 18:09:30.962,7.558510228490276e-05,-44.4240245794778
2025-06-25 18:09:30.969,7.884135331288161e-05,-43.966860588285165
2025-06-25 18:09:30.977,7.932375447374501e-05,-43.4739475300525
2025-06-25 18:09:30.985,7.73095166509104e-05,-42.9468654338277
2025-06-25 18:09:30.993,7.318432912669657e-05,-42.38616405590493
2025-06-25 18:09:31.001,6.7429030327317e-05,-41.79142641342719
2025-06-25 18:09:31.009,6.06020392627828e-05,-41.16137491103533
2025-06-25 18:09:31.016,5.331822597631319e-05,-40.49401560345436
2025-06-25 18:09:31.024,4.622505141292419e-05,-39.78681459455233
2025-06-25 18:09:31.032,3.997688371872653e-05,-39.0368992941927
2025-06-25 18:09:31.040,3.520840016508732e-05,-38.24127630055528
2025-06-25 18:09:31.048,3.2507945559060614e-05,-37.397057091733615
2025-06-25 18:09:31.055,3.239168662120256e-05,-36.50168251617495
2025-06-25 18:09:31.063,3.5279408897836874e-05,-35.55313726198177
2025-06-25 18:09:31.071,4.147283827874946e-05,-34.550146034866145
2025-06-25 18:09:31.079,5.113738519333824e-05,-33.492344041767005
2025-06-25 18:09:31.087,6.428816611205283e-05,-32.38041550495232
2025-06-25 18:09:31.094,8.078106441526473e-05,-31.21619525067867
2025-06-25 18:09:31.102,0.0001003094934406,-30.002729853324787
2025-06-25 18:09:31.110,0.0001224074379417,-28.74429630250032
2025-06-25 18:09:31.118,0.0001464592492137,-27.446377641980305
2025-06-25 18:09:31.126,0.0001717164977871,-26.11559646381374
2025-06-25 18:09:31.134,0.0001973218926541,-24.75960849956539
2025-06-25 18:09:31.141,0.0002223398500666,-23.38695981699792
2025-06-25 18:09:31.149,0.0002457928029983,-22.006912295778367
2025-06-25 18:09:31.157,0.0002667018788739,-20.62924310664964
2025-06-25 18:09:31.165,0.0002841301774591,-19.26402482630524
2025-06-25 18:09:31.173,0.0002972265211822,-17.921393539719155
2025-06-25 18:09:31.180,0.0003052672067338,-16.611312758811735
2025-06-25 18:09:31.188,0.0003076930223984,-15.343341169489545
2025-06-25 18:09:31.196,0.0003041387550426,-14.12641206947099
2025-06-25 18:09:31.204,0.0002944527874888,-12.96863185791162
2025-06-25 18:09:31.212,0.0002787052950999,-11.877104090241438
2025-06-25 18:09:31.219,0.000257184811275,-10.857784451945747
2025-06-25 18:09:31.227,0.0002303840985693,-9.915370597066875
2025-06-25 18:09:31.235,0.0001989769820692,-9.053229228427456
2025-06-25 18:09:31.243,0.0001637880668833,-8.273361165699278
2025-06-25 18:09:31.251,0.0001257572814825,-7.576403552124495
2025-06-25 18:09:31.259,8.590114661205204e-05,-6.961666878910907
2025-06-25 18:09:31.266,4.527262791268401e-05,-6.427203230176893
2025-06-25 18:09:31.274,4.921365161804326e-06,-5.969901124072283
2025-06-25 18:09:31.282,-3.414405752137562e-05,-5.585601584934292
2025-06-25 18:09:31.290,-7.099034111831436e-05,-5.269229654606348
2025-06-25 18:09:31.298,-0.0001047890151427,-5.014935455408072
2025-06-25 18:09:31.305,-0.0001348404335,-4.8162391518660135
2025-06-25 18:09:31.313,-0.0001605916940468,-4.666174697588629
2025-06-25 18:09:31.321,-0.0001816482393681,-4.55742804556372
2025-06-25 18:09:31.329,-0.0001977791095044,-4.482466469434703
2025-06-25 18:09:31.337,-0.0002089159786268,-4.433656699640681
2025-06-25 18:09:31.344,-0.0002151462617829,-4.403370629440044
2025-06-25 18:09:31.352,-0.0002167007587411,-4.384078311838279
2025-06-25 18:09:31.360,-0.000213936510062,-4.368428790836833
2025-06-25 18:09:31.368,-0.00020731574238,-4.3493199542124845
2025-06-25 18:09:31.376,-0.0001973819304899,-4.319959046082724
2025-06-25 18:09:31.384,-0.0001847340806494,-4.273915738504731
2025-06-25 18:09:31.391,-0.0001700003643434,-4.205169747253704
2025-06-25 18:09:31.399,-0.000153812242051,-4.108154908926581
2025-06-25 18:09:31.407,-0.0001367802070153,-3.97780143555294
2025-06-25 18:09:31.415,-0.0001194722032889,-3.809577746945334
2025-06-25 18:09:31.423,-0.0001023956115615,-3.599532868685257
2025-06-25 18:09:31.430,-8.598348261980119e-05,-3.3443398996435683
2025-06-25 18:09:31.438,-7.058546009943455e-05,-3.041340529379472
2025-06-25 18:09:31.446,-5.646356579890254e-05,-2.6885900585596105
2025-06-25 18:09:31.454,-4.3792720343253854e-05,-2.284901878004153
2025-06-25 18:09:31.462,-3.2665572468644706e-05,-1.8298899164779392
2025-06-25 18:09:31.469,-2.310096232286756e-05,-1.324007179927965
2025-06-25 18:09:31.477,-1.5055178702201968e-05,-0.7685781701597495
2025-06-25 18:09:31.485,-8.435079018649025e-06,-0.1658226861734231
2025-06-25 18:09:31.493,-3.1121020210545907e-06,0.4811317116412684
2025-06-25 18:09:31.501,1.063783926947814e-06,1.1682514270316091
2025-06-25 18:09:31.509,4.251079141222935e-06,1.890615599087476
2025-06-25 18:09:31.516,6.605447999541087e-06,2.6424546086031557
2025-06-25 18:09:31.524,8.270692531619989e-06,3.4172106411179466
2025-06-25 18:09:31.532,9.3723913690858e-06,4.207622043400029
2025-06-25 18:09:31.540,1.001437339720298e-05,5.005832411638497
2025-06-25 18:09:31.548,1.0277950258075385e-05,5.803524358370367
2025-06-25 18:09:31.555,1.0223577764516346e-05,6.5920767603829065
2025-06-25 18:09:31.563,9.894407846238089e-06,7.362743047600534
2025-06-25 18:09:31.571,9.321082708407884e-06,8.106846821270093
2025-06-25 18:09:31.579,8.527115085845422e-06,8.815989862323987
2025-06-25 18:09:31.587,7.534256964511359e-06,9.482266483034126
2025-06-25 18:09:31.594,6.367350634734425e-06,10.098477262031714
2025-06-25 18:09:31.602,5.058265673906082e-06,10.658334557593262
2025-06-25 18:09:31.610,3.648647973189919e-06,11.156651884291929
2025-06-25 18:09:31.618,2.191338096989801e-06,11.589509317037516
2025-06-25 18:09:31.626,7.504501339861788e-07,11.954387582154812
2025-06-25 18:09:31.634,-5.997753817916045e-07,12.250264403525852
2025-06-25 18:09:31.641,-1.7771450346882829e-06,12.477667958863083
2025-06-25 18:09:31.649,-2.6944794481225743e-06,12.638683908403074
2025-06-25 18:09:31.657,-3.263138526669934e-06,12.736914306706977
2025-06-25 18:09:31.665,-3.396863752849636e-06,12.777388700171011
2025-06-25 18:09:31.673,-3.015684142231408e-06,12.766429736196413
2025-06-25 18:09:31.680,-2.049642573683843e-06,12.711477547573654
2025-06-25 18:09:31.688,-4.421395468616133e-07,12.6208789175151
2025-06-25 18:09:31.696,1.8472537899619383e-06,12.503648684104451
2025-06-25 18:09:31.704,4.84060191050988e-06,12.369211937034263
2025-06-25 18:09:31.712,8.540064368347567e-06,12.227136247725795
2025-06-25 18:09:31.719,1.2927008468385884e-05,12.08686343526086
2025-06-25 18:09:31.727,1.7961754405103487e-05,11.95745021035822
2025-06-25 18:09:31.735,2.358389666907412e-05,11.84732648693955
2025-06-25 18:09:31.743,2.971309748890776e-05,11.7640792519851
2025-06-25 18:09:31.751,3.625022424592742e-05,11.714268695998872
2025-06-25 18:09:31.759,4.307872446730337e-05,11.703281890658804
2025-06-25 18:09:31.766,5.006618464138653e-05,11.735227721759143
2025-06-25 18:09:31.774,5.706607894392689e-05,11.812875108550326
2025-06-25 18:09:31.782,6.3919768458904e-05,11.937634827215538
2025-06-25 18:09:31.790,7.045885650334821e-05,12.109583568923476
2025-06-25 18:09:31.798,7.650803755690131e-05,12.327527269558948
2025-06-25 18:09:31.805,8.18885848471008e-05,12.589099323398296
2025-06-25 18:09:31.813,8.642258329195503e-05,12.89088810915963
2025-06-25 18:09:31.821,8.993791871433996e-05,13.22858737111992
2025-06-25 18:09:31.829,9.227390762039166e-05,13.597162445735934
2025-06-25 18:09:31.837,9.328734510820252e-05,13.991025122962212
2025-06-25 18:09:31.844,9.285868903688302e-05,14.404210086512728
2025-06-25 18:09:31.852,9.08980764507902e-05,14.830546380746537
2025-06-25 18:09:31.860,8.735086410505705e-05,15.26381817581287
2025-06-25 18:09:31.868,8.22023904152984e-05,15.697910193610866
2025-06-25 18:09:31.876,7.548167091880806e-05,16.126934435964003
2025-06-25 18:09:31.884,6.726376455761948e-05,16.545336225331976
2025-06-25 18:09:31.891,5.7670584744106056e-05,16.947978921797475
2025-06-25 18:09:31.899,4.686997792604768e-05,17.330207917085062
2025-06-25 18:09:31.907,3.507295353346691e-05,17.687895541562465
2025-06-25 18:09:31.915,2.252902261216831e-05,18.01746929116099
2025-06-25 18:09:31.923,9.519687452494364e-06,18.31592625272081
2025-06-25 18:09:31.930,-3.649780149478733e-06,18.580836770776667
2025-06-25 18:09:31.938,-1.6660030579468465e-05,18.81034027432085
2025-06-25 18:09:31.946,-2.918844689164749e-05,19.00313581061079
2025-06-25 18:09:31.954,-4.092061039065433e-05,19.158469277265542
2025-06-25 18:09:31.962,-5.156184756346235e-05,19.27611867857602
2025-06-25 18:09:31.969,-6.0848192626332505e-05,19.356378032168216
2025-06-25 18:09:31.977,-6.855606258072122e-05,19.40003988319664
2025-06-25 18:09:31.985,-7.451000696126132e-05,19.408375795581843
2025-06-25 18:09:31.993,-7.858808262213663e-05,19.38311371776
2025-06-25 18:09:32.001,-8.072467557119162e-05,19.326410784033797
2025-06-25 18:09:32.009,-8.091086087290826e-05,19.24081992248532
2025-06-25 18:09:32.016,-7.919257383846966e-05,19.12924860213834
2025-06-25 18:09:32.024,-7.566693248437824e-05,18.9949081673024
2025-06-25 18:09:32.032,-7.047704673832717e-05,18.84125247179213
2025-06-25 18:09:32.040,-6.380564531019503e-05,18.671904928289308
2025-06-25 18:09:32.048,-5.586788010933123e-05,18.49057360817601
2025-06-25 18:09:32.055,-4.690371051429943e-05,18.300954637083898
2025-06-25 18:09:32.063,-3.717028198573617e-05,18.106624800330845
2025-06-25 18:09:32.071,-2.693466394579806e-05,17.91092497084402
2025-06-25 18:09:32.079,-1.6467201947076374e-05,17.716836673540183
2025-06-25 18:09:32.087,-6.035596722005729e-06,17.52685478001591
2025-06-25 18:09:32.095,4.100321888825957e-06,17.34285996292868
2025-06-25 18:09:32.102,1.3693277963049471e-05,17.16599510777469
2025-06-25 18:09:32.110,2.251289928211049e-05,16.99655035301137
2025-06-25 18:09:32.118,3.034990368054149e-05,16.83386177037
2025-06-25 18:09:32.126,3.70201655875543e-05,16.676228862647747
2025-06-25 18:09:32.134,4.23685679040975e-05,16.520856007230606
2025-06-25 18:09:32.141,4.627246808689074e-05,16.363822682222107
2025-06-25 18:09:32.149,4.864460699890148e-05,16.20008676255036
2025-06-25 18:09:32.157,4.943533180027981e-05,16.023524363023185
2025-06-25 18:09:32.165,4.863405871435604e-05,15.827008649737184
2025-06-25 18:09:32.173,4.626995431125153e-05,15.602528779783125
2025-06-25 18:09:32.180,4.24118532240853e-05,15.341348720910396
2025-06-25 18:09:32.188,3.716743501734823e-05,15.034204214664692
2025-06-25 18:09:32.196,3.068164184389354e-05,14.671534642776118
2025-06-25 18:09:32.204,2.313425769855953e-05,14.243745095480085
2025-06-25 18:09:32.212,1.4736539146015151e-05,13.741492573709582
2025-06-25 18:09:32.220,5.72681201608165e-06,13.155989027766788
2025-06-25 18:09:32.227,-3.634983671115313e-06,12.479312875687436
2025-06-25 18:09:32.235,-1.3073729717368894e-05,11.704719778053272
2025-06-25 18:09:32.243,-2.230638009455745e-05,10.826942788953945
2025-06-25 18:09:32.251,-3.1049770194353634e-05,9.842471569397334
2025-06-25 18:09:32.259,-3.902867319587952e-05,8.749800159462993
2025-06-25 18:09:32.266,-4.598379252733739e-05,7.54963289460004
2025-06-25 18:09:32.274,-5.167943564075673e-05,6.245038476593639
2025-06-25 18:09:32.282,-5.591069173372952e-05,4.841543040525821
2025-06-25 18:09:32.290,-5.850998848113749e-05,3.3471543571895768
2025-06-25 18:09:32.298,-5.935290658010021e-05,1.772311106061075
2025-06-25 18:09:32.305,-5.8363106740556766e-05,0.1297534298074788
2025-06-25 18:09:32.313,-5.551621006340458e-05,-1.565686329074569
2025-06-25 18:09:32.321,-5.084247360286722e-05,-3.297370809839069
2025-06-25 18:09:32.329,-4.4428094358057326e-05,-5.047217654004011
2025-06-25 18:09:32.337,-3.641495956502693e-05,-6.796124072572124
2025-06-25 18:09:32.345,-2.699866957107552e-05,-8.524444583878642
2025-06-25 18:09:32.352,-1.642470362749801e-05,-10.21250775953693
2025-06-25 18:09:32.360,-4.982674470088082e-06,-11.841155486446151
2025-06-25 18:09:32.368,7.0012630269884575e-06,-13.392286518346356
2025-06-25 18:09:32.376,1.9173619781991087e-05,-14.849385061309674
2025-06-25 18:09:32.384,3.1164010645223305e-05,-16.198014893993143
2025-06-25 18:09:32.391,4.259634949754894e-05,-17.426260112168112
2025-06-25 18:09:32.399,5.310032178740682e-05,-18.525095016286127
2025-06-25 18:09:32.407,6.23226948496712e-05,-19.488667896921857
2025-06-25 18:09:32.415,6.993807987340724e-05,-20.31448644076012
2025-06-25 18:09:32.423,7.565881362933266e-05,-21.003496066375764
2025-06-25 18:09:32.430,7.924368035828679e-05,-21.56004655627193
2025-06-25 18:09:32.438,8.050524408520954e-05,-21.991746698499615
2025-06-25 18:09:32.446,7.931560912115795e-05,-22.309211080038335
2025-06-25 18:09:32.454,7.561047218135247e-05,-22.52570746355869
2025-06-25 18:09:32.462,6.939137429364331e-05,-22.656717110329318
2025-06-25 18:09:32.470,6.072610568407451e-05,-22.719423783189782
2025-06-25 18:09:32.477,4.9747263436568434e-05,-22.732149802329317
2025-06-25 18:09:32.485,3.664901127791845e-05,-22.71375930193856
2025-06-25 18:09:32.493,2.168214455948182e-05,-22.68304966948165
2025-06-25 18:09:32.501,5.147622357253195e-06,-22.65815202453592
2025-06-25 18:09:32.509,-1.2611208452823369e-05,-22.655960557014847
2025-06-25 18:09:32.516,-3.1217414867508155e-05,-22.691608699010857
2025-06-25 18:09:32.524,-5.026999209922669e-05,-22.778007601434243
2025-06-25 18:09:32.532,-6.935378728814306e-05,-22.925459409622945
2025-06-25 18:09:32.540,-8.804956643951665e-05,-23.141354580736675
2025-06-25 18:09:32.548,-0.0001059440059326,-23.429959158265444
2025-06-25 18:09:32.555,-0.0001226394568035,-23.79229469437522
2025-06-25 18:09:32.563,-0.0001377634168254,-24.226110532947843
2025-06-25 18:09:32.571,-0.0001509777020638,-24.72594553476232
2025-06-25 18:09:32.579,-0.000161987277756,-25.28327409697049
2025-06-25 18:09:32.587,-0.000170548592169,-25.88672950903583
2025-06-25 18:09:32.595,-0.000176477119594,-26.522396281570696
2025-06-25 18:09:32.602,-0.0001796537209064,-27.174162042772515
2025-06-25 18:09:32.610,-0.0001800293897884,-27.824118864990066
2025-06-25 18:09:32.618,-0.0001776279546755,-28.453003406740592
2025-06-25 18:09:32.626,-0.0001725463408545,-29.04066499047658
2025-06-25 18:09:32.634,-0.0001649520791102,-29.566550658514917
2025-06-25 18:09:32.641,-0.0001550778985696,-30.010196349755
2025-06-25 18:09:32.649,-0.0001432134599035,-30.351713616924
2025-06-25 18:09:32.657,-0.0001296945417095,-30.572261754545803
2025-06-25 18:09:32.665,-0.0001148902471772,-30.654495819571547
2025-06-25 18:09:32.673,-9.918900106167382e-05,-30.58298177914383
2025-06-25 18:09:32.680,-8.29842062064452e-05,-30.34457088693578
2025-06-25 18:09:32.688,-6.66603998103065e-05,-29.92872633897852
2025-06-25 18:09:32.696,-5.058061757686079e-05,-29.32779625432964
2025-06-25 18:09:32.704,-3.5075490155087354e-05,-28.537228028029528
2025-06-25 18:09:32.712,-2.043440212336169e-05,-27.55572008718611
2025-06-25 18:09:32.720,-6.898867229900292e-06,-26.385308037657506
2025-06-25 18:09:32.727,5.3418568788771095e-06,-25.031383129776405
2025-06-25 18:09:32.735,1.615295916505538e-05,-23.50264192563908
2025-06-25 18:09:32.743,2.545414314850672e-05,-21.810967060998404
2025-06-25 18:09:32.751,3.321767813306027e-05,-19.97124011093087
2025-06-25 18:09:32.759,3.946460304226725e-05,-18.001088829894517
2025-06-25 18:09:32.766,4.425933239331876e-05,-15.920572457755853
2025-06-25 18:09:32.774,4.770298882787842e-05,-13.75181034338224
2025-06-25 18:09:32.782,4.9925845667368855e-05,-11.51856078223964
2025-06-25 18:09:32.790,5.1079304187832593e-05,-9.24575861450042
2025-06-25 18:09:32.798,5.132785217354795e-05,-6.959021691280356
2025-06-25 18:09:32.805,5.084144358411731e-05,-4.684137690091634
2025-06-25 18:09:32.813,4.978868403273987e-05,-2.4465438525879457
2025-06-25 18:09:32.821,4.833109308703836e-05,-0.2708129478234059
2025-06-25 18:09:32.829,4.6618569775849264e-05,1.8198409292208693
2025-06-25 18:09:32.837,4.478606342026959e-05,3.8040232746980314
2025-06-25 18:09:32.845,4.2951375527230666e-05,5.662574015482673
2025-06-25 18:09:32.852,4.121397970128764e-05,7.378924642524575
2025-06-25 18:09:32.860,3.965472534399519e-05,8.939387672859214
2025-06-25 18:09:32.868,3.833627794779565e-05,10.33337060008514
2025-06-25 18:09:32.876,3.730414246281819e-05,11.553509007184072
2025-06-25 18:09:32.884,3.658811629776617e-05,12.595716312344878
2025-06-25 18:09:32.891,3.620402455578917e-05,13.45915056301462
2025-06-25 18:09:32.899,3.6155601448169e-05,14.146101633087238
2025-06-25 18:09:32.907,3.643639765317579e-05,14.661804954738402
2025-06-25 18:09:32.915,3.703161274816944e-05,15.014190378811806
2025-06-25 18:09:32.923,3.791977370619822e-05,15.213576776339352
2025-06-25 18:09:32.930,3.907420373247359e-05,15.272324473822644
2025-06-25 18:09:32.938,4.046424933056955e-05,15.20445850170041
2025-06-25 18:09:32.946,4.205625637014937e-05,15.025275912500929
2025-06-25 18:09:32.954,4.381430707667196e-05,14.750950109006268
2025-06-25 18:09:32.962,4.570074837128756e-05,14.398144258353764
2025-06-25 18:09:32.970,4.7676557069109255e-05,13.983644525150634
2025-06-25 18:09:32.977,4.970159845348843e-05,13.524022125463114
2025-06-25 18:09:32.985,5.1734841203314535e-05,13.03533119042155
2025-06-25 18:09:32.993,5.3734593257944185e-05,12.532847253683242
2025-06-25 18:09:33.001,5.56588198459182e-05,12.030848971416464
2025-06-25 18:09:33.009,5.746559665735224e-05,11.542443576979458
2025-06-25 18:09:33.016,5.911373827635462e-05,11.07943468317368
2025-06-25 18:09:33.024,6.0563624966889325e-05,10.65222947190709
2025-06-25 18:09:33.032,6.17782303582194e-05,10.269781132574035
2025-06-25 18:09:33.040,6.272432930164825e-05,9.939561679591412
2025-06-25 18:09:33.048,6.337384010820844e-05,9.667560013251284
2025-06-25 18:09:33.055,6.370522958447589e-05,9.458300257924344
2025-06-25 18:09:33.063,6.370488390697875e-05,9.314875948323357
2025-06-25 18:09:33.071,6.336832461710396e-05,9.238996444806531
2025-06-25 18:09:33.079,6.270112810054625e-05,9.23104294376987
2025-06-25 18:09:33.087,6.171939166726051e-05,9.290132515058302
2025-06-25 18:09:33.095,6.044959059863874e-05,9.414189657070484
2025-06-25 18:09:33.102,5.892770992282421e-05,9.60002582616812
2025-06-25 18:09:33.110,5.719762429419907e-05,9.843428184447715
2025-06-25 18:09:33.118,5.53088135535178e-05,10.139259336902844
2025-06-25 18:09:33.126,5.3313590951288544e-05,10.481570025908256
2025-06-25 18:09:33.134,5.126405991749896e-05,10.86372656996921
2025-06-25 18:09:33.141,4.920901558688233e-05,11.27855425608215
2025-06-25 18:09:33.149,4.71909904784816e-05,11.718496936826448
2025-06-25 18:09:33.157,4.5243620357783433e-05,12.17579179982751
2025-06-25 18:09:33.165,4.338947892831626e-05,12.642656765785478
2025-06-25 18:09:33.173,4.1638499544293264e-05,13.11148636761634
2025-06-25 18:09:33.180,3.9987069541515214e-05,13.575050428706955
2025-06-25 18:09:33.188,3.841784897200831e-05,14.026688558631204
2025-06-25 18:09:33.196,3.6900331399344885e-05,14.460492568804252
2025-06-25 18:09:33.204,3.539213084044405e-05,14.871468495539132
2025-06-25 18:09:33.212,3.3840946770064055e-05,15.255670079016689
2025-06-25 18:09:33.220,3.2187129147674775e-05,15.610296307606006
2025-06-25 18:09:33.227,3.0366738458930758e-05,15.933746963548604
2025-06-25 18:09:33.235,2.8314972522213687e-05,16.225631908691824
2025-06-25 18:09:33.243,2.596981298634593e-05,16.486731996505004
2025-06-25 18:09:33.251,2.3275730677097003e-05,16.718911834136588
2025-06-25 18:09:33.259,2.0187280811725505e-05,16.924986981318725
2025-06-25 18:09:33.266,1.6672417088130413e-05,17.108550396775648
2025-06-25 18:09:33.274,1.2715358167822176e-05,17.27376487303311
2025-06-25 18:09:33.282,8.318851393267482e-06,17.4251297093045
2025-06-25 18:09:33.290,3.5056968551539515e-06,17.567230876119098
2025-06-25 18:09:33.298,-1.6805798631962698e-06,17.704484395878186
2025-06-25 18:09:33.305,-7.175985990924879e-06,17.840882623390403
2025-06-25 18:09:33.313,-1.2897292379924103e-05,17.97975262223129
2025-06-25 18:09:33.321,-1.874423431597381e-05,18.123534987112563
2025-06-25 18:09:33.329,-2.4602631053872263e-05,18.27359036794581
2025-06-25 18:09:33.337,-3.034832034002288e-05,18.430039721229008
2025-06-25 18:09:33.345,-3.58517494135916e-05,18.591643049392022
2025-06-25 18:09:33.352,-4.098300850714377e-05,18.755720162569872
2025-06-25 18:09:33.360,-4.561704016050727e-05,18.91811585162113
2025-06-25 18:09:33.368,-4.963871942809833e-05,19.073210807632663
2025-06-25 18:09:33.376,-5.294749907529127e-05,19.21397864787721
2025-06-25 18:09:33.384,-5.546136356843214e-05,19.332088479140907
2025-06-25 18:09:33.391,-5.711991363433419e-05,19.41805150670524
2025-06-25 18:09:33.399,-5.7886471456457385e-05,19.46140924645225
2025-06-25 18:09:33.407,-5.774915195304109e-05,19.4509599010854
2025-06-25 18:09:33.415,-5.672091309388566e-05,19.375018426666426
2025-06-25 18:09:33.423,-5.483867487013328e-05,19.22170477543382
2025-06-25 18:09:33.430,-5.2161644872626006e-05,18.97925380685921
2025-06-25 18:09:33.438,-4.876898671458445e-05,18.63633947146701
2025-06-25 18:09:33.446,-4.475693168001198e-05,18.18240515108482
2025-06-25 18:09:33.454,-4.023539742855239e-05,17.607991536521382
2025-06-25 18:09:33.462,-3.53241736960714e-05,16.905053174033522
2025-06-25 18:09:33.470,-3.014877938203628e-05,16.067254827341884
2025-06-25 18:09:33.477,-2.483616445354622e-05,15.090239072412327
2025-06-25 18:09:33.485,-1.951047606973429e-05,13.971857043439664
2025-06-25 18:09:33.493,-1.4289107062693256e-05,12.71235495072245
2025-06-25 18:09:33.501,-9.279209642171914e-06,11.314509865705997
2025-06-25 18:09:33.509,-4.574810417250943e-06,9.783709293473647
2025-06-25 18:09:33.516,-2.54615917051208e-07,8.127970219376122
2025-06-25 18:09:33.524,3.6194461902770823e-06,6.357894630750882
2025-06-25 18:09:33.532,7.002944858389078e-06,4.4865599930456055
2025-06-25 18:09:33.540,9.868951948683734e-06,2.5293448158091696
2025-06-25 18:09:33.548,1.2207395810313956e-05,0.5036912766238375
2025-06-25 18:09:33.555,1.4023844131812175e-05,-1.5711911449688662
2025-06-25 18:09:33.563,1.5337815108180126e-05,-3.674674991961256
2025-06-25 18:09:33.571,1.618072698535075e-05,-5.7851089969702
2025-06-25 18:09:33.579,1.659360130108868e-05,-7.880247008070925
2025-06-25 18:09:33.587,1.6624635087348557e-05,-9.93769987265896
2025-06-25 18:09:33.595,1.632675251325442e-05,-11.935397142857118
2025-06-25 18:09:33.602,1.575523760626707e-05,-13.852044621438436
2025-06-25 18:09:33.610,1.4965537532275676e-05,-15.667563495139028
2025-06-25 18:09:33.618,1.4011311217760344e-05,-17.363497149176478
2025-06-25 18:09:33.626,1.2942781639377767e-05,-18.923372730609437
2025-06-25 18:09:33.634,1.1805432650218052e-05,-20.33300609684647
2025-06-25 18:09:33.641,1.0639073479628883e-05,-21.58074088196188
2025-06-25 18:09:33.649,9.47727669971187e-06,-22.657614943958244
2025-06-25 18:09:33.657,8.347179090296836e-06,-23.55745030677692
2025-06-25 18:09:33.665,7.269619968496639e-06,-24.276865747962976
2025-06-25 18:09:33.673,6.2595786045951305e-06,-24.815214254961678
2025-06-25 18:09:33.680,5.326861658015142e-06,-25.174450520088325
2025-06-25 18:09:33.688,4.4769833789501255e-06,-25.358936310431613
2025-06-25 18:09:33.696,3.712175786463326e-06,-25.3751937929624
2025-06-25 18:09:33.704,3.0324632193990807e-06,-25.23161859905785
2025-06-25 18:09:33.712,2.436735547391912e-06,-24.938165492104755
2025-06-25 18:09:33.720,1.9237568345825016e-06,-24.50601991410404
2025-06-25 18:09:33.727,1.4930512076820998e-06,-23.947268434268672
2025-06-25 18:09:33.735,1.145614869309907e-06,-23.27458024940536
2025-06-25 18:09:33.743,8.84412337933152e-07,-22.500910474718395
2025-06-25 18:09:33.751,7.146257597245217e-07,-21.639234124327366
2025-06-25 18:09:33.759,6.436381566241415e-07,-20.702317536979795
2025-06-25 18:09:33.766,6.807443467173365e-07,-19.702531680101394
2025-06-25 18:09:33.774,8.365965697659815e-07,-18.6517093870411
2025-06-25 18:09:33.782,1.122405126674434e-06,-17.561046265814806
2025-06-25 18:09:33.790,1.548927141964176e-06,-16.44104287209496
2025-06-25 18:09:33.798,2.125288428095286e-06,-15.301483859780882
2025-06-25 18:09:33.805,2.8576939247031464e-06,-14.1514482878123
2025-06-25 18:09:33.813,3.748090880052712e-06,-12.999344135730324
2025-06-25 18:09:33.821,4.79285544377532e-06,-11.852959411498762
2025-06-25 18:09:33.829,5.9815773009009736e-06,-10.719522050840135
2025-06-25 18:09:33.837,7.2960181057898e-06,-9.605761106801785
2025-06-25 18:09:33.845,8.709317548984882e-06,-8.517962477967412
2025-06-25 18:09:33.852,1.0185515770980758e-05,-7.462013558561527
2025-06-25 18:09:33.860,1.1679452479931378e-05,-6.443432623287964
2025-06-25 18:09:33.868,1.313709159680042e-05,-5.467380380042892
2025-06-25 18:09:33.876,1.4496305718031704e-05,-4.538652827585052
2025-06-25 18:09:33.884,1.5688137451345197e-05,-3.661656236178176
2025-06-25 18:09:33.891,1.6638535169678466e-05,-2.840366620339566
2025-06-25 18:09:33.899,1.727053949270943e-05,-2.0782773921655937
2025-06-25 18:09:33.907,1.7506874517836325e-05,-1.3783398865637393
2025-06-25 18:09:33.915,1.7272875268704045e-05,-0.7429020794125646
2025-06-25 18:09:33.923,1.64996608933347e-05,-0.1736510491689628
2025-06-25 18:09:33.930,1.5127442787820986e-05,0.3284354395743109
2025-06-25 18:09:33.938,1.310883906012227e-05,0.7631234041757032
2025-06-25 18:09:33.946,1.0412052618079273e-05,1.1309392264512466
2025-06-25 18:09:33.954,7.023760688271864e-06,1.4331655758447357
2025-06-25 18:09:33.962,2.9515597151990086e-06,1.6718152575975995
2025-06-25 18:09:33.970,-1.7741877770114346e-06,1.8495830299853708
2025-06-25 18:09:33.977,-7.09924792920343e-06,1.9697768934622195
2025-06-25 18:09:33.985,-1.2945277864310918e-05,2.036231704302615
2025-06-25 18:09:33.993,-1.9210555882697668e-05,2.0532091002425785
2025-06-25 18:09:34.001,-2.577174609327424e-05,2.0252885556285425
2025-06-25 18:09:34.009,-3.248672248265143e-05,1.9572548480666512
2025-06-25 18:09:34.016,-3.919842868144587e-05,1.8539872918362128
2025-06-25 18:09:34.024,-4.573969473311812e-05,1.720355781042375
2025-06-25 18:09:34.032,-5.193887234950518e-05,1.5611280192822847
2025-06-25 18:09:34.040,-5.762608715243884e-05,1.3808913481887577
2025-06-25 18:09:34.048,-6.263984229800455e-05,1.1839914036946166
2025-06-25 18:09:34.055,-6.683364501172445e-05,0.9744885250896544
2025-06-25 18:09:34.063,-7.008227016400712e-05,0.7561315284942011
2025-06-25 18:09:34.071,-7.22872371959678e-05,0.532347243724096
2025-06-25 18:09:34.079,-7.338109166273949e-05,0.3062431993898286
2025-06-25 18:09:34.087,-7.333018509909789e-05,0.0806201014124505
2025-06-25 18:09:34.095,-7.213582449003858e-05,-0.1420096646362345
2025-06-25 18:09:34.102,-6.983384174731362e-05,-0.3594013428788312
2025-06-25 18:09:34.110,-6.649274072558102e-05,-0.5695584835302484
2025-06-25 18:09:34.118,-6.22106039571445e-05,-0.7707179451532284
2025-06-25 18:09:34.126,-5.711092816818589e-05,-0.9613413243173105
2025-06-25 18:09:34.134,-5.133756099152928e-05,-1.1401138756345564
2025-06-25 18:09:34.141,-4.50489568876792e-05,-1.3059508630633905
2025-06-25 18:09:34.149,-3.841203650963752e-05,-1.458010185574028
2025-06-25 18:09:34.157,-3.159597353561962e-05,-1.5957091537519128
2025-06-25 18:09:34.165,-2.476622280698027e-05,-1.7187425526078324
2025-06-25 18:09:34.173,-1.8079057341300657e-05,-1.8270986780682952
2025-06-25 18:09:34.180,-1.167682258632339e-05,-1.9210699138875544
2025-06-25 18:09:34.188,-5.684056124432986e-06,-2.001254620352622
2025-06-25 18:09:34.196,-2.045635626387792e-07,-2.068547607995429
2025-06-25 18:09:34.204,4.68051177098509e-06,-2.124117225056854
2025-06-25 18:09:34.212,8.913635126016366e-06,-2.16936804301686
2025-06-25 18:09:34.220,1.2460893180560786e-05,-2.2058892152451777
2025-06-25 18:09:34.227,1.5311157462025135e-05,-2.235389732301458
2025-06-25 18:09:34.235,1.7474508224442185e-05,-2.259622916759896
2025-06-25 18:09:34.243,1.8980046951816686e-05,-2.280303501178439
2025-06-25 18:09:34.251,1.9873236627321728e-05,-2.2990214309227817
2025-06-25 18:09:34.259,2.021291306724037e-05,-2.317157059714927
2025-06-25 18:09:34.266,2.006810865110058e-05,-2.335802615533083
2025-06-25 18:09:34.274,1.951482250846508e-05,-2.355694694301744
2025-06-25 18:09:34.282,1.8632859564280983e-05,-2.3771621043483107
2025-06-25 18:09:34.290,1.750284576414785e-05,-2.400092672336685
2025-06-25 18:09:34.298,1.6203509273287123e-05,-2.4239216791982767
2025-06-25 18:09:34.305,1.4809298416734108e-05,-2.447643477947249
2025-06-25 18:09:34.313,1.3388387494104066e-05,-2.469846619777736
2025-06-25 18:09:34.321,1.200110216806312e-05,-2.4887715575400646
2025-06-25 18:09:34.329,1.0698777596812788e-05,-2.5023887886147724
2025-06-25 18:09:34.337,9.523045446948054e-06,-2.5084942174308646
2025-06-25 18:09:34.345,8.505530849633136e-06,-2.5048176190260225
2025-06-25 18:09:34.352,7.667927589538259e-06,-2.489139404644826
2025-06-25 18:09:34.360,7.022409557881491e-06,-2.459410443642314
2025-06-25 18:09:34.368,6.572328856414733e-06,-2.4138694826740075
2025-06-25 18:09:34.376,6.313145899275175e-06,-2.351152711891641
2025-06-25 18:09:34.384,6.233534320912976e-06,-2.2703902406098844
2025-06-25 18:09:34.391,6.316603277828085e-06,-2.171284643121246
2025-06-25 18:09:34.399,6.541181583000862e-06,-2.0541673042153548
2025-06-25 18:09:34.407,6.883111740884999e-06,-1.92002902264159
2025-06-25 18:09:34.415,7.31650703289937e-06,-1.770522211096578
2025-06-25 18:09:34.423,7.814930998287347e-06,-1.607933057403633
2025-06-25 18:09:34.430,8.352465621543332e-06,-1.4351231774188489
2025-06-25 18:09:34.438,8.904641945223678e-06,-1.2554415832234185
2025-06-25 18:09:34.446,9.449214367785874e-06,-1.0726091823918278
2025-06-25 18:09:34.454,9.966767282691565e-06,-0.8905794655990129
2025-06-25 18:09:34.462,1.0441149726984809e-05,-0.7133804557395031
2025-06-25 18:09:34.470,1.085974013587573e-05,-0.5449442851603415
2025-06-25 18:09:34.477,1.121354898903447e-05,-0.3889318299097136
2025-06-25 18:09:34.485,1.149717197271116e-05,-0.2485605578218186
2025-06-25 18:09:34.493,1.1708610200316642e-05,-0.1264440620960834
2025-06-25 18:09:34.501,1.1848977003284126e-05,-0.0244516139396503
2025-06-25 18:09:34.509,1.1922112830172394e-05,0.0564045211986586
2025-06-25 18:09:34.516,1.1934130912276802e-05,0.1160472646592303
2025-06-25 18:09:34.524,1.189291663124891e-05,0.155373031955311
2025-06-25 18:09:34.532,1.1807603041067911e-05,0.1762464631174755
2025-06-25 18:09:34.540,1.1688043850101315e-05,0.1814497675292077
2025-06-25 18:09:34.548,1.154430346472556e-05,0.1745869167600804
2025-06-25 18:09:34.555,1.138618154368124e-05,0.1599450219233618
2025-06-25 18:09:34.563,1.1222787021076012e-05,0.1423173087887062
2025-06-25 18:09:34.571,1.1062173830501116e-05,0.1267940670837027
2025-06-25 18:09:34.579,1.0911047700653844e-05,0.1185297126885738
2025-06-25 18:09:34.587,1.0774550482356868e-05,0.1224955775880962
2025-06-25 18:09:34.595,1.0656125585433652e-05,0.1432291554621327
2025-06-25 18:09:34.602,1.0557465317737205e-05,0.1845912169676618
2025-06-25 18:09:34.610,1.047853828271604e-05,0.2495424198723288
2025-06-25 18:09:34.618,1.041769255063738e-05,0.339950742433852
2025-06-25 18:09:34.626,1.0371828106884598e-05,0.4564402458013815
2025-06-25 18:09:34.634,1.0336630125425372e-05,0.5982903205538932
2025-06-25 18:09:34.641,1.0306852936910492e-05,0.7633927119642382
2025-06-25 18:09:34.649,1.0276643174296307e-05,0.948271294450628
2025-06-25 18:09:34.657,1.0239889496356492e-05,1.1481668582788795
2025-06-25 18:09:34.665,1.0190585520803406e-05,1.3571861946389308
2025-06-25 18:09:34.673,1.0123192152659575e-05,1.5685116593855162
2025-06-25 18:09:34.680,1.0032985378109258e-05,1.7746643205619268
2025-06-25 18:09:34.688,9.916375816978382e-06,1.9678109207744876
2025-06-25 18:09:34.696,9.771186895130155e-06,2.1401023839578595
2025-06-25 18:09:34.704,9.596879416769018e-06,2.284029626506361
2025-06-25 18:09:34.712,9.394711588526456e-06,2.3927811284315577
2025-06-25 18:09:34.720,9.167825170593053e-06,2.4605861744615627
2025-06-25 18:09:34.727,8.921250397331638e-06,2.483027929332217
2025-06-25 18:09:34.735,8.661824605033018e-06,2.4573115504050467
2025-06-25 18:09:34.743,8.398022102111069e-06,2.38247429733985
2025-06-25 18:09:34.751,8.13969567971623e-06,2.2595269684089367
2025-06-25 18:09:34.759,7.897733237903583e-06,2.091518847906659
2025-06-25 18:09:34.766,7.68363622928939e-06,1.8835215468761224
2025-06-25 18:09:34.774,7.509029919005464e-06,1.642530511608843
2025-06-25 18:09:34.782,7.3851187326711216e-06,1.377286412444897
2025-06-25 18:09:34.790,7.322103105588134e-06,1.0980219653190275
2025-06-25 18:09:34.798,7.328577137505522e-06,0.8161428455117996
2025-06-25 18:09:34.805,7.410928870602352e-06,0.5438541063931778
2025-06-25 18:09:34.813,7.572767011536536e-06,0.2937458125111371
2025-06-25 18:09:34.821,7.814399279166144e-06,0.0783533532343214
2025-06-25 18:09:34.829,8.132388150917091e-06,-0.0902909412878782
2025-06-25 18:09:34.837,8.519209487290722e-06,-0.2010977470874758
2025-06-25 18:09:34.845,8.963038238259586e-06,-0.2443352747974606
2025-06-25 18:09:34.852,9.447683104663502e-06,-0.2120022242530621
2025-06-25 18:09:34.860,9.952688601034904e-06,-0.0981444934903063
2025-06-25 18:09:34.868,1.045361844016768e-05,0.1008969329604194
2025-06-25 18:09:34.876,1.0922528574172063e-05,0.3863168554379851
2025-06-25 18:09:34.884,1.1328631669602322e-05,0.7567623533142951
2025-06-25 18:09:34.891,1.1639147404419937e-05,1.2083383729069488
2025-06-25 18:09:34.899,1.1820324943455624e-05,1.734702316549035
2025-06-25 18:09:34.907,1.1838615519956684e-05,2.327243965847064
2025-06-25 18:09:34.915,1.166196451614146e-05,2.975343651246219
2025-06-25 18:09:34.923,1.1261184131674346e-05,3.666698469271628
2025-06-25 18:09:34.930,1.061136002796716e-05,4.387703689482595
2025-06-25 18:09:34.938,9.69323863637193e-06,5.123874404742658
2025-06-25 18:09:34.946,8.494536530941305e-06,5.860291051735986
2025-06-25 18:09:34.954,7.011109800986994e-06,6.582051720128617
2025-06-25 18:09:34.962,5.24792010606463e-06,7.2747141985868
2025-06-25 18:09:34.970,3.2197354103377952e-06,7.924711461330844
2025-06-25 18:09:34.977,9.515075726866209e-07,8.51972573855856
2025-06-25 18:09:34.985,-1.5216237636362063e-06,9.049008368538288
2025-06-25 18:09:34.993,-4.154741053583849e-06,9.503635200816722
2025-06-25 18:09:35.001,-6.893998857928085e-06,9.87669028588165
2025-06-25 18:09:35.009,-9.677923484074277e-06,10.163373804242145
2025-06-25 18:09:35.016,-1.243915204540138e-05,10.361033500386034
2025-06-25 18:09:35.024,-1.5106578517388089e-05,10.469122128551266
2025-06-25 18:09:35.032,-1.760785022132325e-05,10.489086421821748
2025-06-25 18:09:35.040,-1.987213276996168e-05,10.424195713198545
2025-06-25 18:09:35.048,-2.1833035694885493e-05,10.279320449900991
2025-06-25 18:09:35.055,-2.343156569815048e-05,10.060672377003073
2025-06-25 18:09:35.063,-2.4618950790259133e-05,9.775519089795171
2025-06-25 18:09:35.071,-2.535915762793014e-05,9.431885958217892
2025-06-25 18:09:35.079,-2.56309089513005e-05,9.038258121087232
2025-06-25 18:09:35.087,-2.5429009006224508e-05,8.603294362907361
2025-06-25 18:09:35.095,-2.4764823963898063e-05,8.135563282379632
2025-06-25 18:09:35.102,-2.366585384483024e-05,7.643310336790054
2025-06-25 18:09:35.110,-2.2174446876532087e-05,7.134262231404323
2025-06-25 18:09:35.118,-2.0345797411881127e-05,6.6154728668550185
2025-06-25 18:09:35.126,-1.8245409041310005e-05,6.0932128045847085
2025-06-25 18:09:35.134,-1.5946207523125413e-05,5.572902081935963
2025-06-25 18:09:35.141,-1.3525475297564246e-05,5.059084296302195
2025-06-25 18:09:35.149,-1.1061761408890185e-05,4.555438247707004
2025-06-25 18:09:35.157,-8.63190032084769e-06,4.064822126507164
2025-06-25 18:09:35.165,-6.308251374604484e-06,3.5893442850730493
2025-06-25 18:09:35.173,-4.156248415889188e-06,3.1304540486653245
2025-06-25 18:09:35.181,-2.2323272073970644e-06,2.6890457908422936
2025-06-25 18:09:35.188,-5.822773123017752e-07,2.265569592799306
2025-06-25 18:09:35.196,7.599542854418062e-07,1.860142181629556
2025-06-25 18:09:35.204,1.7729980803701206e-06,1.47265245619082
2025-06-25 18:09:35.212,2.4483410947611312e-06,1.10285672515842
2025-06-25 18:09:35.220,2.790168813300488e-06,0.7504597703018056
2025-06-25 18:09:35.227,2.8147995686382044e-06,0.4151789771596379
2025-06-25 18:09:35.235,2.5497495895965413e-06,0.0967900017323431
2025-06-25 18:09:35.243,2.0324735543584813e-06,-0.2048462959725021
2025-06-25 18:09:35.251,1.3088303285393984e-06,-0.4897747035928737
2025-06-25 18:09:35.259,4.313268674134168e-07,-0.7579522645266016
2025-06-25 18:09:35.266,-5.428047124929072e-07,-1.0092677524187226
2025-06-25 18:09:35.274,-1.5536408805094193e-06,-1.2435705364644989
2025-06-25 18:09:35.282,-2.5406550327265184e-06,-1.460705073474042
2025-06-25 18:09:35.290,-3.4448046007751785e-06,-1.6605472597527946
2025-06-25 18:09:35.298,-4.2105619866722265e-06,-1.843039123340306
2025-06-25 18:09:35.306,-4.787835686270651e-06,-2.0082187843853143
2025-06-25 18:09:35.313,-5.133729688121032e-06,-2.156243200009796
2025-06-25 18:09:35.321,-5.214091441043219e-06,-2.287401882264633
2025-06-25 18:09:35.329,-5.004801491072792e-06,-2.4021204850846187
2025-06-25 18:09:35.337,-4.492761461281765e-06,-2.500953862749131
2025-06-25 18:09:35.345,-3.676541582837909e-06,-2.584568882707154
2025-06-25 18:09:35.352,-2.5666546941226064e-06,-2.653717909561934
2025-06-25 18:09:35.360,-1.1854307141681796e-06,-2.709204447979455
2025-06-25 18:09:35.368,4.33525750159268e-07,-2.751842927903214
2025-06-25 18:09:35.376,2.246301649678715e-06,-2.7824150259105984
2025-06-25 18:09:35.384,4.200060450918203e-06,-2.801625230376319
2025-06-25 18:09:35.391,6.234826779890901e-06,-2.8100585596248653
2025-06-25 18:09:35.399,8.285636190919972e-06,-2.8081434130355625
2025-06-25 18:09:35.407,1.0284998542968143e-05,-2.7961224570955308
2025-06-25 18:09:35.415,1.2165605430202272e-05,-2.774034205960991
2025-06-25 18:09:35.423,1.3863193464659765e-05,-2.7417075380673395
2025-06-25 18:09:35.431,1.5319456530771503e-05,-2.698770796225256
2025-06-25 18:09:35.438,1.648488211638297e-05,-2.6446763661265917
2025-06-25 18:09:35.446,1.732137025733068e-05,-2.578740755618225
2025-06-25 18:09:35.454,1.7804479367167056e-05,-2.500199258877202
2025-06-25 18:09:35.462,1.7925132157016503e-05,-2.408273347982906
2025-06-25 18:09:35.470,1.769060951365338e-05,-2.302248051492983
2025-06-25 18:09:35.477,1.7124671158587522e-05,-2.1815558121466982
2025-06-25 18:09:35.485,1.6266690566878078e-05,-2.045862712837533
2025-06-25 18:09:35.493,1.516978985587573e-05,-1.8951525624036063
2025-06-25 18:09:35.501,1.3898082352059223e-05,-1.7298041713069086
2025-06-25 18:09:35.509,1.252322678228521e-05,-1.5506572394794882
2025-06-25 18:09:35.516,1.1120541679258004e-05,-1.3590626272015742
2025-06-25 18:09:35.524,9.764933466944013e-06,-1.1569133725301948
2025-06-25 18:09:35.532,8.526878149567507e-06,-0.9466536279653344
2025-06-25 18:09:35.540,7.468675068846002e-06,-0.7312636715247305
2025-06-25 18:09:35.548,6.641164302944856e-06,-0.5142202457684112
2025-06-25 18:09:35.556,6.081067839795848e-06,-0.2994326256138805
2025-06-25 18:09:35.563,5.809079557896152e-06,-0.0911559425262146
2025-06-25 18:09:35.571,5.828791179560724e-06,0.1061156661313972
2025-06-25 18:09:35.579,6.126501609299768e-06,0.2877726123722465
2025-06-25 18:09:35.587,6.671916311426555e-06,0.4492259240979924
2025-06-25 18:09:35.595,7.41970248933036e-06,0.586051105628933
2025-06-25 18:09:35.602,8.311825675913114e-06,0.6941347565731104
2025-06-25 18:09:35.610,9.280554804693448e-06,0.7698187949169373
2025-06-25 18:09:35.618,1.0251986783264192e-05,0.8100371980190701
2025-06-25 18:09:35.626,1.1149908919799029e-05,0.812440410331539
2025-06-25 18:09:35.634,1.1899789146219494e-05,0.7755029496929954
2025-06-25 18:09:35.641,1.2432660720731354e-05,0.6986102577144654
2025-06-25 18:09:35.649,1.268865246802376e-05,0.5821214677048643
2025-06-25 18:09:35.657,1.2619918142428002e-05,0.4274054868575468
2025-06-25 18:09:35.665,1.2192760551547687e-05,0.236848584949404
2025-06-25 18:09:35.673,1.138883951898619e-05,0.0138325230027524
2025-06-25 18:09:35.681,1.0205471810430914e-05,-0.2373168853210087
2025-06-25 18:09:35.688,8.655126336504703e-06,-0.511410034196509
2025-06-25 18:09:35.696,6.764263549752464e-06,-0.8025010356900423
2025-06-25 18:09:35.704,4.571675940993107e-06,-1.1040201184351437
2025-06-25 18:09:35.712,2.1264784294091714e-06,-1.4089278098866345
2025-06-25 18:09:35.720,-5.141160887913615e-07,-1.709887099362386
2025-06-25 18:09:35.727,-3.28711706049081e-06,-1.9994491297093808
2025-06-25 18:09:35.735,-6.126071522220403e-06,-2.270247375167733
2025-06-25 18:09:35.743,-8.963292119518362e-06,-2.515194757274747
2025-06-25 18:09:35.751,-1.1731934391384263e-05,-2.72767776790179
2025-06-25 18:09:35.759,-1.4367877521513212e-05,-2.901741452265936
2025-06-25 18:09:35.766,-1.681137886720912e-05,-3.0322590953461668
2025-06-25 18:09:35.774,-1.9008486569089505e-05,-3.1150806855583424
2025-06-25 18:09:35.782,-2.091220606000993e-05,-3.147154723929828
2025-06-25 18:09:35.790,-2.248342513081448e-05,-3.1266187172952287
2025-06-25 18:09:35.798,-2.369160833247881e-05,-3.052854733647066
2025-06-25 18:09:35.806,-2.451527500770789e-05,-2.926507675601266
2025-06-25 18:09:35.813,-2.494227639504868e-05,-2.7494653862579868
2025-06-25 18:09:35.821,-2.4969886398006828e-05,-2.5248012601306464
2025-06-25 18:09:35.829,-2.4604718219279023e-05,-2.256681596283288
2025-06-25 18:09:35.837,-2.386247565545754e-05,-1.950241404376652
2025-06-25 18:09:35.845,-2.276754400322186e-05,-1.6114336650481005
2025-06-25 18:09:35.852,-2.1352421831728342e-05,-1.2468580722935678
2025-06-25 18:09:35.860,-1.965699190130176e-05,-0.8635759807865838
2025-06-25 18:09:35.868,-1.772762778717883e-05,-0.4689186000449867
2025-06-25 18:09:35.876,-1.5616132761842523e-05,-0.0702954035540322
2025-06-25 18:09:35.884,-1.3378509570531171e-05,0.3249907247016189
2025-06-25 18:09:35.891,-1.1073564158297368e-05,0.7099158393066048
2025-06-25 18:09:35.899,-8.761353299552646e-06,1.0778899834486149
2025-06-25 18:09:35.907,-6.501495425729443e-06,1.4228912347759126
2025-06-25 18:09:35.915,-4.3513755772151525e-06,1.739576164891338
2025-06-25 18:09:35.923,-2.3642890046580683e-06,2.0233652265666238
2025-06-25 18:09:35.931,-5.87583048012741e-07,2.2705026093479965
2025-06-25 18:09:35.938,9.391270711742116e-07,2.478091026933684
2025-06-25 18:09:35.946,2.185576718387265e-06,2.6441026902324114
2025-06-25 18:09:35.954,3.132197195389177e-06,2.7673683571275096
2025-06-25 18:09:35.962,3.771066562134864e-06,2.8475468217833515
2025-06-25 18:09:35.970,4.106334578816483e-06,2.885077513185836
2025-06-25 18:09:35.977,4.15399517500586e-06,2.8811190287246013
2025-06-25 18:09:35.985,3.9409208214857165e-06,2.8374764588773247
2025-06-25 18:09:35.993,3.5031623667822373e-06,2.7565202921792693
2025-06-25 18:09:36.001,2.883629671385618e-06,2.6410995530383867
2025-06-25 18:09:36.009,2.1293534210232763e-06,2.494451642901327
2025-06-25 18:09:36.016,1.2885612547000752e-06,2.320111149356771
2025-06-25 18:09:36.024,4.0779393793872973e-07,2.1218196773548867
2025-06-25 18:09:36.032,-4.707385545770423e-07,1.903438557131774
2025-06-25 18:09:36.040,-1.3113946219227625e-06,1.6688661010356554
2025-06-25 18:09:36.048,-2.0868039693826048e-06,1.4219609110511449
2025-06-25 18:09:36.056,-2.7789490293521485e-06,1.166472567892992
2025-06-25 18:09:36.063,-3.379581466341879e-06,0.9059808492792816
2025-06-25 18:09:36.071,-3.889974478316172e-06,0.6438444232323626
2025-06-25 18:09:36.079,-4.320055063575557e-06,0.3831597412528703
2025-06-25 18:09:36.087,-4.687001940738324e-06,0.1267306176483432
2025-06-25 18:09:36.095,-5.013433167025463e-06,-0.1229512744562288
2025-06-25 18:09:36.102,-5.325341547295826e-06,-0.3637150364388695
2025-06-25 18:09:36.110,-5.649964600705897e-06,-0.5937086557571395
2025-06-25 18:09:36.118,-6.013796568315395e-06,-0.8113872745329087
2025-06-25 18:09:36.126,-6.440952176817675e-06,-1.0154926405341167
2025-06-25 18:09:36.134,-6.952054311828101e-06,-1.2050251097559388
2025-06-25 18:09:36.141,-7.563728665396094e-06,-1.3792098865599514
2025-06-25 18:09:36.149,-8.288673772126671e-06,-1.537459451377484
2025-06-25 18:09:36.157,-9.136184311902956e-06,-1.6793343110867374
2025-06-25 18:09:36.165,-1.0112965091332577e-05,-1.8045042886530973
2025-06-25 18:09:36.173,-1.1224070972099643e-05,-1.912712528616776
2025-06-25 18:09:36.181,-1.2473822866865554e-05,-2.003744227878873
2025-06-25 18:09:36.188,-1.386657123491412e-05,-2.077401815697409
2025-06-25 18:09:36.196,-1.540720369922508e-05,-2.1334879247766536
2025-06-25 18:09:36.204,-1.710132144058191e-05,-2.1717970483753835
2025-06-25 18:09:36.212,-1.895503881766093e-05,-2.192116302258144
2025-06-25 18:09:36.220,-2.0974391104145644e-05,-2.194235239929396
2025-06-25 18:09:36.227,-2.3164365214212243e-05,-2.177964235681125
2025-06-25 18:09:36.235,-2.5527596721286588e-05,-2.143160575681816
2025-06-25 18:09:36.243,-2.806280232752686e-05,-2.0897610930016293
2025-06-25 18:09:36.251,-3.076303925410416e-05,-2.017819944349895
2025-06-25 18:09:36.259,-3.3613900935430376e-05,-1.9275499432713
2025-06-25 18:09:36.266,-3.6591771176990473e-05,-1.8193657277759376
2025-06-25 18:09:36.274,-3.966226598415145e-05,-1.6939269478277157
2025-06-25 18:09:36.282,-4.277899316168603e-05,-1.552179612190521
2025-06-25 18:09:36.290,-4.588275427891706e-05,-1.3953937361431326
2025-06-25 18:09:36.298,-4.890130165285038e-05,-1.2251954770165596
2025-06-25 18:09:36.306,-5.174974479579083e-05,-1.0435920224786903
2025-06-25 18:09:36.313,-5.4331676703642014e-05,-0.8529875952382332
2025-06-25 18:09:36.321,-5.654106105475829e-05,-0.6561890537280063
2025-06-25 18:09:36.329,-5.826488770402221e-05,-0.456399711443276
2025-06-25 18:09:36.337,-5.938656687157213e-05,-0.2572001890378763
2025-06-25 18:09:36.345,-5.978999342633425e-05,-0.0625153753391679
2025-06-25 18:09:36.352,-5.9364173122133534e-05,0.1234330799914376
2025-06-25 18:09:36.360,-5.800826418372841e-05,0.2961888861537231
2025-06-25 18:09:36.368,-5.563685200150418e-05,0.4511374746497956
2025-06-25 18:09:36.376,-5.218524368359079e-05,0.5835956608798177
2025-06-25 18:09:36.384,-4.7614544650699726e-05,0.6889130398860752
2025-06-25 18:09:36.391,-4.191626310776468e-05,0.7625829236210702
2025-06-25 18:09:36.399,-3.511618173212651e-05,0.8003600255469003
2025-06-25 18:09:36.407,-2.7277240730677857e-05,0.7983815627768209
2025-06-25 18:09:36.415,-1.8501193718392128e-05,0.7532880131412664
2025-06-25 18:09:36.423,-8.928828493527245e-06,0.662339467363142
2025-06-25 18:09:36.431,1.2614108504139578e-06,0.5235233827547308
2025-06-25 18:09:36.438,1.1856505991787155e-05,0.335649594821599
2025-06-25 18:09:36.446,2.2613685019226847e-05,0.0984286864295325
2025-06-25 18:09:36.454,3.326693301012725e-05,-0.1874697524284617
2025-06-25 18:09:36.462,4.353505077989052e-05,-0.5203818331567789
2025-06-25 18:09:36.470,5.313101917829526e-05,-0.897639147896198
2025-06-25 18:09:36.477,6.177232235961707e-05,-1.3155848553245824
2025-06-25 18:09:36.485,6.919178964663817e-05,-1.7696163807207188
2025-06-25 18:09:36.493,7.514845659399591e-05,-2.254254106153603
2025-06-25 18:09:36.501,7.94379372600192e-05,-2.763234545658358
2025-06-25 18:09:36.509,8.190182152535142e-05,-3.28962571476356
2025-06-25 18:09:36.516,8.243562986346251e-05,-3.825961743948101
2025-06-25 18:09:36.524,8.099488246381467e-05,-4.364393267579912
2025-06-25 18:09:36.532,7.759891843998122e-05,-4.896849746623285
2025-06-25 18:09:36.540,7.233224488848031e-05,-5.415209645774128
2025-06-25 18:09:36.548,6.53433450926947e-05,-5.911474265569594
2025-06-25 18:09:36.556,5.684097205594829e-05,-6.377941006782907
2025-06-25 18:09:36.563,4.708801818790747e-05,-6.807371901822421
2025-06-25 18:09:36.571,3.639315308510204e-05,-7.193153377021766
2025-06-25 18:09:36.579,2.510057888613231e-05,-7.529443406648762
2025-06-25 18:09:36.587,1.3578406019424027e-05,-7.811302481176333
2025-06-25 18:09:36.595,2.206230652100422e-06,-8.034805136357248
2025-06-25 18:09:36.602,-8.637512526877662e-06,-8.197129175625815
2025-06-25 18:09:36.610,-1.8587907013024427e-05,-8.29662016720295
2025-06-25 18:09:36.618,-2.7305181221961056e-05,-8.33282930728901
2025-06-25 18:09:36.626,-3.448524468438107e-05,-8.306523305569144
2025-06-25 18:09:36.634,-3.9868851314318565e-05,-8.219665559805373
2025-06-25 18:09:36.641,-4.324918313620043e-05,-8.075368533554899
2025-06-25 18:09:36.649,-4.447772005537902e-05,-7.877817927803103
2025-06-25 18:09:36.657,-4.346832923926999e-05,-7.632169938201042
2025-06-25 18:09:36.665,-4.019957125612583e-05,-7.344423609426699
2025-06-25 18:09:36.673,-3.471527786551754e-05,-7.021271027699774
2025-06-25 18:09:36.681,-2.7123499064194492e-05,-6.669928813679335
2025-06-25 18:09:36.688,-1.7593924719656573e-05,-6.29795506205758
2025-06-25 18:09:36.696,-6.3538484160695e-06,-5.913056483856955
2025-06-25 18:09:36.704,6.317314983496266e-06,-5.522891002210725
2025-06-25 18:09:36.712,2.009497070291639e-05,-5.13487139384173
2025-06-25 18:09:36.720,3.461772296665878e-05,-4.755975724841514
2025-06-25 18:09:36.727,4.949708995431589e-05,-4.392570279492904
2025-06-25 18:09:36.735,6.432835097993064e-05,-4.05025041612949
2025-06-25 18:09:36.743,7.870221947749704e-05,-3.733704308733628
2025-06-25 18:09:36.751,9.221695967341884e-05,-3.446603864790433
2025-06-25 18:09:36.759,0.0001044905410189,-3.1915262776966604
2025-06-25 18:09:36.766,0.0001151724516295,-2.969908708821976
2025-06-25 18:09:36.774,0.0001239548368775,-2.782037532397934
2025-06-25 18:09:36.782,0.0001305826471201,-2.627072451119212
2025-06-25 18:09:36.790,0.0001348624489014,-2.5031046448650334
2025-06-25 18:09:36.798,0.0001366695108057,-2.4072469959793223
2025-06-25 18:09:36.806,0.0001359527892056,-2.335753383640413
2025-06-25 18:09:36.813,0.0001327375468155,-2.2841630899311496
2025-06-25 18:09:36.821,0.0001271254932044,-2.247465538039158
2025-06-25 18:09:36.829,0.0001192924588098,-2.220279912711624
2025-06-25 18:09:36.837,0.0001094836686454,-2.1970437179548408
2025-06-25 18:09:36.845,9.80067043108512e-05,-2.172204029798219
2025-06-25 18:09:36.852,8.522227947814467e-05,-2.1404051242272564
2025-06-25 18:09:36.860,7.153301626940586e-05,-2.0966663191644166
2025-06-25 18:09:36.868,5.737048692006855e-05,-2.036544271161602
2025-06-25 18:09:36.876,4.318086822046601e-05,-1.9562746011821008
2025-06-25 18:09:36.884,2.940964260535905e-05,-1.8528885573196587
2025-06-25 18:09:36.891,1.6485867548009345e-05,-1.7243014073202747
2025-06-25 18:09:36.899,4.806619936473715e-06,-1.5693703375250283
2025-06-25 18:09:36.907,-5.277708505101876e-06,-1.3879207674355
2025-06-25 18:09:36.915,-1.347656091714492e-05,-1.1807411221280282
2025-06-25 18:09:36.923,-1.9570145209108488e-05,-0.9495471890264964
2025-06-25 18:09:36.931,-2.34175852429012e-05,-0.6969181759965282
2025-06-25 18:09:36.938,-2.4961883081891e-05,-0.4262074510048644
2025-06-25 18:09:36.946,-2.4231448026283908e-05,-0.1414316590410139
2025-06-25 18:09:36.954,-2.133811856136968e-05,0.1528575342169377
2025-06-25 18:09:36.962,-1.6471773686630965e-05,0.4517144411197771
2025-06-25 18:09:36.970,-9.89179755889601e-06,0.7499482579449418
2025-06-25 18:09:36.977,-1.9158215699961067e-06,1.0422750104892935
2025-06-25 18:09:36.985,7.093691597423528e-06,1.3234677988391037
2025-06-25 18:09:36.993,1.6744360213502558e-05,1.5885008719861935
2025-06-25 18:09:37.001,2.6629592183215884e-05,1.8326834654522397
2025-06-25 18:09:37.009,3.634439766462722e-05,2.051779858734313
2025-06-25 18:09:37.016,4.550064157651444e-05,2.2421127426630645
2025-06-25 18:09:37.024,5.374111974641472e-05,2.4006477095492302
2025-06-25 18:09:37.032,6.0751919171918085e-05,2.5250574585083623
2025-06-25 18:09:37.040,6.627261651350169e-05,2.613765102615975
2025-06-25 18:09:37.048,7.01039528482115e-05,2.665966730436926
2025-06-25 18:09:37.056,7.211269719280237e-05,2.681634074939508
2025-06-25 18:09:37.063,7.22335181429795e-05,2.661498750398025
2025-06-25 18:09:37.071,7.046785655023783e-05,2.607020013496128
2025-06-25 18:09:37.079,6.688000593241528e-05,2.520338372397463
2025-06-25 18:09:37.087,6.159079749509219e-05,2.4042175905201715
2025-06-25 18:09:37.095,5.476941793854756e-05,2.261977697904818
2025-06-25 18:09:37.102,4.6623968102645965e-05,2.097421534555185
2025-06-25 18:09:37.110,3.7391409740807535e-05,1.914757128315967
2025-06-25 18:09:37.118,2.732753388031049e-05,1.71851789004091
2025-06-25 18:09:37.126,1.6697498358528706e-05,1.513482230483514
2025-06-25 18:09:37.134,5.767328728171638e-06,1.3045938033463564
2025-06-25 18:09:37.141,-5.203413129393552e-06,1.0968831898972635
2025-06-25 18:09:37.149,-1.596777281269861e-05,0.8953914919065142
2025-06-25 18:09:37.157,-2.6296471056829685e-05,0.7050960177303258
2025-06-25 18:09:37.165,-3.5982044242702704e-05,0.530838053761714
2025-06-25 18:09:37.173,-4.484215949520244e-05,0.3772526282765642
2025-06-25 18:09:37.181,-5.272214326376827e-05,0.2487002080454329
2025-06-25 18:09:37.188,-5.949674575711944e-05,0.1492004184953732
2025-06-25 18:09:37.196,-6.507118369793112e-05,0.0823681260741988
2025-06-25 18:09:37.204,-6.938151377831912e-05,0.0513525297312163
2025-06-25 18:09:37.212,-7.239438165314948e-05,0.0587802307987204
2025-06-25 18:09:37.220,-7.410620043076293e-05,0.1067035409985105
2025-06-25 18:09:37.227,-7.454185079288803e-05,0.1965555063654183
2025-06-25 18:09:37.235,-7.375302620691892e-05,0.3291132386499409
2025-06-25 18:09:37.243,-7.181632741918158e-05,0.5044711356771419
2025-06-25 18:09:37.251,-6.88311344948531e-05,0.722025435062733
2025-06-25 18:09:37.259,-6.491718726265796e-05,0.9804712958385567
2025-06-25 18:09:37.266,-6.0211736732943264e-05,1.277813266662856
2025-06-25 18:09:37.274,-5.4866127301890925e-05,1.611389607445857
2025-06-25 18:09:37.282,-4.904173524131023e-05,1.9779105097325032
2025-06-25 18:09:37.290,-4.290529887207624e-05,2.373509832371258
2025-06-25 18:09:37.298,-3.6623803855239634e-05,2.7938095538112906
2025-06-25 18:09:37.306,-3.0359217632728603e-05,3.233995759712519
2025-06-25 18:09:37.313,-2.426348266831896e-05,3.688904647769586
2025-06-25 18:09:37.321,-1.8474242013896417e-05,4.153116747432457
2025-06-25 18:09:37.329,-1.3111736398424658e-05,4.62105732444552
2025-06-25 18:09:37.337,-8.277167443872966e-06,5.087100775774109
2025-06-25 18:09:37.345,-4.052615599488725e-06,5.545676732169297
2025-06-25 18:09:37.352,-5.02401215596394e-07,5.9913755885219935
2025-06-25 18:09:37.360,2.3243892888230986e-06,6.419051286582248
2025-06-25 18:09:37.368,4.390620870362222e-06,6.82391937780924
2025-06-25 18:09:37.376,5.667555840201884e-06,7.201648675780308
2025-06-25 18:09:37.384,6.131518436006156e-06,7.5484451319404196
2025-06-25 18:09:37.391,5.761217312158512e-06,7.861126891462404
2025-06-25 18:09:37.399,4.53607586475648e-06,8.137189764418219
2025-06-25 18:09:37.407,2.43579122185e-06,8.374862547400747
2025-06-25 18:09:37.415,-5.588093835809623e-07,8.573151733356589
2025-06-25 18:09:37.423,-4.463677823269244e-06,8.731875152285495
2025-06-25 18:09:37.431,-9.288369353459023e-06,8.85168401252693
2025-06-25 18:09:37.438,-1.503199210144189e-05,8.93407270018668
2025-06-25 18:09:37.446,-2.1678566396039924e-05,8.981375591245481
2025-06-25 18:09:37.454,-2.9192184830023863e-05,8.996750080869859
2025-06-25 18:09:37.462,-3.751246800243992e-05,8.984145064672894
2025-06-25 18:09:37.470,-4.6550849414818586e-05,8.948254223610746
2025-06-25 18:09:37.477,-5.618816912033954e-05,8.894453656192272
2025-06-25 18:09:37.485,-6.627393801018708e-05,8.828723644869434
2025-06-25 18:09:37.493,-7.662748883225045e-05,8.757554609311022
2025-06-25 18:09:37.501,-8.704107829815143e-05,8.687837564009124
2025-06-25 18:09:37.509,-9.728487577612958e-05,8.62673965230001
2025-06-25 18:09:37.516,-0.0001071136863343,8.58156558441763
2025-06-25 18:09:37.524,-0.000116275187069,8.559606091931263
2025-06-25 18:09:37.532,-0.000124519371634,8.567974860256555
2025-06-25 18:09:37.540,-0.0001316087931521,8.613435842622224
2025-06-25 18:09:37.548,-0.0001373290870709,8.702223397985797
2025-06-25 18:09:37.556,-0.0001414991653337,8.839858307363713
2025-06-25 18:09:37.563,-0.0001439804300946,9.030963360552397
2025-06-25 18:09:37.571,-0.0001446843847579,9.279082812817991
2025-06-25 18:09:37.579,-0.000143578122935,9.586510537336146
2025-06-25 18:09:37.587,-0.0001406873273762,9.95413210256917
2025-06-25 18:09:37.595,-0.0001360965849049,10.381286254235972
2025-06-25 18:09:37.602,-0.0001299470045076,10.865651358279576
2025-06-25 18:09:37.610,-0.0001224312984861,11.403162251393429
2025-06-25 18:09:37.618,-0.0001137866260313,11.987962645269471
2025-06-25 18:09:37.626,-0.0001042855890808,12.612397745492943
2025-06-25 18:09:37.634,-9.422583202333743e-05,13.26705108731244
2025-06-25 18:09:37.641,-8.391876523980528e-05,13.940828767023811
2025-06-25 18:09:37.649,-7.367800665651684e-05,14.621093259671504
2025-06-25 18:09:37.657,-6.380817628061537e-05,15.293847855399385
2025-06-25 18:09:37.665,-5.459465420058258e-05,15.94397141390792
2025-06-25 18:09:37.673,-4.629481394450288e-05,16.555501633450973
2025-06-25 18:09:37.681,-3.91310736956143e-05,17.11196337415572
2025-06-25 18:09:37.688,-3.328589274203334e-05,17.59673679537738
2025-06-25 18:09:37.696,-2.8898633785309573e-05,17.993458208586524
2025-06-25 18:09:37.704,-2.606406682417293e-05,18.28644467378699
2025-06-25 18:09:37.712,-2.4832228865911244e-05,18.461131561348257
2025-06-25 18:09:37.720,-2.52093679280442e-05,18.504510663385062
2025-06-25 18:09:37.727,-2.715976592322128e-05,18.405555082155068
2025-06-25 18:09:37.735,-3.060832406648207e-05,18.15561616259849
2025-06-25 18:09:37.743,-3.5443887938489465e-05,17.748777280788257
2025-06-25 18:09:37.751,-4.152337194510262e-05,17.18214944437272
2025-06-25 18:09:37.759,-4.867677701903963e-05,16.456094479659747
2025-06-25 18:09:37.766,-5.6713142117615294e-05,15.574363120924913
2025-06-25 18:09:37.774,-6.542734278015724e-05,14.54413759372771
2025-06-25 18:09:37.782,-7.460751880648724e-05,13.375971262025963
2025-06-25 18:09:37.790,-8.404284680313181e-05,12.083621500696728
2025-06-25 18:09:37.798,-9.353137500315592e-05,10.683776020779533
2025-06-25 18:09:37.806,-0.0001028876414537,9.195677235687269
2025-06-25 18:09:37.813,-0.0001119497448252,7.64065370909377
2025-06-25 18:09:37.821,-0.0001205854543806,6.041572047787635
2025-06-25 18:09:37.829,-0.0001286969135746,4.422226562246909
2025-06-25 18:09:37.837,-0.000136223556095,2.8066873816222504
2025-06-25 18:09:37.845,-0.0001431429798337,1.2186302648023903
2025-06-25 18:09:37.852,-0.0001494696526582,-0.3193270821279041
2025-06-25 18:09:37.860,-0.0001552514390142,-1.786256918379761
2025-06-25 18:09:37.868,-0.0001605640598088,-3.163497083109415
2025-06-25 18:09:37.876,-0.0001655037265238,-4.43514772866057
2025-06-25 18:09:37.884,-0.0001701782946267,-5.588469708930566
2025-06-25 18:09:37.891,-0.0001746973600732,-6.614169369830256
2025-06-25 18:09:37.899,-0.0001791618082648,-7.506559641184205
2025-06-25 18:09:37.907,-0.000183653424501,-8.263593196913524
2025-06-25 18:09:37.915,-0.0001882252398116,-8.886769716046366
2025-06-25 18:09:37.923,-0.0001928932485607,-9.380925539099616
2025-06-25 18:09:37.931,-0.0001976299727968,-9.753919816086926
2025-06-25 18:09:37.938,-0.0002023601125443,-10.016236125050868
2025-06-25 18:09:37.946,-0.0002069582893727,-10.180522103619408
2025-06-25 18:09:37.954,-0.0002112487129712,-10.261091593238664
2025-06-25 18:09:37.962,-0.0002150064944392,-10.273414008253376
2025-06-25 18:09:37.970,-0.0002179603004636,-10.23361413833694
2025-06-25 18:09:37.977,-0.0002197960802409,-10.158002566592938
2025-06-25 18:09:37.985,-0.0002201616756859,-10.062652674800432
2025-06-25 18:09:37.993,-0.0002186722192837,-9.963035252886543
2025-06-25 18:09:38.001,-0.000214916319768,-9.87371652060287
2025-06-25 18:09:38.009,-0.000208463128916,-9.808120382609973
2025-06-25 18:09:38.016,-0.000198870468816,-9.77835138711483
2025-06-25 18:09:38.024,-0.0001856942660759,-9.795071454617323
2025-06-25 18:09:38.032,-0.0001684995636904,-9.867421175409152
2025-06-25 18:09:38.040,-0.0001468733406584,-10.002975400958176
2025-06-25 18:09:38.048,-0.00012043926748,-10.207722912593256
2025-06-25 18:09:38.056,-8.887438968312289e-05,-10.486060977229588
2025-06-25 18:09:38.063,-5.192758234867653e-05,-10.84079736063566
2025-06-25 18:09:38.071,-9.439451843685566e-06,-11.273154599031889
2025-06-25 18:09:38.079,3.863683640539377e-05,-11.782773770101649
2025-06-25 18:09:38.087,9.221455331181696e-05,-12.367717426111872
2025-06-25 18:09:38.095,0.0001510532277033,-13.024473568356589
2025-06-25 18:09:38.102,0.0002147405733776,-13.74796441043628
2025-06-25 18:09:38.110,0.0002826780641327,-14.531565094930432
2025-06-25 18:09:38.118,0.0003540718632123,-15.367138427570394
2025-06-25 18:09:38.126,0.0004279307970769,-16.24509204238128
2025-06-25 18:09:38.134,0.000503072850294,-17.154464206842903
2025-06-25 18:09:38.141,0.0005781412837783,-18.083043739307968
2025-06-25 18:09:38.149,0.000651630980776,-19.01752828618095
2025-06-25 18:09:38.157,0.0007219250292833,-19.943723560176046
2025-06-25 18:09:38.165,0.0007873408843486,-20.84678415861338
2025-06-25 18:09:38.173,0.0008461847625497,-21.71149436084378
2025-06-25 18:09:38.181,0.0008968122518002,-22.522584955006344
2025-06-25 18:09:38.188,0.0009376925071051,-23.26507978576888
2025-06-25 18:09:38.196,0.0009674728737689,-23.924663478214327
2025-06-25 18:09:38.204,0.0009850403717106,-24.48805981852337
2025-06-25 18:09:38.212,0.0009895762470024,-24.943408696551725
2025-06-25 18:09:38.220,0.0009805998340161,-25.28062845831979
2025-06-25 18:09:38.227,0.0009579983639721,-25.491750065866658
2025-06-25 18:09:38.235,0.0009220401418763,-25.57120966404934
2025-06-25 18:09:38.243,0.000873369646244,-25.516087007541188
2025-06-25 18:09:38.251,0.0008129844877567,-25.326278658299103
2025-06-25 18:09:38.259,0.0007421956800134,-25.00459683607872
2025-06-25 18:09:38.266,0.0006625741447163,-24.556787177720263
2025-06-25 18:09:38.274,0.0005758875083561,-23.99146130981977
2025-06-25 18:09:38.282,0.0004840317816291,-23.31994294217993
2025-06-25 18:09:38.290,0.0003889623861827,-22.556029036870846
2025-06-25 18:09:38.298,0.0002926283792523,-21.715670408026845
2025-06-25 18:09:38.306,0.0001969128872558,-20.816578787997347
2025-06-25 18:09:38.313,0.0001035818883216,-19.877769900642587
2025-06-25 18:09:38.321,1.4242652442244516e-05,-18.91905436530134
2025-06-25 18:09:38.329,-6.968764333300415e-05,-17.960490262405457
2025-06-25 18:09:38.337,-0.0001470033427998,-17.02181285508046
2025-06-25 18:09:38.345,-0.0002167226125742,-16.121858198761444
2025-06-25 18:09:38.352,-0.0002780918573071,-15.277998104153806
2025-06-25 18:09:38.360,-0.0003305836518911,-14.505604089300302
2025-06-25 18:09:38.368,-0.0003738895417439,-13.817557535499825
2025-06-25 18:09:38.376,-0.0004079088615365,-13.22382225211787
2025-06-25 18:09:38.384,-0.00043273445704,-12.73109408890266
2025-06-25 18:09:38.392,-0.00044863594145,-12.342540169807735
2025-06-25 18:09:38.399,-0.0004560409206949,-12.057637840629134
2025-06-25 18:09:38.407,-0.0004555144795466,-11.872120620070485
2025-06-25 18:09:38.415,-0.0004477371221748,-11.778035419965605
2025-06-25 18:09:38.423,-0.0004334813408509,-11.763912147262245
2025-06-25 18:09:38.431,-0.0004135870993551,-11.815043594624502
2025-06-25 18:09:38.438,-0.000388936753426,-11.913870328290924
2025-06-25 18:09:38.446,-0.0003604301844633,-12.040462138579748
2025-06-25 18:09:38.454,-0.0003289610669902,-12.173084572005124
2025-06-25 18:09:38.462,-0.000295395160845,-12.288836160886092
2025-06-25 18:09:38.470,-0.0002605513400302,-12.36433926914095
2025-06-25 18:09:38.477,-0.0002251858275335,-12.376465067407793
2025-06-25 18:09:38.485,-0.000189979889807,-12.303071145869318
2025-06-25 18:09:38.493,-0.000155531097259,-12.123728796270616
2025-06-25 18:09:38.501,-0.0001223481605291,-11.82041617974944
2025-06-25 18:09:38.509,-9.08492569179247e-05,-11.378153568732266
2025-06-25 18:09:38.517,-6.136362503927499e-05,-10.785557705441844
2025-06-25 18:09:38.524,-3.4136039650913825e-05,-10.035294109800423
2025-06-25 18:09:38.532,-9.3336531688779e-06,-9.12440889819465
2025-06-25 18:09:38.540,1.2945335470202983e-05,-8.054525291317303
2025-06-25 18:09:38.548,3.266167487331384e-05,-6.831894391943484
2025-06-25 18:09:38.556,4.9824167371222e-05,-5.467294849264668
2025-06-25 18:09:38.563,6.447835171301395e-05,-3.975781494921092
2025-06-25 18:09:38.571,7.669526769154669e-05,-2.3762887004156363
2025-06-25 18:09:38.579,8.656081883016287e-05,-0.6910998139069445
2025-06-25 18:09:38.587,9.416621999849336e-05,1.054800660200501
2025-06-25 18:09:38.595,9.95999749543522e-05,2.834470702745421
2025-06-25 18:09:38.602,0.0001029417774994,4.619824777097397
2025-06-25 18:09:38.610,0.0001042586447892,6.38248962118484
2025-06-25 18:09:38.618,0.0001036034668877,8.09467127183474
2025-06-25 18:09:38.626,0.0001010160033977,9.730001972129152
2025-06-25 18:09:38.634,9.652616952877548e-05,11.264336106766352
2025-06-25 18:09:38.642,9.015923499521184e-05,12.67646609007316
2025-06-25 18:09:38.649,8.194236601872809e-05,13.948732138087792
2025-06-25 18:09:38.657,7.191184034495149e-05,15.0675039809066
2025-06-25 18:09:38.665,6.012026903829747e-05,16.02351767137317
2025-06-25 18:09:38.673,4.664322418051828e-05,16.812056554217655
2025-06-25 18:09:38.681,3.1584745523824e-05,17.432971978170833
2025-06-25 18:09:38.688,1.5081256311663796e-05,17.890546214315954
2025-06-25 18:09:38.696,-2.696519999428233e-06,18.193206971652604
2025-06-25 18:09:38.704,-2.1543938968148497e-05,18.35310949382221
2025-06-25 18:09:38.712,-4.122522496067212e-05,18.38560805573105
2025-06-25 18:09:38.720,-6.147855231100633e-05,18.30864333469053
2025-06-25 18:09:38.727,-8.202305256577756e-05,18.142075243993983
2025-06-25 18:09:38.735,-0.0001025671739664,17.9069921324438
2025-06-25 18:09:38.743,-0.0001228177018912,17.625026662643563
2025-06-25 18:09:38.751,-0.0001424887488316,17.317706240449503
2025-06-25 18:09:38.759,-0.0001613101162241,17.005861798585777
2025-06-25 18:09:38.767,-0.0001790345688499,16.70911340533248
2025-06-25 18:09:38.774,-0.0001954437081545,16.445445050352028
2025-06-25 18:09:38.782,-0.0002103522676798,16.23087458828105
2025-06-25 18:09:38.790,-0.0002236107763481,16.079218727974727
2025-06-25 18:09:38.798,-0.0002351066406011,16.00194760930551
2025-06-25 18:09:38.806,-0.0002447637823292,16.008119266203668
2025-06-25 18:09:38.813,-0.0002525410349558,16.104381349738013
2025-06-25 18:09:38.821,-0.0002584295446876,16.29502594814469
2025-06-25 18:09:38.829,-0.000262449448326,16.58208312811356
2025-06-25 18:09:38.837,-0.0002646461044012,16.96543976063767
2025-06-25 18:09:38.845,-0.000265086142636,17.442972037259164
2025-06-25 18:09:38.852,-0.0002638535702797,18.010682543504917
2025-06-25 18:09:38.860,-0.0002610461355179,18.662835548627044
2025-06-25 18:09:38.868,-0.0002567721010819,19.39208703140129
2025-06-25 18:09:38.876,-0.0002511475286749,20.18960866682504
2025-06-25 18:09:38.884,-0.0002442941202562,21.04520736883256
2025-06-25 18:09:38.892,-0.0002363376088975,21.9474438841982
2025-06-25 18:09:38.899,-0.0002274066429836,22.88375526764964
2025-06-25 18:09:38.907,-0.0002176320658573,23.840586779152662
2025-06-25 18:09:38.915,-0.0002071464611113,24.80353880708812
2025-06-25 18:09:38.923,-0.0001960838136964,25.757533849215086
2025-06-25 18:09:38.931,-0.0001845791304081,26.687007433419986
2025-06-25 18:09:38.938,-0.0001727678711536,27.57612523002364
2025-06-25 18:09:38.946,-0.0001607850650924,28.4090266249186
2025-06-25 18:09:38.954,-0.0001487640230876,29.170092833164684
2025-06-25 18:09:38.962,-0.0001368346090569,29.84423538932972
2025-06-25 18:09:38.970,-0.0001251210963203,30.417198710083365
2025-06-25 18:09:38.977,-0.0001137397072269,30.875868537298057
2025-06-25 18:09:38.985,-0.0001027960029223,31.20857656995651
2025-06-25 18:09:38.993,-9.238233139555038e-05,31.40539058642382
2025-06-25 18:09:39.001,-8.257554124756679e-05,31.45837891821447
2025-06-25 18:09:39.009,-7.343514683688498e-05,31.361838302192744
2025-06-25 18:09:39.017,-6.500212212469905e-05,31.112474915764547
2025-06-25 18:09:39.024,-5.7298495550998856e-05,30.709529755992044
2025-06-25 18:09:39.032,-5.032785909176947e-05,30.154841385031368
2025-06-25 18:09:39.040,-4.407676013032783e-05,29.452841323099346
2025-06-25 18:09:39.048,-3.851676511584942e-05,28.61047989752784
2025-06-25 18:09:39.056,-3.3606864664893094e-05,27.63708301549637
2025-06-25 18:09:39.063,-2.929588821815219e-05,26.544142983274696
2025-06-25 18:09:39.071,-2.5524690743558263e-05,25.345049019515574
2025-06-25 18:09:39.079,-2.2227994916017277e-05,24.05476539370235
2025-06-25 18:09:39.087,-1.93358673304931e-05,22.689467075640074
2025-06-25 18:09:39.095,-1.677487415471397e-05,21.26614434534105
2025-06-25 18:09:39.102,-1.446901843912911e-05,19.802188942045497
2025-06-25 18:09:39.110,-1.234060399120424e-05,18.31497499510265
2025-06-25 18:09:39.118,-1.0311176264204213e-05,16.821448153826186
2025-06-25 18:09:39.126,-8.302647297242788e-06,15.337736002844949
2025-06-25 18:09:39.134,-6.238633879588004e-06,13.878792011891122
2025-06-25 18:09:39.142,-4.045961189845065e-06,12.45808394114815
2025-06-25 18:09:39.149,-1.656243579987003e-06,11.08733584678486
2025-06-25 18:09:39.157,9.925355357526416e-07,9.776330677567003
2025-06-25 18:09:39.165,3.954474970773734e-06,8.532778023209765
2025-06-25 18:09:39.173,7.274217602153649e-06,7.3622489900862975
2025-06-25 18:09:39.181,1.0985384027590991e-05,6.268177570689287
2025-06-25 18:09:39.188,1.5108975670669977e-05,5.251925369903711
2025-06-25 18:09:39.196,1.9651832414781424e-05,4.312904276368127
2025-06-25 18:09:39.204,2.460532395746985e-05,3.4487497280890214
2025-06-25 18:09:39.212,2.994448243144325e-05,2.655535698621932
2025-06-25 18:09:39.220,3.562771067065903e-05,1.928021468288437
2025-06-25 18:09:39.227,4.159707363209961e-05,1.2599196502934502
2025-06-25 18:09:39.235,4.777909208017303e-05,0.6441747878076224
2025-06-25 18:09:39.243,5.4085956081216267e-05,0.0732420785016686
2025-06-25 18:09:39.251,6.041712810380739e-05,-0.4606436347043799
2025-06-25 18:09:39.259,6.666135209614639e-05,-0.9652175902325336
2025-06-25 18:09:39.267,7.269911214475152e-05,-1.4479613959045452
2025-06-25 18:09:39.274,7.840561350668024e-05,-1.915912342894836
2025-06-25 18:09:39.282,8.365437872163604e-05,-2.37551061000594
2025-06-25 18:09:39.290,8.832151233677482e-05,-2.8324874368882926
2025-06-25 18:09:39.298,9.229056974496114e-05,-3.2917954321232537
2025-06-25 18:09:39.306,9.545781072112176e-05,-3.7575802235901095
2025-06-25 18:09:39.313,9.773748629429646e-05,-4.233190749339532
2025-06-25 18:09:39.321,9.90667366532449e-05,-4.721223729464007
2025-06-25 18:09:39.329,9.940968261778253e-05,-5.223596356089131
2025-06-25 18:09:39.337,9.876036637660128e-05,-5.74164008434575
2025-06-25 18:09:39.345,9.714431258220534e-05,-6.276207678160514
2025-06-25 18:09:39.352,9.461861095714266e-05,-6.82778540968562
2025-06-25 18:09:39.360,9.127054321158614e-05,-7.396602546421958
2025-06-25 18:09:39.368,8.721486436511248e-05,-7.982730967971923
2025-06-25 18:09:39.376,8.258988666963079e-05,-8.586168884997818
2025-06-25 18:09:39.384,7.755252440276057e-05,-9.206904107917945
2025-06-25 18:09:39.392,7.22724765893604e-05,-9.844954031387
2025-06-25 18:09:39.399,6.692575429227687e-05,-10.500381348107812
2025-06-25 18:09:39.407,6.168777328906892e-05,-11.173286362089252
2025-06-25 18:09:39.415,5.672623351071625e-05,-11.863778518054856
2025-06-25 18:09:39.423,5.219402813110206e-05,-12.571931287194998
2025-06-25 18:09:39.431,4.822247836119995e-05,-13.29772574938026
2025-06-25 18:09:39.438,4.491523845207184e-05,-14.040989009249692
2025-06-25 18:09:39.446,4.234322265194236e-05,-14.801333928222194
2025-06-25 18:09:39.454,4.054088222642022e-05,-15.578106528905924
2025-06-25 18:09:39.462,3.950414013815123e-05,-16.370346846736
2025-06-25 18:09:39.470,3.9190273049698055e-05,-17.176768008877854
2025-06-25 18:09:39.477,3.951997668219537e-05,-17.995756979994834
2025-06-25 18:09:39.485,4.038173067516997e-05,-18.82539881385273
2025-06-25 18:09:39.493,4.163838766174755e-05,-19.66352448526657
2025-06-25 18:09:39.501,4.313566372487459e-05,-20.507780553386905
2025-06-25 18:09:39.509,4.4711954028934526e-05,-21.35571713976016
2025-06-25 18:09:39.517,4.62087166690432e-05,-22.204889115597226
2025-06-25 18:09:39.524,4.748061125328327e-05,-23.05296409958307
2025-06-25 18:09:39.532,4.840463512352219e-05,-23.89782996424556
2025-06-25 18:09:39.540,4.888762333136687e-05,-24.737694094255968
2025-06-25 18:09:39.548,4.887163170430492e-05,-25.571166658439708
2025-06-25 18:09:39.556,4.833688918169319e-05,-26.397320645215988
2025-06-25 18:09:39.563,4.730217929184687e-05,-27.215722342445652
2025-06-25 18:09:39.571,4.582268602170219e-05,-28.02642727090126
2025-06-25 18:09:39.579,4.39855113065243e-05,-28.829938240916512
2025-06-25 18:09:39.587,4.190323335067558e-05,-29.62712411294392
2025-06-25 18:09:39.595,3.970601252474277e-05,-30.419099911143743
2025-06-25 18:09:39.602,3.7532837922040034e-05,-31.207071064789663
2025-06-25 18:09:39.610,3.552251772958929e-05,-31.992146634477617
2025-06-25 18:09:39.618,3.38049522982006e-05,-32.7751283212117
2025-06-25 18:09:39.626,3.2493125502683253e-05,-33.556283763861146
2025-06-25 18:09:39.634,3.16761571172418e-05,-34.3351140171263
2025-06-25 18:09:39.642,3.141371052026089e-05,-35.110126088220824
2025-06-25 18:09:39.649,3.1732037383975304e-05,-35.878621930889814
2025-06-25 18:09:39.657,3.2621909809921335e-05,-36.636515309321446
2025-06-25 18:09:39.665,3.403858361049616e-05,-37.378187439063886
2025-06-25 18:09:39.673,3.590375680755799e-05,-38.096391298351016
2025-06-25 18:09:39.681,3.8109307079163554e-05,-38.78221301060575
2025-06-25 18:09:39.688,4.052248468300801e-05,-39.425096772697295
2025-06-25 18:09:39.696,4.29922158922243e-05,-40.012937507417966
2025-06-25 18:09:39.704,4.53562000778721e-05,-40.53224283670999
2025-06-25 18:09:39.712,4.744851857254494e-05,-40.96836320652103
2025-06-25 18:09:39.720,4.91074808122571e-05,-41.30578615929527
2025-06-25 18:09:39.727,5.018339772664966e-05,-41.52848796827888
2025-06-25 18:09:39.735,5.0545918082525874e-05,-41.62033324472768
2025-06-25 18:09:39.743,5.0090538463822965e-05,-41.56551082587239
2025-06-25 18:09:39.751,4.874392619712095e-05,-41.34899235338123
2025-06-25 18:09:39.759,4.646776365617287e-05,-40.9569985399874
2025-06-25 18:09:39.767,4.326090942110503e-05,-40.377457252567126
2025-06-25 18:09:39.774,3.915976506446767e-05,-39.600437252729066
2025-06-25 18:09:39.782,3.423683228284404e-05,-38.61854175982552
2025-06-25 18:09:39.790,2.859754170290498e-05,-37.42724695572599
2025-06-25 18:09:39.798,2.237552996130114e-05,-36.02517214229525
2025-06-25 18:09:39.806,1.5726633558180285e-05,-34.414270478330366
2025-06-25 18:09:39.813,8.821954449521307e-06,-32.59993201905765
2025-06-25 18:09:39.821,1.8404296478156657e-06,-30.59099406772833
2025-06-25 18:09:39.829,-5.038608196053711e-06,-28.39965747422891
2025-06-25 18:09:39.837,-1.1642392582906895e-05,-26.041311269012954
2025-06-25 18:09:39.845,-1.7810809940028068e-05,-23.534271653598985
2025-06-25 18:09:39.852,-2.3401379078265822e-05,-20.899444631877053
2025-06-25 18:09:39.860,-2.829305766654182e-05,-18.15992424673001
2025-06-25 18:09:39.868,-3.2388905822774084e-05,-15.34054033662341
2025-06-25 18:09:39.876,-3.5617659038816475e-05,-12.467370879386747
2025-06-25 18:09:39.884,-3.793426667402446e-05,-9.56723435707936
2025-06-25 18:09:39.892,-3.9319483128611696e-05,-6.667177234091957
2025-06-25 18:09:39.899,-3.977864521149827e-05,-3.793970712423646
2025-06-25 18:09:39.907,-3.9339786690410654e-05,-0.9736295550683944
2025-06-25 18:09:39.915,-3.805120896844925e-05,1.769035910300511
2025-06-25 18:09:39.923,-3.5978570482914936e-05,4.410825357186485
2025-06-25 18:09:39.931,-3.320152238814302e-05,6.930504289585922
2025-06-25 18:09:39.938,-2.98099311933533e-05,9.309104774544556
2025-06-25 18:09:39.946,-2.589977936629652e-05,11.530167604799637
2025-06-25 18:09:39.954,-2.1568896997232887e-05,13.579924203932634
2025-06-25 18:09:39.962,-1.6912739994543374e-05,15.4474182419115
2025-06-25 18:09:39.970,-1.202048132565694e-05,17.124568433454225
2025-06-25 18:09:39.977,-6.971695518883867e-06,18.60617532619518
2025-06-25 18:09:39.985,-1.833879631451023e-06,19.88987602965311
2025-06-25 18:09:39.993,3.339017790186615e-06,20.976051768281287
2025-06-25 18:09:40.001,8.506970867152346e-06,21.86769384427914
2025-06-25 18:09:40.009,1.3643145761466471e-05,22.5702340586516
2025-06-25 18:09:40.017,1.873213241681798e-05,23.091345865273684
2025-06-25 18:09:40.024,2.376727255840844e-05,23.4407225384932
2025-06-25 18:09:40.032,2.8747274234135526e-05,23.629838445055725
2025-06-25 18:09:40.040,3.367234754429774e-05,23.671699154103035
2025-06-25 18:09:40.048,3.854012725750042e-05,23.580585622004783
2025-06-25 18:09:40.056,4.334166486245333e-05,23.371797078206924
2025-06-25 18:09:40.063,4.8057774791567686e-05,23.061396543512064
2025-06-25 18:09:40.071,5.265600702924234e-05,22.665962169269097
2025-06-25 18:09:40.079,5.708849146803284e-05,22.202346837232703
2025-06-25 18:09:40.087,6.12908590051361e-05,21.68744775174445
2025-06-25 18:09:40.095,6.518239170002083e-05,21.137987136233743
2025-06-25 18:09:40.102,6.866749096186688e-05,20.57030465931748
2025-06-25 18:09:40.110,7.163848070158176e-05,20.000161894665844
2025-06-25 18:09:40.118,7.397968401560183e-05,19.442558976390227
2025-06-25 18:09:40.126,7.557262992662402e-05,18.9115636394616
2025-06-25 18:09:40.134,7.630216391239142e-05,18.4201530063345
2025-06-25 18:09:40.142,7.606315553556733e-05,17.98006875941282
2025-06-25 18:09:40.149,7.47674217102494e-05,17.601686683081045
2025-06-25 18:09:40.157,7.235041832614899e-05,17.29390192830905
2025-06-25 18:09:40.165,6.877720101588389e-05,17.064031709495
2025-06-25 18:09:40.173,6.404713226490574e-05,16.91773745071619
2025-06-25 18:09:40.181,5.819685166338432e-05,16.858968618943745
2025-06-25 18:09:40.188,5.130117130065858e-05,16.889930576524936
2025-06-25 18:09:40.196,4.3471806963978953e-05,17.011078722986085
2025-06-25 18:09:40.204,3.485412381581314e-05,17.2211409619871
2025-06-25 18:09:40.212,2.5622250093888723e-05,17.517170126837684
2025-06-25 18:09:40.220,1.5972956689358368e-05,17.894627444513453
2025-06-25 18:09:40.227,6.118671117197024e-06,18.347497436484613
2025-06-25 18:09:40.235,-3.720039348856821e-06,18.86843386704021
2025-06-25 18:09:40.243,-1.332219682282781e-05,19.448935473184644
2025-06-25 18:09:40.251,-2.247404278458287e-05,20.07954925627685
2025-06-25 18:09:40.259,-3.097626295751945e-05,20.750098095518368
2025-06-25 18:09:40.267,-3.8650508179230966e-05,21.449928375391146
2025-06-25 18:09:40.274,-4.534493079607208e-05,22.16817223559569
2025-06-25 18:09:40.282,-5.0938507143336365e-05,22.894018003611585
2025-06-25 18:09:40.290,-5.534401237548515e-05,23.6169814246488
2025-06-25 18:09:40.298,-5.850962910038496e-05,24.327169539802423
2025-06-25 18:09:40.306,-6.041925743360501e-05,25.015528558764377
2025-06-25 18:09:40.313,-6.109162674080837e-05,25.674066896621078
2025-06-25 18:09:40.321,-6.05783035591603e-05,26.29604474686056
2025-06-25 18:09:40.329,-5.896067884525336e-05,26.876122175611968
2025-06-25 18:09:40.337,-5.6346033830655e-05,27.4104587514324
2025-06-25 18:09:40.345,-5.286284299631674e-05,27.89675915090283
2025-06-25 18:09:40.352,-4.8655551407750746e-05,28.334260959609523
2025-06-25 18:09:40.360,-4.387911458846151e-05,28.72366295532061
2025-06-25 18:09:40.368,-3.8693588591862285e-05,29.06699442730108
2025-06-25 18:09:40.376,-3.325901984656257e-05,29.36742844584669
2025-06-25 18:09:40.384,-2.773083192485633e-05,29.62904433465868
2025-06-25 18:09:40.392,-2.225585176845932e-05,29.856546806768925
2025-06-25 18:09:40.399,-1.696906495650631e-05,30.054951206864143
2025-06-25 18:09:40.407,-1.1991140262994617e-05,30.229245976074736
2025-06-25 18:09:40.415,-7.426719639209398e-06,30.384044745262244
2025-06-25 18:09:40.423,-3.3634321291311425e-06,30.52324130480843
2025-06-25 18:09:40.431,1.284400306203848e-07,30.649681044403927
2025-06-25 18:09:40.438,2.995737245259747e-06,30.76486227874956
2025-06-25 18:09:40.446,5.201748780886018e-06,30.868680169538752
2025-06-25 18:09:40.454,6.725204297136558e-06,30.959224734702683
2025-06-25 18:09:40.462,7.559044746044612e-06,31.032642735183973
2025-06-25 18:09:40.470,7.709079227264508e-06,31.083071100157387
2025-06-25 18:09:40.477,7.192621339058391e-06,31.102647067877975
2025-06-25 18:09:40.485,6.037181103089892e-06,31.081597475660445
2025-06-25 18:09:40.493,4.279267975719129e-06,31.008406739809725
2025-06-25 18:09:40.501,1.963338171783276e-06,30.870060147398974
2025-06-25 18:09:40.509,-8.591030754039298e-07,30.65235626420141
2025-06-25 18:09:40.517,-4.13025523466539e-06,30.34027966701439
2025-06-25 18:09:40.524,-7.786662274746284e-06,29.918422933343408
2025-06-25 18:09:40.532,-1.1759784279788576e-05,29.37144493970954
2025-06-25 18:09:40.540,-1.5976557722319317e-05,28.684551082634403
2025-06-25 18:09:40.548,-2.036000698209246e-05,27.84398008013932
2025-06-25 18:09:40.556,-2.4829969524161304e-05,26.837481562827392
2025-06-25 18:09:40.563,-2.930399073599526e-05,25.654768741313838
2025-06-25 18:09:40.571,-3.3698431730592704e-05,24.287931054556584
2025-06-25 18:09:40.579,-3.792981469323677e-05,22.731792869937752
2025-06-25 18:09:40.587,-4.191640611119424e-05,20.984206020742548
2025-06-25 18:09:40.595,-4.558000928279282e-05,19.046266211897187
2025-06-25 18:09:40.602,-4.884790492060825e-05,16.922446046609007
2025-06-25 18:09:40.610,-5.165484374530191e-05,14.620640516644366
2025-06-25 18:09:40.618,-5.394496084312548e-05,12.152124088687325
2025-06-25 18:09:40.626,-5.567345958434664e-05,9.531421794467615
2025-06-25 18:09:40.634,-5.680792545546961e-05,6.776099767192488
2025-06-25 18:09:40.642,-5.732919026289831e-05,3.906483263714364
2025-06-25 18:09:40.649,-5.723175030472629e-05,0.9453122337335828
2025-06-25 18:09:40.657,-5.652380017445249e-05,-2.0826541185020697
2025-06-25 18:09:40.665,-5.522695253589525e-05,-5.151071580583823
2025-06-25 18:09:40.673,-5.337568689257819e-05,-8.232471601015856
2025-06-25 18:09:40.681,-5.101653000501039e-05,-11.298736279867049
2025-06-25 18:09:40.688,-4.820693086640542e-05,-14.321576220694467
2025-06-25 18:09:40.696,-4.501376766873647e-05,-17.273000669977833
2025-06-25 18:09:40.704,-4.151143578534108e-05,-20.125770411526624
2025-06-25 18:09:40.712,-3.777952765498586e-05,-22.853825016893776
2025-06-25 18:09:40.720,-3.39002029759353e-05,-25.432677242667992
2025-06-25 18:09:40.727,-2.99554123623768e-05,-27.839768590997725
2025-06-25 18:09:40.735,-2.6024154682184792e-05,-30.054781294237188
2025-06-25 18:09:40.743,-2.2179930293289647e-05,-32.05990322821645
2025-06-25 18:09:40.751,-1.8488521293344723e-05,-33.84004347482454
2025-06-25 18:09:40.759,-1.5006196644324156e-05,-35.382997411718584
2025-06-25 18:09:40.767,-1.1778407393161186e-05,-36.67956127314409
2025-06-25 18:09:40.774,-8.839006171458916e-06,-37.723597073021416
2025-06-25 18:09:40.782,-6.209996550771382e-06,-38.51204958607241
2025-06-25 18:09:40.790,-3.901792317254804e-06,-39.04491772607836
2025-06-25 18:09:40.798,-1.9139448061193094e-06,-39.325183132023646
2025-06-25 18:09:40.806,-2.362784362166441e-07,-39.35869907645886
2025-06-25 18:09:40.813,1.1496393096936412e-06,-39.15404296647128
2025-06-25 18:09:40.821,2.2687769597937204e-06,-38.722335751638646
2025-06-25 18:09:40.829,3.1507563620649207e-06,-38.07703152894249
2025-06-25 18:09:40.837,3.827899202486614e-06,-37.23368058599274
2025-06-25 18:09:40.845,4.333291898004049e-06,-36.20966909072967
2025-06-25 18:09:40.852,4.698952959987383e-06,-35.02393865028886
2025-06-25 18:09:40.860,4.954178995503087e-06,-33.69668904581635
2025-06-25 18:09:40.868,5.124135166909791e-06,-32.24906761373447
2025-06-25 18:09:40.876,5.22874363084753e-06,-30.702848987251933
2025-06-25 18:09:40.884,5.281909705048835e-06,-29.080109226344547
2025-06-25 18:09:40.892,5.291110748766276e-06,-27.402898731385324
2025-06-25 18:09:40.899,5.257357468907182e-06,-25.69291872339728
2025-06-25 18:09:40.907,5.175522047432765e-06,-23.971206438344737
2025-06-25 18:09:40.915,5.035012578723042e-06,-22.25783447254683
2025-06-25 18:09:40.923,4.820759241145256e-06,-20.57162988028556
2025-06-25 18:09:40.931,4.514464814443799e-06,-18.929918619214
2025-06-25 18:09:40.938,4.096060976696691e-06,-17.348300731075827
2025-06-25 18:09:40.946,3.5453026243232942e-06,-15.840461213851375
2025-06-25 18:09:40.954,2.843425574785063e-06,-14.41802088067216
2025-06-25 18:09:40.962,1.9747887141230773e-06,-13.090430620535916
2025-06-25 18:09:40.970,9.284201756020652e-07,-11.86491140178255
2025-06-25 18:09:40.977,-3.006113346583175e-07,-10.746441133305131
2025-06-25 18:09:40.985,-1.710074289335862e-06,-9.737788177826443
2025-06-25 18:09:40.993,-3.289767545790104e-06,-8.83958996468189
2025-06-25 18:09:41.001,-5.021084367395373e-06,-8.050473848624726
2025-06-25 18:09:41.009,-6.876988541490372e-06,-7.36721617450489
2025-06-25 18:09:41.017,-8.822426927972898e-06,-6.784934492034254
2025-06-25 18:09:41.024,-1.0815183255580436e-05,-6.297307058546791
2025-06-25 18:09:41.032,-1.2807156298291873e-05,-5.896813188247562
2025-06-25 18:09:41.040,-1.4746022221678649e-05,-5.574987654936471
2025-06-25 18:09:41.048,-1.6577216504587605e-05,-5.322682222254219
2025-06-25 18:09:41.056,-1.824614613330139e-05,-5.130327445304898
2025-06-25 18:09:41.063,-1.970051854427272e-05,-4.9881881404466935
2025-06-25 18:09:41.071,-2.089265094798585e-05,-4.8866063356139815
2025-06-25 18:09:41.079,-2.178160315176776e-05,-4.816226071375653
2025-06-25 18:09:41.087,-2.23349614275844e-05,-4.768195101431305
2025-06-25 18:09:41.095,-2.253010102528335e-05,-4.73433931754166
2025-06-25 18:09:41.102,-2.235479218988811e-05,-4.7073065767712015
2025-06-25 18:09:41.110,-2.1807101098518893e-05,-4.680677520942291
2025-06-25 18:09:41.118,-2.089464745704256e-05,-4.649041934825111
2025-06-25 18:09:41.126,-1.9633365398111084e-05,-4.608040176990154
2025-06-25 18:09:41.134,-1.80459483572208e-05,-4.554370219474828
2025-06-25 18:09:41.142,-1.6160154039267345e-05,-4.485761827544078
2025-06-25 18:09:41.149,-1.400712425346098e-05,-4.400920367835833
2025-06-25 18:09:41.157,-1.161984729401366e-05,-4.299443612522299
2025-06-25 18:09:41.165,-9.031860672087025e-06,-4.181715666585128
2025-06-25 18:09:41.173,-6.276260737902933e-06,-4.048782748832507
2025-06-25 18:09:41.181,-3.385054416015402e-06,-3.902215980655944
2025-06-25 18:09:41.188,-3.8885818962936125e-07,-3.743966566837479
2025-06-25 18:09:41.196,2.6830782099233708e-06,-3.57621878529181
2025-06-25 18:09:41.204,5.802570174364702e-06,-3.4012460398061664
2025-06-25 18:09:41.212,8.94198528215035e-06,-3.2212748814420618
2025-06-25 18:09:41.220,1.2073600471314925e-05,-3.038361387373115
2025-06-25 18:09:41.227,1.5168919905224333e-05,-2.8542836234865727
2025-06-25 18:09:41.235,1.819804732833708e-05,-2.6704531360455865
2025-06-25 18:09:41.243,2.1129203840858903e-05,-2.487847548433012
2025-06-25 18:09:41.251,2.3928473154920543e-05,-2.306965416422382
2025-06-25 18:09:41.259,2.655984182454397e-05,-2.127803560331638
2025-06-25 18:09:41.267,2.898558216615962e-05,-1.9498561901431697
2025-06-25 18:09:41.274,3.116700130005718e-05,-1.7721343166058705
2025-06-25 18:09:41.282,3.306555182122583e-05,-1.5932032411472274
2025-06-25 18:09:41.290,3.4644269088220906e-05,-1.411235377347299
2025-06-25 18:09:41.298,3.586946817768767e-05,-1.2240753025241096
2025-06-25 18:09:41.306,3.671260147800688e-05,-1.0293137788142337
2025-06-25 18:09:41.313,3.715214705552818e-05,-0.8243675109009131
2025-06-25 18:09:41.321,3.7175369731660993e-05,-0.6065616017329676
2025-06-25 18:09:41.329,3.677977429804976e-05,-0.3732120002410678
2025-06-25 18:09:41.337,3.597406452967501e-05,-0.1217056719992667
2025-06-25 18:09:41.345,3.477845452375249e-05,0.1504232762101362
2025-06-25 18:09:41.352,3.322426273226114e-05,0.4454227720646621
2025-06-25 18:09:41.360,3.135282849659902e-05,0.7652580295519779
2025-06-25 18:09:41.368,2.9213876816440864e-05,1.1115532568912585
2025-06-25 18:09:41.376,2.6863494029846658e-05,1.4855399134811291
2025-06-25 18:09:41.384,2.436187720648003e-05,1.888011434306944
2025-06-25 18:09:41.392,2.1771004991287144e-05,2.3192842635663338
2025-06-25 18:09:41.399,1.9152358105311127e-05,2.779165039733605
2025-06-25 18:09:41.407,1.6564796350747013e-05,3.266923833639644
2025-06-25 18:09:41.415,1.4062676733658744e-05,3.781273444446524
2025-06-25 18:09:41.423,1.1694275081692178e-05,4.320354889847473
2025-06-25 18:09:41.431,9.500552064136776e-06,4.8817293669032935
2025-06-25 18:09:41.438,7.514284468565783e-06,5.462377086698858
2025-06-25 18:09:41.446,5.75956447600069e-06,6.058703479076857
2025-06-25 18:09:41.454,4.251653898620195e-06,6.666553307943912
2025-06-25 18:09:41.462,2.9971671647625424e-06,7.281233224944848
2025-06-25 18:09:41.470,1.99454639604321e-06,7.8975432187060814
2025-06-25 18:09:41.478,1.234784247266306e-06,8.509817294151192
2025-06-25 18:09:41.485,7.023451960035909e-07,9.1119735537876
2025-06-25 18:09:41.493,3.762335125516928e-07,9.697573667662148
2025-06-25 18:09:41.501,2.311559786300503e-07,10.259891529874542
2025-06-25 18:09:41.509,2.387292665834109e-07,10.79199072329878
2025-06-25 18:09:41.517,3.686854146556306e-07,11.286810260993498
2025-06-25 18:09:41.524,5.900336918837885e-07,11.7372579469452
2025-06-25 18:09:41.532,8.72142986544625e-07,12.136310598408553
2025-06-25 18:09:41.540,1.1857153313188822e-06,12.477120289132255
2025-06-25 18:09:41.548,1.503627973009981e-06,12.753125692938449
2025-06-25 18:09:41.556,1.8016282112766469e-06,12.958167509692466
2025-06-25 18:09:41.563,2.058871813393119e-06,13.086606814165068
2025-06-25 18:09:41.571,2.258301947213158e-06,13.133444955416689
2025-06-25 18:09:41.579,2.386871094642835e-06,13.094443331493135
2025-06-25 18:09:41.587,2.4356131919086005e-06,12.966240971030984
2025-06-25 18:09:41.595,2.3995772150623767e-06,12.746467392586764
2025-06-25 18:09:41.603,2.27763655645481e-06,12.433847727968176
2025-06-25 18:09:41.610,2.0721908257166965e-06,12.028296645521994
2025-06-25 18:09:41.618,1.7887781956024383e-06,11.530997256950489
2025-06-25 18:09:41.626,1.435617164340283e-06,10.944460998138554
2025-06-25 18:09:41.634,1.0230967077800072e-06,10.272564491706738
2025-06-25 18:09:41.642,5.632333461799645e-07,9.520559660501826
2025-06-25 18:09:41.649,6.91127585585382e-08,8.695053880984364
2025-06-25 18:09:41.657,-4.45667650340758e-07,7.80395773876201
2025-06-25 18:09:41.665,-9.675402864275912e-07,6.856398952849813
2025-06-25 18:09:41.673,-1.4834796626782434e-06,5.862602228439391
2025-06-25 18:09:41.681,-1.981473772547144e-06,4.833736118032055
2025-06-25 18:09:41.688,-2.4509445128918298e-06,3.781729342348081
2025-06-25 18:09:41.696,-2.8831087330579093e-06,2.7190603670286038
2025-06-25 18:09:41.704,-3.271273010835938e-06,1.6585252746070542
2025-06-25 18:09:41.712,-3.611056688845292e-06,0.6129900452654738
2025-06-25 18:09:41.720,-3.900539051291063e-06,-0.4048657977119447
2025-06-25 18:09:41.728,-4.140327799237317e-06,-1.3828066638496117
2025-06-25 18:09:41.735,-4.333547221124665e-06,-2.3092917421725856
2025-06-25 18:09:41.743,-4.485745689416983e-06,-3.1737115694293787
2025-06-25 18:09:41.751,-4.6047233817006734e-06,-3.96660310461368
2025-06-25 18:09:41.759,-4.700282461283157e-06,-4.679836833520577
2025-06-25 18:09:41.767,-4.783903388469601e-06,-5.306770420975202
2025-06-25 18:09:41.774,-4.868352589583439e-06,-5.842364609863361
2025-06-25 18:09:41.782,-4.967228393577333e-06,-6.283258361917856
2025-06-25 18:09:41.790,-5.094453946929756e-06,-6.627801579010695
2025-06-25 18:09:41.798,-5.263727709709894e-06,-6.876045082923758
2025-06-25 18:09:41.806,-5.487944073624122e-06,-7.0296888264278845
2025-06-25 18:09:41.813,-5.7785985621723285e-06,-7.0919905273228565
2025-06-25 18:09:41.821,-6.145193891861565e-06,-7.067638033622439
2025-06-25 18:09:41.829,-6.594664794744873e-06,-6.962589721974133
2025-06-25 18:09:41.837,-7.130840817780922e-06,-6.7838880886691735
2025-06-25 18:09:41.845,-7.753967208052798e-06,-6.539452402637231
2025-06-25 18:09:41.853,-8.460304347680743e-06,-6.237856841043171
2025-06-25 18:09:41.860,-9.241825906082574e-06,-5.888100906163499
2025-06-25 18:09:41.868,-1.0086034829526512e-05,-5.4993791111922565
2025-06-25 18:09:41.876,-1.09759144069624e-05,-5.0808569058790125
2025-06-25 18:09:41.884,-1.1890028881168497e-05,-4.641459573143793
2025-06-25 18:09:41.892,-1.2802784392392002e-05,-4.189680349679794
2025-06-25 18:09:41.899,-1.3684856463980869e-05,-3.73341330013952
2025-06-25 18:09:41.907,-1.4503784826294072e-05,-3.2798155144771384
2025-06-25 18:09:41.915,-1.522473023479511e-05,-2.8352020293743347
2025-06-25 18:09:41.923,-1.581138122931386e-05,-2.4049755444032743
2025-06-25 18:09:41.931,-1.6226991713192937e-05,-1.9935915751416649
2025-06-25 18:09:41.938,-1.6435523061253925e-05,-1.6045582340291489
2025-06-25 18:09:41.946,-1.640285749646512e-05,-1.2404684331386555
2025-06-25 18:09:41.954,-1.6098043046794774e-05,-0.9030610311051
2025-06-25 18:09:41.962,-1.5494524874438083e-05,-0.5933063571304251
2025-06-25 18:09:41.970,-1.4571313544811828e-05,-0.3115106873286163
2025-06-25 18:09:41.978,-1.3314038261007725e-05,-0.0574336639166486
2025-06-25 18:09:41.985,-1.1715832606897216e-05,0.1695876362988692
2025-06-25 18:09:41.993,-9.778002265250118e-06,0.3705142523828573
2025-06-25 18:09:42.001,-7.5104288047171345e-06,0.5464864520202071
2025-06-25 18:09:42.009,-4.93167119360869e-06,0.6987157483583434
2025-06-25 18:09:42.017,-2.0687373467212498e-06,0.8283923172180424
2025-06-25 18:09:42.024,1.0434882102015568e-06,0.9366112657504287
2025-06-25 18:09:42.032,4.363157636903504e-06,1.024320019600684
2025-06-25 18:09:42.040,7.84269142053875e-06,1.0922878485112126
2025-06-25 18:09:42.048,1.1430283537551132e-05,1.141097318586724
2025-06-25 18:09:42.056,1.5071611069143664e-05,1.17115631130338
2025-06-25 18:09:42.063,1.8711653562989217e-05,1.182728239006664
2025-06-25 18:09:42.071,2.2296501163562552e-05,1.175977258383048
2025-06-25 18:09:42.079,2.577500615960335e-05,1.1510246725945663
2025-06-25 18:09:42.087,2.91001208179249e-05,1.1080123410145688
2025-06-25 18:09:42.095,3.22297868933626e-05,1.04716878699727
2025-06-25 18:09:42.103,3.512731136813897e-05,0.9688737984052536
2025-06-25 18:09:42.110,3.776125362155318e-05,0.8737176324850185
2025-06-25 18:09:42.118,4.01049126705088e-05,0.7625514380349638
2025-06-25 18:09:42.126,4.21355161561044e-05,0.6365261570425423
2025-06-25 18:09:42.134,4.383319807141668e-05,0.4971179192755419
2025-06-25 18:09:42.142,4.517985310393112e-05,0.3461387426916213
2025-06-25 18:09:42.149,4.6157995017030174e-05,0.18573214191598
2025-06-25 18:09:42.157,4.674980236121475e-05,0.0183539718274837
2025-06-25 18:09:42.165,4.693655953270601e-05,-0.1532605495800514
2025-06-25 18:09:42.173,4.669867123538249e-05,-0.326142211712008
2025-06-25 18:09:42.181,4.601635804084275e-05,-0.4971438065395732
2025-06-25 18:09:42.188,4.487105392511915e-05,-0.6630047709830684
2025-06-25 18:09:42.196,4.324743656677279e-05,-0.8204224010280279
2025-06-25 18:09:42.204,4.113593300415392e-05,-0.9661275457105416
2025-06-25 18:09:42.212,3.8535462134326456e-05,-1.0969627234781063
2025-06-25 18:09:42.220,3.545611461001277e-05,-1.2099606594165937
2025-06-25 18:09:42.228,3.192145379367136e-05,-1.302421296435126
2025-06-25 18:09:42.235,2.7970162693232213e-05,-1.3719853744782355
2025-06-25 18:09:42.243,2.365683909336517e-05,-1.416702698909287
2025-06-25 18:09:42.251,1.905181635641366e-05,-1.4350932403605834
2025-06-25 18:09:42.259,1.4239956855994853e-05,-1.4261992344129069
2025-06-25 18:09:42.267,9.318452882372708e-06,-1.3896264918252144
2025-06-25 18:09:42.274,4.393771899069902e-06,-1.3255732022958195
2025-06-25 18:09:42.282,-4.220397683793565e-07,-1.2348446342231971
2025-06-25 18:09:42.290,-5.015451904014912e-06,-1.1188523191068187
2025-06-25 18:09:42.298,-9.275708350987628e-06,-0.9795965815565232
2025-06-25 18:09:42.306,-1.3099033873562785e-05,-0.819631652835694
2025-06-25 18:09:42.313,-1.6392601251103695e-05,-0.6420131019343593
2025-06-25 18:09:42.321,-1.9078096654517177e-05,-0.4502279364533963
2025-06-25 18:09:42.329,-2.109474879005836e-05,-0.2481084495093609
2025-06-25 18:09:42.337,-2.240171494744389e-05,-0.0397316803157108
2025-06-25 18:09:42.345,-2.2979744622391166e-05,0.1706928370778123
2025-06-25 18:09:42.353,-2.2832068594760474e-05,0.3789435959786154
2025-06-25 18:09:42.360,-2.1984488139085805e-05,0.58091179830117
2025-06-25 18:09:42.368,-2.0484665411676503e-05,0.7727255629498322
2025-06-25 18:09:42.376,-1.8400642031995192e-05,0.950868715242541
2025-06-25 18:09:42.384,-1.5818638501371163e-05,1.1122891509633448
2025-06-25 18:09:42.392,-1.2840212400346528e-05,1.254491993915492
2025-06-25 18:09:42.399,-9.578878239185284e-06,1.3756132851337026
2025-06-25 18:09:42.407,-6.156316276817116e-06,1.4744707377926514
2025-06-25 18:09:42.415,-2.6983213294019093e-06,1.550589122358947
2025-06-25 18:09:42.423,6.69334814707611e-07,1.6041990485106412
2025-06-25 18:09:42.431,3.824934415233946e-06,1.6362092047508778
2025-06-25 18:09:42.438,6.6545395361524615e-06,1.6481534159034594
2025-06-25 18:09:42.446,9.055243095573475e-06,1.6421150956308643
2025-06-25 18:09:42.454,1.0937852109906026e-05,1.6206327281957165
2025-06-25 18:09:42.462,1.2229008103776569e-05,1.586590849490514
2025-06-25 18:09:42.470,1.2872820621367032e-05,1.5431015688559326
2025-06-25 18:09:42.478,1.2832108719060752e-05,1.493381955800014
2025-06-25 18:09:42.485,1.2089325200514687e-05,1.4406326041626365
2025-06-25 18:09:42.493,1.0647201827564948e-05,1.3879223960355178
2025-06-25 18:09:42.501,8.529112738975886e-06,1.338083954416742
2025-06-25 18:09:42.509,5.779111827234734e-06,1.293623549010098
2025-06-25 18:09:42.517,2.461560263014382e-06,1.256648366068485
2025-06-25 18:09:42.524,-1.3397733076288094e-06,1.2288131359990415
2025-06-25 18:09:42.532,-5.5232732393764885e-06,1.211287190739518
2025-06-25 18:09:42.540,-9.971806865686003e-06,1.204742141540366
2025-06-25 18:09:42.548,-1.4555855026638584e-05,1.209359554680138
2025-06-25 18:09:42.556,-1.913736817225748e-05,1.224857272610591
2025-06-25 18:09:42.563,-2.357418777545946e-05,1.250532388912904
2025-06-25 18:09:42.571,-2.772483375468294e-05,1.2853183430732331
2025-06-25 18:09:42.579,-3.145345394464544e-05,1.3278531626554184
2025-06-25 18:09:42.587,-3.463474020468592e-05,1.3765555570150945
2025-06-25 18:09:42.595,-3.715862744304923e-05,1.4297053742160932
2025-06-25 18:09:42.603,-3.893460482307607e-05,1.4855248891896145
2025-06-25 18:09:42.610,-3.9895482661218986e-05,1.542257508500227
2025-06-25 18:09:42.618,-4.000047414058568e-05,1.598240753945334
2025-06-25 18:09:42.626,-3.923746819007185e-05,1.651970806733676
2025-06-25 18:09:42.634,-3.762438905443884e-05,1.7021564266161695
2025-06-25 18:09:42.642,-3.5209559591686405e-05,1.747760667225836
2025-06-25 18:09:42.649,-3.2071009569337285e-05,1.7880294449880518
2025-06-25 18:09:42.657,-2.8314697529419123e-05,1.8225066389206812
2025-06-25 18:09:42.665,-2.407164538936685e-05,1.8510359653734207
2025-06-25 18:09:42.673,-1.9494018926615504e-05,1.8737503626818472
2025-06-25 18:09:42.681,-1.475022454410028e-05,1.8910500282395688
2025-06-25 18:09:42.688,-1.0019132881782306e-05,1.903570578587075
2025-06-25 18:09:42.696,-5.483582310551466e-06,1.9121430622071804
2025-06-25 18:09:42.704,-1.3233592230598572e-06,1.9177477556186244
2025-06-25 18:09:42.712,2.2921038593289107e-06,1.9214638214240625
2025-06-25 18:09:42.720,5.211028465986854e-06,1.9244169978882752
2025-06-25 18:09:42.728,7.306264790824173e-06,1.927727508925137
2025-06-25 18:09:42.735,8.481581756439218e-06,1.9324603129963496
2025-06-25 18:09:42.743,8.676886902055335e-06,1.9395796399915783
2025-06-25 18:09:42.751,7.871984112030038e-06,1.949909503886235
2025-06-25 18:09:42.759,6.088515454540089e-06,1.9641015457354205
2025-06-25 18:09:42.767,3.3898391115527227e-06,1.9826111791783592
2025-06-25 18:09:42.774,-1.212354236454525e-07,2.0056826002253527
2025-06-25 18:09:42.782,-4.306738264156287e-06,2.033342806024884
2025-06-25 18:09:42.790,-8.99956912235592e-06,2.065404367416508
2025-06-25 18:09:42.798,-1.4010871311475455e-05,2.1014763421336915
2025-06-25 18:09:42.806,-1.913831330853365e-05,2.1409824197742497
2025-06-25 18:09:42.813,-2.417484424106812e-05,2.1831851659585837
2025-06-25 18:09:42.821,-2.8917512831872e-05,2.227215079793772
2025-06-25 18:09:42.829,-3.317597164356279e-05,2.272103087670609
2025-06-25 18:09:42.837,-3.678032685752679e-05,2.316815059054682
2025-06-25 18:09:42.845,-3.958803702909915e-05,2.3602869398259907
2025-06-25 18:09:42.853,-4.148961119008862e-05,2.401459149886777
2025-06-25 18:09:42.860,-4.241290641235784e-05,2.439308977257224
2025-06-25 18:09:42.868,-4.232587676850842e-05,2.472879814173811
2025-06-25 18:09:42.876,-4.123767894620977e-05,2.5013062183571875
2025-06-25 18:09:42.884,-3.919809412727316e-05,2.523833945670969
2025-06-25 18:09:42.892,-3.629528074129091e-05,2.539834293368442
2025-06-25 18:09:42.899,-3.2651927981766235e-05,2.548812320141503
2025-06-25 18:09:42.907,-2.84199351392984e-05,2.5504087678757914
2025-06-25 18:09:42.915,-2.377379639467952e-05,2.544395787634672
2025-06-25 18:09:42.923,-1.8902924136649356e-05,2.530666849191868
2025-06-25 18:09:42.931,-1.4003195378225456e-05,2.5092214711607763
2025-06-25 18:09:42.938,-9.268054511294218e-06,2.4801456361811782
2025-06-25 18:09:42.946,-4.87955033376327e-06,2.443588947860248
2025-06-25 18:09:42.954,-9.99724684728543e-07,2.399739742265784
2025-06-25 18:09:42.962,2.2371989921788837e-06,2.3487994869637885
2025-06-25 18:09:42.970,4.73136759089627e-06,2.290957881370284
2025-06-25 18:09:42.978,6.422163667527874e-06,2.2263701021815576
2025-06-25 18:09:42.985,7.291055763259802e-06,2.1551376001759994
2025-06-25 18:09:42.993,7.362266306512237e-06,2.077293736130335
2025-06-25 18:09:43.001,6.701275697393504e-06,1.992795340693397
2025-06-25 18:09:43.009,5.411341229307557e-06,1.9015210042059028
2025-06-25 18:09:43.017,3.628306607079613e-06,1.803276564037826
2025-06-25 18:09:43.024,1.5140099094232008e-06,1.6978078786642294
