Timestamp,GSR_Filtered,PPG_Filtered,FMS,Condition
2025-06-25 18:16:55.627,5.605437394982604e-06,-1.8404625190249149,2.0,DB
2025-06-25 18:16:55.635,5.887997757708446e-06,-3.320515879044218,2.0,DB
2025-06-25 18:16:55.642,5.95615344237088e-06,-4.668883781497326,2.0,DB
2025-06-25 18:16:55.650,5.8380425494901804e-06,-5.871744705469549,2.0,DB
2025-06-25 18:16:55.658,5.564502127850417e-06,-6.919572994144215,2.0,DB
2025-06-25 18:16:55.666,5.167778541589659e-06,-7.807117230925261,2.0,DB
2025-06-25 18:16:55.674,4.680317157590947e-06,-8.533264608405734,2.0,DB
2025-06-25 18:16:55.681,4.133667017933685e-06,-9.100803243528688,2.0,DB
2025-06-25 18:16:55.689,3.5575281480898688e-06,-9.51609691966082,2.0,DB
2025-06-25 18:16:55.697,2.9789609785812826e-06,-9.788688508516442,2.0,DB
2025-06-25 18:16:55.705,2.421769350471049e-06,-9.930849312805629,2.0,DB
2025-06-25 18:16:55.713,1.9060610140683705e-06,-9.95709178799317,2.0,DB
2025-06-25 18:16:55.721,1.447982647380229e-06,-9.883662602331125,2.0,DB
2025-06-25 18:16:55.728,1.059620396240991e-06,-9.728031863435222,2.0,DB
2025-06-25 18:16:55.736,7.490518994651805e-07,-9.508392683454838,2.0,DB
2025-06-25 18:16:55.744,5.20531786602735e-07,-9.243183192376014,2.0,DB
2025-06-25 18:16:55.752,3.747897517936419e-07,-8.950640766137909,2.0,DB
2025-06-25 18:16:55.760,3.094185001672388e-07,-8.648395742163478,2.0,DB
2025-06-25 18:16:55.767,3.19328080536908e-07,-8.353109379019365,2.0,DB
2025-06-25 18:16:55.775,3.972432753592038e-07,-8.080158406239377,2.0,DB
2025-06-25 18:16:55.783,5.342217065370782e-07,-7.8433663259128865,2.0,DB
2025-06-25 18:16:55.791,7.201720058995185e-07,-7.654779778024716,2.0,DB
2025-06-25 18:16:55.799,9.443536528385422e-07,-7.524486853926355,2.0,DB
2025-06-25 18:16:55.806,1.195842754277826e-06,-7.460473296374487,2.0,DB
2025-06-25 18:16:55.814,1.4639509902830843e-06,-7.468512092625501,2.0,DB
2025-06-25 18:16:55.822,1.7385880345158106e-06,-7.552082056079602,2.0,DB
2025-06-25 18:16:55.830,2.010560854976121e-06,-7.712311580093451,2.0,DB
2025-06-25 18:16:55.838,2.271806293459884e-06,-7.947944776752973,2.0,DB
2025-06-25 18:16:55.846,2.515556114644187e-06,-8.255328586587286,2.0,DB
2025-06-25 18:16:55.853,2.7364362285946827e-06,-8.628421034114352,2.0,DB
2025-06-25 18:16:55.861,2.930503963610094e-06,-9.058822463058004,2.0,DB
2025-06-25 18:16:55.869,3.0952290585805413e-06,-9.535833162098408,2.0,DB
2025-06-25 18:16:55.877,3.229425432753618e-06,-10.04654213500053,2.0,DB
2025-06-25 18:16:55.885,3.3331417704825496e-06,-10.575952732955802,2.0,DB
2025-06-25 18:16:55.892,3.407519539156191e-06,-11.107151326455188,2.0,DB
2025-06-25 18:16:55.900,3.454627263449316e-06,-11.6215250561829,2.0,DB
2025-06-25 18:16:55.908,3.4772797426962053e-06,-12.099033915477062,2.0,DB
2025-06-25 18:16:55.916,3.4788504635547048e-06,-12.518540971547532,2.0,DB
2025-06-25 18:16:55.924,3.463084776209533e-06,-12.858202459771308,2.0,DB
2025-06-25 18:16:55.931,3.433920521767904e-06,-13.095916854562647,2.0,DB
2025-06-25 18:16:55.939,3.395321775106775e-06,-13.209828940264083,2.0,DB
2025-06-25 18:16:55.947,3.3511302542909137e-06,-13.17888152326653,2.0,DB
2025-06-25 18:16:55.955,3.304937795180876e-06,-12.983403922520395,2.0,DB
2025-06-25 18:16:55.963,3.259982144174989e-06,-12.6057229559032,2.0,DB
2025-06-25 18:16:55.971,3.2190672239513108e-06,-12.030779026989665,2.0,DB
2025-06-25 18:16:55.978,3.184508011072421e-06,-11.246727334650169,2.0,DB
2025-06-25 18:16:55.986,3.158099258018956e-06,-10.245502382385215,2.0,DB
2025-06-25 18:16:55.994,3.141106516168821e-06,-9.023323024456584,2.0,DB
2025-06-25 18:16:56.002,3.1342772839329607e-06,-7.5811153720681475,2.0,DB
2025-06-25 18:16:56.010,3.137869622437817e-06,-5.924832060528503,2.0,DB
2025-06-25 18:16:56.017,3.151695250307142e-06,-4.065648654361925,2.0,DB
2025-06-25 18:16:56.025,3.175173944174033e-06,-2.020021287750612,2.0,DB
2025-06-25 18:16:56.033,3.2073960227216947e-06,0.190406111869706,2.0,DB
2025-06-25 18:16:56.041,3.2471897656144407e-06,2.5390516581170526,2.0,DB
2025-06-25 18:16:56.049,3.293190798010827e-06,4.99480347993574,2.0,DB
2025-06-25 18:16:56.056,3.343910737823908e-06,7.522581051410288,2.0,DB
2025-06-25 18:16:56.064,3.397802736795568e-06,10.084039170973456,2.0,DB
2025-06-25 18:16:56.072,3.45332192782626e-06,12.63839815884624,2.0,DB
2025-06-25 18:16:56.080,3.508979200411839e-06,15.143378555042217,2.0,DB
2025-06-25 18:16:56.088,3.5633871452286908e-06,17.556213975217485,2.0,DB
2025-06-25 18:16:56.096,3.615297421343343e-06,19.834712017240285,2.0,DB
2025-06-25 18:16:56.103,3.6636291908138985e-06,21.938330382190788,2.0,DB
2025-06-25 18:16:56.111,3.707488623648266e-06,23.82923382589233,2.0,DB
2025-06-25 18:16:56.119,3.746179791851933e-06,25.4732972980318,2.0,DB
2025-06-25 18:16:56.127,3.77920753797028e-06,26.841021710440987,2.0,DB
2025-06-25 18:16:56.135,3.806273117064479e-06,27.90833119916129,2.0,DB
2025-06-25 18:16:56.142,3.8272635698958695e-06,28.657224437922387,2.0,DB
2025-06-25 18:16:56.150,3.842235889935528e-06,29.07625739180376,2.0,DB
2025-06-25 18:16:56.158,3.85139710035264e-06,29.160840680565112,2.0,DB
2025-06-25 18:16:56.166,3.855081363715758e-06,28.91334121751797,2.0,DB
2025-06-25 18:16:56.174,3.853725212419759e-06,28.34298473332576,2.0,DB
2025-06-25 18:16:56.181,3.847841918422789e-06,27.465562890625822,2.0,DB
2025-06-25 18:16:56.189,3.837995923911438e-06,26.302955637220222,2.0,DB
2025-06-25 18:16:56.197,3.8247781374050105e-06,24.8824859291516,2.0,DB
2025-06-25 18:16:56.205,3.8087827698607218e-06,23.23612969998604,2.0,DB
2025-06-25 18:16:56.213,3.7905862494674505e-06,21.399608718740453,2.0,DB
2025-06-25 18:16:56.221,3.7707286183064303e-06,19.41139757811253,2.0,DB
2025-06-25 18:16:56.228,3.749697684381004e-06,17.311678359265123,2.0,DB
2025-06-25 18:16:56.236,3.72791608317659e-06,15.141277465286803,2.0,DB
2025-06-25 18:16:56.244,3.705731297351207e-06,12.940618701898796,2.0,DB
2025-06-25 18:16:56.252,3.6834085937232686e-06,10.74872497161257,2.0,DB
2025-06-25 18:16:56.260,3.661126764674526e-06,8.602298054442434,2.0,DB
2025-06-25 18:16:56.267,3.638976506643677e-06,6.5349020430102485,2.0,DB
2025-06-25 18:16:56.275,3.616961230828794e-06,4.576271290718005,2.0,DB
2025-06-25 18:16:56.283,3.5950000790056563e-06,2.7517584535430437,2.0,DB
2025-06-25 18:16:56.291,3.5729329083015578e-06,1.0819326072349074,2.0,DB
2025-06-25 18:16:56.299,3.550527010144819e-06,-0.4176682491263782,2.0,DB
2025-06-25 18:16:56.306,3.5274853374349342e-06,-1.736631498282166,2.0,DB
2025-06-25 18:16:56.314,3.503456027121056e-06,-2.869617339171723,2.0,DB
2025-06-25 18:16:56.322,3.4780430197740486e-06,-3.816170228543719,2.0,DB
2025-06-25 18:16:56.330,3.450817590562453e-06,-4.580409047085939,2.0,DB
2025-06-25 18:16:56.338,3.421330614861299e-06,-5.170613723530786,2.0,DB
2025-06-25 18:16:56.346,3.3891253946284123e-06,-5.598728186165705,2.0,DB
2025-06-25 18:16:56.353,3.3537508674041475e-06,-5.879800752433712,2.0,DB
2025-06-25 18:16:56.361,3.314775007766364e-06,-6.031383433400339,2.0,DB
2025-06-25 18:16:56.369,3.271798211494373e-06,-6.072911166988934,2.0,DB
2025-06-25 18:16:56.377,3.22446642651322e-06,-6.02508077098895,2.0,DB
2025-06-25 18:16:56.385,3.1724837635797498e-06,-5.909247516117472,2.0,DB
2025-06-25 18:16:56.392,3.1156242859717765e-06,-5.746854778583494,2.0,DB
2025-06-25 18:16:56.400,3.053742644047271e-06,-5.55890938242838,2.0,DB
2025-06-25 18:16:56.408,2.9867831907744847e-06,-5.365512142828402,2.0,DB
2025-06-25 18:16:56.416,2.914787191784895e-06,-5.185449937630999,2.0,DB
2025-06-25 18:16:56.424,2.837897731841621e-06,-5.035852527436858,2.0,DB
2025-06-25 18:16:56.431,2.7563619224051013e-06,-4.93191446250962,2.0,DB
2025-06-25 18:16:56.439,2.6705300354525624e-06,-4.886679881809471,2.0,DB
2025-06-25 18:16:56.447,2.580851229575772e-06,-4.91088592045487,2.0,DB
2025-06-25 18:16:56.455,2.487865597619449e-06,-5.012858863424933,2.0,DB
2025-06-25 18:16:56.463,2.392192351791288e-06,-5.198456156335094,2.0,DB
2025-06-25 18:16:56.471,2.2945140722578504e-06,-5.471046926065825,2.0,DB
2025-06-25 18:16:56.478,2.195557077518376e-06,-5.831523769124519,2.0,DB
2025-06-25 18:16:56.486,2.096068126810131e-06,-6.278339203243302,2.0,DB
2025-06-25 18:16:56.494,1.996787832605388e-06,-6.8075612881798815,2.0,DB
2025-06-25 18:16:56.502,1.8984213397609423e-06,-7.412944412969603,2.0,DB
2025-06-25 18:16:56.510,1.801607010690434e-06,-8.086012998194823,2.0,DB
2025-06-25 18:16:56.517,1.7068840355642886e-06,-8.816157735279972,2.0,DB
2025-06-25 18:16:56.525,1.6146600546221638e-06,-9.5907458390843,2.0,DB
2025-06-25 18:16:56.533,1.5251800271941218e-06,-10.39524849017695,2.0,DB
2025-06-25 18:16:56.541,1.438497699640146e-06,-11.21339006477689,2.0,DB
2025-06-25 18:16:56.549,1.3544511028582148e-06,-12.027324780144552,2.0,DB
2025-06-25 18:16:56.556,1.272643540469138e-06,-12.81784691872108,2.0,DB
2025-06-25 18:16:56.564,1.1924315033561088e-06,-13.564640746795671,2.0,DB
2025-06-25 18:16:56.572,1.1129208583702995e-06,-14.24657554632426,2.0,DB
2025-06-25 18:16:56.580,1.032972503970904e-06,-14.842049797889516,2.0,DB
2025-06-25 18:16:56.588,9.51218460846122e-07,-15.329386495792363,2.0,DB
2025-06-25 18:16:56.596,8.660890712829853e-07,-15.68727889540719,2.0,DB
2025-06-25 18:16:56.603,7.758516202912631e-07,-15.895282788743266,2.0,DB
2025-06-25 18:16:56.611,6.78660270505589e-07,-15.934347826783888,2.0,DB
2025-06-25 18:16:56.619,5.726167312888558e-07,-15.787376655554596,2.0,DB
2025-06-25 18:16:56.627,4.558405731890977e-07,-15.439796948257852,2.0,DB
2025-06-25 18:16:56.635,3.26547568146475e-07,-14.88012806657976,2.0,DB
2025-06-25 18:16:56.642,1.8313390276109089e-07,-14.100521343494645,2.0,DB
2025-06-25 18:16:56.650,2.4263598219882893e-08,-13.097251101799904,2.0,DB
2025-06-25 18:16:56.658,-1.5104400018281773e-07,-11.871132722002455,2.0,DB
2025-06-25 18:16:56.666,-3.433302036941831e-07,-10.427844507511509,2.0,DB
2025-06-25 18:16:56.674,-5.526202801294159e-07,-8.778131849184149,2.0,DB
2025-06-25 18:16:56.681,-7.78358114015628e-07,-6.937875265827896,2.0,DB
2025-06-25 18:16:56.689,-1.0193563182697924e-06,-4.928008203266289,2.0,DB
2025-06-25 18:16:56.697,-1.2737657785883897e-06,-2.774275836520081,2.0,DB
2025-06-25 18:16:56.705,-1.539068324575366e-06,-0.506832289109498,2.0,DB
2025-06-25 18:16:56.713,-1.812095746809848e-06,1.840319640696859,2.0,DB
2025-06-25 18:16:56.721,-2.089077712126198e-06,4.230035307566771,2.0,DB
2025-06-25 18:16:56.728,-2.365720273226922e-06,6.622863985349199,2.0,DB
2025-06-25 18:16:56.736,-2.637315634364378e-06,8.977989798290563,2.0,DB
2025-06-25 18:16:56.744,-2.898882641879272e-06,11.254248732813185,2.0,DB
2025-06-25 18:16:56.752,-3.1453361455044703e-06,13.411188479711932,2.0,DB
2025-06-25 18:16:56.760,-3.3716819610791653e-06,15.410135082795616,2.0,DB
2025-06-25 18:16:56.767,-3.57323270371674e-06,17.215229164162714,2.0,DB
2025-06-25 18:16:56.775,-3.745838306255901e-06,18.79439494780916,2.0,DB
2025-06-25 18:16:56.783,-3.886123651171248e-06,20.12020740541938,2.0,DB
2025-06-25 18:16:56.791,-3.99172448999232e-06,21.170626497672256,2.0,DB
2025-06-25 18:16:56.799,-4.061511770382965e-06,21.92957249145226,2.0,DB
2025-06-25 18:16:56.806,-4.0957937053811e-06,22.38732244019567,2.0,DB
2025-06-25 18:16:56.814,-4.096484467477591e-06,22.540714815238243,2.0,DB
2025-06-25 18:16:56.822,-4.067228332389642e-06,22.39315663437745,2.0,DB
2025-06-25 18:16:56.830,-4.01346848516873e-06,21.954434901821266,2.0,DB
2025-06-25 18:16:56.838,-3.942450574545214e-06,21.24034141078919,2.0,DB
2025-06-25 18:16:56.846,-3.863152485177875e-06,20.272126653110472,2.0,DB
2025-06-25 18:16:56.853,-3.786133699047572e-06,19.07580446038471,2.0,DB
2025-06-25 18:16:56.861,-3.723300023666004e-06,17.681333856152023,2.0,DB
2025-06-25 18:16:56.869,-3.687582340869736e-06,16.121708277431125,2.0,DB
2025-06-25 18:16:56.877,-3.692531316948792e-06,14.43198473606466,2.0,DB
2025-06-25 18:16:56.885,-3.751833629792488e-06,12.648286597321254,2.0,DB
2025-06-25 18:16:56.892,-3.87875910493739e-06,10.806813463225524,2.0,DB
2025-06-25 18:16:56.900,-4.085552080831313e-06,8.942890213229562,2.0,DB
2025-06-25 18:16:56.908,-4.382784195384837e-06,7.090084670130603,2.0,DB
2025-06-25 18:16:56.916,-4.778689435848117e-06,5.279419760120163,2.0,DB
2025-06-25 18:16:56.924,-5.278505545648216e-06,3.538701595708109,2.0,DB
2025-06-25 18:16:56.931,-5.883848552857508e-06,1.8919798347689016,2.0,DB
2025-06-25 18:16:56.939,-6.5921490944465e-06,0.3591511857993072,2.0,DB
2025-06-25 18:16:56.947,-7.39618018625792e-06,-1.0442887255997422,2.0,DB
2025-06-25 18:16:56.955,-8.2837059756751e-06,-2.30734550908915,2.0,DB
2025-06-25 18:16:56.963,-9.23727968290945e-06,-3.423483876541344,2.0,DB
2025-06-25 18:16:56.971,-1.023421629273485e-05,-4.390453755079442,2.0,DB
2025-06-25 18:16:56.978,-1.124676154912713e-05,-5.209999357494017,2.0,DB
2025-06-25 18:16:56.986,-1.224247342883317e-05,-5.887469299731119,2.0,DB
2025-06-25 18:16:56.994,-1.3184825581660796e-05,-6.431348325385625,2.0,DB
2025-06-25 18:16:57.002,-1.4034034342711282e-05,-6.852732697899695,2.0,DB
2025-06-25 18:16:57.010,-1.4748102027807488e-05,-7.16477183934154,2.0,DB
2025-06-25 18:16:57.017,-1.5284059567440706e-05,-7.382098362955832,2.0,DB
2025-06-25 18:16:57.025,-1.5599381431071e-05,-7.520267337163514,2.0,DB
2025-06-25 18:16:57.033,-1.565353561756555e-05,-7.595223534234037,2.0,DB
2025-06-25 18:16:57.041,-1.5409621667155753e-05,-7.622812684597857,2.0,DB
2025-06-25 18:16:57.049,-1.4836040656478557e-05,-7.61834952613484,2.0,DB
2025-06-25 18:16:57.056,-1.3908133471174135e-05,-7.596251873978926,2.0,DB
2025-06-25 18:16:57.064,-1.2609717823017598e-05,-7.569746219659099,2.0,DB
2025-06-25 18:16:57.072,-1.093445099722594e-05,-7.550646678410192,2.0,DB
2025-06-25 18:16:57.080,-8.886944659407785e-06,-7.549205608184078,2.0,DB
2025-06-25 18:16:57.088,-6.48356064922101e-06,-7.574031071421607,2.0,DB
2025-06-25 18:16:57.096,-3.752822893651648e-06,-7.63206362581816,2.0,DB
2025-06-25 18:16:57.103,-7.35390643473901e-07,-7.728602812661819,2.0,DB
2025-06-25 18:16:57.111,2.516447692422729e-06,-7.867372232901004,2.0,DB
2025-06-25 18:16:57.119,5.939782774798126e-06,-8.05061130517262,2.0,DB
2025-06-25 18:16:57.127,9.462595390622513e-06,-8.279181701060985,2.0,DB
2025-06-25 18:16:57.135,1.3005745724566963e-05,-8.552677036224853,2.0,DB
2025-06-25 18:16:57.142,1.648538788769275e-05,-8.869525617581363,2.0,DB
2025-06-25 18:16:57.150,1.9815726149189063e-05,-9.227077834713455,2.0,DB
2025-06-25 18:16:57.158,2.2911997362048464e-05,-9.62167204306489,2.0,DB
2025-06-25 18:16:57.166,2.5693531826609843e-05,-10.048675403092815,2.0,DB
2025-06-25 18:16:57.174,2.8086715142459237e-05,-10.502498981663871,2.0,DB
2025-06-25 18:16:57.181,3.002765749127016e-05,-10.976589341267536,2.0,DB
2025-06-25 18:16:57.189,3.146439631182005e-05,-11.463401677704043,2.0,DB
2025-06-25 18:16:57.197,3.2358526140443256e-05,-11.954362151809226,2.0,DB
2025-06-25 18:16:57.205,3.2686240633334004e-05,-12.43982923618506,2.0,DB
2025-06-25 18:16:57.213,3.2438838022097113e-05,-12.909065520187314,2.0,DB
2025-06-25 18:16:57.221,3.162275785129143e-05,-13.350232361808992,2.0,DB
2025-06-25 18:16:57.228,3.0259196927718384e-05,-13.75041994313979,2.0,DB
2025-06-25 18:16:57.236,2.838331867143549e-05,-14.095724608503344,2.0,DB
2025-06-25 18:16:57.244,2.60430359778722e-05,-14.37138381748098,2.0,DB
2025-06-25 18:16:57.252,2.3297326759462835e-05,-14.561976656881056,2.0,DB
2025-06-25 18:16:57.260,2.021405623148944e-05,-14.651694704261908,2.0,DB
2025-06-25 18:16:57.267,1.686734386662845e-05,-14.62468424413422,2.0,DB
2025-06-25 18:16:57.275,1.3334601146740164e-05,-14.465456574124628,2.0,DB
2025-06-25 18:16:57.283,9.693430367787938e-06,-14.159358613843343,2.0,DB
2025-06-25 18:16:57.291,6.018589972160573e-06,-13.69309149234287,2.0,DB
2025-06-25 18:16:57.299,2.3792109042046383e-06,-13.05526051021119,2.0,DB
2025-06-25 18:16:57.306,-1.1635865852025509e-06,-12.236936119988291,2.0,DB
2025-06-25 18:16:57.314,-4.558564302002768e-06,-11.232202596648415,2.0,DB
2025-06-25 18:16:57.322,-7.765652315498573e-06,-10.038669099208008,2.0,DB
2025-06-25 18:16:57.330,-1.075661355192483e-05,-8.657917033344537,2.0,DB
2025-06-25 18:16:57.338,-1.3515084937465183e-05,-7.095858139758139,2.0,DB
2025-06-25 18:16:57.346,-1.6036024718031313e-05,-5.362979619679574,2.0,DB
2025-06-25 18:16:57.353,-1.832462315313543e-05,-3.4744558640769765,2.0,DB
2025-06-25 18:16:57.361,-2.03947568785076e-05,-1.4501108966899108,2.0,DB
2025-06-25 18:16:57.369,-2.226708543919648e-05,0.6857786888322266,2.0,DB
2025-06-25 18:16:57.377,-2.3966901548102977e-05,2.904843963569709,2.0,DB
2025-06-25 18:16:57.385,-2.552185440581972e-05,5.175143612916353,2.0,DB
2025-06-25 18:16:57.392,-2.695966794296366e-05,7.46183282215826,2.0,DB
2025-06-25 18:16:57.400,-2.830597325678732e-05,9.72796319790571,2.0,DB
2025-06-25 18:16:57.408,-2.9582367063840947e-05,11.935389307927077,2.0,DB
2025-06-25 18:16:57.416,-3.080479603646596e-05,14.04575188363647,2.0,DB
2025-06-25 18:16:57.424,-3.198235088200486e-05,16.021503488646072,2.0,DB
2025-06-25 18:16:57.431,-3.3116534491943e-05,17.826939753733775,2.0,DB
2025-06-25 18:16:57.439,-3.4201046040174447e-05,19.429198263917144,2.0,DB
2025-06-25 18:16:57.447,-3.522209821758497e-05,20.79918791339577,2.0,DB
2025-06-25 18:16:57.455,-3.615925858423296e-05,21.91241398094336,2.0,DB
2025-06-25 18:16:57.463,-3.69867790797212e-05,22.74966819420976,2.0,DB
2025-06-25 18:16:57.471,-3.767535087565149e-05,23.297558437699536,2.0,DB
2025-06-25 18:16:57.478,-3.819419582896896e-05,23.54885923848099,2.0,DB
2025-06-25 18:16:57.486,-3.851338166550491e-05,23.50267140607051,2.0,DB
2025-06-25 18:16:57.494,-3.860622655479782e-05,23.16438684743103,2.0,DB
2025-06-25 18:16:57.502,-3.845164078070318e-05,22.545462256049973,2.0,DB
2025-06-25 18:16:57.510,-3.803623958309875e-05,21.66301273056362,2.0,DB
2025-06-25 18:16:57.517,-3.735605270347235e-05,20.539243087994898,2.0,DB
2025-06-25 18:16:57.525,-3.641765339065544e-05,19.200740415774803,2.0,DB
2025-06-25 18:16:57.533,-3.5238534811662015e-05,17.67765602303016,2.0,DB
2025-06-25 18:16:57.541,-3.384658509387296e-05,16.00280823246559,2.0,DB
2025-06-25 18:16:57.549,-3.227857448548487e-05,14.2107392948648,2.0,DB
2025-06-25 18:16:57.557,-3.057768064172476e-05,12.33676007947265,2.0,DB
2025-06-25 18:16:57.564,-2.8790214370834784e-05,10.416015143377448,2.0,DB
2025-06-25 18:16:57.572,-2.696181810574138e-05,8.48259843045013,2.0,DB
2025-06-25 18:16:57.580,-2.513346638957757e-05,6.568746372340055,2.0,DB
2025-06-25 18:16:57.588,-2.333761294086721e-05,4.704130781053243,2.0,DB
2025-06-25 18:16:57.596,-2.1594823127171885e-05,2.915268884868925,2.0,DB
2025-06-25 18:16:57.603,-1.991121224713182e-05,1.2250624311252063,2.0,DB
2025-06-25 18:16:57.611,-1.827697123624662e-05,-0.3475277760213221,2.0,DB
2025-06-25 18:16:57.619,-1.6666182198834032e-05,-1.787670967481205,2.0,DB
2025-06-25 18:16:57.627,-1.5037996015728871e-05,-3.084723278854399,2.0,DB
2025-06-25 18:16:57.635,-1.3339090344919075e-05,-4.232161086884664,2.0,DB
2025-06-25 18:16:57.642,-1.1507199452132018e-05,-5.22740334879858,2.0,DB
2025-06-25 18:16:57.650,-9.475434542164204e-06,-6.071538526801645,2.0,DB
2025-06-25 18:16:57.658,-7.177083901206072e-06,-6.768973861121065,2.0,DB
2025-06-25 18:16:57.666,-4.550575839900887e-06,-7.3270260431003456,2.0,DB
2025-06-25 18:16:57.674,-1.544294470550576e-06,-7.755472738716417,2.0,DB
2025-06-25 18:16:57.682,1.8790430789050716e-06,-8.06608395691733,2.0,DB
2025-06-25 18:16:57.689,5.738709749819748e-06,-8.272151012928331,2.0,DB
2025-06-25 18:16:57.697,1.003321357016389e-05,-8.388028903710378,2.0,DB
2025-06-25 18:16:57.705,1.4738636566893478e-05,-8.42870542221739,2.0,DB
2025-06-25 18:16:57.713,1.9808181390134376e-05,-8.409407446689558,2.0,DB
2025-06-25 18:16:57.721,2.5172974161702123e-05,-8.345251725053068,2.0,DB
2025-06-25 18:16:57.728,3.0744101137447974e-05,-8.250944308905254,2.0,DB
2025-06-25 18:16:57.736,3.641578199018818e-05,-8.140529740812292,2.0,DB
2025-06-25 18:16:57.744,4.2069505847878464e-05,-8.027188304890007,2.0,DB
2025-06-25 18:16:57.752,4.7578879827250834e-05,-7.923077231684666,2.0,DB
2025-06-25 18:16:57.760,5.281486765250109e-05,-7.839209801909276,2.0,DB
2025-06-25 18:16:57.767,5.765104183440176e-05,-7.785364900059958,2.0,DB
2025-06-25 18:16:57.775,6.19684696754784e-05,-7.77001878762951,2.0,DB
2025-06-25 18:16:57.783,6.565993546805716e-05,-7.800290727450004,2.0,DB
2025-06-25 18:16:57.791,6.863335609792344e-05,-7.881894592739895,2.0,DB
2025-06-25 18:16:57.799,7.081440114487871e-05,-8.019089697720922,2.0,DB
2025-06-25 18:16:57.807,7.214840799378035e-05,-8.214625717706484,2.0,DB
2025-06-25 18:16:57.814,7.26016771529864e-05,-8.469678623418183,2.0,DB
2025-06-25 18:16:57.822,7.216218807176806e-05,-8.783776913538805,2.0,DB
2025-06-25 18:16:57.830,7.083974612846571e-05,-9.154719949516254,2.0,DB
2025-06-25 18:16:57.838,6.866558377262656e-05,-9.57849271888366,2.0,DB
2025-06-25 18:16:57.846,6.569147251641496e-05,-10.049183708032473,2.0,DB
2025-06-25 18:16:57.853,6.198841180623515e-05,-10.558914583994714,2.0,DB
2025-06-25 18:16:57.861,5.764492530166516e-05,-11.097791916467918,2.0,DB
2025-06-25 18:16:57.869,5.27649399004011e-05,-11.653892095936484,2.0,DB
2025-06-25 18:16:57.877,4.746519336434912e-05,-12.213290837994409,2.0,DB
2025-06-25 18:16:57.885,4.1872137434983575e-05,-12.760148160814758,2.0,DB
2025-06-25 18:16:57.892,3.6118355363445656e-05,-13.276858468099087,2.0,DB
2025-06-25 18:16:57.900,3.03385587490148e-05,-13.744273381480934,2.0,DB
2025-06-25 18:16:57.908,2.4665265671400595e-05,-14.142002296541689,2.0,DB
2025-06-25 18:16:57.916,1.922431535269373e-05,-14.44879237537775,2.0,DB
2025-06-25 18:16:57.924,1.4130440581049478e-05,-14.642985961457043,2.0,DB
2025-06-25 18:16:57.932,9.48315961086018e-06,-14.703049362706208,2.0,DB
2025-06-25 18:16:57.939,5.363241370054874e-06,-14.608162772267413,2.0,DB
2025-06-25 18:16:57.947,1.8299545086722549e-06,-14.338856981060612,2.0,DB
2025-06-25 18:16:57.955,-1.0807456330779134e-06,-13.87767870117113,2.0,DB
2025-06-25 18:16:57.963,-3.3569964819264525e-06,-13.209862996146937,2.0,DB
2025-06-25 18:16:57.971,-5.010735867455026e-06,-12.32398873159968,2.0,DB
2025-06-25 18:16:57.978,-6.07635478215813e-06,-11.21259131888888,2.0,DB
2025-06-25 18:16:57.986,-6.608364128004981e-06,-9.872706481112616,2.0,DB
2025-06-25 18:16:57.994,-6.678192030866988e-06,-8.30631942037446,2.0,DB
2025-06-25 18:16:58.002,-6.3702710217092135e-06,-6.520695643731118,2.0,DB
2025-06-25 18:16:58.010,-5.77761140012964e-06,-4.528572788065275,2.0,DB
2025-06-25 18:16:58.017,-4.997087801561078e-06,-2.348196985782665,2.0,DB
2025-06-25 18:16:58.025,-4.124689850795477e-06,-0.0031924848666045,2.0,DB
2025-06-25 18:16:58.033,-3.251004335761312e-06,2.4777408284183413,2.0,DB
2025-06-25 18:16:58.041,-2.457203549559781e-06,5.061300908979553,2.0,DB
2025-06-25 18:16:58.049,-1.8118023043071533e-06,7.710220258729833,2.0,DB
2025-06-25 18:16:58.057,-1.3683937518207783e-06,10.384051460827,2.0,DB
2025-06-25 18:16:58.064,-1.164470197841616e-06,13.04008087569803,2.0,DB
2025-06-25 18:16:58.072,-1.2213058460225966e-06,15.634344205801888,2.0,DB
2025-06-25 18:16:58.080,-1.5447737818882537e-06,18.122712921808265,2.0,DB
2025-06-25 18:16:58.088,-2.1269156597428382e-06,20.46201697517757,2.0,DB
2025-06-25 18:16:58.096,-2.9480678927328675e-06,22.61116698293853,2.0,DB
2025-06-25 18:16:58.103,-3.979351464699715e-06,24.53223827903336,2.0,DB
2025-06-25 18:16:58.111,-5.185343347062967e-06,26.19147993760533,2.0,DB
2025-06-25 18:16:58.119,-6.526763427530927e-06,27.56021407833014,2.0,DB
2025-06-25 18:16:58.127,-7.963030902387408e-06,28.61559439089977,2.0,DB
2025-06-25 18:16:58.135,-9.4545672717462e-06,29.341197731688037,2.0,DB
2025-06-25 18:16:58.142,-1.0964748419150666e-05,29.727428657743094,2.0,DB
2025-06-25 18:16:58.150,-1.2461434783453128e-05,29.771723624241982,2.0,DB
2025-06-25 18:16:58.158,-1.3918035415253234e-05,29.47854898689992,2.0,DB
2025-06-25 18:16:58.166,-1.5314087888876948e-05,28.859194590030373,2.0,DB
2025-06-25 18:16:58.174,-1.663536083014819e-05,27.93137223343659,2.0,DB
2025-06-25 18:16:58.182,-1.7873508528253022e-05,26.71863534819692,2.0,DB
2025-06-25 18:16:58.189,-1.902532713576704e-05,25.24964245137376,2.0,DB
2025-06-25 18:16:58.197,-2.009167883962364e-05,23.55729212280917,2.0,DB
2025-06-25 18:16:58.205,-2.107616373173008e-05,21.677761150434293,2.0,DB
2025-06-25 18:16:58.213,-2.1983628655038724e-05,19.649479994133763,2.0,DB
2025-06-25 18:16:58.221,-2.281860789163772e-05,17.512080766640704,2.0,DB
2025-06-25 18:16:58.228,-2.3583792142466386e-05,15.305352540777864,2.0,DB
2025-06-25 18:16:58.236,-2.427861987507946e-05,13.068237051863182,2.0,DB
2025-06-25 18:16:58.244,-2.4898078936957795e-05,10.837894916845409,2.0,DB
2025-06-25 18:16:58.252,-2.543179659234352e-05,8.648868526409286,2.0,DB
2025-06-25 18:16:58.260,-2.58634831756138e-05,6.532363002891828,2.0,DB
2025-06-25 18:16:58.267,-2.617077878383664e-05,4.515661297196736,2.0,DB
2025-06-25 18:16:58.275,-2.6325534354613783e-05,2.621683876309259,2.0,DB
2025-06-25 18:16:58.283,-2.629453866452215e-05,0.8686977839434213,2.0,DB
2025-06-25 18:16:58.291,-2.604068187533548e-05,-0.7298256198309909,2.0,DB
2025-06-25 18:16:58.299,-2.5524524942506176e-05,-2.165210006021452,2.0,DB
2025-06-25 18:16:58.307,-2.4706223220720588e-05,-3.4334407672073466,2.0,DB
2025-06-25 18:16:58.314,-2.354773272399821e-05,-4.534913076147118,2.0,DB
2025-06-25 18:16:58.322,-2.2015209508189543e-05,-5.474078285044385,2.0,DB
2025-06-25 18:16:58.330,-2.0081497325230083e-05,-6.259007701451469,2.0,DB
2025-06-25 18:16:58.338,-1.7728586811811074e-05,-6.900893931725131,2.0,DB
2025-06-25 18:16:58.346,-1.4949921735085044e-05,-7.413510242022284,2.0,DB
2025-06-25 18:16:58.353,-1.1752424868439118e-05,-7.812647797576343,2.0,DB
2025-06-25 18:16:58.361,-8.158118457195124e-06,-8.115549284665944,2.0,DB
2025-06-25 18:16:58.369,-4.205222377767487e-06,-8.340355410981669,2.0,DB
2025-06-25 18:16:58.377,5.137273838828181e-08,-8.505578263754394,2.0,DB
2025-06-25 18:16:58.385,4.540339865166468e-06,-8.629612646881428,2.0,DB
2025-06-25 18:16:58.392,9.174913600680187e-06,-8.730293494378001,2.0,DB
2025-06-25 18:16:58.400,1.3854676089048778e-05,-8.824504444030312,2.0,DB
2025-06-25 18:16:58.408,1.846811808593493e-05,-8.927839817744848,2.0,DB
2025-06-25 18:16:58.416,2.2895921161231915e-05,-9.054319736242594,2.0,DB
2025-06-25 18:16:58.424,2.701486262204273e-05,-9.21615600608974,2.0,DB
2025-06-25 18:16:58.432,3.0702198490774576e-05,-9.423564834890158,2.0,DB
2025-06-25 18:16:58.439,3.384033333853523e-05,-9.68462140540229,2.0,DB
2025-06-25 18:16:58.447,3.632154232960015e-05,-10.005150893686851,2.0,DB
2025-06-25 18:16:58.455,3.8052482075989975e-05,-10.388650642788273,2.0,DB
2025-06-25 18:16:58.463,3.895823545892112e-05,-10.836238861621544,2.0,DB
2025-06-25 18:16:58.471,3.898569470198747e-05,-11.346626334115085,2.0,DB
2025-06-25 18:16:58.478,3.81061723902662e-05,-11.91610908910592,2.0,DB
2025-06-25 18:16:58.486,3.631719391641092e-05,-12.538581662173538,2.0,DB
2025-06-25 18:16:58.494,3.364344284468532e-05,-13.205572322932168,2.0,DB
2025-06-25 18:16:58.502,3.0136816428397067e-05,-13.906303286664588,2.0,DB
2025-06-25 18:16:58.510,2.587552659729343e-05,-14.627780329461023,2.0,DB
2025-06-25 18:16:58.517,2.0962173837291137e-05,-15.354917254109546,2.0,DB
2025-06-25 18:16:58.525,1.5520751907088818e-05,-16.070701206303397,2.0,DB
2025-06-25 18:16:58.533,9.692623369545917e-06,-16.756404836440023,2.0,DB
2025-06-25 18:16:58.541,3.631614690154931e-06,-17.391850685525707,2.0,DB
2025-06-25 18:16:58.549,-2.501533535773016e-06,-17.955731920524446,2.0,DB
2025-06-25 18:16:58.557,-8.545086084328022e-06,-18.425991669753724,2.0,DB
2025-06-25 18:16:58.564,-1.4342322705534698e-05,-18.780260768055115,2.0,DB
2025-06-25 18:16:58.572,-1.974736743803657e-05,-18.99635080865515,2.0,DB
2025-06-25 18:16:58.580,-2.4630579959601143e-05,-19.052796145703283,2.0,DB
2025-06-25 18:16:58.588,-2.888326552424406e-05,-18.929435065530026,2.0,DB
2025-06-25 18:16:58.596,-3.2421475671524766e-05,-18.6080169407063,2.0,DB
2025-06-25 18:16:58.603,-3.518869067028784e-05,-18.07281901080129,2.0,DB
2025-06-25 18:16:58.611,-3.71572065609368e-05,-17.311253713630144,2.0,DB
2025-06-25 18:16:58.619,-3.8328115737944005e-05,-16.31444542748768,2.0,DB
2025-06-25 18:16:58.627,-3.8729881996541e-05,-15.07775425966006,2.0,DB
2025-06-25 18:16:58.635,-3.841564309933836e-05,-13.601224270037068,2.0,DB
2025-06-25 18:16:58.642,-3.745947690650056e-05,-11.889934339097836,2.0,DB
2025-06-25 18:16:58.650,-3.5951915507557285e-05,-9.954231805337384,2.0,DB
2025-06-25 18:16:58.658,-3.3994997928326244e-05,-7.809831974174898,2.0,DB
2025-06-25 18:16:58.666,-3.169713780773569e-05,-5.477770543569644,2.0,DB
2025-06-25 18:16:58.674,-2.9168059095717106e-05,-2.9842007523188467,2.0,DB
2025-06-25 18:16:58.682,-2.6514023464105293e-05,-0.3600324438585013,2.0,DB
2025-06-25 18:16:58.689,-2.3833539276151204e-05,2.3595839723990526,2.0,DB
2025-06-25 18:16:58.697,-2.121370511184513e-05,5.135919735664364,2.0,DB
2025-06-25 18:16:58.705,-1.8727302397810997e-05,7.927461358279414,2.0,DB
2025-06-25 18:16:58.713,-1.643071293028844e-05,10.690815420290011,2.0,DB
2025-06-25 18:16:58.721,-1.4362699159920828e-05,13.38169943456834,2.0,DB
2025-06-25 18:16:58.728,-1.254404903021955e-05,15.955989663548038,2.0,DB
2025-06-25 18:16:58.736,-1.0978053774344682e-05,18.370793785085244,2.0,DB
2025-06-25 18:16:58.744,-9.65175706867494e-06,20.58551451527903,2.0,DB
2025-06-25 18:16:58.752,-8.537887858915022e-06,22.562869813109383,2.0,DB
2025-06-25 18:16:58.760,-7.597367418879341e-06,24.269836174077437,2.0,DB
2025-06-25 18:16:58.767,-6.7822640517638e-06,25.678483763137223,2.0,DB
2025-06-25 18:16:58.775,-6.039056465994861e-06,26.76667566891925,2.0,DB
2025-06-25 18:16:58.783,-5.312059323958084e-06,27.518608243140275,2.0,DB
2025-06-25 18:16:58.791,-4.5468617612832674e-06,27.925175121776352,2.0,DB
2025-06-25 18:16:58.799,-3.693631726004301e-06,27.98414385564776,2.0,DB
2025-06-25 18:16:58.807,-2.710145649153256e-06,27.70014081503057,2.0,DB
2025-06-25 18:16:58.814,-1.564414035024844e-06,27.08444686304836,2.0,DB
2025-06-25 18:16:58.822,-2.367888027980623e-07,26.15461290667825,2.0,DB
2025-06-25 18:16:58.830,1.278542677896194e-06,24.933910547617707,2.0,DB
2025-06-25 18:16:58.838,2.972749290475497e-06,23.4506384225507,2.0,DB
2025-06-25 18:16:58.846,4.822280322857301e-06,21.73730924536033,2.0,DB
2025-06-25 18:16:58.853,6.789540432005753e-06,19.82974589592732,2.0,DB
2025-06-25 18:16:58.861,8.824303376827707e-06,17.766117049421904,2.0,DB
2025-06-25 18:16:58.869,1.0865820631702832e-05,15.585943771500087,2.0,DB
2025-06-25 18:16:58.877,1.2845548434046896e-05,13.329108238942956,2.0,DB
2025-06-25 18:16:58.885,1.469038434728667e-05,11.034894351866448,2.0,DB
2025-06-25 18:16:58.892,1.6326272921427743e-05,8.74108759549312,2.0,DB
2025-06-25 18:16:58.900,1.768201046884359e-05,6.483158236463078,2.0,DB
2025-06-25 18:16:58.908,1.8693052367827836e-05,4.293547978633543,2.0,DB
2025-06-25 18:16:58.916,1.930510372983472e-05,2.2010757483499,2.0,DB
2025-06-25 18:16:58.924,1.9477258431388743e-05,0.2304735216192598,2.0,DB
2025-06-25 18:16:58.932,1.9184453178845397e-05,-1.597941769373724,2.0,DB
2025-06-25 18:16:58.939,1.841904407176845e-05,-3.268459027732628,2.0,DB
2025-06-25 18:16:58.947,1.719140517222628e-05,-4.770029841771614,2.0,DB
2025-06-25 18:16:58.955,1.5529566321027823e-05,-6.0961989429472645,2.0,DB
2025-06-25 18:16:58.963,1.3478001610594974e-05,-7.244919469998304,2.0,DB
2025-06-25 18:16:58.971,1.1095724964050098e-05,-8.218267224751552,2.0,DB
2025-06-25 18:16:58.978,8.453857268307633e-06,-9.022070343015766,2.0,DB
2025-06-25 18:16:58.986,5.632822048006155e-06,-9.665472241021195,2.0,DB
2025-06-25 18:16:58.994,2.719314435680205e-06,-10.160446318151978,2.0,DB
2025-06-25 18:16:59.002,-1.968262012802156e-07,-10.521280718704878,2.0,DB
2025-06-25 18:16:59.010,-3.0257252552040417e-06,-10.76405053116776,2.0,DB
2025-06-25 18:16:59.017,-5.680464832987698e-06,-10.906093219031376,2.0,DB
2025-06-25 18:16:59.025,-8.079875793811067e-06,-10.965500951258557,2.0,DB
2025-06-25 18:16:59.033,-1.0151061945810845e-05,-10.960640980318688,2.0,DB
2025-06-25 18:16:59.041,-1.1831602203566114e-05,-10.90971246830978,2.0,DB
2025-06-25 18:16:59.049,-1.3071388769428677e-05,-10.830345363781737,2.0,DB
2025-06-25 18:16:59.057,-1.3834070118299176e-05,-10.73924425764546,2.0,DB
2025-06-25 18:16:59.064,-1.4098076803209047e-05,-10.651877754784614,2.0,DB
2025-06-25 18:16:59.072,-1.3857216052022557e-05,-10.582211918695895,2.0,DB
2025-06-25 18:16:59.080,-1.3120828092644023e-05,-10.542484870513825,2.0,DB
2025-06-25 18:16:59.088,-1.1913503501296364e-05,-10.543018699149004,2.0,DB
2025-06-25 18:16:59.096,-1.027436703764724e-05,-10.592064474045028,2.0,DB
2025-06-25 18:16:59.103,-8.255939846552354e-06,-10.695676320098888,2.0,DB
2025-06-25 18:16:59.111,-5.92259898292761e-06,-10.857611161259165,2.0,DB
2025-06-25 18:16:59.119,-3.348661314203882e-06,-11.079251788324743,2.0,DB
2025-06-25 18:16:59.127,-6.161282504652056e-07,-11.359552262398443,2.0,DB
2025-06-25 18:16:59.135,2.1878613885244743e-06,-11.695006216431148,2.0,DB
2025-06-25 18:16:59.142,4.973810704611027e-06,-12.07964023470158,2.0,DB
2025-06-25 18:16:59.150,7.65280284975233e-06,-12.505036031932912,2.0,DB
2025-06-25 18:16:59.158,1.0139509707464513e-05,-12.960386473979234,2.0,DB
2025-06-25 18:16:59.166,1.2355167366774873e-05,-13.432591442347343,2.0,DB
2025-06-25 18:16:59.174,1.423039902699809e-05,-13.906400025006116,2.0,DB
2025-06-25 18:16:59.182,1.570775101351521e-05,-14.364605421905004,2.0,DB
2025-06-25 18:16:59.189,1.6743794116622668e-05,-14.788298224772596,2.0,DB
2025-06-25 18:16:59.197,1.731063304923619e-05,-15.157182345638718,2.0,DB
2025-06-25 18:16:59.205,1.7396672130101275e-05,-15.449955847121668,2.0,DB
2025-06-25 18:16:59.213,1.7006526941973355e-05,-15.64475633030353,2.0,DB
2025-06-25 18:16:59.221,1.616006183661067e-05,-15.719667461318773,2.0,DB
2025-06-25 18:16:59.228,1.4890646296541815e-05,-15.653279799382616,2.0,DB
2025-06-25 18:16:59.236,1.3242810199218282e-05,-15.425295494294769,2.0,DB
2025-06-25 18:16:59.244,1.1269513586678745e-05,-15.017162848716088,2.0,DB
2025-06-25 18:16:59.252,9.029242946278893e-06,-14.412723410864103,2.0,DB
2025-06-25 18:16:59.260,6.583125120929933e-06,-13.598851404835392,2.0,DB
2025-06-25 18:16:59.267,3.992222809017049e-06,-12.566063133936265,2.0,DB
2025-06-25 18:16:59.275,1.315145167533873e-06,-11.30907269347913,2.0,DB
2025-06-25 18:16:59.283,-1.393925363102628e-06,-9.827270049330718,2.0,DB
2025-06-25 18:16:59.291,-4.086721952105522e-06,-8.125098373899547,2.0,DB
2025-06-25 18:16:59.299,-6.7218624499762745e-06,-6.212309523372007,2.0,DB
2025-06-25 18:16:59.307,-9.265293995668088e-06,-4.10407966951586,2.0,DB
2025-06-25 18:16:59.314,-1.169023683099244e-05,-1.8209712832794176,2.0,DB
2025-06-25 18:16:59.322,-1.3976675918114258e-05,0.6112672410549994,2.0,DB
2025-06-25 18:16:59.330,-1.6110469836836188e-05,3.162067239203606,2.0,DB
2025-06-25 18:16:59.338,-1.8082162785785994e-05,5.796567385850442,2.0,DB
2025-06-25 18:16:59.346,-1.988559699917099e-05,8.476293538898007,2.0,DB
2025-06-25 18:16:59.353,-2.15164293537867e-05,11.15997484295969,2.0,DB
2025-06-25 18:16:59.361,-2.297065737166366e-05,13.804474298990383,2.0,DB
2025-06-25 18:16:59.369,-2.4243256363897357e-05,16.36580690377592,2.0,DB
2025-06-25 18:16:59.377,-2.532702139301137e-05,18.800214318935645,2.0,DB
2025-06-25 18:16:59.385,-2.621169546643716e-05,21.06526205358196,2.0,DB
2025-06-25 18:16:59.392,-2.688344944163589e-05,23.12092350347934,2.0,DB
2025-06-25 18:16:59.400,-2.7324760157531588e-05,24.93061499027839,2.0,DB
2025-06-25 18:16:59.408,-2.751471203057153e-05,26.462147222875668,2.0,DB
2025-06-25 18:16:59.416,-2.7429724564455e-05,27.68856131647698,2.0,DB
2025-06-25 18:16:59.424,-2.704468477546052e-05,28.588821535725334,2.0,DB
2025-06-25 18:16:59.432,-2.633444032486905e-05,29.14834209274453,2.0,DB
2025-06-25 18:16:59.439,-2.527558709064031e-05,29.35933139148237,2.0,DB
2025-06-25 18:16:59.447,-2.384846491552808e-05,29.220943787276525,2.0,DB
2025-06-25 18:16:59.455,-2.203925822778781e-05,28.739235920062043,2.0,DB
2025-06-25 18:16:59.463,-1.9842084985393937e-05,27.926931668023634,2.0,DB
2025-06-25 18:16:59.471,-1.7260948714146997e-05,26.803006452074005,2.0,DB
2025-06-25 18:16:59.478,-1.4311424964035604e-05,25.39210772046428,2.0,DB
2025-06-25 18:16:59.486,-1.1021955840982271e-05,23.7238337134456,2.0,DB
2025-06-25 18:16:59.494,-7.434634775145033e-06,21.83189685382325,2.0,DB
2025-06-25 18:16:59.502,-3.605378577964359e-06,19.75320119012766,2.0,DB
2025-06-25 18:16:59.510,3.9659486591595787e-07,17.52686515508858,2.0,DB
2025-06-25 18:16:59.517,4.490037432409042e-06,15.193221473529317,2.0,DB
2025-06-25 18:16:59.525,8.583711023706825e-06,12.79282539876396,2.0,DB
2025-06-25 18:16:59.533,1.2579179840131015e-05,10.36550066726786,2.0,DB
2025-06-25 18:16:59.541,1.637429475325133e-05,7.949449777105198,2.0,DB
2025-06-25 18:16:59.549,1.986726442349041e-05,5.5804515899536025,2.0,DB
2025-06-25 18:16:59.557,2.296116078434091e-05,3.291165022825856,2.0,DB
2025-06-25 18:16:59.564,2.5568659535627968e-05,1.1105529374912382,2.0,DB
2025-06-25 18:16:59.572,2.7616771134779385e-05,-0.9365645361188096,2.0,DB
2025-06-25 18:16:59.580,2.905127636443589e-05,-2.829822879586265,2.0,DB
2025-06-25 18:16:59.588,2.984054650838491e-05,-4.553492579387915,2.0,DB
2025-06-25 18:16:59.596,2.997841318529596e-05,-6.096529639887334,2.0,DB
2025-06-25 18:16:59.603,2.9485779537427257e-05,-7.452505591077406,2.0,DB
2025-06-25 18:16:59.611,2.8410747391926814e-05,-8.619428496503467,2.0,DB
2025-06-25 18:16:59.619,2.68271591741066e-05,-9.599468882901206,2.0,DB
2025-06-25 18:16:59.627,2.4831590833359224e-05,-10.398606178439218,2.0,DB
2025-06-25 18:16:59.635,2.2538969057085647e-05,-11.026212160869743,2.0,DB
2025-06-25 18:16:59.642,2.007710876773916e-05,-11.49458811196083,2.0,DB
2025-06-25 18:16:59.650,1.758054727755608e-05,-11.818471909695264,2.0,DB
2025-06-25 18:16:59.658,1.5184074287810054e-05,-12.014530248614316,2.0,DB
2025-06-25 18:16:59.666,1.301633655490367e-05,-12.100849664938517,2.0,DB
2025-06-25 18:16:59.674,1.1193854782219008e-05,-12.096438174913985,2.0,DB
2025-06-25 18:16:59.682,9.81573953401758e-06,-12.020747239378066,2.0,DB
2025-06-25 18:16:59.689,8.959336043870273e-06,-11.893221573714907,2.0,DB
2025-06-25 18:16:59.697,8.676966385028357e-06,-11.732882152529523,2.0,DB
2025-06-25 18:16:59.705,8.993873209453135e-06,-11.557945721800284,2.0,DB
2025-06-25 18:16:59.713,9.907403704931962e-06,-11.38548232133308,2.0,DB
2025-06-25 18:16:59.721,1.1387407053546026e-05,-11.231110814188714,2.0,DB
2025-06-25 18:16:59.728,1.3377754917597383e-05,-11.108731278723935,2.0,DB
2025-06-25 18:16:59.736,1.579883530971528e-05,-11.030292387544282,2.0,DB
2025-06-25 18:16:59.744,1.855082660392938e-05,-11.00559159935206,2.0,DB
2025-06-25 18:16:59.752,2.151755226370364e-05,-11.04210611982102,2.0,DB
2025-06-25 18:16:59.760,2.457076048381658e-05,-11.144853110284457,2.0,DB
2025-06-25 18:16:59.767,2.757474117718471e-05,-11.316278473304232,2.0,DB
2025-06-25 18:16:59.775,3.0391236829240945e-05,-11.556174634348054,2.0,DB
2025-06-25 18:16:59.783,3.288459880334548e-05,-11.861628964781278,2.0,DB
2025-06-25 18:16:59.791,3.492709967582737e-05,-12.227005738486737,2.0,DB
2025-06-25 18:16:59.799,3.640425778644571e-05,-12.643965662332462,2.0,DB
2025-06-25 18:16:59.807,3.72199744125508e-05,-13.101527948396829,2.0,DB
2025-06-25 18:16:59.814,3.730123094040703e-05,-13.586180486575438,2.0,DB
2025-06-25 18:16:59.822,3.6602047356036064e-05,-14.082043823419816,2.0,DB
2025-06-25 18:16:59.830,3.510637664453248e-05,-14.571094269764712,2.0,DB
2025-06-25 18:16:59.838,3.2829627091736625e-05,-15.033450489876104,2.0,DB
2025-06-25 18:16:59.846,2.981858933071967e-05,-15.447726352503626,2.0,DB
2025-06-25 18:16:59.853,2.6149693709938915e-05,-15.79145067623188,2.0,DB
2025-06-25 18:16:59.861,2.192569932484151e-05,-16.041551845116427,2.0,DB
2025-06-25 18:16:59.869,1.7271067939695846e-05,-16.174902209668925,2.0,DB
2025-06-25 18:16:59.877,1.2326366983476104e-05,-16.16891386211943,2.0,DB
2025-06-25 18:16:59.885,7.242071896570032e-06,-16.002173956523443,2.0,DB
2025-06-25 18:16:59.892,2.172122089249447e-06,-15.655104431952845,2.0,DB
2025-06-25 18:16:59.900,-2.732449232230973e-06,-15.110627998759126,2.0,DB
2025-06-25 18:16:59.908,-7.329531602234869e-06,-14.3548197656623,2.0,DB
2025-06-25 18:16:59.916,-1.1491364070773714e-05,-13.37752210372705,2.0,DB
2025-06-25 18:16:59.924,-1.5109181371519188e-05,-12.172899421193613,2.0,DB
2025-06-25 18:16:59.932,-1.8096934225579703e-05,-10.739909584972889,2.0,DB
2025-06-25 18:16:59.939,-2.0393983316393652e-05,-9.082669848367631,2.0,DB
2025-06-25 18:16:59.947,-2.196670958629926e-05,-7.210697352231522,2.0,DB
2025-06-25 18:16:59.955,-2.280902427737327e-05,-5.139007521164121,2.0,DB
2025-06-25 18:16:59.963,-2.2941800100268607e-05,-2.888057883159697,2.0,DB
2025-06-25 18:16:59.971,-2.241127976908626e-05,-0.4835298526916833,2.0,DB
2025-06-25 18:16:59.978,-2.12865497309461e-05,2.04405336205,2.0,DB
2025-06-25 18:16:59.986,-1.965619519136488e-05,4.6598685715005885,2.0,DB
2025-06-25 18:16:59.994,-1.7624277500167447e-05,7.3254838699855505,2.0,DB
2025-06-25 18:17:00.002,-1.5305796652848256e-05,9.999683131947611,2.0,DB
2025-06-25 18:17:00.010,-1.2821820105519403e-05,12.639401982661958,2.0,DB
2025-06-25 18:17:00.017,-1.0294474285184934e-05,15.200748625561348,2.0,DB
2025-06-25 18:17:00.025,-7.842007025690224e-06,17.640078951724327,2.0,DB
2025-06-25 18:17:00.033,-5.574137519400659e-06,19.91509250513869,2.0,DB
2025-06-25 18:17:00.041,-3.5879150059573786e-06,21.98591428314182,2.0,DB
2025-06-25 18:17:00.049,-1.964306374446945e-06,23.81612711126154,2.0,DB
2025-06-25 18:17:00.057,-7.657160552105117e-07,25.37372048287084,2.0,DB
2025-06-25 18:17:00.064,-3.4587976096944374e-08,26.631924274393924,2.0,DB
2025-06-25 18:17:00.072,2.068626885443023e-07,27.569899550786687,2.0,DB
2025-06-25 18:17:00.080,-4.41351607035531e-08,28.1732636128138,2.0,DB
2025-06-25 18:17:00.088,-7.725716351132872e-07,28.434432296027065,2.0,DB
2025-06-25 18:17:00.096,-1.947977761193702e-06,28.352769051821664,2.0,DB
2025-06-25 18:17:00.103,-3.5271820005285085e-06,27.93453723291512,2.0,DB
2025-06-25 18:17:00.111,-5.457291290926867e-06,27.192658966842423,2.0,DB
2025-06-25 18:17:00.119,-7.678708356839988e-06,26.14629073538921,2.0,DB
2025-06-25 18:17:00.127,-1.0128023612041693e-05,24.820232008689675,2.0,DB
2025-06-25 18:17:00.135,-1.2740649864677322e-05,23.24418876405524,2.0,DB
2025-06-25 18:17:00.142,-1.5453099823099056e-05,21.451918245997238,2.0,DB
2025-06-25 18:17:00.150,-1.8204838731837404e-05,19.480284737242467,2.0,DB
2025-06-25 18:17:00.158,-2.0939676072296308e-05,17.36825830283405,2.0,DB
2025-06-25 18:17:00.166,-2.360668999647261e-05,15.155889383864654,2.0,DB
2025-06-25 18:17:00.174,-2.6160705026934406e-05,12.883291750939511,2.0,DB
2025-06-25 18:17:00.182,-2.856236672366921e-05,10.589664734368291,2.0,DB
2025-06-25 18:17:00.189,-3.0777875841765074e-05,8.312382940478482,2.0,DB
2025-06-25 18:17:00.197,-3.277845852709486e-05,6.08617800608997,2.0,DB
2025-06-25 18:17:00.205,-3.453965805708707e-05,3.9424325429578135,2.0,DB
2025-06-25 18:17:00.213,-3.604053745778365e-05,1.9086015152759592,2.0,DB
2025-06-25 18:17:00.221,-3.726288112807963e-05,0.0077711205726764,2.0,DB
2025-06-25 18:17:00.228,-3.819047766185567e-05,-1.7416399554537747,2.0,DB
2025-06-25 18:17:00.236,-3.880855582221836e-05,-3.326037050177685,2.0,DB
2025-06-25 18:17:00.244,-3.910343167472617e-05,-4.736668574617004,2.0,DB
2025-06-25 18:17:00.252,-3.906240793600781e-05,-5.969516475539296,2.0,DB
2025-06-25 18:17:00.260,-3.867394744868025e-05,-7.025070422488721,2.0,DB
2025-06-25 18:17:00.267,-3.7928122237781874e-05,-7.90800072863812,2.0,DB
2025-06-25 18:17:00.275,-3.681731877443004e-05,-8.626746912692544,2.0,DB
2025-06-25 18:17:00.283,-3.533715983060451e-05,-9.193039894502007,2.0,DB
2025-06-25 18:17:00.291,-3.3487584614148324e-05,-9.621376108861773,2.0,DB
2025-06-25 18:17:00.299,-3.1274012654398226e-05,-9.928461373623472,2.0,DB
2025-06-25 18:17:00.307,-2.8708504037064385e-05,-10.132641246810833,2.0,DB
2025-06-25 18:17:00.314,-2.5810819846401368e-05,-10.253332971830416,2.0,DB
2025-06-25 18:17:00.322,-2.2609282733847195e-05,-10.310472083974334,2.0,DB
2025-06-25 18:17:00.330,-1.9141338925637903e-05,-10.3239844914207,2.0,DB
2025-06-25 18:17:00.338,-1.545373007358699e-05,-10.313292504019138,2.0,DB
2025-06-25 18:17:00.346,-1.160219632337133e-05,-10.296861005217878,2.0,DB
2025-06-25 18:17:00.353,-7.650650799066692e-06,-10.291787871539391,2.0,DB
2025-06-25 18:17:00.361,-3.669790138710748e-06,-10.313440945069438,2.0,DB
2025-06-25 18:17:00.369,2.648647066092039e-07,-10.375142437768302,2.0,DB
2025-06-25 18:17:00.377,4.075469178514731e-06,-10.487900642090526,2.0,DB
2025-06-25 18:17:00.385,7.684831556616273e-06,-10.660188255920886,2.0,DB
2025-06-25 18:17:00.392,1.1019759472023474e-05,-10.89776648000641,2.0,DB
2025-06-25 18:17:00.400,1.401462987827349e-05,-11.20355425676973,2.0,DB
2025-06-25 18:17:00.408,1.661499540374946e-05,-11.57754250575453,2.0,DB
2025-06-25 18:17:00.416,1.878100166081777e-05,-12.016753867928712,2.0,DB
2025-06-25 18:17:00.424,2.049035558693684e-05,-12.515249183719677,2.0,DB
2025-06-25 18:17:00.432,2.174055763976337e-05,-13.06418258489682,2.0,DB
2025-06-25 18:17:00.439,2.2550102102284976e-05,-13.65190757698545,2.0,DB
2025-06-25 18:17:00.447,2.2958383778489256e-05,-14.264136741862265,2.0,DB
2025-06-25 18:17:00.455,2.302414836853573e-05,-14.884157630387053,2.0,DB
2025-06-25 18:17:00.463,2.2822483372627765e-05,-15.493106987593215,2.0,DB
2025-06-25 18:17:00.471,2.2440528825822947e-05,-16.070304619149823,2.0,DB
2025-06-25 18:17:00.478,2.197224090248633e-05,-16.59364694831549,2.0,DB
2025-06-25 18:17:00.486,2.151262884024676e-05,-17.040058632196363,2.0,DB
2025-06-25 18:17:00.494,2.115190239258675e-05,-17.385998537988165,2.0,DB
2025-06-25 18:17:00.502,2.0969935691059965e-05,-17.60801399019749,2.0,DB
2025-06-25 18:17:00.510,2.1031398136205223e-05,-17.683334589844097,2.0,DB
2025-06-25 18:17:00.517,2.138183552781328e-05,-17.59049421006183,2.0,DB
2025-06-25 18:17:00.525,2.2044908950229124e-05,-17.309967148524102,2.0,DB
2025-06-25 18:17:00.533,2.302091727565633e-05,-16.824802039558207,2.0,DB
2025-06-25 18:17:00.541,2.428664392771052e-05,-16.12123517254487,2.0,DB
2025-06-25 18:17:00.549,2.579648218049301e-05,-15.18926349065788,2.0,DB
2025-06-25 18:17:00.557,2.7484709807891872e-05,-14.02315689420606,2.0,DB
2025-06-25 18:17:00.564,2.926871543670627e-05,-12.621889652336822,2.0,DB
2025-06-25 18:17:00.572,3.1052948461308644e-05,-10.989471801935538,2.0,DB
2025-06-25 18:17:00.580,3.273338531800528e-05,-9.13516340323705,2.0,DB
2025-06-25 18:17:00.588,3.420235313536653e-05,-7.073557397822265,2.0,DB
2025-06-25 18:17:00.596,3.5353579457596853e-05,-4.824520494904758,2.0,DB
2025-06-25 18:17:00.603,3.6087319818110575e-05,-2.412985865640374,2.0,DB
2025-06-25 18:17:00.611,3.631536706757944e-05,0.1314037214775791,2.0,DB
2025-06-25 18:17:00.619,3.596569073147012e-05,2.774798545693878,2.0,DB
2025-06-25 18:17:00.627,3.498640525091536e-05,5.479781368196919,2.0,DB
2025-06-25 18:17:00.635,3.334873832291274e-05,8.206129606483907,2.0,DB
2025-06-25 18:17:00.643,3.1048697532567e-05,10.911681503891025,2.0,DB
2025-06-25 18:17:00.650,2.810724920405508e-05,13.553283399142256,2.0,DB
2025-06-25 18:17:00.658,2.456901480634753e-05,16.08779176072341,2.0,DB
2025-06-25 18:17:00.666,2.0499682838997603e-05,18.473101066550527,2.0,DB
2025-06-25 18:17:00.674,1.598245334801193e-05,20.669167001967605,2.0,DB
2025-06-25 18:17:00.682,1.1113864853912397e-05,22.63899390564398,2.0,DB
2025-06-25 18:17:00.689,5.999333415676745e-06,24.349555959298744,2.0,DB
2025-06-25 18:17:00.697,7.486933060876731e-07,25.772623294107607,2.0,DB
2025-06-25 18:17:00.705,-4.528018127660799e-06,26.885466927758557,2.0,DB
2025-06-25 18:17:00.713,-9.724338608621816e-06,27.671420159298453,2.0,DB
2025-06-25 18:17:00.721,-1.4740579856256696e-05,28.120278601552517,2.0,DB
2025-06-25 18:17:00.728,-1.948635461390067e-05,28.22852625690431,2.0,DB
2025-06-25 18:17:00.736,-2.388238595601881e-05,27.999380749880856,2.0,DB
2025-06-25 18:17:00.744,-2.78615958377671e-05,27.44265680991383,2.0,DB
2025-06-25 18:17:00.752,-3.136950744344107e-05,26.574453128312516,2.0,DB
2025-06-25 18:17:00.760,-3.4364027464880635e-05,25.41667356408727,2.0,DB
2025-06-25 18:17:00.768,-3.681469945351275e-05,23.996399108641864,2.0,DB
2025-06-25 18:17:00.775,-3.870153757847258e-05,22.34513181182641,2.0,DB
2025-06-25 18:17:00.783,-4.0013561491890565e-05,20.49793581878399,2.0,DB
2025-06-25 18:17:00.791,-4.0747157799455816e-05,18.49250360696047,2.0,DB
2025-06-25 18:17:00.799,-4.090439232685271e-05,16.368177334677124,2.0,DB
2025-06-25 18:17:00.807,-4.0491390616177054e-05,14.164955861651729,2.0,DB
2025-06-25 18:17:00.814,-3.951689269204274e-05,11.922517483327695,2.0,DB
2025-06-25 18:17:00.822,-3.799107303661581e-05,9.679286802423396,2.0,DB
2025-06-25 18:17:00.830,-3.592469892322504e-05,7.471571564198112,2.0,DB
2025-06-25 18:17:00.838,-3.3328680845906885e-05,5.332791866062141,2.0,DB
2025-06-25 18:17:00.846,-3.021404882802325e-05,3.29282010016768,2.0,DB
2025-06-25 18:17:00.853,-2.6592368958137892e-05,1.3774454963717029,2.0,DB
2025-06-25 18:17:00.861,-2.2476596594888827e-05,-0.3920275931944822,2.0,DB
2025-06-25 18:17:00.869,-1.7882347231449264e-05,-1.9990432830390483,2.0,DB
2025-06-25 18:17:00.877,-1.2829553830352956e-05,-3.431919821950223,2.0,DB
2025-06-25 18:17:00.885,-7.344469585339793e-06,-4.683841792779348,2.0,DB
2025-06-25 18:17:00.893,-1.4619583739465972e-06,-5.752727062807071,2.0,DB
2025-06-25 18:17:00.900,4.772028627682095e-06,-6.6409798869779415,2.0,DB
2025-06-25 18:17:00.908,1.1297973619869016e-05,-7.355144111145197,2.0,DB
2025-06-25 18:17:00.916,1.8040587361850302e-05,-7.905472300757208,2.0,DB
2025-06-25 18:17:00.924,2.490721209045156e-05,-8.305427826077048,2.0,DB
2025-06-25 18:17:00.932,3.178715820886235e-05,-8.571137479277201,2.0,DB
2025-06-25 18:17:00.939,3.855224307018202e-05,-8.720812109637762,2.0,DB
2025-06-25 18:17:00.947,4.5058714671969785e-05,-8.774152088435953,2.0,DB
2025-06-25 18:17:00.955,5.115064213998837e-05,-8.751753227418668,2.0,DB
2025-06-25 18:17:00.963,5.666474335390629e-05,-8.674527173211432,2.0,DB
2025-06-25 18:17:00.971,6.143650165144806e-05,-8.563148405362782,2.0,DB
2025-06-25 18:17:00.978,6.530730234971155e-05,-8.43753790784363,2.0,DB
2025-06-25 18:17:00.986,6.813220028409709e-05,-8.316391488146241,2.0,DB
2025-06-25 18:17:00.994,6.978781798787836e-05,-8.21675869638387,2.0,DB
2025-06-25 18:17:01.002,7.017978662860974e-05,-8.153676441937659,2.0,DB
2025-06-25 18:17:01.010,6.924911346535434e-05,-8.1398597866164,2.0,DB
2025-06-25 18:17:01.018,6.697692845462495e-05,-8.185451051148256,2.0,DB
2025-06-25 18:17:01.025,6.338722759072047e-05,-8.297827314827597,2.0,DB
2025-06-25 18:17:01.033,5.854743991410307e-05,-8.481465599594312,2.0,DB
2025-06-25 18:17:01.041,5.256683752670912e-05,-8.737864480304083,2.0,DB
2025-06-25 18:17:01.049,4.5592947263005855e-05,-9.06552052239083,2.0,DB
2025-06-25 18:17:01.057,3.7806204084915305e-05,-9.45995779156716,2.0,DB
2025-06-25 18:17:01.064,2.941313805380132e-05,-9.91380868622759,2.0,DB
2025-06-25 18:17:01.072,2.0638446215346432e-05,-10.416944486394245,2.0,DB
2025-06-25 18:17:01.080,1.171636725098058e-05,-10.956654253522045,2.0,DB
2025-06-25 18:17:01.088,2.8818132349239618e-06,-11.51787099154678,2.0,DB
2025-06-25 18:17:01.096,-5.638302374864318e-06,-12.083444208875326,2.0,DB
2025-06-25 18:17:01.103,-1.3633154212194646e-05,-12.6344581099451,2.0,DB
2025-06-25 18:17:01.111,-2.0915192836210967e-05,-13.15059450016902,2.0,DB
2025-06-25 18:17:01.119,-2.7326181341242555e-05,-13.61053902658863,2.0,DB
2025-06-25 18:17:01.127,-3.274189941029171e-05,-13.99242853566567,2.0,DB
2025-06-25 18:17:01.135,-3.7075398840963125e-05,-14.2743360776695,2.0,DB
2025-06-25 18:17:01.143,-4.0278755817047725e-05,-14.434788433319971,2.0,DB
2025-06-25 18:17:01.150,-4.234332146278991e-05,-14.453309039155148,2.0,DB
2025-06-25 18:17:01.158,-4.329852297199469e-05,-14.31097694810322,2.0,DB
2025-06-25 18:17:01.166,-4.3209312614768686e-05,-13.990990128993696,2.0,DB
2025-06-25 18:17:01.174,-4.217240119457367e-05,-13.479219164802355,2.0,DB
2025-06-25 18:17:01.182,-4.0311446241682414e-05,-12.76473545502774,2.0,DB
2025-06-25 18:17:01.189,-3.777139368907495e-05,-11.840296565376049,2.0,DB
2025-06-25 18:17:01.197,-3.47121953437885e-05,-10.702770583947943,2.0,DB
2025-06-25 18:17:01.205,-3.1302143501202355e-05,-9.353481387103676,2.0,DB
2025-06-25 18:17:01.213,-2.77110788612195e-05,-7.798457683543754,2.0,DB
2025-06-25 18:17:01.221,-2.4103738710498312e-05,-6.04857061590344,2.0,DB
2025-06-25 18:17:01.228,-2.063351922674977e-05,-4.119547510238501,2.0,DB
2025-06-25 18:17:01.236,-1.7436927065369533e-05,-2.031852971802656,2.0,DB
2025-06-25 18:17:01.244,-1.4628981224500716e-05,0.1895672174584081,2.0,DB
2025-06-25 18:17:01.252,-1.2299775615886016e-05,2.5156792183032968,2.0,DB
2025-06-25 18:17:01.260,-1.0512314166652697e-05,4.913886095011735,2.0,DB
2025-06-25 18:17:01.268,-9.301609459151448e-06,7.348674391545503,2.0,DB
2025-06-25 18:17:01.275,-8.674942183678018e-06,9.782367206300677,2.0,DB
2025-06-25 18:17:01.283,-8.613137424214422e-06,12.175964137521936,2.0,DB
2025-06-25 18:17:01.291,-9.072712558097617e-06,14.490044558268009,2.0,DB
2025-06-25 18:17:01.299,-9.988768186157189e-06,16.685707570347247,2.0,DB
2025-06-25 18:17:01.307,-1.1278516616663748e-05,18.72551985715902,2.0,DB
2025-06-25 18:17:01.314,-1.2845366931723456e-05,20.57444163737494,2.0,DB
2025-06-25 18:17:01.322,-1.4583500034363571e-05,22.2007010915034,2.0,DB
2025-06-25 18:17:01.330,-1.6382848903527605e-05,23.576589007875786,2.0,DB
2025-06-25 18:17:01.338,-1.813433570580369e-05,24.679147926161352,2.0,DB
2025-06-25 18:17:01.346,-1.973513326537511e-05,25.49073363419588,2.0,DB
2025-06-25 18:17:01.353,-2.109366226695053e-05,25.999431329928893,2.0,DB
2025-06-25 18:17:01.361,-2.2134032397982417e-05,26.199313884250515,2.0,DB
2025-06-25 18:17:01.369,-2.279967274182784e-05,26.090535196139356,2.0,DB
2025-06-25 18:17:01.377,-2.3055951941336e-05,25.67925737253468,2.0,DB
2025-06-25 18:17:01.385,-2.2891650668320155e-05,24.97741614829624,2.0,DB
2025-06-25 18:17:01.393,-2.231921450052697e-05,24.002334356519683,2.0,DB
2025-06-25 18:17:01.400,-2.1373782779700373e-05,22.776198156122536,2.0,DB
2025-06-25 18:17:01.408,-2.011105675395048e-05,21.32541493849464,2.0,DB
2025-06-25 18:17:01.416,-1.8604136648207262e-05,19.67987522113183,2.0,DB
2025-06-25 18:17:01.424,-1.693952061782698e-05,17.872143292523962,2.0,DB
2025-06-25 18:17:01.432,-1.5212515569822926e-05,15.936602847221568,2.0,DB
2025-06-25 18:17:01.439,-1.3522349293782371e-05,13.908584335663871,2.0,DB
2025-06-25 18:17:01.447,-1.1967273059530962e-05,11.823500279678797,2.0,DB
2025-06-25 18:17:01.455,-1.063989111964153e-05,9.71601343242325,2.0,DB
2025-06-25 18:17:01.463,-9.62287332132203e-06,7.6192604813253935,2.0,DB
2025-06-25 18:17:01.471,-8.985147839575476e-06,5.564151124825449,2.0,DB
2025-06-25 18:17:01.478,-8.77865767611839e-06,3.578758946304323,2.0,DB
2025-06-25 18:17:01.486,-9.035782456274007e-06,1.6878167267330024,2.0,DB
2025-06-25 18:17:01.494,-9.767544003655257e-06,-0.0876751510980601,2.0,DB
2025-06-25 18:17:01.502,-1.0962697908702109e-05,-1.730722590823052,2.0,DB
2025-06-25 18:17:01.510,-1.258774904017906e-05,-3.228493286735091,2.0,DB
2025-06-25 18:17:01.518,-1.4587841113317425e-05,-4.572356876948982,2.0,DB
2025-06-25 18:17:01.525,-1.688840713160813e-05,-5.757816139887374,2.0,DB
2025-06-25 18:17:01.533,-1.9397453172368792e-05,-6.784338540759888,2.0,DB
2025-06-25 18:17:01.541,-2.200836937601073e-05,-7.655099813809434,2.0,DB
2025-06-25 18:17:01.549,-2.460319647156106e-05,-8.376653046620085,2.0,DB
2025-06-25 18:17:01.557,-2.705631042217056e-05,-8.958537872811242,2.0,DB
2025-06-25 18:17:01.564,-2.9238508626988417e-05,-9.412844867134236,2.0,DB
2025-06-25 18:17:01.572,-3.1021466290532065e-05,-9.753750093582669,2.0,DB
2025-06-25 18:17:01.580,-3.2282468454969016e-05,-9.997034034610222,2.0,DB
2025-06-25 18:17:01.588,-3.2909236987827745e-05,-10.159597906660636,2.0,DB
2025-06-25 18:17:01.596,-3.2804611572305974e-05,-10.258988746927669,2.0,DB
2025-06-25 18:17:01.603,-3.189083492070057e-05,-10.312942762252067,2.0,DB
2025-06-25 18:17:01.611,-3.0113222907516787e-05,-10.338954399877478,2.0,DB
2025-06-25 18:17:01.619,-2.74430485156915e-05,-10.3538765698106,2.0,DB
2025-06-25 18:17:01.627,-2.3879523699086324e-05,-10.373555549483822,2.0,DB
2025-06-25 18:17:01.635,-1.9450822788322163e-05,-10.41250244732853,2.0,DB
2025-06-25 18:17:01.643,-1.4214152144967226e-05,-10.483601786945297,2.0,DB
2025-06-25 18:17:01.650,-8.254922506014357e-06,-10.597856866561624,2.0,DB
2025-06-25 18:17:01.658,-1.6851009548769373e-06,-10.76417108308167,2.0,DB
2025-06-25 18:17:01.666,5.359203873044045e-06,-10.98916437600873,2.0,DB
2025-06-25 18:17:01.674,1.2720912053828522e-05,-11.2770242890426,2.0,DB
2025-06-25 18:17:01.682,2.022589985799669e-05,-11.629391776117616,2.0,DB
2025-06-25 18:17:01.689,2.7687647393661592e-05,-12.04528268278782,2.0,DB
2025-06-25 18:17:01.697,3.491250217093428e-05,-12.521046694266404,2.0,DB
2025-06-25 18:17:01.705,4.170540308162244e-05,-13.050366343559292,2.0,DB
2025-06-25 18:17:01.713,4.787589827981704e-05,-13.62429931728487,2.0,DB
2025-06-25 18:17:01.721,5.3244298792696586e-05,-14.23136770274779,2.0,DB
2025-06-25 18:17:01.728,5.7647791584877154e-05,-14.85769792338516,2.0,DB
2025-06-25 18:17:01.736,6.094627114177191e-05,-15.487214856147464,2.0,DB
2025-06-25 18:17:01.744,6.302756497077195e-05,-16.101892968046137,2.0,DB
2025-06-25 18:17:01.752,6.381168197853464e-05,-16.682066220917637,2.0,DB
2025-06-25 18:17:01.760,6.325375204000659e-05,-17.206796970731975,2.0,DB
2025-06-25 18:17:01.768,6.134545181446434e-05,-17.65430215912109,2.0,DB
2025-06-25 18:17:01.775,5.811487559659104e-05,-18.00243281931945,2.0,DB
2025-06-25 18:17:01.783,5.362495253034958e-05,-18.22920038390352,2.0,DB
2025-06-25 18:17:01.791,4.797060646754757e-05,-18.313340602857483,2.0,DB
2025-06-25 18:17:01.799,4.1274910091158825e-05,-18.23490319936358,2.0,DB
2025-06-25 18:17:01.807,3.368452143926158e-05,-17.97585287065474,2.0,DB
2025-06-25 18:17:01.814,2.536471049761062e-05,-17.52066505748858,2.0,DB
2025-06-25 18:17:01.822,1.649426396288237e-05,-16.856898231478862,2.0,DB
2025-06-25 18:17:01.830,7.260488154686824e-06,-15.975723438839882,2.0,DB
2025-06-25 18:17:01.838,-2.145558681609588e-06,-14.872391609487485,2.0,DB
2025-06-25 18:17:01.846,-1.153353640999883e-05,-13.546619757787845,2.0,DB
2025-06-25 18:17:01.853,-2.071793870391392e-05,-12.002878673728723,2.0,DB
2025-06-25 18:17:01.861,-2.9521778502662784e-05,-10.250566986680608,2.0,DB
2025-06-25 18:17:01.869,-3.777976359740602e-05,-8.304059494047793,2.0,DB
2025-06-25 18:17:01.877,-4.534091769964085e-05,-6.182621272572276,2.0,DB
2025-06-25 18:17:01.885,-5.2070662095717534e-05,-3.910183201808412,2.0,DB
2025-06-25 18:17:01.893,-5.785243463553501e-05,-1.5149789872623467,2.0,DB
2025-06-25 18:17:01.900,-6.258897326673373e-05,0.970951571783393,2.0,DB
2025-06-25 18:17:01.908,-6.620341805971144e-05,3.5123836195512617,2.0,DB
2025-06-25 18:17:01.916,-6.864036736425241e-05,6.071638543469808,2.0,DB
2025-06-25 18:17:01.924,-6.986694902754009e-05,8.60940718738164,2.0,DB
2025-06-25 18:17:01.932,-6.987386313882442e-05,11.085642794640725,2.0,DB
2025-06-25 18:17:01.939,-6.86762691772422e-05,13.46049832030632,2.0,DB
2025-06-25 18:17:01.947,-6.631435483756283e-05,15.695280402172004,2.0,DB
2025-06-25 18:17:01.955,-6.285342572823118e-05,17.753390897275185,2.0,DB
2025-06-25 18:17:01.963,-5.838337458526207e-05,19.60122657030444,2.0,DB
2025-06-25 18:17:01.971,-5.30174163925686e-05,21.20900831250066,2.0,DB
2025-06-25 18:17:01.978,-4.689001046222388e-05,22.551513176472422,2.0,DB
2025-06-25 18:17:01.986,-4.015393209188074e-05,23.60868548985744,2.0,DB
2025-06-25 18:17:01.994,-3.297650456575556e-05,24.366107268404367,2.0,DB
2025-06-25 18:17:02.002,-2.5535056351429896e-05,24.815312947252604,2.0,DB
2025-06-25 18:17:02.010,-1.8011727362948342e-05,24.95393889800518,2.0,DB
2025-06-25 18:17:02.018,-1.0587810742345207e-05,24.785704062876157,2.0,DB
2025-06-25 18:17:02.025,-3.4378794035412546e-06,24.320224048219732,2.0,DB
2025-06-25 18:17:02.033,3.2760021661814824e-06,23.57266690058112,2.0,DB
2025-06-25 18:17:02.041,9.40966360902034e-06,22.5632642733377,2.0,DB
2025-06-25 18:17:02.049,1.4841527846038331e-05,21.316696542007616,2.0,DB
2025-06-25 18:17:02.057,1.947640883886722e-05,19.86137443714735,2.0,DB
2025-06-25 18:17:02.064,2.324827199977125e-05,18.228642771843887,2.0,DB
2025-06-25 18:17:02.072,2.6121897896263884e-05,16.45193373016012,2.0,DB
2025-06-25 18:17:02.080,2.8093452616260437e-05,14.565897893178056,2.0,DB
2025-06-25 18:17:02.088,2.918999303529012e-05,12.605540711754266,2.0,DB
2025-06-25 18:17:02.096,2.9467919384727943e-05,10.60539055318556,2.0,DB
2025-06-25 18:17:02.103,2.9010370366496103e-05,8.598721873675984,2.0,DB
2025-06-25 18:17:02.111,2.7923583553604896e-05,6.616853671550344,2.0,DB
2025-06-25 18:17:02.119,2.6332324348525297e-05,4.68853937188713,2.0,DB
2025-06-25 18:17:02.127,2.437458753737075e-05,2.839459925812229,2.0,DB
2025-06-25 18:17:02.135,2.219584972706728e-05,1.0918274323977262,2.0,DB
2025-06-25 18:17:02.143,1.9943173919537855e-05,-0.5358977471132387,2.0,DB
2025-06-25 18:17:02.150,1.7759458441862625e-05,-2.02917740077902,2.0,DB
2025-06-25 18:17:02.158,1.5778117935760655e-05,-3.377457896008534,2.0,DB
2025-06-25 18:17:02.166,1.4118484400149916e-05,-4.574131983809873,2.0,DB
2025-06-25 18:17:02.174,1.2882185417700665e-05,-5.616409545109557,2.0,DB
2025-06-25 18:17:02.182,1.2150674303850962e-05,-6.505108416431284,2.0,DB
2025-06-25 18:17:02.189,1.1983968551042329e-05,-7.244377396727604,2.0,DB
2025-06-25 18:17:02.197,1.2420523527474124e-05,-7.841363955287656,2.0,DB
2025-06-25 18:17:02.205,1.3478043432461704e-05,-8.30583910534354,2.0,DB
2025-06-25 18:17:02.213,1.5154927940904432e-05,-8.649791460023673,2.0,DB
2025-06-25 18:17:02.221,1.7432004810592183e-05,-8.88700172884708,2.0,DB
2025-06-25 18:17:02.228,2.027424280332828e-05,-9.032607922310168,2.0,DB
2025-06-25 18:17:02.236,2.363227314688713e-05,-9.102670379338234,2.0,DB
2025-06-25 18:17:02.244,2.7443718449313677e-05,-9.113744478306884,2.0,DB
2025-06-25 18:17:02.252,3.163447299188764e-05,-9.082467593182256,2.0,DB
2025-06-25 18:17:02.260,3.612015900486924e-05,-9.02516557008241,2.0,DB
2025-06-25 18:17:02.268,4.080798486737325e-05,-8.957482787940156,2.0,DB
2025-06-25 18:17:02.275,4.559916076773679e-05,-8.894038791013667,2.0,DB
2025-06-25 18:17:02.283,5.03919118652095e-05,-8.848113594145147,2.0,DB
2025-06-25 18:17:02.291,5.5084995216424885e-05,-8.831363104378383,2.0,DB
2025-06-25 18:17:02.299,5.958149088784111e-05,-8.853565700699757,2.0,DB
2025-06-25 18:17:02.307,6.379251783249043e-05,-8.922400878738369,2.0,DB
2025-06-25 18:17:02.314,6.764045841596573e-05,-9.043260994327964,2.0,DB
2025-06-25 18:17:02.322,7.106130862209778e-05,-9.219097502536847,2.0,DB
2025-06-25 18:17:02.330,7.400591608779732e-05,-9.450303635989592,2.0,DB
2025-06-25 18:17:02.338,7.644007464625728e-05,-9.734636125101495,2.0,DB
2025-06-25 18:17:02.346,7.834363480104748e-05,-10.067179245562558,2.0,DB
2025-06-25 18:17:02.353,7.970891565064611e-05,-10.440355088813588,2.0,DB
2025-06-25 18:17:02.361,8.053874979792406e-05,-10.843984388589597,2.0,DB
2025-06-25 18:17:02.369,8.084445610517364e-05,-11.265402400045812,2.0,DB
2025-06-25 18:17:02.377,8.064392932878808e-05,-11.6896341242956,2.0,DB
2025-06-25 18:17:02.385,7.995990121117857e-05,-12.09963252505372,2.0,DB
2025-06-25 18:17:02.393,7.88183239547801e-05,-12.47658224709774,2.0,DB
2025-06-25 18:17:02.400,7.72468025555115e-05,-12.800269702439492,2.0,DB
2025-06-25 18:17:02.408,7.527305208342512e-05,-13.049518258890616,2.0,DB
2025-06-25 18:17:02.416,7.292341956577694e-05,-13.202684702291554,2.0,DB
2025-06-25 18:17:02.424,7.02215399896627e-05,-13.23821023655147,2.0,DB
2025-06-25 18:17:02.432,6.718720425349908e-05,-13.135216156750344,2.0,DB
2025-06-25 18:17:02.439,6.38355361213932e-05,-12.87413114057148,2.0,DB
2025-06-25 18:17:02.447,6.017660319864043e-05,-12.437334053840368,2.0,DB
2025-06-25 18:17:02.455,5.621558854149552e-05,-11.809793487230683,2.0,DB
2025-06-25 18:17:02.463,5.195359384689135e-05,-10.979683165650435,2.0,DB
2025-06-25 18:17:02.471,4.738903443512652e-05,-9.938951103845042,2.0,DB
2025-06-25 18:17:02.478,4.251945892934266e-05,-8.683820074741892,2.0,DB
2025-06-25 18:17:02.486,3.73435413258207e-05,-7.215197700432959,2.0,DB
2025-06-25 18:17:02.494,3.186299736748228e-05,-5.538976290577045,2.0,DB
2025-06-25 18:17:02.502,2.6084262656807423e-05,-3.666205395055295,2.0,DB
2025-06-25 18:17:02.510,2.0019865400647027e-05,-1.613123804392325,2.0,DB
2025-06-25 18:17:02.518,1.3689462020265932e-05,0.5989577299531984,2.0,DB
2025-06-25 18:17:02.525,7.1204781266577926e-06,2.94392666757447,2.0,DB
2025-06-25 18:17:02.533,3.4826732121985296e-07,5.391289889250056,2.0,DB
2025-06-25 18:17:02.541,-6.584286851158293e-06,7.906738520663141,2.0,DB
2025-06-25 18:17:02.549,-1.362774630340413e-05,10.452843523143658,2.0,DB
2025-06-25 18:17:02.557,-2.072762058205134e-05,12.989864174090958,2.0,DB
2025-06-25 18:17:02.564,-2.782626931138893e-05,15.476647136064406,2.0,DB
2025-06-25 18:17:02.572,-3.486500998123083e-05,17.871590173773487,2.0,DB
2025-06-25 18:17:02.580,-4.178620203593399e-05,20.133641856935057,2.0,DB
2025-06-25 18:17:02.588,-4.853509261247525e-05,22.223306880213,2.0,DB
2025-06-25 18:17:02.596,-5.5061256995072027e-05,24.103626001763303,2.0,DB
2025-06-25 18:17:02.603,-6.131952506890808e-05,25.741100080789195,2.0,DB
2025-06-25 18:17:02.611,-6.727034204166757e-05,27.10652928128597,2.0,DB
2025-06-25 18:17:02.619,-7.28795640280994e-05,28.175741167130663,2.0,DB
2025-06-25 18:17:02.627,-7.81177352211533e-05,28.93018506397673,2.0,DB
2025-06-25 18:17:02.635,-8.295893205623102e-05,29.357374577416167,2.0,DB
2025-06-25 18:17:02.643,-8.737929007366218e-05,29.451165352193332,2.0,DB
2025-06-25 18:17:02.650,-9.135535047674124e-05,29.21186080470913,2.0,DB
2025-06-25 18:17:02.658,-9.486237536628194e-05,28.646144405241813,2.0,DB
2025-06-25 18:17:02.666,-9.787278332114024e-05,27.76684287268486,2.0,DB
2025-06-25 18:17:02.674,-0.0001003548507071,26.59253014008713,2.0,DB
2025-06-25 18:17:02.682,-0.0001022718094446,25.146986950391188,2.0,DB
2025-06-25 18:17:02.689,-0.0001035814498314,23.45853527495219,2.0,DB
2025-06-25 18:17:02.697,-0.0001042363085253,21.559270267962766,2.0,DB
2025-06-25 18:17:02.705,-0.0001041844882988,19.48421506303599,2.0,DB
2025-06-25 18:17:02.713,-0.0001033711191974,17.270425305797254,2.0,DB
2025-06-25 18:17:02.721,-0.000101740431966,14.95607086823302,2.0,DB
2025-06-25 18:17:02.728,-9.923837581280792e-05,12.579521732601696,2.0,DB
2025-06-25 18:17:02.736,-9.581567562516828e-05,10.178463645298354,2.0,DB
2025-06-25 18:17:02.744,-9.143119047326448e-05,7.789066948450856,2.0,DB
2025-06-25 18:17:02.752,-8.605540746482557e-05,5.445229151291121,2.0,DB
2025-06-25 18:17:02.760,-7.96738844604046e-05,3.1779084667950745,2.0,DB
2025-06-25 18:17:02.768,-7.229044339454444e-05,1.014561870409864,2.0,DB
2025-06-25 18:17:02.775,-6.392991433200707e-05,-1.0213026139155048,2.0,DB
2025-06-25 18:17:02.783,-5.464024001094752e-05,-2.910453589227331,2.0,DB
2025-06-25 18:17:02.791,-4.449377225491496e-05,-4.638141914397373,2.0,DB
2025-06-25 18:17:02.799,-3.35876256660236e-05,-6.194185864421248,2.0,DB
2025-06-25 18:17:02.807,-2.204300041394763e-05,-7.572940655669319,2.0,DB
2025-06-25 18:17:02.814,-1.0003444219919416e-05,-8.773159996044933,2.0,DB
2025-06-25 18:17:02.822,2.3679071786202346e-06,-9.797759643545938,2.0,DB
2025-06-25 18:17:02.830,1.4891994822346244e-05,-10.653494734242598,2.0,DB
2025-06-25 18:17:02.838,2.737821724507592e-05,-11.350563862741044,2.0,DB
2025-06-25 18:17:02.846,3.962929169177693e-05,-11.902153585678622,2.0,DB
2025-06-25 18:17:02.853,5.144635711352394e-05,-12.323937215999004,2.0,DB
2025-06-25 18:17:02.861,6.263410640018938e-05,-12.633541544650557,2.0,DB
2025-06-25 18:17:02.869,7.300576546540987e-05,-12.849994542989002,2.0,DB
2025-06-25 18:17:02.877,8.238776178183607e-05,-12.99316624800482,2.0,DB
2025-06-25 18:17:02.885,9.062394588188778e-05,-13.083213998005816,2.0,DB
2025-06-25 18:17:02.893,9.757925259598275e-05,-13.140042048112525,2.0,DB
2025-06-25 18:17:02.900,0.000103142735573,-13.18278442853621,2.0,DB
2025-06-25 18:17:02.908,0.0001072299831079,-13.22931878679146,2.0,DB
2025-06-25 18:17:02.916,0.0001097849783526,-13.295817943183232,2.0,DB
2025-06-25 18:17:02.924,0.0001107814531183,-13.396345037770107,2.0,DB
2025-06-25 18:17:02.932,0.0001102237167694,-13.542497484514904,2.0,DB
2025-06-25 18:17:02.939,0.000108146873208,-13.743104472560546,2.0,DB
2025-06-25 18:17:02.947,0.000104616293548,-14.003982430824465,2.0,DB
2025-06-25 18:17:02.955,9.972619167009272e-05,-14.327752638422998,2.0,DB
2025-06-25 18:17:02.963,9.359717981240244e-05,-14.713724942152131,2.0,DB
2025-06-25 18:17:02.971,8.637278668809106e-05,-15.157851251712534,2.0,DB
2025-06-25 18:17:02.978,7.821506647766395e-05,-15.65275204719677,2.0,DB
2025-06-25 18:17:02.986,6.92995378487646e-05,-16.18781848780692,2.0,DB
2025-06-25 18:17:02.994,5.980973258074417e-05,-16.749391809538693,2.0,DB
2025-06-25 18:17:03.002,4.993162915925746e-05,-17.321020515227303,2.0,DB
2025-06-25 18:17:03.010,3.984822996437413e-05,-17.883794384726272,2.0,DB
2025-06-25 18:17:03.018,2.973452094735007e-05,-18.416752579182653,2.0,DB
2025-06-25 18:17:03.025,1.9753032821414927e-05,-18.897361118144644,2.0,DB
2025-06-25 18:17:03.033,1.0050195573859776e-05,-19.302052831940728,2.0,DB
2025-06-25 18:17:03.041,7.536200880311723e-07,-19.60682061542731,2.0,DB
2025-06-25 18:17:03.049,-8.029659257470086e-06,-19.78785252970785,2.0,DB
2025-06-25 18:17:03.057,-1.621406934976167e-05,-19.82219512213632,2.0,DB
2025-06-25 18:17:03.064,-2.3735706661696277e-05,-19.688429371113266,2.0,DB
2025-06-25 18:17:03.072,-3.055211472425659e-05,-19.367342019014245,2.0,DB
2025-06-25 18:17:03.080,-3.664183034718633e-05,-18.84257383914824,2.0,DB
2025-06-25 18:17:03.088,-4.200376913562698e-05,-18.101225689533795,2.0,DB
2025-06-25 18:17:03.096,-4.665638287391766e-05,-17.134403123159323,2.0,DB
2025-06-25 18:17:03.103,-5.0636448920065375e-05,-15.937680916138213,2.0,DB
2025-06-25 18:17:03.111,-5.399735827512365e-05,-14.51147017849862,2.0,DB
2025-06-25 18:17:03.119,-5.680682089733364e-05,-12.861272730424966,2.0,DB
2025-06-25 18:17:03.127,-5.914397205582942e-05,-10.997810127010984,2.0,DB
2025-06-25 18:17:03.135,-6.109592899228754e-05,-8.937018028463035,2.0,DB
2025-06-25 18:17:03.143,-6.275390952716657e-05,-6.699900436153597,2.0,DB
2025-06-25 18:17:03.150,-6.420908182826904e-05,-4.312242511892026,2.0,DB
2025-06-25 18:17:03.158,-6.554836411039356e-05,-1.8041851097635968,2.0,DB
2025-06-25 18:17:03.166,-6.685042333821268e-05,0.7903313909009814,2.0,DB
2025-06-25 18:17:03.174,-6.818211103516383e-05,3.4342420235120774,2.0,DB
2025-06-25 18:17:03.182,-6.959550959631058e-05,6.088134957929484,2.0,DB
2025-06-25 18:17:03.189,-7.112566930082727e-05,8.711112403698197,2.0,DB
2025-06-25 18:17:03.197,-7.278904348815893e-05,11.261712041364564,2.0,DB
2025-06-25 18:17:03.205,-7.458260239210007e-05,13.698863975511172,2.0,DB
2025-06-25 18:17:03.213,-7.648361257033348e-05,15.982856623300025,2.0,DB
2025-06-25 18:17:03.221,-7.845008688868633e-05,18.076284204443024,2.0,DB
2025-06-25 18:17:03.228,-8.042192869011893e-05,19.944948616207952,2.0,DB
2025-06-25 18:17:03.236,-8.232280864300728e-05,21.558689471733143,2.0,DB
2025-06-25 18:17:03.244,-8.406281302224375e-05,22.892117937574245,2.0,DB
2025-06-25 18:17:03.252,-8.554186625193069e-05,23.9252326830231,2.0,DB
2025-06-25 18:17:03.260,-8.665384645753689e-05,24.64389967303193,2.0,DB
2025-06-25 18:17:03.268,-8.729120631515856e-05,25.040181591569667,2.0,DB
2025-06-25 18:17:03.275,-8.73498321960351e-05,25.112507239926373,2.0,DB
2025-06-25 18:17:03.283,-8.673384838540815e-05,24.865676162029185,2.0,DB
2025-06-25 18:17:03.291,-8.536008826587155e-05,24.31069883904845,2.0,DB
2025-06-25 18:17:03.299,-8.316198953333098e-05,23.4644778897527,2.0,DB
2025-06-25 18:17:03.307,-8.009271531887686e-05,22.34934062302009,2.0,DB
2025-06-25 18:17:03.314,-7.612735504868458e-05,20.99243782310157,2.0,DB
2025-06-25 18:17:03.322,-7.126411703981819e-05,19.42502762400675,2.0,DB
2025-06-25 18:17:03.330,-6.552448814903674e-05,17.681666588331986,2.0,DB
2025-06-25 18:17:03.338,-5.895240309326367e-05,15.799332528341344,2.0,DB
2025-06-25 18:17:03.346,-5.161253441944949e-05,13.81650512294656,2.0,DB
2025-06-25 18:17:03.353,-4.358787239607568e-05,11.77223097676259,2.0,DB
2025-06-25 18:17:03.361,-3.497679014630852e-05,9.70519946904833,2.0,DB
2025-06-25 18:17:03.369,-2.5889770242247847e-05,7.65285461978982,2.0,DB
2025-06-25 18:17:03.377,-1.644592922258478e-05,5.650566346336968,2.0,DB
2025-06-25 18:17:03.385,-6.7694623511741056e-06,3.73088199287916,2.0,DB
2025-06-25 18:17:03.393,3.0138434071124545e-06,1.9228759825106951,2.0,DB
2025-06-25 18:17:03.400,1.2779849464390696e-05,0.2516119623288857,2.0,DB
2025-06-25 18:17:03.408,2.240888090107087e-05,-1.2622720148960418,2.0,DB
2025-06-25 18:17:03.416,3.178796995983617e-05,-2.602848789281041,2.0,DB
2025-06-25 18:17:03.424,4.081242744039925e-05,-3.7590555457688257,2.0,DB
2025-06-25 18:17:03.432,4.938671415129005e-05,-4.724717185296052,2.0,DB
2025-06-25 18:17:03.439,5.74246836555248e-05,-5.49844524121546,2.0,DB
2025-06-25 18:17:03.447,6.484934441478988e-05,-6.08342143698351,2.0,DB
2025-06-25 18:17:03.455,7.159229457494755e-05,-6.487077933197305,2.0,DB
2025-06-25 18:17:03.463,7.75929392881748e-05,-6.720688658158141,2.0,DB
2025-06-25 18:17:03.471,8.279757931459429e-05,-6.798887807534829,2.0,DB
2025-06-25 18:17:03.478,8.715848334895641e-05,-6.73913261846506,2.0,DB
2025-06-25 18:17:03.486,9.063306955784364e-05,-6.561127877007566,2.0,DB
2025-06-25 18:17:03.494,9.318326908953232e-05,-6.286229329168122,2.0,DB
2025-06-25 18:17:03.502,9.477505136022982e-05,-5.936842281345846,2.0,DB
2025-06-25 18:17:03.510,9.537804013222176e-05,-5.5358302705877245,2.0,DB
2025-06-25 18:17:03.518,9.49651857919364e-05,-5.105946860296224,2.0,DB
2025-06-25 18:17:03.525,9.351253988517844e-05,-4.669301495630304,2.0,DB
2025-06-25 18:17:03.533,9.099922246961576e-05,-4.246868070355734,2.0,DB
2025-06-25 18:17:03.541,8.740765588303576e-05,-3.8580425532311953,2.0,DB
2025-06-25 18:17:03.549,8.272410710584343e-05,-3.520253831493644,2.0,DB
2025-06-25 18:17:03.557,7.69395712063571e-05,-3.2486299708102244,2.0,DB
2025-06-25 18:17:03.564,7.005100744920195e-05,-3.055720461400661,2.0,DB
2025-06-25 18:17:03.572,6.20628636423041e-05,-2.951273786141675,2.0,DB
2025-06-25 18:17:03.580,5.2988721419511885e-05,-2.9420688430467568,2.0,DB
2025-06-25 18:17:03.588,4.285284838254096e-05,-3.031798383508057,2.0,DB
2025-06-25 18:17:03.596,3.169149905255093e-05,-3.221002660079209,2.0,DB
2025-06-25 18:17:03.603,1.9553930080569504e-05,-3.507051855104426,2.0,DB
2025-06-25 18:17:03.611,6.503214042107513e-06,-3.884176498748509,2.0,DB
2025-06-25 18:17:03.619,-7.3829955230941615e-06,-4.343545873792614,2.0,DB
2025-06-25 18:17:03.627,-2.2011590470307103e-05,-4.873395220381365,2.0,DB
2025-06-25 18:17:03.635,-3.727292833330592e-05,-5.4592032624982405,2.0,DB
2025-06-25 18:17:03.643,-5.303955901399171e-05,-6.083922042796496,2.0,DB
2025-06-25 18:17:03.650,-6.916489126573769e-05,-6.728261145755654,2.0,DB
2025-06-25 18:17:03.658,-8.548201498260728e-05,-7.371028008037021,2.0,DB
2025-06-25 18:17:03.666,-0.0001018029131142,-7.989525097353084,2.0,DB
2025-06-25 18:17:03.674,-0.0001179182699575,-8.560003273763911,2.0,DB
2025-06-25 18:17:03.682,-0.000133598056747,-9.05816866365452,2.0,DB
2025-06-25 18:17:03.689,-0.0001485930742108,-9.459737952312665,2.0,DB
2025-06-25 18:17:03.697,-0.0001626376417256,-9.74103424879211,2.0,DB
2025-06-25 18:17:03.705,-0.0001754536204044,-9.879612741533402,2.0,DB
2025-06-25 18:17:03.713,-0.0001867559232137,-9.854902417320496,2.0,DB
2025-06-25 18:17:03.721,-0.0001962595775087,-9.64884735447513,2.0,DB
2025-06-25 18:17:03.728,-0.0002036882546878,-9.246528732880597,2.0,DB
2025-06-25 18:17:03.736,-0.0002087839969705,-8.636746937204064,2.0,DB
2025-06-25 18:17:03.744,-0.0002113177059748,-7.812542155088253,2.0,DB
2025-06-25 18:17:03.752,-0.0002110998420615,-6.771631841939904,2.0,DB
2025-06-25 18:17:03.760,-0.0002079907103099,-5.516744441095592,2.0,DB
2025-06-25 18:17:03.768,-0.0002019096638236,-4.055830855205205,2.0,DB
2025-06-25 18:17:03.775,-0.0001928425421165,-2.402138336128702,2.0,DB
2025-06-25 18:17:03.783,-0.0001808467062716,-0.5741356006523458,2.0,DB
2025-06-25 18:17:03.791,-0.0001660531579595,1.4047170716796893,2.0,DB
2025-06-25 18:17:03.799,-0.0001486654335905,3.506353454441776,2.0,DB
2025-06-25 18:17:03.807,-0.0001289552114998,5.698637499555137,2.0,DB
2025-06-25 18:17:03.814,-0.0001072548081786,7.946038787745572,2.0,DB
2025-06-25 18:17:03.822,-8.394693150417329e-05,10.210430351497882,2.0,DB
2025-06-25 18:17:03.830,-5.945219947167658e-05,12.45198665610689,2.0,DB
2025-06-25 18:17:03.838,-3.4215041246331366e-05,14.630155047966404,2.0,DB
2025-06-25 18:17:03.846,-8.688685149287093e-06,16.704670523017377,2.0,DB
2025-06-25 18:17:03.854,1.6680008672736967e-05,18.63658140706033,2.0,DB
2025-06-25 18:17:03.861,4.14651163564035e-05,20.389252583479223,2.0,DB
2025-06-25 18:17:03.869,6.527492334772532e-05,21.929313300438967,2.0,DB
2025-06-25 18:17:03.877,8.77632972392648e-05,23.227518326316797,2.0,DB
2025-06-25 18:17:03.885,0.0001086386624008,24.25949422691101,2.0,DB
2025-06-25 18:17:03.893,0.000127670212137,25.006346679863007,2.0,DB
2025-06-25 18:17:03.900,0.0001446911725408,25.45510983506665,2.0,DB
2025-06-25 18:17:03.908,0.0001595991509422,25.5990245430304,2.0,DB
2025-06-25 18:17:03.916,0.000172353830854,25.43763854052565,2.0,DB
2025-06-25 18:17:03.924,0.0001829724745627,24.9767281186298,2.0,DB
2025-06-25 18:17:03.932,0.0001915238186691,24.228047112956737,2.0,DB
2025-06-25 18:17:03.939,0.0001981209576792,23.208914973714823,2.0,DB
2025-06-25 18:17:03.947,0.0002029137085763,21.941660947917622,2.0,DB
2025-06-25 18:17:03.955,0.0002060807888291,20.45294583300136,2.0,DB
2025-06-25 18:17:03.963,0.0002078219852873,18.77298618713349,2.0,DB
2025-06-25 18:17:03.971,0.0002083503824023,16.934708211814403,2.0,DB
2025-06-25 18:17:03.979,0.0002078846725149,14.972859720841011,2.0,DB
2025-06-25 18:17:03.986,0.00020664158367,12.923108691386297,2.0,DB
2025-06-25 18:17:03.994,0.000204828507881,10.821155915007315,2.0,DB
2025-06-25 18:17:04.002,0.0002026364713618,8.70188732350415,2.0,DB
2025-06-25 18:17:04.010,0.0002002336466784,6.598588787639791,2.0,DB
2025-06-25 18:17:04.018,0.0001977596616451,4.542242740309202,2.0,DB
2025-06-25 18:17:04.025,0.0001953210075458,2.560922051210872,2.0,DB
2025-06-25 18:17:04.033,0.0001929878765728,0.6792923838558255,2.0,DB
2025-06-25 18:17:04.041,0.0001907927329038,-1.0817699967518208,2.0,DB
2025-06-25 18:17:04.049,0.0001887308098035,-2.705442137994268,2.0,DB
2025-06-25 18:17:04.057,0.0001867625398355,-4.1791010667584025,2.0,DB
2025-06-25 18:17:04.064,0.0001848177396459,-5.494357695703277,2.0,DB
2025-06-25 18:17:04.072,0.0001828012496301,-6.646985414883819,2.0,DB
2025-06-25 18:17:04.080,0.0001805996645285,-7.63675322307432,2.0,DB
2025-06-25 18:17:04.088,0.0001780887382179,-8.467175074997598,2.0,DB
2025-06-25 18:17:04.096,0.0001751409980749,-9.145188344136004,2.0,DB
2025-06-25 18:17:04.104,0.0001716330970721,-9.680774938467248,2.0,DB
2025-06-25 18:17:04.111,0.0001674524867729,-10.08653869716507,2.0,DB
2025-06-25 18:17:04.119,0.0001625030968852,-10.37725230172294,2.0,DB
2025-06-25 18:17:04.127,0.0001567098310099,-10.569386135098847,2.0,DB
2025-06-25 18:17:04.135,0.0001500218103142,-10.68063041405179,2.0,DB
2025-06-25 18:17:04.143,0.0001424143907551,-10.729420613595153,2.0,DB
2025-06-25 18:17:04.150,0.0001338900282243,-10.734474811986718,2.0,DB
2025-06-25 18:17:04.158,0.0001244780821067,-10.71435020798498,2.0,DB
2025-06-25 18:17:04.166,0.0001142336564572,-10.687024767716888,2.0,DB
2025-06-25 18:17:04.174,0.000103235590134,-10.66950878320121,2.0,DB
2025-06-25 18:17:04.182,9.158373178291255e-05,-10.677490080773945,2.0,DB
2025-06-25 18:17:04.189,7.939568582329163e-05,-10.725015704098894,2.0,DB
2025-06-25 18:17:04.197,6.680327113864954e-05,-10.824212108483955,2.0,DB
2025-06-25 18:17:04.205,5.394893522583409e-05,-10.985045240973744,2.0,DB
2025-06-25 18:17:04.213,4.0982281269787824e-05,-11.2151213524431,2.0,DB
2025-06-25 18:17:04.221,2.805674175431321e-05,-11.519529006128735,2.0,DB
2025-06-25 18:17:04.229,1.5326354664210752e-05,-11.900722518706068,2.0,DB
2025-06-25 18:17:04.236,2.942602816247776e-06,-12.358446988879148,2.0,DB
2025-06-25 18:17:04.244,-8.948672543020688e-06,-12.8897051132594,2.0,DB
2025-06-25 18:17:04.252,-2.0210230146561806e-05,-13.488766125478753,2.0,DB
2025-06-25 18:17:04.260,-3.0716195512350405e-05,-14.14721737686218,2.0,DB
2025-06-25 18:17:04.268,-4.0354586380831946e-05,-14.854059255062811,2.0,DB
2025-06-25 18:17:04.275,-4.9029561830217245e-05,-15.5958442622483,2.0,DB
2025-06-25 18:17:04.283,-5.6663364602415767e-05,-16.356861105628976,2.0,DB
2025-06-25 18:17:04.291,-6.319792259429598e-05,-17.119364557151197,2.0,DB
2025-06-25 18:17:04.299,-6.859606489824432e-05,-17.863851585670936,2.0,DB
2025-06-25 18:17:04.307,-7.284229979485548e-05,-18.56938381966369,2.0,DB
2025-06-25 18:17:04.314,-7.594312252992891e-05,-19.213955722101502,2.0,DB
2025-06-25 18:17:04.322,-7.792688130299807e-05,-19.77490691417121,2.0,DB
2025-06-25 18:17:04.330,-7.88433034638757e-05,-20.22937584695225,2.0,DB
2025-06-25 18:17:04.338,-7.876281673399379e-05,-20.55479048818417,2.0,DB
2025-06-25 18:17:04.346,-7.777574831436939e-05,-20.729389891037226,2.0,DB
2025-06-25 18:17:04.354,-7.599135929606653e-05,-20.732768501538352,2.0,DB
2025-06-25 18:17:04.361,-7.353654713224571e-05,-20.546432931850603,2.0,DB
2025-06-25 18:17:04.369,-7.055399928011182e-05,-20.154358797962324,2.0,DB
2025-06-25 18:17:04.377,-6.719961919839413e-05,-19.54353323576481,2.0,DB
2025-06-25 18:17:04.385,-6.363913704733236e-05,-18.704467027782915,2.0,DB
2025-06-25 18:17:04.393,-6.00439281585417e-05,-17.631659056760768,2.0,DB
2025-06-25 18:17:04.400,-5.658617612303759e-05,-16.323995203526298,2.0,DB
2025-06-25 18:17:04.408,-5.343361904872305e-05,-14.7850639513119,2.0,DB
2025-06-25 18:17:04.416,-5.074418253975754e-05,-13.02337193788602,2.0,DB
2025-06-25 18:17:04.424,-4.866081431309105e-05,-11.052444559011436,2.0,DB
2025-06-25 18:17:04.432,-4.730680560903086e-05,-8.890799471455795,2.0,DB
2025-06-25 18:17:04.439,-4.678183888438254e-05,-6.561784414752093,2.0,DB
2025-06-25 18:17:04.447,-4.71589489890077e-05,-4.093275052380382,2.0,DB
2025-06-25 18:17:04.455,-4.84825272807683e-05,-1.5172333546712722,2.0,DB
2025-06-25 18:17:04.463,-5.076743933963634e-05,1.130867803270989,2.0,DB
2025-06-25 18:17:04.471,-5.399926651168906e-05,3.812742908303485,2.0,DB
2025-06-25 18:17:04.479,-5.813561882101307e-05,6.488098917867234,2.0,DB
2025-06-25 18:17:04.486,-6.310840612853794e-05,9.115526468472844,2.0,DB
2025-06-25 18:17:04.494,-6.882689677708457e-05,11.65345233743659,2.0,DB
2025-06-25 18:17:04.502,-7.518134741395284e-05,14.061125037283784,2.0,DB
2025-06-25 18:17:04.510,-8.204697920337703e-05,16.29960316472067,2.0,DB
2025-06-25 18:17:04.518,-8.92881149044224e-05,18.33271502712009,2.0,DB
2025-06-25 18:17:04.525,-9.67623515073641e-05,20.127958221112237,2.0,DB
2025-06-25 18:17:04.533,-0.0001043246789905,21.657309279254445,2.0,DB
2025-06-25 18:17:04.541,-0.0001118314426403,22.897916212416103,2.0,DB
2025-06-25 18:17:04.549,-0.0001191440056498,23.832650671540435,2.0,DB
2025-06-25 18:17:04.557,-0.0001261319474258,24.45050137636952,2.0,DB
2025-06-25 18:17:04.564,-0.0001326756549174,24.74679618803252,2.0,DB
2025-06-25 18:17:04.572,-0.0001386682157902,24.723246463031536,2.0,DB
2025-06-25 18:17:04.580,-0.0001440165807534,24.38781381492985,2.0,DB
2025-06-25 18:17:04.588,-0.0001486420164092,23.754405818925356,2.0,DB
2025-06-25 18:17:04.596,-0.0001524799166771,22.84241322941445,2.0,DB
2025-06-25 18:17:04.604,-0.0001554790791824,21.67610667323113,2.0,DB
2025-06-25 18:17:04.611,-0.0001576005824094,20.283915299038657,2.0,DB
2025-06-25 18:17:04.619,-0.0001588164196852,18.697613324017087,2.0,DB
2025-06-25 18:17:04.627,-0.0001591080572943,16.951442705870726,2.0,DB
2025-06-25 18:17:04.635,-0.0001584650866712,15.0812012396193,2.0,DB
2025-06-25 18:17:04.643,-0.0001568841353787,13.123325265585482,2.0,DB
2025-06-25 18:17:04.650,-0.0001543681894082,11.113994966844764,2.0,DB
2025-06-25 18:17:04.658,-0.0001509264597444,9.088288059166304,2.0,DB
2025-06-25 18:17:04.666,-0.0001465748907205,7.079404685083655,2.0,DB
2025-06-25 18:17:04.674,-0.0001413373372348,5.117982683351677,2.0,DB
2025-06-25 18:17:04.682,-0.0001352473226519,3.231518297238927,2.0,DB
2025-06-25 18:17:04.689,-0.0001283501569574,1.4439030025030382,2.0,DB
2025-06-25 18:17:04.697,-0.0001207050967329,-0.2249173260404714,2.0,DB
2025-06-25 18:17:04.705,-0.000112387192005,-1.759159045396022,2.0,DB
2025-06-25 18:17:04.713,-0.0001034884791913,-3.1472953900921707,2.0,DB
2025-06-25 18:17:04.721,-9.411822340553292e-05,-4.382035016333948,2.0,DB
2025-06-25 18:17:04.729,-8.440197683671753e-05,-5.460193466145113,2.0,DB
2025-06-25 18:17:04.736,-7.447929978719405e-05,-6.382469102864005,2.0,DB
2025-06-25 18:17:04.744,-6.450008527341522e-05,-7.15313695053959,2.0,DB
2025-06-25 18:17:04.752,-5.4619534340102384e-05,-7.779675101709012,2.0,DB
2025-06-25 18:17:04.760,-4.499194432431866e-05,-8.272338972168928,2.0,DB
2025-06-25 18:17:04.768,-3.5763592661600903e-05,-8.643698727271294,2.0,DB
2025-06-25 18:17:04.775,-2.706512043876866e-05,-8.908154737521748,2.0,DB
2025-06-25 18:17:04.783,-1.900393677830085e-05,-9.081444999260768,2.0,DB
2025-06-25 18:17:04.791,-1.16572613575494e-05,-9.180157142217396,2.0,DB
2025-06-25 18:17:04.799,-5.06646287685517e-06,-9.221256016430482,2.0,DB
2025-06-25 18:17:04.807,7.667020780719735e-07,-9.22163600160868,2.0,DB
2025-06-25 18:17:04.814,5.881493348257279e-06,-9.19770522241011,2.0,DB
2025-06-25 18:17:04.822,1.0356979313262711e-05,-9.165006896317628,2.0,DB
2025-06-25 18:17:04.830,1.43081753615018e-05,-9.137881190879398,2.0,DB
2025-06-25 18:17:04.838,1.7879689823709906e-05,-9.129169312841013,2.0,DB
2025-06-25 18:17:04.846,2.1237200954700797e-05,-9.149960163636448,2.0,DB
2025-06-25 18:17:04.854,2.4557201621049892e-05,-9.209378824341998,2.0,DB
2025-06-25 18:17:04.861,2.8015554753978857e-05,-9.314415408709865,2.0,DB
2025-06-25 18:17:04.869,3.177554660375707e-05,-9.46979245585391,2.0,DB
2025-06-25 18:17:04.877,3.597627714433147e-05,-9.67786901488865,2.0,DB
2025-06-25 18:17:04.885,4.072230222751055e-05,-9.93857987053176,2.0,DB
2025-06-25 18:17:04.893,4.607538332021726e-05,-10.249408917929443,2.0,DB
2025-06-25 18:17:04.900,5.2049020624234257e-05,-10.605396445934032,2.0,DB
2025-06-25 18:17:04.908,5.860619356779957e-05,-10.999180947447728,2.0,DB
2025-06-25 18:17:04.916,6.56604512024785e-05,-11.421076949912177,2.0,DB
2025-06-25 18:17:04.924,7.308021394823936e-05,-11.859191146118048,2.0,DB
2025-06-25 18:17:04.932,8.069589892842786e-05,-12.299579696585354,2.0,DB
2025-06-25 18:17:04.939,8.830928605822032e-05,-12.72644986250342,2.0,DB
2025-06-25 18:17:04.947,9.570439546557742e-05,-13.122409017684989,2.0,DB
2025-06-25 18:17:04.955,0.0001026590400023,-13.468763507779256,2.0,DB
2025-06-25 18:17:04.963,0.0001089561755646,-13.745868735816844,2.0,DB
2025-06-25 18:17:04.971,0.0001143942337427,-13.93353025252123,2.0,DB
2025-06-25 18:17:04.979,0.0001187957822334,-14.011453553154409,2.0,DB
2025-06-25 18:17:04.986,0.0001220140772997,-13.959737803762332,2.0,DB
2025-06-25 18:17:04.994,0.0001239373113345,-13.759405951864988,2.0,DB
2025-06-25 18:17:05.002,0.0001244905967251,-13.392960772487465,2.0,DB
2025-06-25 18:17:05.010,0.0001236359445047,-12.844953546676608,2.0,DB
2025-06-25 18:17:05.018,0.0001213706538721,-12.102549474700464,2.0,DB
2025-06-25 18:17:05.025,0.0001177245787211,-11.156071801643042,2.0,DB
2025-06-25 18:17:05.033,0.0001127566685846,-9.999505174726462,2.0,DB
2025-06-25 18:17:05.041,0.0001065510538014,-8.630938122128162,2.0,DB
2025-06-25 18:17:05.049,9.92128543911128e-05,-7.052924857402178,2.0,DB
2025-06-25 18:17:05.057,9.0863888054716e-05,-5.272747927899735,2.0,DB
2025-06-25 18:17:05.064,8.1638494077528e-05,-3.302565530601175,2.0,DB
2025-06-25 18:17:05.072,7.167969651278746e-05,-1.1594305399480216,2.0,DB
2025-06-25 18:17:05.080,6.113586997268215e-05,1.1348277036254724,2.0,DB
2025-06-25 18:17:05.088,5.01579818392068e-05,3.553863187883934,2.0,DB
2025-06-25 18:17:05.096,3.889741201774068e-05,6.067213947246232,2.0,DB
2025-06-25 18:17:05.104,2.7504300312025352e-05,8.640837876497416,2.0,DB
2025-06-25 18:17:05.111,1.6126321547891538e-05,11.237772698860528,2.0,DB
2025-06-25 18:17:05.119,4.907741773526006e-06,13.81890431300506,2.0,DB
2025-06-25 18:17:05.127,-6.011400416363391e-06,16.343823389819434,2.0,DB
2025-06-25 18:17:05.135,-1.6496101828096088e-05,18.77174639907276,2.0,DB
2025-06-25 18:17:05.143,-2.6417259525329376e-05,21.062474371161503,2.0,DB
2025-06-25 18:17:05.150,-3.56526590434614e-05,23.177360755402287,2.0,DB
2025-06-25 18:17:05.158,-4.408818243059005e-05,25.080258800689247,2.0,DB
2025-06-25 18:17:05.166,-5.161933601011669e-05,26.73841899987864,2.0,DB
2025-06-25 18:17:05.174,-5.815314554311286e-05,28.123308319422204,2.0,DB
2025-06-25 18:17:05.182,-6.361038221966587e-05,29.211325162981005,2.0,DB
2025-06-25 18:17:05.189,-6.79280127244257e-05,29.98438723709013,2.0,DB
2025-06-25 18:17:05.197,-7.106173664288298e-05,30.430373598754144,2.0,DB
2025-06-25 18:17:05.205,-7.298846711447765e-05,30.543407021493948,2.0,DB
2025-06-25 18:17:05.213,-7.370859129911512e-05,30.32396822641553,2.0,DB
2025-06-25 18:17:05.221,-7.324781768435477e-05,29.778839263824757,2.0,DB
2025-06-25 18:17:05.229,-7.165841397654914e-05,28.9208791550767,2.0,DB
2025-06-25 18:17:05.236,-6.901967507575529e-05,27.7686405656684,2.0,DB
2025-06-25 18:17:05.244,-6.543750126302992e-05,26.345841541168355,2.0,DB
2025-06-25 18:17:05.252,-6.104297794382183e-05,24.680710982861783,2.0,DB
2025-06-25 18:17:05.260,-5.598984415107465e-05,22.80523038932901,2.0,DB
2025-06-25 18:17:05.268,-5.045076307365679e-05,20.754297303454745,2.0,DB
2025-06-25 18:17:05.275,-4.461238571408092e-05,18.56483778510665,2.0,DB
2025-06-25 18:17:05.283,-3.866930395349584e-05,16.274896027556714,2.0,DB
2025-06-25 18:17:05.291,-3.281707665136172e-05,13.922728949407064,2.0,DB
2025-06-25 18:17:05.299,-2.7244556795002816e-05,11.545932272050315,2.0,DB
2025-06-25 18:17:05.307,-2.2125769350954914e-05,9.18062233089772,2.0,DB
2025-06-25 18:17:05.314,-1.7611633564381322e-05,6.860694802309372,2.0,DB
2025-06-25 18:17:05.322,-1.3821911247468374e-05,4.617177824060656,2.0,DB
2025-06-25 18:17:05.330,-1.083787586317858e-05,2.477692831632015,2.0,DB
2025-06-25 18:17:05.338,-8.696298435418894e-06,0.4660320217651737,2.0,DB
2025-06-25 18:17:05.346,-7.385388290353884e-06,-1.3981431106897266,2.0,DB
2025-06-25 18:17:05.354,-6.843259186622041e-06,-3.099482036575655,2.0,DB
2025-06-25 18:17:05.361,-6.959294297731554e-06,-4.627008117549519,2.0,DB
2025-06-25 18:17:05.369,-7.578495002416128e-06,-5.974071546966786,2.0,DB
2025-06-25 18:17:05.377,-8.508595959711384e-06,-7.138202541788032,2.0,DB
2025-06-25 18:17:05.385,-9.529479116756804e-06,-8.120877211195433,2.0,DB
2025-06-25 18:17:05.393,-1.040425108905388e-05,-8.927209990349764,2.0,DB
2025-06-25 18:17:05.400,-1.089126835925594e-05,-9.565587263947672,2.0,DB
2025-06-25 18:17:05.408,-1.0756403299848327e-05,-10.04725685413534,2.0,DB
2025-06-25 18:17:05.416,-9.784920653206648e-06,-10.3858874884654,2.0,DB
2025-06-25 18:17:05.424,-7.792430200957412e-06,-10.597111302919268,2.0,DB
2025-06-25 18:17:05.432,-4.634457874473852e-06,-10.698060996223232,2.0,DB
2025-06-25 18:17:05.439,-2.1424388190880122e-07,-10.70691156359388,2.0,DB
2025-06-25 18:17:05.447,5.511534452195767e-06,-10.642434726642923,2.0,DB
2025-06-25 18:17:05.455,1.2529305565288058e-05,-10.523572356910528,2.0,DB
2025-06-25 18:17:05.463,2.076749797656652e-05,-10.369033460974116,2.0,DB
2025-06-25 18:17:05.471,3.009778580028139e-05,-10.196917734217845,2.0,DB
2025-06-25 18:17:05.479,4.033861407988463e-05,-10.024367364854507,2.0,DB
2025-06-25 18:17:05.486,5.126088969653758e-05,-9.86724773901358,2.0,DB
2025-06-25 18:17:05.494,6.259571160402612e-05,-9.73985701066816,2.0,DB
2025-06-25 18:17:05.502,7.40439858149643e-05,-9.654664187348416,2.0,DB
2025-06-25 18:17:05.510,8.528767634496072e-05,-9.622075447590454,2.0,DB
2025-06-25 18:17:05.518,9.600229833340642e-05,-9.650228820973226,2.0,DB
2025-06-25 18:17:05.525,0.0001058701170898,-9.744818067127682,2.0,DB
2025-06-25 18:17:05.533,0.0001145934012843,-9.90894749895225,2.0,DB
2025-06-25 18:17:05.541,0.0001219069927085,-10.143020497790168,2.0,DB
2025-06-25 18:17:05.549,0.0001275894272492,-10.444665442511416,2.0,DB
2025-06-25 18:17:05.557,0.0001314719099692,-10.808703599390777,2.0,DB
2025-06-25 18:17:05.564,0.0001334446089713,-11.227164087317972,2.0,DB
2025-06-25 18:17:05.572,0.0001334599483001,-11.689351254505612,2.0,DB
2025-06-25 18:17:05.580,0.0001315328113543,-12.181969612131434,2.0,DB
2025-06-25 18:17:05.588,0.0001277377860907,-12.68931082596988,2.0,DB
2025-06-25 18:17:05.596,0.0001222037636056,-13.193506155671503,2.0,DB
2025-06-25 18:17:05.604,0.0001151063240882,-13.674846168233335,2.0,DB
2025-06-25 18:17:05.611,0.0001066584199911,-14.11216757839313,2.0,DB
2025-06-25 18:17:05.619,9.709991820177572e-05,-14.48330474679518,2.0,DB
2025-06-25 18:17:05.627,8.668658983463724e-05,-14.76560077920156,2.0,DB
2025-06-25 18:17:05.635,7.567911782313449e-05,-14.936470418495578,2.0,DB
2025-06-25 18:17:05.643,6.433262126079919e-05,-14.974004123966395,2.0,DB
2025-06-25 18:17:05.650,5.288709637821417e-05,-14.857600018363696,2.0,DB
2025-06-25 18:17:05.658,4.155909544497417e-05,-14.568607887655888,2.0,DB
2025-06-25 18:17:05.666,3.0534934281645825e-05,-14.09096728102494,2.0,DB
2025-06-25 18:17:05.674,1.99657128835686e-05,-13.411820120621607,2.0,DB
2025-06-25 18:17:05.682,9.96440583911418e-06,-12.52207722581579,2.0,DB
2025-06-25 18:17:05.689,6.051988527108809e-07,-11.416917898338683,2.0,DB
2025-06-25 18:17:05.697,-8.074894856673285e-06,-10.096202283997956,2.0,DB
2025-06-25 18:17:05.705,-1.6072295439602566e-05,-8.564777666506949,2.0,DB
2025-06-25 18:17:05.713,-2.3411351075064744e-05,-6.832662161920508,2.0,DB
2025-06-25 18:17:05.721,-3.0137580534767187e-05,-4.915092429252065,2.0,DB
2025-06-25 18:17:05.729,-3.631026462203964e-05,-2.8324259130876874,2.0,DB
2025-06-25 18:17:05.736,-4.1995011059000334e-05,-0.6098926656654254,2.0,DB
2025-06-25 18:17:05.744,-4.7256890741933815e-05,1.72280319947153,2.0,DB
2025-06-25 18:17:05.752,-5.215464682892221e-05,4.132027081031042,2.0,DB
2025-06-25 18:17:05.760,-5.673629147225884e-05,6.58089178701758,2.0,DB
2025-06-25 18:17:05.768,-6.103616954879813e-05,9.030053841561866,2.0,DB
2025-06-25 18:17:05.775,-6.507337471795663e-05,11.438607461891262,2.0,DB
2025-06-25 18:17:05.783,-6.885131141242087e-05,13.765051249092954,2.0,DB
2025-06-25 18:17:05.791,-7.235819872233325e-05,15.968299235186173,2.0,DB
2025-06-25 18:17:05.799,-7.55683641691951e-05,18.008705520774875,2.0,DB
2025-06-25 18:17:05.807,-7.844424054800045e-05,19.84907046160893,2.0,DB
2025-06-25 18:17:05.814,-8.093903338012132e-05,21.455596310540468,2.0,DB
2025-06-25 18:17:05.822,-8.30000433516332e-05,22.79876142878927,2.0,DB
2025-06-25 18:17:05.830,-8.457258387580905e-05,23.854084620372237,2.0,DB
2025-06-25 18:17:05.838,-8.560433195154481e-05,24.602754727430707,2.0,DB
2025-06-25 18:17:05.846,-8.604982740190552e-05,25.032105206374744,2.0,DB
2025-06-25 18:17:05.854,-8.587474196967923e-05,25.13591878981349,2.0,DB
2025-06-25 18:17:05.861,-8.505951224976648e-05,24.914553291115016,2.0,DB
2025-06-25 18:17:05.869,-8.360197241644222e-05,24.374885862950848,2.0,DB
2025-06-25 18:17:05.877,-8.151871063528571e-05,23.53007930190727,2.0,DB
2025-06-25 18:17:05.885,-7.884498181692045e-05,22.399180027441822,2.0,DB
2025-06-25 18:17:05.893,-7.563312620577662e-05,21.00656290722714,2.0,DB
2025-06-25 18:17:05.900,-7.194956334400142e-05,19.38124294026098,2.0,DB
2025-06-25 18:17:05.908,-6.787055086631159e-05,17.556077775654355,2.0,DB
2025-06-25 18:17:05.916,-6.347701395797311e-05,15.56688801759616,2.0,DB
2025-06-25 18:17:05.924,-5.8848859093238425e-05,13.451524172412638,2.0,DB
2025-06-25 18:17:05.932,-5.4059270162545776e-05,11.248909904955552,2.0,DB
2025-06-25 18:17:05.939,-4.916951270661115e-05,8.998091005113777,2.0,DB
2025-06-25 18:17:05.947,-4.422470615691418e-05,6.7373181768600405,2.0,DB
2025-06-25 18:17:05.955,-3.925086731162279e-05,4.503189541682675,2.0,DB
2025-06-25 18:17:05.963,-3.425333377386041e-05,2.329875711921678,2.0,DB
2025-06-25 18:17:05.971,-2.9216506179978527e-05,0.2484465740551338,2.0,DB
2025-06-25 18:17:05.979,-2.4104741340983232e-05,-1.713685318500998,2.0,DB
2025-06-25 18:17:05.986,-1.8864198225554407e-05,-3.533194437399912,2.0,DB
2025-06-25 18:17:05.994,-1.342546773854466e-05,-5.191139510895847,2.0,DB
2025-06-25 18:17:06.002,-7.706858333355933e-06,-6.673127482703158,2.0,DB
2025-06-25 18:17:06.010,-1.6182248817706407e-06,-7.969347903418522,2.0,DB
2025-06-25 18:17:06.018,4.9347715608919815e-06,-9.074485588982784,2.0,DB
2025-06-25 18:17:06.025,1.2046068024649896e-05,-9.98752297079535,2.0,DB
2025-06-25 18:17:06.033,1.9804337006146387e-05,-10.711446488735982,2.0,DB
2025-06-25 18:17:06.041,2.828793978778973e-05,-11.25287354969038,2.0,DB
2025-06-25 18:17:06.049,3.755984404920013e-05,-11.621617935806894,2.0,DB
2025-06-25 18:17:06.057,4.766271966393916e-05,-11.83021208354839,2.0,DB
2025-06-25 18:17:06.064,5.861444344626695e-05,-11.89340439150734,2.0,DB
2025-06-25 18:17:06.072,7.040421529475213e-05,-11.827648716458349,2.0,DB
2025-06-25 18:17:06.080,8.298943766505596e-05,-11.650601583730964,2.0,DB
2025-06-25 18:17:06.088,9.629345483418465e-05,-11.380640497310315,2.0,DB
2025-06-25 18:17:06.096,0.0001102042134629,-11.03641422977776,2.0,DB
2025-06-25 18:17:06.104,0.0001245739080022,-10.636433249000852,2.0,DB
2025-06-25 18:17:06.111,0.0001392196960189,-10.19870564187626,2.0,DB
2025-06-25 18:17:06.119,0.0001539255847885,-9.740421165785673,2.0,DB
2025-06-25 18:17:06.127,0.0001684455916423,-9.2776835295837,2.0,DB
2025-06-25 18:17:06.135,0.0001825082541391,-8.825288799488165,2.0,DB
2025-06-25 18:17:06.143,0.0001958224992829,-8.396546043846172,2.0,DB
2025-06-25 18:17:06.150,0.0002080847854001,-8.003135052379493,2.0,DB
2025-06-25 18:17:06.158,0.0002189873351797,-7.654995237684453,2.0,DB
2025-06-25 18:17:06.166,0.0002282271970469,-7.360239662033853,2.0,DB
2025-06-25 18:17:06.174,0.0002355157964392,-7.125088508304028,2.0,DB
2025-06-25 18:17:06.182,0.0002405885721821,-6.95381717624648,2.0,DB
2025-06-25 18:17:06.189,0.0002432142623872,-6.848715454270499,2.0,DB
2025-06-25 18:17:06.197,0.0002432034247719,-6.810055790712731,2.0,DB
2025-06-25 18:17:06.205,0.0002404158345266,-6.836070448817103,2.0,DB
2025-06-25 18:17:06.213,0.000234766477758,-6.922939148014457,2.0,DB
2025-06-25 18:17:06.221,0.0002262299401733,-7.06479054073063,2.0,DB
2025-06-25 18:17:06.229,0.0002148430756344,-7.253722425595595,2.0,DB
2025-06-25 18:17:06.236,0.0002007059177065,-7.47984684465041,2.0,DB
2025-06-25 18:17:06.244,0.000183980848572,-7.731367060778423,2.0,DB
2025-06-25 18:17:06.252,0.0001648900521514,-7.994693783346267,2.0,DB
2025-06-25 18:17:06.260,0.0001437112777076,-8.254607836117295,2.0,DB
2025-06-25 18:17:06.268,0.0001207719739025,-8.494475685102948,2.0,DB
2025-06-25 18:17:06.275,9.644193445341952e-05,-8.696522831098553,2.0,DB
2025-06-25 18:17:06.283,7.112468105999869e-05,-8.842168024028743,2.0,DB
2025-06-25 18:17:06.291,4.524784115433314e-05,-8.91241862122792,2.0,DB
2025-06-25 18:17:06.299,1.9252756602669823e-05,-8.8883242856467,2.0,DB
2025-06-25 18:17:06.307,-6.416457320158954e-06,-8.751482744285667,2.0,DB
2025-06-25 18:17:06.314,-3.1324156211261164e-05,-8.48458768080817,2.0,DB
2025-06-25 18:17:06.322,-5.505442276487813e-05,-8.072005225918643,2.0,DB
2025-06-25 18:17:06.330,-7.722201837630119e-05,-7.500362157908273,2.0,DB
2025-06-25 18:17:06.338,-9.748270428396786e-05,-6.759126060428946,2.0,DB
2025-06-25 18:17:06.346,-0.000115542602928,-5.8411555211121495,2.0,DB
2025-06-25 18:17:06.354,-0.0001311662886417,-4.743197184259006,2.0,DB
2025-06-25 18:17:06.361,-0.0001441833496632,-3.466306246735298,2.0,DB
2025-06-25 18:17:06.369,-0.0001544932363665,-2.0161679130848285,2.0,DB
2025-06-25 18:17:06.377,-0.0001620682822536,-0.4032994500637319,2.0,DB
2025-06-25 18:17:06.385,-0.0001669548450652,1.356884219376255,2.0,DB
2025-06-25 18:17:06.393,-0.0001692725645457,3.244154062955314,2.0,DB
2025-06-25 18:17:06.400,-0.0001692117723608,5.233707016042668,2.0,DB
2025-06-25 18:17:06.408,-0.0001670291202469,7.296564007992895,2.0,DB
2025-06-25 18:17:06.416,-0.0001630415167869,9.40012099023935,2.0,DB
2025-06-25 18:17:06.424,-0.0001576184834927,11.50884156823406,2.0,DB
2025-06-25 18:17:06.432,-0.0001511730592914,13.58507362981484,2.0,DB
2025-06-25 18:17:06.439,-0.0001441514010427,15.589966709841862,2.0,DB
2025-06-25 18:17:06.447,-0.000137021247969,17.484462026170412,2.0,DB
2025-06-25 18:17:06.455,-0.000130259441033,19.230323417197376,2.0,DB
2025-06-25 18:17:06.463,-0.0001243387149405,20.791175005344048,2.0,DB
2025-06-25 18:17:06.471,-0.0001197140105708,22.133510437011157,2.0,DB
2025-06-25 18:17:06.479,-0.0001168085885711,23.22763906528492,2.0,DB
2025-06-25 18:17:06.486,-0.0001160002592739,24.0485364244476,2.0,DB
2025-06-25 18:17:06.494,-0.0001176080780783,24.576569693265316,2.0,DB
2025-06-25 18:17:06.502,-0.0001218798864993,24.79807338255824,2.0,DB
2025-06-25 18:17:06.510,-0.0001289811043371,24.70575597880793,2.0,DB
2025-06-25 18:17:06.518,-0.0001389851946324,24.29892445856097,2.0,DB
2025-06-25 18:17:06.525,-0.000151866226924,23.58352017013483,2.0,DB
2025-06-25 18:17:06.533,-0.0001674939525117,22.5719662716988,2.0,DB
2025-06-25 18:17:06.541,-0.0001856317748992,21.28283344206399,2.0,DB
2025-06-25 18:17:06.549,-0.0002059379467467,19.740336684916056,2.0,DB
2025-06-25 18:17:06.557,-0.0002279702495592,17.973681494965753,2.0,DB
2025-06-25 18:17:06.564,-0.0002511943128553,16.01628224507565,2.0,DB
2025-06-25 18:17:06.572,-0.0002749956056485,13.904879234735263,2.0,DB
2025-06-25 18:17:06.580,-0.0002986949857922,11.678583320960652,2.0,DB
2025-06-25 18:17:06.588,-0.0003215675245012,9.377878402960691,2.0,DB
2025-06-25 18:17:06.596,-0.0003428641378696,7.04361227397764,2.0,DB
2025-06-25 18:17:06.604,-0.0003618353595897,4.716005550955219,2.0,DB
2025-06-25 18:17:06.611,-0.0003777563873894,2.433706642118581,2.0,DB
2025-06-25 18:17:06.619,-0.0003899523489501,0.2329181381707291,2.0,DB
2025-06-25 18:17:06.627,-0.0003978226019045,-1.8533832433325323,2.0,DB
2025-06-25 18:17:06.635,-0.0004008628596516,-3.796114817678288,2.0,DB
2025-06-25 18:17:06.643,-0.0003986840470786,-5.570630016616313,2.0,DB
2025-06-25 18:17:06.650,-0.0003910270151176,-7.157124598899117,2.0,DB
2025-06-25 18:17:06.658,-0.0003777725299257,-8.54090164461872,2.0,DB
2025-06-25 18:17:06.666,-0.000358946254215,-9.712494377258512,2.0,DB
2025-06-25 18:17:06.674,-0.0003347187159452,-10.667650054707815,2.0,DB
2025-06-25 18:17:06.682,-0.0003054004837464,-11.407182068078871,2.0,DB
2025-06-25 18:17:06.689,-0.0002714329281166,-11.936700886565491,2.0,DB
2025-06-25 18:17:06.697,-0.0002333750438298,-12.266237501824946,2.0,DB
2025-06-25 18:17:06.705,-0.0001918868471176,-12.409775483663802,2.0,DB
2025-06-25 18:17:06.713,-0.0001477098657071,-12.384709600365047,2.0,DB
2025-06-25 18:17:06.721,-0.0001016452620585,-12.211250135420254,2.0,DB
2025-06-25 18:17:06.729,-5.453021023117838e-05,-11.911792516867344,2.0,DB
2025-06-25 18:17:06.736,-7.213272848814085e-06,-11.510271655288989,2.0,DB
2025-06-25 18:17:06.744,3.947035058818473e-05,-11.031519478035332,2.0,DB
2025-06-25 18:17:06.752,8.47227462011511e-05,-10.50064259798484,2.0,DB
2025-06-25 18:17:06.760,0.0001278053947757,-9.94243494451159,2.0,DB
2025-06-25 18:17:06.768,0.0001680585425668,-9.38083762245714,2.0,DB
2025-06-25 18:17:06.775,0.0002049170666821,-8.838455391728138,2.0,DB
2025-06-25 18:17:06.783,0.0002379222956978,-8.336136139448733,2.0,DB
2025-06-25 18:17:06.791,0.0002667294934929,-7.892616721753519,2.0,DB
2025-06-25 18:17:06.799,0.000291110943498,-7.524235748606571,2.0,DB
2025-06-25 18:17:06.807,0.0003109547665251,-7.24471141688598,2.0,DB
2025-06-25 18:17:06.814,0.0003262597645058,-7.064980481680783,2.0,DB
2025-06-25 18:17:06.822,0.0003371267061753,-6.993092979673471,2.0,DB
2025-06-25 18:17:06.830,0.0003437465699739,-7.034156432739848,2.0,DB
2025-06-25 18:17:06.838,0.0003463863573436,-7.190322976518514,2.0,DB
2025-06-25 18:17:06.846,0.0003453732009971,-7.4608131485582865,2.0,DB
2025-06-25 18:17:06.854,0.0003410775956725,-7.841970863985439,2.0,DB
2025-06-25 18:17:06.861,0.0003338966284443,-8.327345298671325,2.0,DB
2025-06-25 18:17:06.869,0.00032423805944,-8.90779686256338,2.0,DB
2025-06-25 18:17:06.877,0.0003125060093373,-9.571626041428466,2.0,DB
2025-06-25 18:17:06.885,0.0002990888534544,-10.304725476121137,2.0,DB
2025-06-25 18:17:06.893,0.000284349708255,-11.09075710179717,2.0,DB
2025-06-25 18:17:06.900,0.0002686196585431,-11.91135736017481,2.0,DB
2025-06-25 18:17:06.908,0.0002521936679189,-12.746374313336764,2.0,DB
2025-06-25 18:17:06.916,0.0002353289721449,-13.574140833200632,2.0,DB
2025-06-25 18:17:06.924,0.0002182456673236,-14.371787845187349,2.0,DB
2025-06-25 18:17:06.932,0.0002011291524894,-15.115600823794596,2.0,DB
2025-06-25 18:17:06.940,0.0001841340513659,-15.78142136179282,2.0,DB
2025-06-25 18:17:06.947,0.000167389198697,-16.345093695194215,2.0,DB
2025-06-25 18:17:06.955,0.0001510032207249,-16.782953639732735,2.0,DB
2025-06-25 18:17:06.963,0.0001350701915882,-17.07235459973757,2.0,DB
2025-06-25 18:17:06.971,0.0001196748547265,-17.1922222982516,2.0,DB
2025-06-25 18:17:06.979,0.000104896983116,-17.123626822970238,2.0,DB
2025-06-25 18:17:06.986,9.081459634248104e-05,-16.850357677633358,2.0,DB
2025-06-25 18:17:06.994,7.750591966378353e-05,-16.359484973345786,2.0,DB
2025-06-25 18:17:07.002,6.505012303123995e-05,-15.641887885164511,2.0,DB
2025-06-25 18:17:07.010,5.352699437561239e-05,-14.692730210506545,2.0,DB
2025-06-25 18:17:07.018,4.301578819774199e-05,-13.511862434086394,2.0,DB
2025-06-25 18:17:07.025,3.359355710771668e-05,-12.104130220307116,2.0,DB
2025-06-25 18:17:07.033,2.5333294748267605e-05,-10.479570764836152,2.0,DB
2025-06-25 18:17:07.041,1.830215639322888e-05,-8.653480946977123,2.0,DB
2025-06-25 18:17:07.049,1.2559881743537088e-05,-6.646344691808498,2.0,DB
2025-06-25 18:17:07.057,8.157365086865374e-06,-4.483611278667355,2.0,DB
2025-06-25 18:17:07.065,5.135149330263526e-06,-2.195321362829576,2.0,DB
2025-06-25 18:17:07.072,3.521511924568353e-06,0.1844170001180614,2.0,DB
2025-06-25 18:17:07.080,3.329812767952261e-06,2.6180942685875443,2.0,DB
2025-06-25 18:17:07.088,4.554906920927529e-06,5.065593456380722,2.0,DB
2025-06-25 18:17:07.096,7.16864980124088e-06,7.485093016224919,2.0,DB
2025-06-25 18:17:07.104,1.1114761526404193e-05,9.834054338314386,2.0,DB
2025-06-25 18:17:07.111,1.6303504727753132e-05,12.070265455098356,2.0,DB
2025-06-25 18:17:07.119,2.2606746768652575e-05,14.152909323010396,2.0,DB
2025-06-25 18:17:07.127,2.9854036650588982e-05,16.043622958876444,2.0,DB
2025-06-25 18:17:07.135,3.7830338282292086e-05,17.70751287051094,2.0,DB
2025-06-25 18:17:07.143,4.627601013614551e-05,19.114092719511607,2.0,DB
2025-06-25 18:17:07.150,5.488948566580228e-05,20.2381110203668,2.0,DB
2025-06-25 18:17:07.158,6.333289253930642e-05,21.06023988580793,2.0,DB
2025-06-25 18:17:07.166,7.124058260821702e-05,21.56760027987717,2.0,DB
2025-06-25 18:17:07.174,7.823027126808447e-05,21.754104776136558,2.0,DB
2025-06-25 18:17:07.182,8.391625420893349e-05,21.62060521712329,2.0,DB
2025-06-25 18:17:07.190,8.792402512159582e-05,21.174839661888555,2.0,DB
2025-06-25 18:17:07.197,8.990555661510027e-05,20.43118028540894,2.0,DB
2025-06-25 18:17:07.205,8.95544739471517e-05,19.41019113272341,2.0,DB
2025-06-25 18:17:07.213,8.662031345917816e-05,18.13801150858766,2.0,DB
2025-06-25 18:17:07.221,8.092105361927634e-05,16.64558699621188,2.0,DB
2025-06-25 18:17:07.229,7.2353195644545e-05,14.96777537634973,2.0,DB
2025-06-25 18:17:07.236,6.08988603824577e-05,13.1423588360262,2.0,DB
2025-06-25 18:17:07.244,4.6629618775631845e-05,11.20899664499783,2.0,DB
2025-06-25 18:17:07.252,2.970703662298751e-05,9.20815383329539,2.0,DB
2025-06-25 18:17:07.260,1.0380140395929891e-05,7.180041293283916,2.0,DB
2025-06-25 18:17:07.268,-1.1019850627290696e-05,5.163601197060155,2.0,DB
2025-06-25 18:17:07.275,-3.4087144058244684e-05,3.195568777909076,2.0,DB
2025-06-25 18:17:07.283,-5.835098316427334e-05,1.309637550497584,2.0,DB
2025-06-25 18:17:07.291,-8.328689406146213e-05,-0.4642498322031242,2.0,DB
2025-06-25 18:17:07.299,-0.000108329212746,-2.1004684054289418,2.0,DB
2025-06-25 18:17:07.307,-0.0001328845375206,-3.5781246104548945,2.0,DB
2025-06-25 18:17:07.315,-0.0001563457879026,-4.881312102382613,2.0,DB
2025-06-25 18:17:07.322,-0.0001781066025782,-5.999210689486969,2.0,DB
2025-06-25 18:17:07.330,-0.0001975758528542,-6.926034911860523,2.0,DB
2025-06-25 18:17:07.338,-0.0002141920731592,-7.660843652396746,2.0,DB
2025-06-25 18:17:07.346,-0.0002274376147768,-8.207226304447385,2.0,DB
2025-06-25 18:17:07.354,-0.0002368523145518,-8.5728842668333,2.0,DB
2025-06-25 18:17:07.361,-0.0002420464395546,-8.769128820574293,2.0,DB
2025-06-25 18:17:07.369,-0.0002427126256302,-8.810317740509692,2.0,DB
2025-06-25 18:17:07.377,-0.0002386364790837,-8.713253335913619,2.0,DB
2025-06-25 18:17:07.385,-0.000229705472072,-8.49656406429046,2.0,DB
2025-06-25 18:17:07.393,-0.0002159157606479,-8.180090518437783,2.0,DB
2025-06-25 18:17:07.400,-0.0001973766077949,-7.7842945631569345,2.0,DB
2025-06-25 18:17:07.408,-0.0001743121825516,-7.329707818174378,2.0,DB
2025-06-25 18:17:07.416,-0.0001470605869318,-6.836432679213626,2.0,DB
2025-06-25 18:17:07.424,-0.0001160700144755,-6.323705782672599,2.0,DB
2025-06-25 18:17:07.432,-8.189198449361314e-05,-5.8095304045056215,2.0,DB
2025-06-25 18:17:07.440,-4.517164942098523e-05,-5.310380894775511,2.0,DB
2025-06-25 18:17:07.447,-6.635252057095453e-06,-4.840979030075441,2.0,DB
2025-06-25 18:17:07.455,3.2925081846796736e-05,-4.414139247199402,2.0,DB
2025-06-25 18:17:07.463,7.266889382108766e-05,-4.0406772187370015,2.0,DB
2025-06-25 18:17:07.471,0.0001117268129997,-3.729374239565108,2.0,DB
2025-06-25 18:17:07.479,0.0001492212440588,-3.486988478492977,2.0,DB
2025-06-25 18:17:07.486,0.0001842876605177,-3.318303343881882,2.0,DB
2025-06-25 18:17:07.494,0.0002160958740058,-3.226203014289365,2.0,DB
2025-06-25 18:17:07.502,0.0002438707420579,-3.211765563120934,2.0,DB
2025-06-25 18:17:07.510,0.0002669118591328,-3.274365003660625,2.0,DB
2025-06-25 18:17:07.518,0.000284611801521,-3.411774923047292,2.0,DB
2025-06-25 18:17:07.525,0.0002964724803657,-3.620268071482019,2.0,DB
2025-06-25 18:17:07.533,0.0003021191470702,-3.8947082242314095,2.0,DB
2025-06-25 18:17:07.541,0.0003013116202434,-4.228632725237766,2.0,DB
2025-06-25 18:17:07.549,0.0002939523550311,-4.614326228764456,2.0,DB
2025-06-25 18:17:07.557,0.0002800910376394,-5.042888150872273,2.0,DB
2025-06-25 18:17:07.565,0.0002599254550327,-5.50429810132255,2.0,DB
2025-06-25 18:17:07.572,0.0002337984654486,-5.987484978675006,2.0,DB
2025-06-25 18:17:07.580,0.0002021909842896,-6.480406385692176,2.0,DB
2025-06-25 18:17:07.588,0.0001657110064509,-6.970145483861506,2.0,DB
2025-06-25 18:17:07.596,0.0001250788137112,-7.443032293348991,2.0,DB
2025-06-25 18:17:07.604,8.11086668064216e-05,-7.884795714830426,2.0,DB
2025-06-25 18:17:07.611,3.468745550945925e-05,-8.280751191564391,2.0,DB
2025-06-25 18:17:07.619,-1.3249035607079064e-05,-8.61602697932116,2.0,DB
2025-06-25 18:17:07.627,-6.174142756420925e-05,-8.875829536222186,2.0,DB
2025-06-25 18:17:07.635,-0.0001098327063796,-9.045745720558388,2.0,DB
2025-06-25 18:17:07.643,-0.0001565939401036,-9.11207646618884,2.0,DB
2025-06-25 18:17:07.650,-0.0002011489279005,-9.062193588966284,2.0,DB
2025-06-25 18:17:07.658,-0.0002426970524578,-8.884908568862464,2.0,DB
2025-06-25 18:17:07.666,-0.0002805336894659,-8.57083975297048,2.0,DB
2025-06-25 18:17:07.674,-0.0003140675850421,-8.112762623747626,2.0,DB
2025-06-25 18:17:07.682,-0.0003428346528745,-7.505926740241863,2.0,DB
2025-06-25 18:17:07.690,-0.0003665076929621,-6.748322814266098,2.0,DB
2025-06-25 18:17:07.697,-0.0003849016191115,-5.840884202687352,2.0,DB
2025-06-25 18:17:07.705,-0.0003979739054498,-4.787608896377372,2.0,DB
2025-06-25 18:17:07.713,-0.00040582010378,-3.5955908222446284,2.0,DB
2025-06-25 18:17:07.721,-0.0004086644321358,-2.2749528453613044,2.0,DB
2025-06-25 18:17:07.729,-0.0004068456048991,-0.8386781025725064,2.0,DB
2025-06-25 18:17:07.736,-0.0004007982881457,0.6976590006748724,2.0,DB
2025-06-25 18:17:07.744,-0.0003910308176854,2.316255903670954,2.0,DB
2025-06-25 18:17:07.752,-0.0003781000758445,3.997528080189467,2.0,DB
2025-06-25 18:17:07.760,-0.0003625846368686,5.72062283239789,2.0,DB
2025-06-25 18:17:07.768,-0.0003450574226706,7.463981411459607,2.0,DB
2025-06-25 18:17:07.775,-0.0003260591482375,9.205927252451206,2.0,DB
2025-06-25 18:17:07.783,-0.000306073781083,10.925256243375795,2.0,DB
2025-06-25 18:17:07.791,-0.0002855070958697,12.601804288237124,2.0,DB
2025-06-25 18:17:07.799,-0.0002646691900548,14.216968043393925,2.0,DB
2025-06-25 18:17:07.807,-0.0002437615718763,15.754156598594989,2.0,DB
2025-06-25 18:17:07.815,-0.0002228691699839,17.199154957402865,2.0,DB
2025-06-25 18:17:07.822,-0.0002019573645665,18.540384295668886,2.0,DB
2025-06-25 18:17:07.830,-0.0001808739220141,19.769048929666912,2.0,DB
2025-06-25 18:17:07.838,-0.0001593555563025,20.8791654419882,2.0,DB
2025-06-25 18:17:07.846,-0.0001370387572802,21.867475186435843,2.0,DB
2025-06-25 18:17:07.854,-0.0001134744954827,22.73324709596003,2.0,DB
2025-06-25 18:17:07.861,-8.814637899256801e-05,23.477983030157827,2.0,DB
2025-06-25 18:17:07.869,-6.0491756167472856e-05,24.105042532603804,2.0,DB
2025-06-25 18:17:07.877,-2.992513106973284e-05,24.619207584277323,2.0,DB
2025-06-25 18:17:07.885,4.13686518239844e-06,25.02621055965059,2.0,DB
2025-06-25 18:17:07.893,4.2249763458071646e-05,25.332250004961374,2.0,DB
2025-06-25 18:17:07.900,8.491558970006922e-05,25.543519017296006,2.0,DB
2025-06-25 18:17:07.908,0.0001325579144636,25.665769923070343,2.0,DB
2025-06-25 18:17:07.916,0.0001854981352772,25.70393670879827,2.0,DB
2025-06-25 18:17:07.924,0.0002439333518627,25.6618333756828,2.0,DB
2025-06-25 18:17:07.932,0.0003079160863556,25.541942253131587,2.0,DB
2025-06-25 18:17:07.940,0.0003773360647494,25.34530153569496,2.0,DB
2025-06-25 18:17:07.947,0.0004519042963872,25.0714961519229,2.0,DB
2025-06-25 18:17:07.955,0.0005311397458973,24.7187507944698,2.0,DB
2025-06-25 18:17:07.963,0.0006143589913738,24.28411879760535,2.0,DB
2025-06-25 18:17:07.971,0.0007006694054045,23.763755781404207,2.0,DB
2025-06-25 18:17:07.979,0.0007889665459051,23.15326280162087,2.0,DB
2025-06-25 18:17:07.986,0.0008779365445184,22.44808032639863,2.0,DB
2025-06-25 18:17:07.994,0.0009660642896982,21.643911846879423,2.0,DB
2025-06-25 18:17:08.002,0.0010516481044067,20.73715442608373,2.0,DB
2025-06-25 18:17:08.010,0.0011328214238028,19.725313071410422,2.0,DB
2025-06-25 18:17:08.018,0.0012075817229584,18.60737651434067,2.0,DB
2025-06-25 18:17:08.025,0.0012738266815592,17.3841337865345,2.0,DB
2025-06-25 18:17:08.033,0.001329397333619,16.058413834546414,2.0,DB
2025-06-25 18:17:08.041,0.0013721277224756,14.635234199217956,2.0,DB
2025-06-25 18:17:08.049,0.0013999003304087,13.121849325259518,2.0,DB
2025-06-25 18:17:08.057,0.0014107062597386,11.5276941346545,2.0,DB
2025-06-25 18:17:08.065,0.0014027088149184,9.864223830111818,2.0,DB
2025-06-25 18:17:08.072,0.0013743087931291,8.144656209103754,2.0,DB
2025-06-25 18:17:08.080,0.001324209460857,6.383627782715069,2.0,DB
2025-06-25 18:17:08.088,0.0012514789127884,4.596779441445369,2.0,DB
2025-06-25 18:17:08.096,0.0011556073277539,2.8002910586428142,2.0,DB
2025-06-25 18:17:08.104,0.0010365566037055,1.0103870822895538,2.0,DB
2025-06-25 18:17:08.111,0.0008947999912788,-0.7571632969229626,2.0,DB
2025-06-25 18:17:08.119,0.0007313496376883,-2.487527473196411,2.0,DB
2025-06-25 18:17:08.127,0.0005477703566654,-4.167249190526929,2.0,DB
2025-06-25 18:17:08.135,0.0003461783999206,-5.784625715428543,2.0,DB
2025-06-25 18:17:08.143,0.00012922447168,-7.330004462101716,2.0,DB
2025-06-25 18:17:08.150,-9.993932542302596e-05,-8.795985060883519,2.0,DB
2025-06-25 18:17:08.158,-0.0003377085004842,-10.177517458074057,2.0,DB
2025-06-25 18:17:08.166,-0.0005800906183751,-11.471891630810086,2.0,DB
2025-06-25 18:17:08.174,-0.0008227842454394,-12.678619630083336,2.0,DB
2025-06-25 18:17:08.182,-0.001061271028324,-13.799215672912208,2.0,DB
2025-06-25 18:17:08.190,-0.0012909190543519,-14.83688466161529,2.0,DB
2025-06-25 18:17:08.197,-0.0015070951200644,-15.796133619327156,2.0,DB
2025-06-25 18:17:08.205,-0.001705283011301,-16.682323938518795,2.0,DB
2025-06-25 18:17:08.213,-0.0018812044175963,-17.501184923145516,2.0,DB
2025-06-25 18:17:08.221,-0.0020309387106268,-18.2583107838028,2.0,DB
2025-06-25 18:17:08.229,-0.0021510375712006,-18.95866397663037,2.0,DB
2025-06-25 18:17:08.236,-0.0022386304220225,-19.606107555429443,2.0,DB
2025-06-25 18:17:08.244,-0.0022915168490976,-20.202988061369524,2.0,DB
2025-06-25 18:17:08.252,-0.0023082426353599,-20.74978846616245,2.0,DB
2025-06-25 18:17:08.260,-0.0022881565991694,-21.244867903045574,2.0,DB
2025-06-25 18:17:08.268,-0.0022314460516013,-21.68430148475232,2.0,DB
2025-06-25 18:17:08.275,-0.002139149319378,-22.06182956535368,2.0,DB
2025-06-25 18:17:08.283,-0.0020131443977316,-22.368921520539992,2.0,DB
2025-06-25 18:17:08.291,-0.0018561133727577,-22.59495467472925,2.0,DB
2025-06-25 18:17:08.299,-0.0016714827857198,-22.727504566460013,2.0,DB
2025-06-25 18:17:08.307,-0.001463340650266,-22.75273847734756,2.0,DB
2025-06-25 18:17:08.315,-0.001236331454578,-22.655900197823986,2.0,DB
2025-06-25 18:17:08.322,-0.0009955312534407,-22.42187048351039,2.0,DB
2025-06-25 18:17:08.330,-0.000746305908799,-22.03578465915046,2.0,DB
2025-06-25 18:17:08.338,-0.0004941566314393,-21.483686416806066,2.0,DB
2025-06-25 18:17:08.346,-0.0002445581009733,-20.75319507916977,2.0,DB
2025-06-25 18:17:08.354,-2.795444181538392e-06,-19.834162498025677,2.0,DB
2025-06-25 18:17:08.361,0.0002261929414995,-18.71929537326619,2.0,DB
2025-06-25 18:17:08.369,0.0004379595059914,-17.404719155582562,2.0,DB
2025-06-25 18:17:08.377,0.0006286717955568,-15.89046088460482,2.0,DB
2025-06-25 18:17:08.385,0.0007952110962013,-14.180830353309554,2.0,DB
2025-06-25 18:17:08.393,0.0009352413683282,-12.284681891389557,2.0,DB
2025-06-25 18:17:08.400,0.0010472463231807,-10.215542792194512,2.0,DB
2025-06-25 18:17:08.408,0.0011305344852719,-7.991598878738706,2.0,DB
2025-06-25 18:17:08.416,0.0011852138846057,-5.635532762383956,2.0,DB
2025-06-25 18:17:08.424,0.0012121394835058,-3.174215789828036,2.0,DB
2025-06-25 18:17:08.432,0.0012128375095259,-0.6382602600167118,2.0,DB
2025-06-25 18:17:08.440,0.001189411545785,1.9385560389009004,2.0,DB
2025-06-25 18:17:08.447,0.0011444355583413,4.519975840609308,2.0,DB
2025-06-25 18:17:08.455,0.0010808390593702,7.068037396010826,2.0,DB
2025-06-25 18:17:08.463,0.0010017893768628,9.543913349642274,2.0,DB
2025-06-25 18:17:08.471,0.0009105756079484,11.908785946178956,2.0,DB
2025-06-25 18:17:08.479,0.0008104983342174,14.124729799286603,2.0,DB
2025-06-25 18:17:08.486,0.0007047685957254,16.15557353427011,2.0,DB
2025-06-25 18:17:08.494,0.0005964189761136,17.967712977163114,2.0,DB
2025-06-25 18:17:08.502,0.0004882289788832,19.530851112035915,2.0,DB
2025-06-25 18:17:08.510,0.0003826661907588,20.81864359614296,2.0,DB
2025-06-25 18:17:08.518,0.0002818440208642,21.80923297839554,2.0,DB
2025-06-25 18:17:08.525,0.0001874960748242,22.485659640451885,2.0,DB
2025-06-25 18:17:08.533,0.0001009665136172,22.83614258756123,2.0,DB
2025-06-25 18:17:08.541,2.3215120553824397e-05,22.854228283158463,2.0,DB
2025-06-25 18:17:08.549,-4.51646990470184e-05,22.538810498868703,2.0,DB
2025-06-25 18:17:08.557,-0.000103917114267,21.89402843275427,2.0,DB
2025-06-25 18:17:08.565,-0.000153086595673,20.92905397530377,2.0,DB
2025-06-25 18:17:08.572,-0.0001929745709717,19.65778186756377,2.0,DB
2025-06-25 18:17:08.580,-0.0002240923395139,18.098438540435023,2.0,DB
2025-06-25 18:17:08.588,-0.0002471124028502,16.273126634986767,2.0,DB
2025-06-25 18:17:08.596,-0.0002628201394632,14.207322605414616,2.0,DB
2025-06-25 18:17:08.604,-0.0002720675300234,11.929344453742385,2.0,DB
2025-06-25 18:17:08.611,-0.0002757304621344,9.469805617637665,2.0,DB
2025-06-25 18:17:08.619,-0.0002746709891259,6.861069430964923,2.0,DB
2025-06-25 18:17:08.627,-0.0002697057183019,4.1367165223715245,2.0,DB
2025-06-25 18:17:08.635,-0.0002615811927605,1.3310351467084336,2.0,DB
2025-06-25 18:17:08.643,-0.0002509566887259,-1.5214580998857423,2.0,DB
