Timestamp,ECG_test1_ECGtoHR_LA_RA_CAL,Lead I (LA-RA),Lead II (LL-LA),Lead III (LL-RA),Vx-RL
2025-03-10 13:11:26.034,92.53012048192772,0.056982200110903,-0.0623011335714415,-0.0053193901894056,0.0928599359469855
2025-03-10 13:11:26.036,92.53012048192772,0.0483569744157222,-0.0606812866231689,-0.0123247692669915,0.1052742345361628
2025-03-10 13:11:26.038,92.53012048192772,0.0409866983421294,-0.0601056514298322,-0.0191194104030378,0.1165207573441594
2025-03-10 13:11:26.040,92.53012048192772,0.0353704085077081,-0.0608105378636537,-0.025440586762529,0.1266415308722814
2025-03-10 13:11:26.042,92.53012048192772,0.0319226332340612,-0.0625038162872357,-0.0305816403780928,0.1353527940989421
2025-03-10 13:11:26.044,92.53012048192772,0.0307953458853485,-0.0639978705048806,-0.0332029817663079,0.1419405949518798
2025-03-10 13:11:26.046,92.53012048192772,0.0316005110220528,-0.0631118685516796,-0.0315118145219619,0.1455936587496796
2025-03-10 13:11:26.048,92.53012048192772,0.033345092214645,-0.0572362067859832,-0.0238915715332894,0.1459436130039734
2025-03-10 13:11:26.050,92.53012048192772,0.0347902260640206,-0.0445578332828276,-0.0097680643026108,0.1434176652978028
2025-03-10 13:11:26.052,92.53012048192772,0.0351203217187949,-0.0253898547362276,0.0097300096823869,0.1391677810947023
2025-03-10 13:11:26.054,92.53012048192772,0.0345164830718517,-0.0027505202908219,0.0317655052819392,0.134669606958145
2025-03-10 13:11:26.056,92.53012048192772,0.034217441812201,0.0183929712735682,0.0526099555118568,0.1312910017215245
2025-03-10 13:11:26.058,92.53012048192772,0.0359571404166032,0.033024229004401,0.0689809119417764,0.1300398785943523
2025-03-10 13:11:26.059,92.53012048192772,0.0410709198245693,0.0381522350462622,0.079222697617336,0.1314345580846535
2025-03-10 13:11:26.061,92.53012048192772,0.0497505490520162,0.0339241066000392,0.0836741986548587,0.1353164282400181
2025-03-10 13:11:26.063,92.53012048192772,0.0607992991937816,0.0232403904328579,0.0840392328078575,0.140614069105331
2025-03-10 13:11:26.065,92.53012048192772,0.0719695053067727,0.0102354959844246,0.0822045445136536,0.1453603063231958
2025-03-10 13:11:26.067,92.53012048192772,0.0807513288094812,-0.0014667011664735,0.0792841707894076,0.1472636504710994
2025-03-10 13:11:26.069,92.53012048192772,0.0853426486291791,-0.0098819386548201,0.0754602530141021,0.1447316334913299
2025-03-10 13:11:26.071,92.53012048192772,0.0854365257801682,-0.014832212235903,0.0706038565529866,0.1377844599541797
2025-03-10 13:11:26.073,92.53012048192772,0.0824718186445954,-0.0173442992202762,0.0651270625470314,0.1282297281548302
2025-03-10 13:11:26.075,92.53012048192772,0.0791582414106278,-0.0187659543413137,0.060391830448047,0.1189045140160878
2025-03-10 13:11:26.077,92.53012048192772,0.0783774164957216,-0.0200523631356697,0.0583245970651383,0.1124053460433074
2025-03-10 13:11:26.079,92.53012048192772,0.0818935873686197,-0.0214652638574822,0.0604278675123355,0.1100251233042042
2025-03-10 13:11:26.081,92.53012048192772,0.0895124455447413,-0.0227140829609716,0.0667979067753346,0.1114055501675552
2025-03-10 13:11:26.083,92.53012048192772,0.0991744635263786,-0.0233959918123685,0.0757780159788402,0.1149456588459464
2025-03-10 13:11:26.085,92.53012048192772,0.1079469516715614,-0.0234581942955218,0.084488301653731,0.1186273108918292
2025-03-10 13:11:26.087,92.53012048192772,0.1133401698931992,-0.0233837862790507,0.0899559279367715,0.1207951523203715
2025-03-10 13:11:26.089,92.53012048192772,0.1142382648103324,-0.0239639173990286,0.0902738918889813,0.1205653507697146
2025-03-10 13:11:26.091,92.53012048192772,0.1110796413025227,-0.0257970885198729,0.0852820975482856,0.1178123430922134
2025-03-10 13:11:26.093,92.53012048192772,0.1054127952787477,-0.0288666097223318,0.0765457307003689,0.1129100521068393
2025-03-10 13:11:26.095,92.53012048192772,0.0992030591729279,-0.032526683667763,0.0666759210349984,0.1064610898184069
2025-03-10 13:11:26.097,92.53012048192772,0.0941938554961897,-0.0359535892094037,0.0582398121326371,0.0991467395331248
2025-03-10 13:11:26.099,92.53012048192772,0.0914481712506566,-0.0387710730446396,0.0526766442670301,0.0916877864785834
2025-03-10 13:11:26.100,92.53012048192772,0.0911027345903291,-0.0414284097756992,0.0496738710200888,0.0848284680666906
2025-03-10 13:11:26.102,92.53012048192772,0.0923561867715464,-0.0450986696625096,0.0472570634609074,0.0792562917157166
2025-03-10 13:11:26.104,92.53012048192772,0.0937071376118234,-0.0511565598441676,0.042550124342457,0.0754210931028336
2025-03-10 13:11:26.106,92.53012048192772,0.0934247849424866,-0.0604520874332004,0.0329722444198933,0.0733180567437004
2025-03-10 13:11:26.108,92.53012048192772,0.0901616326856088,-0.0726446388792705,0.0175165411458671,0.0724073373454842
2025-03-10 13:11:26.110,92.53012048192772,0.0835127861765588,-0.0859217779544544,-0.0024094439791645,0.0718198856569927
2025-03-10 13:11:26.112,92.53012048192772,0.0742626960669028,-0.097415030085858,-0.0231527858008899,0.0707957150577681
2025-03-10 13:11:26.114,92.53012048192772,0.0641414029935997,-0.1043459775257417,-0.0402050259738107,0.069092982637825
2025-03-10 13:11:26.116,92.53012048192772,0.0551547865520365,-0.1054401684304709,-0.0502858330472233,0.067100407791966
2025-03-10 13:11:26.118,92.53012048192772,0.048811587868087,-0.1018086867787181,-0.0529975498198686,0.0655769842740623
2025-03-10 13:11:26.120,92.53012048192772,0.0456280840117826,-0.0966630817003827,-0.0510354482864017,0.0651646479877294
2025-03-10 13:11:26.122,92.53012048192772,0.0450920796905602,-0.0938643010277958,-0.0487726715314043,0.0659427635948881
2025-03-10 13:11:26.124,92.53012048192772,0.0460018399057871,-0.0960186015461934,-0.0500172113443598,0.0672846887522708
2025-03-10 13:11:26.126,92.53012048192772,0.0469797015897703,-0.1031585763755507,-0.0561793239595393,0.0681304906605229
2025-03-10 13:11:26.128,92.53012048192772,0.0469936252945265,-0.1127581222294668,-0.0657649455988849,0.0675464610970161
2025-03-10 13:11:26.130,92.53012048192772,0.0457535969022506,-0.1210987055790411,-0.0753455568916471,0.0652484560648043
2025-03-10 13:11:26.132,92.53012048192772,0.0438322475466973,-0.1252703698456117,-0.0814385701242336,0.0617820038358747
2025-03-10 13:11:26.134,92.53012048192772,0.0423910680545299,-0.1247478231914344,-0.0823572025917006,0.0582781826589855
2025-03-10 13:11:26.136,92.53012048192772,0.0425504400772604,-0.1216835816323176,-0.0791335886022755,0.0559636551745408
2025-03-10 13:11:26.138,92.53012048192772,0.0446583842243949,-0.1197117211002138,-0.0750537834384169,0.0557040422814374
2025-03-10 13:11:26.140,92.53012048192772,0.0478501736334151,-0.1218542593193968,-0.0740045316846854,0.0577615126346895
2025-03-10 13:11:26.142,92.53012048192772,0.0502260106822809,-0.1286519779041624,-0.0784264126130076,0.061773984506565
2025-03-10 13:11:26.143,92.53012048192772,0.0496729269829654,-0.1375922259582659,-0.0879197437676664,0.0668752761743261
2025-03-10 13:11:26.145,92.53012048192772,0.0449605009953151,-0.1442778172844862,-0.0993177605313274,0.0719297326343707
2025-03-10 13:11:26.147,92.53012048192772,0.0365218761924365,-0.1448854101381423,-0.1083639776914206,0.0759413031038165
2025-03-10 13:11:26.149,92.53012048192772,0.0264748187403726,-0.1387454466047116,-0.1122710711360849,0.0786331030166428
2025-03-10 13:11:26.151,92.53012048192772,0.0178515569482295,-0.1296995001860637,-0.111848386008587,0.0809759983982258
2025-03-10 13:11:26.153,92.53012048192772,0.0134012495035243,-0.1253589998423485,-0.1119581925417939,0.0853276126174677
2025-03-10 13:11:26.155,92.53012048192772,0.0144779635075837,-0.1343050800547111,-0.1198275581073316,0.0950107993071822
2025-03-10 13:11:26.157,92.53012048192772,0.020431748816903,-0.1622258570307023,-0.1417945490834786,0.1134540198707146
2025-03-10 13:11:26.159,92.53012048192772,0.0287230534561914,-0.2085536245231385,-0.1798310112451615,0.143146069686454
2025-03-10 13:11:26.161,92.53012048192772,0.0357819140814802,-0.2651061232953729,-0.2293246487398695,0.1845784534743016
2025-03-10 13:11:26.163,92.53012048192772,0.0384296123429368,-0.3175866798740648,-0.2791575064556455,0.2352994323198181
2025-03-10 13:11:26.165,92.53012048192772,0.0354368226318349,-0.34972200392886,-0.3142856196480831,0.2893803885325734
2025-03-10 13:11:26.167,92.53012048192772,0.0285739708538676,-0.34859709616444,-0.3200235630723159,0.3378270984665444
2025-03-10 13:11:26.169,92.53012048192772,0.0225382928685999,-0.3089585866018274,-0.2864207308493372,0.3703305206653766
2025-03-10 13:11:26.171,92.53012048192772,0.0235976433581577,-0.2345405054256401,-0.2109432984665687,0.3780607052416124
2025-03-10 13:11:26.173,92.53012048192772,0.0374825193507842,-0.1358322586643255,-0.0983501749421387,0.356365155763101
2025-03-10 13:11:26.175,92.53012048192772,0.067458553387409,-0.0253442561486566,0.0421138623937173,0.3059661535117446
2025-03-10 13:11:26.177,92.53012048192772,0.1132919224408374,0.0875870948719615,0.2008785832239576,0.2319178992541681
2025-03-10 13:11:26.179,92.53012048192772,0.1712330699573136,0.2003986027297717,0.3716312393083767,0.1408038392036211
2025-03-10 13:11:26.181,92.53012048192772,0.2347383943678583,0.318009760741374,0.5527477224070614,0.037636408012802
2025-03-10 13:11:26.183,92.53012048192772,0.2956747236584942,0.4505421123652603,0.7462164040004755,-0.0759639565366377
2025-03-10 13:11:26.184,92.53012048192772,0.3459383216403469,0.6090587502969214,0.9549966406346124,-0.2015393638909172
2025-03-10 13:11:26.186,92.53012048192772,0.3793368497193677,0.8007129982708745,1.1800494174715326,-0.3418777883421387
2025-03-10 13:11:26.188,92.53012048192772,0.393183422060098,1.0242314100306271,1.4174144024121835,-0.4984770936669551
2025-03-10 13:11:26.190,92.53012048192772,0.3887857743548042,1.2662234899298823,1.6550088354716432,-0.6694340055372101
2025-03-10 13:11:26.192,92.53012048192772,0.3703437687174407,1.499351732683001,1.8696950734410525,-0.8483021272230691
2025-03-10 13:11:26.194,92.53012048192772,0.3426597422190077,1.6844999945178236,2.027159309595972,-1.0239503229831883
2025-03-10 13:11:26.196,92.53012048192772,0.3089208172579716,1.7789486995073975,2.0878690904103303,-1.1813007105290296
2025-03-10 13:11:26.198,92.53012048192772,0.2698891471129491,1.7498359774891925,2.0197246990257267,-1.303072994068015
2025-03-10 13:11:26.200,92.53012048192772,0.2249283020852052,1.5879982672423,1.8129261445562208,-1.3728807425105716
2025-03-10 13:11:26.202,92.53012048192772,0.1740498904762994,1.31507556905908,1.4891250356191248,-1.3796021845621758
2025-03-10 13:11:26.204,92.53012048192772,0.11953569479919,0.979120253768299,1.0986555255573454,-1.3217547369782434
2025-03-10 13:11:26.206,92.53012048192772,0.0660668710040859,0.6398190444741808,0.7058854934050703,-1.2095316658601891
2025-03-10 13:11:26.208,92.53012048192772,0.0193074201852403,0.3499552515397122,0.3692622505901685,-1.0626351778642535
2025-03-10 13:11:26.210,92.53012048192772,-0.0161507197526296,0.1413440290378066,0.1251928890681914,-0.9043337712262316
2025-03-10 13:11:26.212,92.53012048192772,-0.0382723335216439,0.0203504042407242,-0.0179223486041969,-0.7545351895181136
2025-03-10 13:11:26.214,92.53012048192772,-0.0478111556054786,-0.0273559973573342,-0.0751675714009922,-0.6250587936619698
2025-03-10 13:11:26.216,92.53012048192772,-0.0474972861088446,-0.0271609549221861,-0.0746586585683389,-0.518635680222017
2025-03-10 13:11:26.218,92.53012048192772,-0.0409064500336967,-0.005842439626316,-0.0467493062615704,-0.431112074920836
2025-03-10 13:11:26.220,92.53012048192772,-0.0315856917777329,0.0152271351303296,-0.0163589722746442,-0.3552531801997576
2025-03-10 13:11:26.222,92.53012048192772,-0.0225340794907019,0.0233291817458999,0.0007946876283776,-0.2845030802317654
2025-03-10 13:11:26.224,92.53012048192772,-0.0158614944134376,0.0146372022610772,-0.0012247057728603,-0.2154805037356421
2025-03-10 13:11:26.225,92.53012048192772,-0.0125409916816785,-0.0076452553240991,-0.0201866596298999,-0.1486001327741459
2025-03-10 13:11:26.227,92.53012048192772,-0.0123745666250058,-0.0363151403563249,-0.0486901186218979,-0.0869836078243638
2025-03-10 13:11:26.229,92.53012048192772,-0.0142931354665244,-0.0634882666651068,-0.0777818127910046,-0.0345109312345169
2025-03-10 13:11:26.231,92.53012048192772,-0.016897725604335,-0.0834008701633081,-0.1002990054318753,0.0059606306366367
2025-03-10 13:11:26.233,92.53012048192772,-0.0189821945337872,-0.0940412315476695,-0.1130238347248635,0.0335956874668705
2025-03-10 13:11:26.235,92.53012048192772,-0.0198438583831407,-0.0972558481967569,-0.1171001141765647,0.0497602845067267
2025-03-10 13:11:26.237,92.53012048192772,-0.0193840863613393,-0.097423016240986,-0.1168075091370653,0.0576153319520994
2025-03-10 13:11:26.239,92.53012048192772,-0.0180928015602273,-0.0992714118594786,-0.1173646188916714,0.0612997692351368
2025-03-10 13:11:26.241,92.53012048192772,-0.0169258635712317,-0.1057465911907773,-0.1226728591789731,0.0648185957343137
2025-03-10 13:11:26.243,92.53012048192772,-0.0169870870194701,-0.1168180020603953,-0.1338054924470686,0.0708877821572376
2025-03-10 13:11:26.245,92.53012048192772,-0.019008645688245,-0.129721971436542,-0.1487310194356076,0.0801799141985461
2025-03-10 13:11:26.247,92.53012048192772,-0.0228508316131265,-0.1404878820072224,-0.163339114854858,0.0913663054174855
2025-03-10 13:11:26.249,92.53012048192772,-0.0273661804021014,-0.145989967031003,-0.1733565475655849,0.1019727034610578
2025-03-10 13:11:26.251,92.53012048192772,-0.0308080546341202,-0.1455195117634065,-0.1763279654083387,0.1096253126786358
2025-03-10 13:11:26.253,92.53012048192772,-0.031609318102909,-0.1411233083471055,-0.1727330243342878,0.1131035973063738
2025-03-10 13:11:26.255,92.53012048192772,-0.029105084985247,-0.1365740302469671,-0.165679511999589,0.112789713280517
2025-03-10 13:11:26.257,92.53012048192772,-0.0238175793651818,-0.1355084052675212,-0.1593263802977426,0.1104185844096512
2025-03-10 13:11:26.259,92.53012048192772,-0.017201103801783,-0.1396670220676651,-0.1568685204381855,0.1083013215781065
2025-03-10 13:11:26.261,92.53012048192772,-0.0110542548981602,-0.1481075607925059,-0.1591622091514646,0.1083514945282135
2025-03-10 13:11:26.263,92.53012048192772,-0.006958041905139,-0.1577610616054057,-0.1647194958352626,0.1113088016004429
2025-03-10 13:11:26.265,92.53012048192772,-0.0060069839803174,-0.1650124082510921,-0.1710197833869043,0.1165106141544905
2025-03-10 13:11:26.267,92.53012048192772,-0.0088325712605036,-0.1674870689085339,-0.1763200301327556,0.1223232386125758
2025-03-10 13:11:26.268,92.53012048192772,-0.0156920640669126,-0.1651671867689753,-0.18085963960644,0.126978075710657
2025-03-10 13:11:26.270,92.53012048192772,-0.0264035448526674,-0.1603250875082567,-0.1867290199569939,0.1293511661335452
2025-03-10 13:11:26.272,92.53012048192772,-0.0401208166791205,-0.1563437280330738,-0.196464931159659,0.129341864735059
2025-03-10 13:11:26.274,92.53012048192772,-0.055158820093678,-0.1560244864361986,-0.2111836918439422,0.1277853492418934
2025-03-10 13:11:26.276,92.53012048192772,-0.0691327143463816,-0.1602223320909289,-0.2293554306097427,0.1260354009541535
2025-03-10 13:11:26.278,92.53012048192772,-0.0795217849197214,-0.167476625200274,-0.2469987931190908,0.1254088879980462
2025-03-10 13:11:26.280,92.53012048192772,-0.0845001053420133,-0.1748019334394288,-0.2593024205654233,0.1266631123998487
2025-03-10 13:11:26.282,92.53012048192772,-0.0836616692591631,-0.1792216208824941,-0.262883670678536,0.1296581733344875
2025-03-10 13:11:26.284,92.53012048192772,-0.0782648150015879,-0.1792641234756307,-0.2575293177602004,0.1333506250942491
2025-03-10 13:11:26.286,92.53012048192772,-0.0708515649951198,-0.1756721988884472,-0.2465241419331641,0.1362185880338474
2025-03-10 13:11:26.288,92.53012048192772,-0.0644081744457949,-0.1709699541823948,-0.235378505479357,0.1370339057547606
2025-03-10 13:11:26.290,92.53012048192772,-0.0614068031070354,-0.1681061944000854,-0.2295133731880422,0.1355940911943431
2025-03-10 13:11:26.292,92.53012048192772,-0.0630319642771357,-0.1688811560016329,-0.2319134947927581,0.1329076695022567
2025-03-10 13:11:26.294,92.53012048192772,-0.0687766211446651,-0.1729951840465268,-0.2417721785117593,0.1306547683253059
2025-03-10 13:11:26.296,92.53012048192772,-0.0765290736899326,-0.1782172311072269,-0.2547466768792803,0.1302775552394551
2025-03-10 13:11:26.298,92.53012048192772,-0.0832240719566189,-0.181550976151719,-0.2647754189101329,0.1322835489417616
2025-03-10 13:11:26.300,92.53012048192772,-0.0859582492911299,-0.1807636006568832,-0.2667222194512385,0.1361171980315528
2025-03-10 13:11:26.302,92.53012048192772,-0.0831785300441256,-0.1755101580508441,-0.2586890563131828,0.1405515929230649
2025-03-10 13:11:26.304,92.53012048192772,-0.0753864496762027,-0.1675364840469751,-0.2429233006930044,0.1442960185578337
2025-03-10 13:11:26.306,92.53012048192772,-0.0649877774469019,-0.159897651594306,-0.22488579480126,0.1465119903681238
2025-03-10 13:11:26.308,92.53012048192772,-0.0553633931009431,-0.155575677323216,-0.2109394349928459,0.1470715114374513
2025-03-10 13:11:26.309,92.53012048192772,-0.0496058858366453,-0.1561448016952516,-0.2057510508959996,0.1465167708586845
2025-03-10 13:11:26.311,92.53012048192772,-0.0494405875988122,-0.1611066756882271,-0.2105476254071357,0.1457597584008741
2025-03-10 13:11:26.313,92.53012048192772,-0.0547026309453272,-0.1681942465345703,-0.2228972383096868,0.1456612130922325
2025-03-10 13:11:26.315,92.53012048192772,-0.0635257973408208,-0.1744620665092275,-0.237988223359234,0.1467109947922521
2025-03-10 13:11:26.317,92.53012048192772,-0.0731490670465836,-0.1776045042378149,-0.2507539294729954,0.1489604463602225
2025-03-10 13:11:26.319,92.53012048192772,-0.0809859835440049,-0.1768768198753558,-0.257863160315989,0.1521627070136548
2025-03-10 13:11:26.321,92.53012048192772,-0.085480967557917,-0.1732244330010073,-0.2587057562042376,0.1559610502351788
2025-03-10 13:11:26.323,92.53012048192772,-0.0864293580475493,-0.1686051242529112,-0.2550348367246674,0.1600082231518783
2025-03-10 13:11:26.325,92.53012048192772,-0.0847598766641607,-0.1648756902342912,-0.2496359201047965,0.1639962067942041
2025-03-10 13:11:26.327,92.53012048192772,-0.0820094556645357,-0.1628416216449158,-0.2448514292720992,0.1676333651232788
2025-03-10 13:11:26.329,92.53012048192772,-0.0797403092188136,-0.1619613452705963,-0.241702005166429,0.1706246166006742
2025-03-10 13:11:26.331,92.53012048192772,-0.0790597717754381,-0.1607904787871112,-0.2398505999168005,0.1727041712087778
2025-03-10 13:11:26.333,92.53012048192772,-0.0803362020266442,-0.1578411249724245,-0.2381776750159633,0.1737352613328662
2025-03-10 13:11:26.335,92.53012048192772,-0.0831755662915529,-0.1523793892092355,-0.2355553021939119,0.1738460478474372
2025-03-10 13:11:26.337,92.53012048192772,-0.0866736835174745,-0.1447996640931691,-0.2314736930128663,0.1735412506166372
2025-03-10 13:11:26.339,92.53012048192772,-0.0898534797837648,-0.1364520988924272,-0.2263059228214526,0.1737106336902563
2025-03-10 13:11:26.341,92.53012048192772,-0.0920839807114288,-0.1290369327825243,-0.2211212563994233,0.1754604929515431
2025-03-10 13:11:26.343,92.53012048192772,-0.0932597473609054,-0.1238514792484702,-0.2171115682670162,0.1797502150762306
2025-03-10 13:11:26.345,92.53012048192772,-0.0936525351189806,-0.1212342496364518,-0.2148871251366747,0.1869125899400139
2025-03-10 13:11:26.347,92.53012048192772,-0.0935666664006125,-0.1204572388268122,-0.2140242442978505,0.1962611927737705
2025-03-10 13:11:26.349,92.53012048192772,-0.0930655992198398,-0.1200981748188597,-0.2131641117747429,0.2060881911555846
2025-03-10 13:11:26.350,92.53012048192772,-0.0919577555736201,-0.1186931961622974,-0.2106512881351375,0.2142531408871195
2025-03-10 13:11:26.352,92.53012048192772,-0.0900003322330548,-0.1153523793822147,-0.2053530466955728,0.2191767360230061
2025-03-10 13:11:26.354,92.53012048192772,-0.0871147751432046,-0.1100667932988666,-0.1971819022311225,0.220679988349796
2025-03-10 13:11:26.356,92.53012048192772,-0.0834443732377946,-0.1036053638138597,-0.1870500695724685,0.2201513683570627
2025-03-10 13:11:26.358,92.53012048192772,-0.079252766729826,-0.097097061838867,-0.1763501598287524,0.2199575162028042
2025-03-10 13:11:26.360,92.53012048192772,-0.0747836445525536,-0.0915212043727518,-0.1663051789141323,0.2224255686420266
2025-03-10 13:11:26.362,92.53012048192772,-0.070186436046722,-0.0873302283142416,-0.1575169930564705,0.2288555367790425
2025-03-10 13:11:26.364,92.53012048192772,-0.0655241475946045,-0.0843239858765074,-0.1498484608507871,0.2389578218965852
2025-03-10 13:11:26.366,92.53012048192772,-0.0608230829524978,-0.0817666324980574,-0.1425900415016803,0.2509738978639777
2025-03-10 13:11:26.368,92.53012048192772,-0.0561312424884515,-0.0786588278633105,-0.1347903950760324,0.2624850099552848
2025-03-10 13:11:26.370,92.53012048192772,-0.0515732102148753,-0.0740548960396574,-0.1256284296656845,0.2715555882434197
2025-03-10 13:11:26.372,92.53012048192772,-0.0473691617695302,-0.0673226768420737,-0.114692160728084,0.2776254064521408
2025-03-10 13:11:26.374,92.53012048192772,-0.0437559116505682,-0.0582758525307866,-0.1020320850180022,0.2816794336214568
2025-03-10 13:11:26.376,92.53012048192772,-0.0408017675765322,-0.0471660019674502,-0.087968089106467,0.2856274914976002
2025-03-10 13:11:26.378,92.53012048192772,-0.0382357775012511,-0.0345841258140523,-0.0728202215991864,0.2912611447869727
2025-03-10 13:11:26.380,92.53012048192772,-0.0354614600673191,-0.021342327914711,-0.0568041049760055,0.2993853845499245
2025-03-10 13:11:26.382,92.53012048192772,-0.0317933932092124,-0.0083596731640158,-0.0401533820645138,0.3095919853598182
2025-03-10 13:11:26.384,92.53012048192772,-0.0267580063456264,0.0034914538075171,-0.0232668669176123,0.3206851902466447
2025-03-10 13:11:26.386,92.53012048192772,-0.0202510581607904,0.0136203019486938,-0.0066310692776438,0.3313429555765835
2025-03-10 13:11:26.388,92.53012048192772,-0.0124920699180071,0.0219747302584101,0.0094823485834333,0.3405862169566114
2025-03-10 13:11:26.390,92.53012048192772,-0.0038831995403481,0.02915333848452,0.0252698284846202,0.3479591212530277
2025-03-10 13:11:26.392,92.53012048192772,0.0051072122001865,0.0362255730104262,0.0413324760350262,0.3535474939961965
2025-03-10 13:11:26.393,92.53012048192772,0.0140196013595294,0.0442821409993809,0.058301434455802,0.3578925340460275
2025-03-10 13:11:26.395,92.53012048192772,0.0224801508514297,0.0539291412531296,0.0764089854682636,0.3617573628445489
2025-03-10 13:11:26.397,92.53012048192772,0.0302869763703351,0.0649980387969087,0.0952847098000349,0.3657968995722804
2025-03-10 13:11:26.399,92.53012048192772,0.0374626869322322,0.076634499200436,0.1140968820440064,0.3703006442322432
2025-03-10 13:11:26.401,92.53012048192772,0.0442317109288268,0.0877384653027076,0.1319698734341297,0.3750913602433773
2025-03-10 13:11:26.403,92.53012048192772,0.0509118964018788,0.0975499097021022,0.1484615046077273,0.379496015657166
2025-03-10 13:11:26.405,92.53012048192772,0.0577463583816497,0.1060682586064509,0.1638143167942649,0.3823515518241768
2025-03-10 13:11:26.407,92.53012048192772,0.064749946780519,0.1140427066389228,0.1787923545179572,0.3821997456858652
2025-03-10 13:11:26.409,92.53012048192772,0.0716728634450579,0.1225261389461965,0.194198704763023,0.377799408327165
2025-03-10 13:11:26.411,92.53012048192772,0.0781314449679967,0.1322910492687382,0.2104221978606226,0.3687897338578957
2025-03-10 13:11:26.413,92.53012048192772,0.0838407350534653,0.1434770265845722,0.2273174664997314,0.3561266147777095
2025-03-10 13:11:26.415,92.53012048192772,0.0888058602928641,0.155611889467317,0.2444174558586374,0.3419936401754338
2025-03-10 13:11:26.417,92.53012048192772,0.0933564324850561,0.1678804170056177,0.2612365568385273,0.3291372138629407
2025-03-10 13:11:26.419,92.53012048192772,0.0980092701448696,0.1794470033190419,0.2774559820809236,0.3198458889404954
2025-03-10 13:11:26.421,92.53012048192772,0.1032421232507194,0.1897225764735502,0.2929644096264566,0.3150243367867991
2025-03-10 13:11:26.423,92.53012048192772,0.109298057537452,0.1985286226385802,0.3078263913656791,0.3138559107917088
2025-03-10 13:11:26.425,92.53012048192772,0.1160968904388579,0.2061165873306324,0.3222131902312958,0.3142538614351763
2025-03-10 13:11:26.427,92.53012048192772,0.1232398254350955,0.2130158938396463,0.3362554329805811,0.3138086636994721
2025-03-10 13:11:26.429,92.53012048192772,0.1300467405894386,0.2197317585601227,0.3497782140700418,0.3106561340835016
2025-03-10 13:11:26.431,92.53012048192772,0.1356123086987854,0.2263836672899505,0.3619956921060463,0.3038611872955537
2025-03-10 13:11:26.433,92.53012048192772,0.1389296820433105,0.2324499172189641,0.3713793165777964,0.2933328556019147
2025-03-10 13:11:26.434,92.53012048192772,0.1391095217237916,0.2367959393359918,0.3759051795922761,0.2795595402883499
2025-03-10 13:11:26.436,92.53012048192772,0.1356412775360133,0.2380429718234116,0.3736839691342614,0.263403992232667
2025-03-10 13:11:26.438,92.53012048192772,0.1285935934214568,0.2351311443751968,0.3637244588312309,0.2459830559530089
2025-03-10 13:11:26.440,92.53012048192772,0.1186579065377298,0.2278072320114509,0.346464860841818,0.2285272168932487
2025-03-10 13:11:26.442,92.53012048192772,0.1069832645710819,0.2168186964505436,0.3238016845497261,0.212131021234188
2025-03-10 13:11:26.444,92.53012048192772,0.0948318330601362,0.2037540136055607,0.2985855713943777,0.1973853962852995
2025-03-10 13:11:26.446,92.53012048192772,0.0831832126099202,0.1905897475807929,0.2737726860877785,0.1840199273538421
2025-03-10 13:11:26.448,92.53012048192772,0.0724640817573222,0.1790388704022846,0.2515026792094088,0.1708543898793614
2025-03-10 13:11:26.450,92.53012048192772,0.0625395270384207,0.1698469810258054,0.2323862362733813,0.1563223936445677
2025-03-10 13:11:26.452,92.53012048192772,0.0529888355152218,0.1623236031996329,0.2153121681068245,0.1394132258728036
2025-03-10 13:11:26.454,92.53012048192772,0.0435302356934769,0.154458842326661,0.1979888086213042,0.1204187675832664
2025-03-10 13:11:26.456,92.53012048192772,0.034321534690501,0.1437392682788499,0.1780605347935502,0.1009242792465304
2025-03-10 13:11:26.458,92.53012048192772,0.0258765092911542,0.128332317924206,0.1542085602546326,0.0830555095264888
2025-03-10 13:11:26.460,92.53012048192772,0.018591099104909,0.1080230863303739,0.1266139196614429,0.0685111544153039
2025-03-10 13:11:26.462,92.53012048192772,0.012234563078781,0.0844032943001345,0.0966375927550845,0.0579384079290077
2025-03-10 13:11:26.464,92.53012048192772,0.0058799623906341,0.0602390198673678,0.0661187187542625,0.0508735103412962
2025-03-10 13:11:26.466,92.53012048192772,-0.0015756270611436,0.03838415896343,0.0368082695076317,0.0461215602077152
2025-03-10 13:11:26.468,92.53012048192772,-0.0106634953392543,0.0207858841146612,0.0101221275001374,0.0422868835652781
2025-03-10 13:11:26.470,92.53012048192772,-0.0209438759726651,0.0079775951881501,-0.0129665409169308,0.0381882036633048
2025-03-10 13:11:26.472,92.53012048192772,-0.0312442343260199,-0.0008621863295043,-0.0321066796228634,0.0330192756177159
2025-03-10 13:11:26.474,92.53012048192772,-0.0403245126472753,-0.0074578592129178,-0.0477826296549186,0.0262704871139388
2025-03-10 13:11:26.475,92.53012048192772,-0.0474873271337627,-0.0138381622331658,-0.0613257460021157,0.0175702844899776
2025-03-10 13:11:26.477,92.53012048192772,-0.0527768119720711,-0.0217705247682444,-0.0745475922454425,0.0066705153511062
2025-03-10 13:11:26.479,92.53012048192772,-0.0567508542009832,-0.0322995537518838,-0.0890506623619073,-0.0063119908431265
2025-03-10 13:11:26.481,92.53012048192772,-0.0600762617910692,-0.0454128295207056,-0.1054893446496813,-0.0205514489543292
2025-03-10 13:11:26.483,92.53012048192772,-0.0632230836828429,-0.0599178609256846,-0.1231411968826963,-0.0344215550900807
2025-03-10 13:11:26.485,92.53012048192772,-0.0663803819124424,-0.0736837220464471,-0.1400643551594424,-0.0459192589299266
2025-03-10 13:11:26.487,92.53012048192772,-0.069553726369584,-0.0843068095947061,-0.1538607860725524,-0.05349440888973
2025-03-10 13:11:26.489,92.53012048192772,-0.0727235295138147,-0.090016628836063,-0.1627404073505296,-0.0568071143476114
2025-03-10 13:11:26.491,92.53012048192772,-0.0759263828690239,-0.0904615370811676,-0.1663881678411143,-0.0568999293563232
2025-03-10 13:11:26.493,92.53012048192772,-0.0791818420435904,-0.0870309546501949,-0.1662130434891487,-0.0556378495265116
2025-03-10 13:11:26.495,92.53012048192772,-0.0823416917943271,-0.0825173663439338,-0.1648593038639283,-0.0547529903871589
2025-03-10 13:11:26.497,92.53012048192772,-0.0850632392866573,-0.0801398509018536,-0.1652033348725141,-0.0550716350035618
2025-03-10 13:11:26.499,92.53012048192772,-0.0870251178508633,-0.0822363004359113,-0.1692616619496401,-0.0563602651153973
2025-03-10 13:11:26.501,92.53012048192772,-0.0882485192396976,-0.0891925528322256,-0.1774413147212301,-0.0578140428660713
2025-03-10 13:11:26.503,92.53012048192772,-0.0892254621632987,-0.0992033539947189,-0.188429057789169,-0.0587880900873974
2025-03-10 13:11:26.505,92.53012048192772,-0.0906832164770632,-0.1090987292662151,-0.199782186345467,-0.0592372225285494
2025-03-10 13:11:26.507,92.53012048192772,-0.0931219439096132,-0.1158545182889663,-0.2089767017627833,-0.0595950553316753
2025-03-10 13:11:26.509,87.02549575070822,-0.0964618765966829,-0.1179648216848094,-0.2144269368069094,-0.0602754993757359
2025-03-10 13:11:26.511,87.02549575070822,-0.1000532534867283,-0.1159461084468786,-0.2159995994301208,-0.0612575536287998
2025-03-10 13:11:26.513,87.02549575070822,-0.1030221922603943,-0.111791405079731,-0.2148138338263653,-0.0621121872580576
2025-03-10 13:11:26.515,87.02549575070822,-0.104693310534138,-0.107780879792247,-0.212474425824701,-0.0624378202424538
2025-03-10 13:11:26.517,87.02549575070822,-0.1048284265083608,-0.1053352069785418,-0.2101638680174556,-0.0623106641812239
2025-03-10 13:11:26.518,87.02549575070822,-0.1036126147758084,-0.1044957345180784,-0.2081085828699687,-0.0623443316333155
2025-03-10 13:11:26.520,87.02549575070822,-0.1014995320126406,-0.1042323438828413,-0.2057321085214675,-0.0632910373025993
2025-03-10 13:11:26.522,87.02549575070822,-0.0990477949651681,-0.1033073196347329,-0.202355346272322,-0.0654775128499891
2025-03-10 13:11:26.524,87.02549575070822,-0.0967829830494389,-0.1011214253875211,-0.1979046391483389,-0.0684699965450277
2025-03-10 13:11:26.526,87.02549575070822,-0.0950519680586972,-0.0980364559811912,-0.1930886537842312,-0.0711984267784754
2025-03-10 13:11:26.528,87.02549575070822,-0.0938733053828601,-0.0950604714849158,-0.1889340056460134,-0.0724757904234537
2025-03-10 13:11:26.530,87.02549575070822,-0.0928706697877099,-0.0932004858349353,-0.1860713834460123,-0.0715966740114374
2025-03-10 13:11:26.532,87.02549575070822,-0.0913916819964011,-0.0929263301247105,-0.184318239010757,-0.0686772036087534
2025-03-10 13:11:26.534,87.02549575070822,-0.0888207322160116,-0.0940027825157993,-0.1828237407140761,-0.0646136563149413
2025-03-10 13:11:26.536,87.02549575070822,-0.0849614497108983,-0.0956619772180061,-0.1806236520275236,-0.0607414918518021
2025-03-10 13:11:26.538,87.02549575070822,-0.0802840996637808,-0.0969406755014773,-0.1772249993935067,-0.0583180440918569
2025-03-10 13:11:26.540,87.02549575070822,-0.0758524762151416,-0.0970180111252341,-0.1728707106969272,-0.0579836759843223
2025-03-10 13:11:26.542,87.02549575070822,-0.0728912878200719,-0.0954434171094074,-0.1683349274006862,-0.0594664493612811
2025-03-10 13:11:26.544,87.02549575070822,-0.0721997633101751,-0.0921958453167621,-0.1643958301955248,-0.0617509085507741
2025-03-10 13:11:26.546,87.02549575070822,-0.0737841754030625,-0.087590995764504,-0.1613753918244072,-0.0636010043786556
2025-03-10 13:11:26.548,87.02549575070822,-0.0769654349829543,-0.0821237893263326,-0.1590894440627202,-0.0640374509854027
2025-03-10 13:11:26.550,87.02549575070822,-0.0808633453044138,-0.0763304831972823,-0.1571940473792261,-0.0624849705617636
2025-03-10 13:11:26.552,87.02549575070822,-0.084879857757426,-0.0706850442286037,-0.1555651200264392,-0.0586926058420027
2025-03-10 13:11:26.554,87.02549575070822,-0.0888463524622111,-0.0654949811718851,-0.1543415508727917,-0.0527403301877375
2025-03-10 13:11:26.556,87.02549575070822,-0.0927972179987134,-0.0608028564035989,-0.153600290856684,-0.0452559366850395
2025-03-10 13:11:26.558,87.02549575070822,-0.0966175725154043,-0.0563863253631226,-0.1530041135409832,-0.0375960797515762
2025-03-10 13:11:26.559,87.02549575070822,-0.0998833772678539,-0.0519440587185286,-0.1518276508295881,-0.031617227903365
2025-03-10 13:11:26.561,87.02549575070822,-0.1020492744656073,-0.0474083836081746,-0.1494578720666861,-0.0289592146069111
2025-03-10 13:11:26.563,87.02549575070822,-0.102869208550534,-0.0431790679276388,-0.146048489605533,-0.0302070786543079
2025-03-10 13:11:26.565,87.02549575070822,-0.1027342741276773,-0.0400825708647477,-0.1428170572679143,-0.034465424986333
2025-03-10 13:11:26.567,87.02549575070822,-0.1026212475630916,-0.0390106460871342,-0.1416321051156211,-0.0396573309587895
2025-03-10 13:11:26.569,87.02549575070822,-0.1035896287117476,-0.0403689156315898,-0.1439587550529487,-0.043444920565131
2025-03-10 13:11:26.571,87.02549575070822,-0.1061108786705559,-0.0436060238997529,-0.149717112567556,-0.0443202874362866
2025-03-10 13:11:26.573,87.02549575070822,-0.1097054886020562,-0.0471451074218726,-0.156850805321723,-0.0423081795316902
2025-03-10 13:11:26.575,87.02549575070822,-0.1131954562584148,-0.0489035164682681,-0.1620991813022284,-0.0389031794823064
2025-03-10 13:11:26.577,87.02549575070822,-0.1154197513837774,-0.0472503982366363,-0.1626703574282657,-0.0362475318572587
2025-03-10 13:11:26.579,87.02549575070822,-0.1158784368425155,-0.0419159991726014,-0.1577946430129886,-0.0359711588509157
2025-03-10 13:11:26.581,87.02549575070822,-0.1148322391892828,-0.0343075610585661,-0.1491400064225299,-0.0383495411651362
2025-03-10 13:11:26.583,87.02549575070822,-0.1128644135075343,-0.0269890003660372,-0.1398536192533712,-0.0422770194221969
2025-03-10 13:11:26.585,87.02549575070822,-0.1103666044280844,-0.0225604629713306,-0.1329272720457186,-0.0460110513114611
2025-03-10 13:11:26.587,87.02549575070822,-0.107404155330711,-0.0225188576148086,-0.1299232169265577,-0.0481230779584597
2025-03-10 13:11:26.589,87.02549575070822,-0.1039910300711447,-0.0266673554614285,-0.1306585888920496,-0.0480678903575034
2025-03-10 13:11:26.591,87.02549575070822,-0.1004220572897566,-0.0332963210570953,-0.1337185810835462,-0.0462302921934942
2025-03-10 13:11:26.593,87.02549575070822,-0.0973116042971952,-0.0399484440307347,-0.1372602503975689,-0.043697698254257
2025-03-10 13:11:26.595,87.02549575070822,-0.0952839685678155,-0.044378678263899,-0.1396628481713687,-0.0419479294398912
2025-03-10 13:11:26.597,87.02549575070822,-0.0945551149051516,-0.045348939856639,-0.1399042553252565,-0.042366010000489
2025-03-10 13:11:26.599,87.02549575070822,-0.0947289642884608,-0.0429988485818182,-0.1377280126565406,-0.0455409151501837
2025-03-10 13:11:26.601,87.02549575070822,-0.0949685218391843,-0.0386452375519398,-0.1336139584506935,-0.0506911672219696
2025-03-10 13:11:26.602,87.02549575070822,-0.0944253999811954,-0.0340695861058786,-0.1284951845018319,-0.0557836633296408
2025-03-10 13:11:26.604,87.02549575070822,-0.0926372068499496,-0.0306405845718737,-0.1232779892676256,-0.0585353461166966
2025-03-10 13:11:26.606,87.02549575070822,-0.0896594986228386,-0.0287632738154134,-0.1184229697489954,-0.0577676569992433
2025-03-10 13:11:26.608,87.02549575070822,-0.0859209038603406,-0.0279486481164418,-0.1138697487287005,-0.0541737560045373
2025-03-10 13:11:26.610,87.02549575070822,-0.0819741538975412,-0.0273731932985392,-0.1093475433213073,-0.0499013581224326
2025-03-10 13:11:26.612,87.02549575070822,-0.0783149306024217,-0.0264969318463221,-0.1048120578723058,-0.0472130242081717
2025-03-10 13:11:26.614,87.02549575070822,-0.0753087108413352,-0.0253460199102823,-0.1006549254335696,-0.0471282914850748
2025-03-10 13:11:26.616,87.02549575070822,-0.0731693145665746,-0.0243425050819828,-0.0975120136095693,-0.0489041241279444
2025-03-10 13:11:26.618,87.02549575070822,-0.0719434186793629,-0.023855759881179,-0.0957993718770123,-0.050630441238965
2025-03-10 13:11:26.620,87.02549575070822,-0.0715117434528617,-0.0238109182801362,-0.0953228545031127,-0.0505313606696924
2025-03-10 13:11:26.622,87.02549575070822,-0.0716428249807544,-0.0236472740428253,-0.095290291320889,-0.048131590973946
2025-03-10 13:11:26.624,87.02549575070822,-0.072107809892569,-0.0226679561329926,-0.0947759578637237,-0.0445461112755168
2025-03-10 13:11:26.626,87.02549575070822,-0.0728102808316184,-0.020510635621902,-0.0933211077808699,-0.0417622621341704
2025-03-10 13:11:26.628,87.02549575070822,-0.0738494801771179,-0.0173701386681891,-0.0912198095730341,-0.0414331531219316
2025-03-10 13:11:26.630,87.02549575070822,-0.0754564176593629,-0.0138386110082611,-0.0892952187180305,-0.043904148740752
2025-03-10 13:11:26.632,87.02549575070822,-0.0778176909841353,-0.0105670108019965,-0.0883848911365838,-0.0479560002461941
2025-03-10 13:11:26.634,87.02549575070822,-0.0808749980950463,-0.0080428863171405,-0.0889180731118786,-0.0513627672448453
2025-03-10 13:11:26.636,87.02549575070822,-0.0842053693099669,-0.0065700951766265,-0.0907756526366619,-0.0519847182512154
2025-03-10 13:11:26.638,87.02549575070822,-0.0870604205420758,-0.0063067402957955,-0.0933673485441262,-0.0488287245354955
2025-03-10 13:11:26.640,87.02549575070822,-0.0886016298219401,-0.0072123634351855,-0.0958141805791082,-0.0425035990899874
2025-03-10 13:11:26.642,87.02549575070822,-0.088286202992562,-0.0089259356864854,-0.0972123256016686,-0.0348564803453604
2025-03-10 13:11:26.643,87.02549575070822,-0.0862231836457492,-0.0107305021743529,-0.096953872263092,-0.0280495632648741
2025-03-10 13:11:26.645,87.02549575070822,-0.0832429339405651,-0.0117300361604718,-0.0949731559622453,-0.0235820472104566
2025-03-10 13:11:26.647,87.02549575070822,-0.0805462791535403,-0.0112026095170817,-0.0917490738815839,-0.0216936908365982
2025-03-10 13:11:26.649,87.02549575070822,-0.0790800549625183,-0.0089365599661831,-0.0880167994940388,-0.0213611888121358
2025-03-10 13:11:26.651,87.02549575070822,-0.0789903066996357,-0.0053409814140697,-0.0843314721136644,-0.0208643132629878
2025-03-10 13:11:26.653,87.02549575070822,-0.0794586186997684,-0.0012741581424822,-0.0807329603962978,-0.0186775587836888
2025-03-10 13:11:26.655,87.02549575070822,-0.0789889590170171,0.002280955241923,-0.0767081869845828,-0.0142557063374977
2025-03-10 13:11:26.657,87.02549575070822,-0.0759762868909035,0.0045183381132658,-0.0714581316767321,-0.0082710435738087
2025-03-10 13:11:26.659,87.02549575070822,-0.0692925784006318,0.0050178893611162,-0.0642748715798353,-0.0021490348514099
2025-03-10 13:11:26.661,87.02549575070822,-0.0586727033629245,0.0038949857752168,-0.0547778996652021,0.0028038589828749
2025-03-10 13:11:26.663,87.02549575070822,-0.0447933705761394,0.0019054616717559,-0.04288809041528,0.0061259218006457
2025-03-10 13:11:26.665,87.02549575070822,-0.0290556108629548,0.000434629139116,-0.0286211626212836,0.0083605880338078
2025-03-10 13:11:26.667,87.02549575070822,-0.013188560441155,0.0012647595613426,-0.0119239812020193,0.0106401772698499
2025-03-10 13:11:26.669,87.02549575070822,0.0011525073957832,0.0060863028618532,0.0072386304026409,0.0140304517041822
2025-03-10 13:11:26.671,87.02549575070822,0.0126819718172306,0.0158669689676818,0.0285487612706689,0.0190291919711534
2025-03-10 13:11:26.673,87.02549575070822,0.0206972913650725,0.0303345986129,0.0510317107210793,0.0254200449534158
2025-03-10 13:11:26.675,87.02549575070822,0.025270542753645,0.0478554923548737,0.0731258561086747,0.0324514597576152
2025-03-10 13:11:26.677,87.02549575070822,0.0273390374672339,0.065846364861053,0.0931852236660285,0.039175058368949
2025-03-10 13:11:26.679,87.02549575070822,0.0284995156507145,0.081600148556354,0.1100994859999345,0.0447578506063722
2025-03-10 13:11:26.681,87.02549575070822,0.0304517049499348,0.0931729195747418,0.1236244468639892,0.0486733345890122
2025-03-10 13:11:26.683,87.02549575070822,0.0343419378474042,0.0999247922151894,0.134266552963247,0.0508129582927499
2025-03-10 13:11:26.684,87.02549575070822,0.0404022555885186,0.1024885155139731,0.1428905944917071,0.0515967303956754
2025-03-10 13:11:26.686,87.02549575070822,0.0481155372412875,0.1022464666275048,0.1503618276199022,0.0520668261768374
2025-03-10 13:11:26.688,87.02549575070822,0.0567934232296751,0.1006348958044952,0.157428143028302,0.0538562884838307
2025-03-10 13:11:26.690,87.02549575070822,0.0661538401162488,0.0986309188938408,0.1647845831941151,0.0589029267792996
2025-03-10 13:11:26.692,87.02549575070822,0.0764266765377568,0.0966145428950855,0.1730410438437171,0.0687682416209854
2025-03-10 13:11:26.694,87.02549575070822,0.0878092751999102,0.0945560751149314,0.1823651750576786,0.0834734969302246
2025-03-10 13:11:26.696,87.02549575070822,0.0996165156051505,0.092320685969561,0.191937026765783,0.1000598009331384
2025-03-10 13:11:26.698,87.02549575070822,0.109830819431508,0.0898866021936692,0.1997172473291762,0.1116155944480798
2025-03-10 13:11:26.700,87.02549575070822,0.1155728618220177,0.087382681520654,0.202955369536566,0.1079052125283603
2025-03-10 13:11:26.702,87.02549575070822,0.1143433464301477,0.0849636626792037,0.1993068356914414,0.0783981698748765
2025-03-10 13:11:26.704,87.02549575070822,0.1052886579403128,0.0826212499292668,0.1879097347089998,0.0171983529418026
2025-03-10 13:11:26.706,87.02549575070822,0.089738202025711,0.0800732277772338,0.1698112568039688,-0.0723346951281071
2025-03-10 13:11:26.708,87.02549575070822,0.0707854488135659,0.0768497901599367,0.1476350661214379,-0.1763100885430202
2025-03-10 13:11:26.710,87.02549575070822,0.0522290572383682,0.0725837338777608,0.1248126184812416,-0.2741859737942901
2025-03-10 13:11:26.712,87.02549575070822,0.0373869667436155,0.0673516209544263,0.1047384153957719,-0.3465192907871433
2025-03-10 13:11:26.714,87.02549575070822,0.0281993038236523,0.0618133761801586,0.0900125081321441,-0.3824471361228105
2025-03-10 13:11:26.716,87.02549575070822,0.0248761450814997,0.0569721514233369,0.0818481250913312,-0.3827131863702194
2025-03-10 13:11:26.718,87.02549575070822,0.0261894038283459,0.0536297904349534,0.0798190232489763,-0.3571005275338247
2025-03-10 13:11:26.720,87.02549575070822,0.0302681504299735,0.0518682273401762,0.0821362070380985,-0.3186752452568376
2025-03-10 13:11:26.722,87.02549575070822,0.0354872361622989,0.0509122199367702,0.086399285532413,-0.278476994138105
2025-03-10 13:11:26.724,87.02549575070822,0.0409920650076245,0.0494845406079928,0.0904764351545115,-0.2429166692218359
2025-03-10 13:11:26.726,87.02549575070822,0.0466897460132979,0.0464606663626095,0.0931502420442032,-0.2139465789923718
2025-03-10 13:11:26.727,87.02549575070822,0.0529105945975805,0.0414998509607386,0.0944102754467037,-0.1907171203989523
2025-03-10 13:11:26.729,87.02549575070822,0.0600645232018862,0.0354022954067735,0.095466648823836,-0.1713305739308384
2025-03-10 13:11:26.731,87.02549575070822,0.0684433232488967,0.0300763806060012,0.0985195344617476,-0.1539468571004341
2025-03-10 13:11:26.733,87.02549575070822,0.0781055502868839,0.0280884494566348,0.1061938307302384,-0.1372068355222648
2025-03-10 13:11:26.735,87.02549575070822,0.088740739136416,0.0318416735487326,0.1205822439687542,-0.1203067588977199
2025-03-10 13:11:26.737,87.02549575070822,0.0995266829817185,0.0425722546250463,0.1420987690750146,-0.1030178411869551
2025-03-10 13:11:26.739,87.02549575070822,0.1091253170408866,0.059546677294108,0.1686718259020308,-0.0856744770727155
2025-03-10 13:11:26.741,87.02549575070822,0.1159825988540034,0.0799360582497394,0.195918488750308,-0.0689681295021106
2025-03-10 13:11:26.743,87.02549575070822,0.1189408242710177,0.0996398469068034,0.2185805029558263,-0.0534981426483581
2025-03-10 13:11:26.745,87.02549575070822,0.1179086866470473,0.1148129748962282,0.2327214935436642,-0.0393118532872614
2025-03-10 13:11:26.747,87.02549575070822,0.1141780137458618,0.1233271119544502,0.2375049580022423,-0.0257834237625475
2025-03-10 13:11:26.749,87.02549575070822,0.1100905921087251,0.1253400018841922,0.2354304266212794,-0.0119960169072778
2025-03-10 13:11:26.751,87.02549575070822,0.1080970935472893,0.1227172287062684,0.2308141551663983,0.002543698382587
2025-03-10 13:11:26.753,87.02549575070822,0.1096061967990229,0.1178351663733134,0.2274411962832755,0.0172633344347163
2025-03-10 13:11:26.755,87.02549575070822,0.1141713450448614,0.1126549041700877,0.2268260824372474,0.0303267203406976
2025-03-10 13:11:26.757,87.02549575070822,0.119411114804508,0.1086163621425881,0.2280273102354277,0.0389958377885821
2025-03-10 13:11:26.759,87.02549575070822,0.1217262349880621,0.1071499773179682,0.2288760456744729,0.0404120269027815
2025-03-10 13:11:26.761,87.02549575070822,0.1175694091082233,0.1100471395628803,0.2276163821794476,0.0325825044868204
2025-03-10 13:11:26.763,87.02549575070822,0.1048337636014492,0.1190362062074394,0.2238698035263706,0.0154023381035734
2025-03-10 13:11:26.765,87.02549575070822,0.083838888053372,0.1346235127794561,0.2184622347996493,-0.0085270018369186
2025-03-10 13:11:26.767,87.02549575070822,0.0574501013457934,0.1550092974842374,0.2124592330368525,-0.0337351674391011
2025-03-10 13:11:26.768,87.02549575070822,0.030155184311554,0.1760421141894436,0.2061971328957658,-0.0528704930862742
2025-03-10 13:11:26.770,87.02549575070822,0.0064066684348639,0.1925525801043749,0.1989590830556015,-0.0588922577238751
2025-03-10 13:11:26.772,87.02549575070822,-0.0110350810527933,0.2004579274447624,0.1894226809825606,-0.0477358385710452
2025-03-10 13:11:26.774,87.02549575070822,-0.0219616000086395,0.1984815174331958,0.1765197520811765,-0.0201548675009254
2025-03-10 13:11:26.776,87.02549575070822,-0.0283733551229082,0.1885698181876125,0.1601962978159341,0.0183435337770977
2025-03-10 13:11:26.778,87.02549575070822,-0.0331479026691181,0.1748675359680744,0.1417194681887044,0.0595691097398162
2025-03-10 13:11:26.780,87.02549575070822,-0.0384362401186045,0.161860342430481,0.1234239373723471,0.0957195308963951
2025-03-10 13:11:26.782,87.02549575070822,-0.0446361273049945,0.1525985337546812,0.1079622416840034,0.1219783143124095
2025-03-10 13:11:26.784,87.02549575070822,-0.0504709380451778,0.1477240867136681,0.0972529840513755,0.1375512172944693
2025-03-10 13:11:26.786,87.02549575070822,-0.0540709964568233,0.1455558639178974,0.0914847029550642,0.1449428115366692
2025-03-10 13:11:26.788,87.02549575070822,-0.054368611933015,0.1430209363048281,0.0886521599479757,0.1481389219807218
2025-03-10 13:11:26.790,87.02549575070822,-0.0519569329833981,0.1369582242066398,0.0850011268739514,0.1507630822342005
2025-03-10 13:11:26.792,87.02549575070822,-0.0489242948510187,0.1253219364858254,0.0763974773720946,0.155039198345047
2025-03-10 13:11:26.794,87.02549575070822,-0.0477993407022245,0.1079608391415286,0.0601613342815835,0.1617413526947256
2025-03-10 13:11:26.796,87.02549575070822,-0.0502415520796979,0.08678329845119,0.0365415823283012,0.1707245877073372
2025-03-10 13:11:26.798,87.02549575070822,-0.0562238750350063,0.0652119902021726,0.008987951231963,0.1814640777325522
2025-03-10 13:11:26.800,87.02549575070822,-0.0641325539813644,0.0469916177169361,-0.0171411001093106,0.1932954234133055
2025-03-10 13:11:26.802,87.02549575070822,-0.0716509623904111,0.0347029925632597,-0.0369481335975471,0.205449156377078
2025-03-10 13:11:26.804,87.02549575070822,-0.0768551008417278,0.0286267410230584,-0.0482285235170635,0.2171380017613804
2025-03-10 13:11:26.806,87.02549575070822,-0.0788950695627048,0.026598695612763,-0.0522965375637979,0.2277761691279993
2025-03-10 13:11:26.808,87.02549575070822,-0.0779669983412942,0.0250517646111922,-0.0529153972417703,0.2371479964540987
2025-03-10 13:11:26.809,87.02549575070822,-0.0747552882905019,0.0207678528927497,-0.0539875987996723,0.2453393844585309
2025-03-10 13:11:26.811,87.02549575070822,-0.069819063393898,0.0124149993547377,-0.0574042273439253,0.2525155953076557
2025-03-10 13:11:26.813,87.02549575070822,-0.0633247537399189,0.0010398042557896,-0.0622851127215791,0.258821330032112
2025-03-10 13:11:26.815,87.02549575070822,-0.0552127138941113,-0.0107088827124144,-0.0659217598080694,0.2645105864766716
2025-03-10 13:11:26.817,87.02549575070822,-0.0456130956856214,-0.0201229448337201,-0.0657362036982987,0.2700815962699974
2025-03-10 13:11:26.819,87.02549575070822,-0.0352353991269721,-0.0258654130987328,-0.0611009753661085,0.2761476988312701
2025-03-10 13:11:26.821,87.02549575070822,-0.0254898726513945,-0.028545791322044,-0.0540358270357337,0.2830932509692587
2025-03-10 13:11:26.823,87.02549575070822,-0.0181923018338159,-0.0301712455685587,-0.0483637103446883,0.2908236743754914
2025-03-10 13:11:26.825,87.02549575070822,-0.0148828194227265,-0.0327759568918415,-0.0476589391183273,0.2988046636100846
2025-03-10 13:11:26.827,87.02549575070822,-0.0160370745741096,-0.0369998548429779,-0.0530370921018477,0.3062881402137062
2025-03-10 13:11:26.829,87.02549575070822,-0.0205940402448849,-0.0414977262084296,-0.0620919290706128,0.3125057402140608
2025-03-10 13:11:26.831,87.02549575070822,-0.0261044595883571,-0.0436429827137478,-0.06974760490972,0.3167566644629955
2025-03-10 13:11:26.833,87.02549575070822,-0.0294785564164498,-0.041248899025032,-0.070727618071236,0.3185201555729254
2025-03-10 13:11:26.835,87.02549575070822,-0.0280144680943443,-0.0344360253205658,-0.0624506560521323,0.3177707709178662
2025-03-10 13:11:26.837,87.02549575070822,-0.0202892231922125,-0.0266588999533613,-0.0469482857330949,0.3155202817005515
2025-03-10 13:11:26.839,87.02549575070822,-0.0065970825204481,-0.0242485324528301,-0.0308457774397096,0.3143359799981929
2025-03-10 13:11:26.841,87.02549575070822,0.0111584097622163,-0.0344045586439484,-0.0232463111798528,0.3183802882512946
2025-03-10 13:11:26.843,87.02549575070822,0.0299880266641607,-0.0621808792028271,-0.0321930146730102,0.3326178347468823
2025-03-10 13:11:26.845,87.02549575070822,0.0465286059273819,-0.1075174604839608,-0.0609890165840514,0.3612281486731108
2025-03-10 13:11:26.847,87.02549575070822,0.0577898078112893,-0.1636043412172575,-0.1058146954075007,0.4056340262494944
2025-03-10 13:11:26.849,87.02549575070822,0.0619030119692515,-0.2176020505337095,-0.155699200601776,0.4627652267518605
2025-03-10 13:11:26.851,87.02549575070822,0.0588390642596831,-0.253896895189538,-0.1950579930104287,0.5243229768189419
2025-03-10 13:11:26.852,87.02549575070822,0.0509188921333131,-0.258862004133925,-0.207943274070405,0.5777629097730241
2025-03-10 13:11:26.854,87.02549575070822,0.0427914153171743,-0.2251307716461733,-0.1823395182981413,0.609166384119465
2025-03-10 13:11:26.856,87.02549575070822,0.0405941249838729,-0.153428055905417,-0.1128340927101753,0.6072020878133992
2025-03-10 13:11:26.858,87.02549575070822,0.050348207923106,-0.0512553908473818,-0.0009073445043461,0.5665656744171298
2025-03-10 13:11:26.860,87.02549575070822,0.0760928018529194,0.0706421686504779,0.1467348090930957,0.4892600195908661
2025-03-10 13:11:26.862,87.02549575070822,0.1184552647401215,0.2022791673052599,0.3207342707197061,0.3830476815247892
2025-03-10 13:11:26.864,87.02549575070822,0.1741375899336716,0.3374766108140771,0.5116140394209197,0.2578910111435455
2025-03-10 13:11:26.866,87.02549575070822,0.2364284249981207,0.4753166196204438,0.7117448832509925,0.1222496000321407
2025-03-10 13:11:26.868,87.02549575070822,0.2966096078165058,0.6199096351169089,0.91651908155463,-0.0190055459544114
2025-03-10 13:11:26.870,87.02549575070822,0.3459870886836024,0.7785401556932056,1.124527083072099,-0.1644927628455719
2025-03-10 13:11:26.872,87.02549575070822,0.3780778624891379,0.9582626808446986,1.3363403822016016,-0.3148378935069971
2025-03-10 13:11:26.874,87.02549575070822,0.3902540349632732,1.161172693299132,1.5514265673648877,-0.471091690461838
2025-03-10 13:11:26.876,87.02549575070822,0.384105782846029,1.3792321205814828,1.763337742760992,-0.6335771658799791
2025-03-10 13:11:26.878,87.02549575070822,0.3641727603863823,1.5906947124154838,1.9548673123017823,-0.8005985645923667
2025-03-10 13:11:26.880,87.02549575070822,0.3355157240147978,1.760986190670068,2.096501754262559,-0.9664129883462476
2025-03-10 13:11:26.882,87.02549575070822,0.3014097827723654,1.8500286330887967,2.1514382554523093,-1.1192326192962518
2025-03-10 13:11:26.884,87.02549575070822,0.2625272087194972,1.825039916373604,2.0875669646922472,-1.2413435486957125
2025-03-10 13:11:26.886,87.02549575070822,0.2180673526816422,1.6741464386690448,1.8922136310143491,-1.312956982638246
2025-03-10 13:11:26.888,87.02549575070822,0.1679825477194998,1.414252563179576,1.5822349507169602,-1.3190794814956206
2025-03-10 13:11:26.890,87.02549575070822,0.1147348912682413,1.0884029289968862,1.2031376603156474,-1.2562145490169614
2025-03-10 13:11:26.892,87.02549575070822,0.0633871605112712,0.7528987975792664,0.8162857984042265,-1.135100370080443
2025-03-10 13:11:26.893,87.02549575070822,0.0199340109568378,0.4597944629956421,0.4797283145016032,-0.9776787984835552
2025-03-10 13:11:26.895,87.02549575070822,-0.0111356136136153,0.2426250133596079,0.2314892404641992,-0.809787429166057
2025-03-10 13:11:26.897,87.02549575070822,-0.0286182586222923,0.1108255846691923,0.0822071668671538,-0.6532540063111437
2025-03-10 13:11:26.899,87.02549575070822,-0.0347560961501049,0.053157468651596,0.0184012133919189,-0.5207767567478174
2025-03-10 13:11:26.901,87.02549575070822,-0.033869297934361,0.0462926292529806,0.0124231722983084,-0.4149650646960879
2025-03-10 13:11:26.903,87.02549575070822,-0.0304190289184097,0.0638752747588531,0.0334560869686679,-0.3308943067651412
2025-03-10 13:11:26.905,87.02549575070822,-0.0275565401553893,0.0832161794106033,0.0556594806015385,-0.2604302050247447
2025-03-10 13:11:26.907,87.02549575070822,-0.0266693322064839,0.0890522231860306,0.062382732591334,-0.1963791941737451
2025-03-10 13:11:26.909,87.02549575070822,-0.0277838071983543,0.0749528981697719,0.0471689328551968,-0.1350120058950089
2025-03-10 13:11:26.911,87.02549575070822,-0.0303071131263886,0.0428884551856671,0.0125811841839734,-0.0764783073897691
2025-03-10 13:11:26.913,87.02549575070822,-0.0335914145011546,0.0010679509055278,-0.0325236212773539,-0.0235932596210491
2025-03-10 13:11:26.915,87.02549575070822,-0.0370983919516772,-0.0397252981295109,-0.0768238476059268,0.0200658693098165
2025-03-10 13:11:26.917,87.02549575070822,-0.0402964611091804,-0.0703553748277137,-0.1106519933117506,0.0518837825987048
2025-03-10 13:11:26.919,87.02549575070822,-0.0425856714154174,-0.0865715713959304,-0.129157400011698,0.0712060921417828
2025-03-10 13:11:26.921,87.02549575070822,-0.0434409351826923,-0.0899747301478584,-0.1334158223132797,0.0794888276282547
2025-03-10 13:11:26.923,87.02549575070822,-0.0427158786632443,-0.086496570903751,-0.1292126062906705,0.0798462800247962
2025-03-10 13:11:26.925,87.02549575070822,-0.0408594054000697,-0.0833363923811982,-0.1241959542224703,0.0763258465163109
2025-03-10 13:11:26.927,87.02549575070822,-0.0388176706706024,-0.0858384460967821,-0.1246562729259631,0.0730382676400664
2025-03-10 13:11:26.929,87.02549575070822,-0.0376108576959467,-0.0955741337098512,-0.1331851472984536,0.073158381493333
2025-03-10 13:11:26.931,87.02549575070822,-0.0378090766890012,-0.1102339862851806,-0.148043218621616,0.0780103875777376
2025-03-10 13:11:26.933,87.02549575070822,-0.0392085397508431,-0.1251812196168235,-0.1643899147826454,0.0866876409223285
2025-03-10 13:11:26.934,87.02549575070822,-0.0408944259078809,-0.1358836422569198,-0.1767782233464492,0.0965309976031098
2025-03-10 13:11:26.936,87.02549575070822,-0.041666497763537,-0.1401081379994191,-0.1817747906982744,0.1043369146484949
2025-03-10 13:11:26.938,87.02549575070822,-0.0406176719315949,-0.1388939463937002,-0.1795117729950901,0.1077738923998457
2025-03-10 13:11:26.940,87.02549575070822,-0.0375726564113978,-0.1358998890706108,-0.1734726998671416,0.1063953580463076
2025-03-10 13:11:26.942,87.02549575070822,-0.0331562969996127,-0.1354863475965043,-0.1686427986813133,0.1018116054207328
2025-03-10 13:11:26.944,87.02549575070822,-0.0284630087019331,-0.1404831682551016,-0.1689463307320003,0.096921516853515
2025-03-10 13:11:26.946,87.02549575070822,-0.024532639847834,-0.1507427233506487,-0.1752755166577818,0.0945210052330916
2025-03-10 13:11:26.948,87.02549575070822,-0.0219302246891142,-0.1632137222287358,-0.1851441000608892,0.095941285142477
2025-03-10 13:11:26.950,87.02549575070822,-0.0206014605457528,-0.1735295145517712,-0.1941311279285364,0.1004075476663711
2025-03-10 13:11:26.952,87.02549575070822,-0.0199769608278674,-0.178302316784925,-0.1982794301394161,0.1054616060672203
2025-03-10 13:11:26.954,87.02549575070822,-0.0192341627691141,-0.1768870495013916,-0.1961213644997466,0.1082326606854481
2025-03-10 13:11:26.956,87.02549575070822,-0.0176720702631815,-0.1716442756549353,-0.1893164978503391,0.1068780594712173
2025-03-10 13:11:26.958,87.02549575070822,-0.015107919714811,-0.1665900303900766,-0.18169810172873,0.1014222494487271
2025-03-10 13:11:26.960,87.02549575070822,-0.012063146884518,-0.1652400084124193,-0.1773033065888759,0.0935867855061875
2025-03-10 13:11:26.962,87.02549575070822,-0.009518788853735,-0.168867010682911,-0.1783859504672041,0.0857986899694434
2025-03-10 13:11:26.964,87.02549575070822,-0.0083008271237323,-0.1760788531889925,-0.1843798308576251,0.0799772039649722
2025-03-10 13:11:26.966,87.02549575070822,-0.0084826925898802,-0.1838076169833797,-0.1922904597242122,0.0767187700398209
2025-03-10 13:11:26.968,87.02549575070822,-0.0092569904572775,-0.1889975010526424,-0.1982546412786879,0.0752230405406652
2025-03-10 13:11:26.970,87.02549575070822,-0.0094346946160196,-0.1900121838236884,-0.1994470278517975,0.0739139487996571
2025-03-10 13:11:26.972,87.02549575070822,-0.0082681043008534,-0.1871592938572636,-0.1954275472378628,0.0713730853628523
2025-03-10 13:11:26.974,87.02549575070822,-0.0060182160191194,-0.1823207278752122,-0.1883390926484542,0.0670782103440669
2025-03-10 13:11:26.976,87.02549575070822,-0.0038442258887556,-0.1780142425626906,-0.1818586168600683,0.0615962422240975
2025-03-10 13:11:26.977,87.02549575070822,-0.0030778251977412,-0.1762757255425565,-0.1793536987613619,0.0562000350806814
2025-03-10 13:11:26.979,87.02549575070822,-0.0043766692250157,-0.1777751111572788,-0.1821519279684824,0.0521556526750264
2025-03-10 13:11:26.981,87.02549575070822,-0.0073161038192883,-0.1815644276461798,-0.1888806785856249,0.0500462275420069
2025-03-10 13:11:26.983,87.02549575070822,-0.0106610354578844,-0.1856225384620775,-0.1962837205737267,0.0494597811722019
2025-03-10 13:11:26.985,87.02549575070822,-0.0131033850265376,-0.1879443311349893,-0.201047862378586,0.0491942271505515
2025-03-10 13:11:26.987,87.02549575070822,-0.013969096571245,-0.1876078743858476,-0.2015771167801985,0.0478771366444258
2025-03-10 13:11:26.989,87.02549575070822,-0.0134689441968503,-0.1852519414846484,-0.1987210311412303,0.0446848923070583
2025-03-10 13:11:26.991,87.02549575070822,-0.0124090418585659,-0.1827005646046803,-0.1951097515575716,0.039779110153442
2025-03-10 13:11:26.993,87.02549575070822,-0.0116229118376016,-0.1819348554554271,-0.1935579119830036,0.0341943888029952
2025-03-10 13:11:26.995,87.02549575070822,-0.0114988919764259,-0.1839909049812234,-0.19548994118255,0.0292078797764829
2025-03-10 13:11:26.997,87.02549575070822,-0.0118299584925715,-0.1883959405135211,-0.2002260427109699,0.0255556205310264
2025-03-10 13:11:26.999,87.02549575070822,-0.0119789082201602,-0.1934030923125461,-0.205382143694268,0.0229605526231613
2025-03-10 13:11:27.001,87.02549575070822,-0.0112028258439118,-0.196824024957973,-0.2080269934387956,0.0202120845136853
2025-03-10 13:11:27.003,87.02549575070822,-0.0089617507738788,-0.1970100183148619,-0.205971911250125,0.0157078362300808
2025-03-10 13:11:27.005,87.02549575070822,-0.0051056514961324,-0.1935594120686446,-0.1986652053021104,0.0081750639872996
2025-03-10 13:11:27.007,87.02549575070822,7.662304909000116e-05,-0.1874946552419512,-0.1874181735295273,-0.0027331988208951
2025-03-10 13:11:27.009,87.02549575070822,0.0059201884488899,-0.1808528967631963,-0.1749328492288951,-0.0161957447430378
2025-03-10 13:11:27.011,87.02549575070822,0.0115450107627389,-0.1758469665141175,-0.1643020961840589,-0.0304361370459856
2025-03-10 13:11:27.013,87.02549575070822,0.0161032414671674,-0.1739351149241552,-0.15783201333633,-0.0433404996423243
2025-03-10 13:11:27.015,87.02549575070822,0.0190515502366783,-0.1752006779989758,-0.1561492670389795,-0.0532698002814581
2025-03-10 13:11:27.017,87.02549575070822,0.0203364479251707,-0.1783236077641583,-0.1579872985087835,-0.0597291871077662
2025-03-10 13:11:27.018,87.02549575070822,0.0203999172406223,-0.1811623858364057,-0.1607626066994351,-0.063563525655326
2025-03-10 13:11:27.020,87.02549575070822,0.0199908952795942,-0.1816930735759871,-0.1617023158958863,-0.0665517071273159
2025-03-10 13:11:27.022,87.02549575070822,0.0198479016546523,-0.1788977713759669,-0.1590500068645153,-0.0705728288821453
2025-03-10 13:11:27.024,87.02549575070822,0.0203798010831094,-0.173201798983688,-0.1528221345925653,-0.0767385447960527
2025-03-10 13:11:27.026,87.02549575070822,0.0215032294296352,-0.1662347059003354,-0.1447316126669529,-0.0849213754353332
2025-03-10 13:11:27.028,87.02549575070822,0.0227470717341698,-0.1600142283305626,-0.1372672922217755,-0.0939237552655186
2025-03-10 13:11:27.030,87.02549575070822,0.0235898370758392,-0.155982407267425,-0.1323927051755907,-0.1021864534585521
2025-03-10 13:11:27.032,87.02549575070822,0.0238372346157524,-0.154413369491678,-0.1305762691859945,-0.1086339219833497
2025-03-10 13:11:27.034,87.02549575070822,0.0237980236327992,-0.1544579596444497,-0.1306600696671633,-0.1131930898086866
2025-03-10 13:11:27.036,87.02549575070822,0.0241305196545555,-0.154693155509888,-0.1305627689147517,-0.1167103896113676
2025-03-10 13:11:27.038,87.02549575070822,0.0254506209202344,-0.1538132052060486,-0.1283627168134055,-0.1203252206498018
2025-03-10 13:11:27.040,87.02549575070822,0.027974032894941,-0.1511357166128553,-0.123161815747166,-0.1246885737581354
2025-03-10 13:11:27.042,87.02549575070822,0.0314563245208049,-0.1467618636596685,-0.1153056706515837,-0.1295276141618215
2025-03-10 13:11:27.044,87.02549575070822,0.0354514343605574,-0.1413754449277126,-0.1059241414992011,-0.133814314139913
2025-03-10 13:11:27.046,87.02549575070822,0.0396219701449239,-0.1357829532042158,-0.0961611133301168,-0.136369202642962
2025-03-10 13:11:27.048,87.02549575070822,0.0437984981709426,-0.1304244678890709,-0.0866260992689564,-0.1364940358352163
2025-03-10 13:11:27.050,87.02549575070822,0.0477503882536502,-0.1251427037176435,-0.0773924442849043,-0.1343240141345812
2025-03-10 13:11:27.052,87.02549575070822,0.050923184893122,-0.1193617245330617,-0.0684386677718327,-0.130803741852867
2025-03-10 13:11:27.054,87.02549575070822,0.0524478289066938,-0.112551977401335,-0.0601042760050175,-0.127338646615622
2025-03-10 13:11:27.056,87.02549575070822,0.0515149029260997,-0.1046599307159023,-0.0531451547348306,-0.1252890312019946
2025-03-10 13:11:27.058,87.02549575070822,0.0479039680307781,-0.0962094982071074,-0.0483056565687431,-0.1255339568791305
2025-03-10 13:11:27.060,87.02549575070822,0.0422977553993432,-0.0880090028067134,-0.0457113732067282,-0.1282451569763412
2025-03-10 13:11:27.061,87.02549575070822,0.0361285648772947,-0.0806604492521059,-0.0445320095051064,-0.1328757532328703
2025-03-10 13:11:27.063,87.02549575070822,0.0310022456034506,-0.0741874525652257,-0.0431853313472986,-0.1383406474255811
2025-03-10 13:11:27.065,87.02549575070822,0.0280041425093787,-0.0680040012259205,-0.0399999823175351,-0.1433764883803288
2025-03-10 13:11:27.067,87.02549575070822,0.027272063628925,-0.0612234860980001,-0.0339515452988747,-0.1469920218929523
2025-03-10 13:11:27.069,87.02549575070822,0.028081531041198,-0.0531079332004328,-0.0250265242741823,-0.1488266718109297
2025-03-10 13:11:27.071,87.02549575070822,0.029376109468478,-0.0433894934242761,-0.0140135054231969,-0.1492539531667918
2025-03-10 13:11:27.073,87.02549575070822,0.0303923587069122,-0.032291007946613,-0.0018987701003278,-0.1491839354139944
2025-03-10 13:11:27.075,87.02549575070822,0.0310014909513151,-0.0202779542570007,0.0107234164499349,-0.1496540711011196
2025-03-10 13:11:27.077,87.02549575070822,0.0316222749902647,-0.0077541515538544,0.0238680038659193,-0.1513902937331719
2025-03-10 13:11:27.079,87.02549575070822,0.0328510697276342,0.0050717097791844,0.0379226606893467,-0.1545350956730402
2025-03-10 13:11:27.081,87.02549575070822,0.0351053808717283,0.0180858662517651,0.0531911291221745,-0.1586677180780291
2025-03-10 13:11:27.083,87.02549575070822,0.0385028436897078,0.0310792674339858,0.0695819939565624,-0.1630895383473416
2025-03-10 13:11:27.085,87.02549575070822,0.0429724878301091,0.0436894533815864,0.0866618248457335,-0.1671822528111922
2025-03-10 13:11:27.087,87.02549575070822,0.0484155940677396,0.0555793969772875,0.1039948754162049,-0.1706146880542711
2025-03-10 13:11:27.089,87.02549575070822,0.0547402761488874,0.0667342248291272,0.1214743860269149,-0.1733271097898006
2025-03-10 13:11:27.091,87.02549575070822,0.0617533185849937,0.0776166000069147,0.1393698042966839,-0.175415454276193
2025-03-10 13:11:27.093,87.02549575070822,0.0690529019893257,0.0890045534669713,0.1580573418462471,-0.1770980829836895
2025-03-10 13:11:27.095,87.02549575070822,0.0760763152489551,0.1015803889219463,0.1776565913139673,-0.1788266554968451
2025-03-10 13:11:27.097,87.02549575070822,0.0823025581429113,0.1155306335903933,0.1978330797040866,-0.1813995909113443
2025-03-10 13:11:27.099,87.02549575070822,0.0874590524559744,0.1304044391426951,0.2178633804433797,-0.1858450901549971
2025-03-10 13:11:27.101,87.02549575070822,0.0915988824248572,0.1452947911073034,0.2368935632482969,-0.1929919997188537
2025-03-10 13:11:27.102,87.02549575070822,0.0950441032519078,0.1592070448347068,0.2542510386274745,-0.2029456818357471
2025-03-10 13:11:27.104,87.02549575070822,0.0982527274922432,0.1714094857494431,0.2696621045431394,-0.2148573544657352
2025-03-10 13:11:27.106,87.02549575070822,0.1016314020313011,0.1816385794241475,0.2832698734711563,-0.2272270689486373
2025-03-10 13:11:27.108,87.02549575070822,0.1053088127901625,0.1901393764218161,0.2954480819391644,-0.2386154903884637
2025-03-10 13:11:27.110,87.02549575070822,0.108953949297762,0.197566340214258,0.3065201829949239,-0.2483634337536242
2025-03-10 13:11:27.112,87.02549575070822,0.1117774266311782,0.2047839329154714,0.3165612538562627,-0.256936901791325
2025-03-10 13:11:27.114,87.02549575070822,0.1128107338742197,0.2126319834148914,0.3254426124897628,-0.2657618755643338
2025-03-10 13:11:27.116,87.02549575070822,0.111397436182114,0.2217183532519644,0.3331156855538822,-0.2766649601243627
2025-03-10 13:11:27.118,87.02549575070822,0.1076135786327864,0.2322507100548412,0.3398641857075392,-0.2911608352343633
2025-03-10 13:11:27.120,87.02549575070822,0.1022754851328471,0.2438927273356197,0.3461681103350878,-0.3098605257023559
2025-03-10 13:11:27.122,87.02549575070822,0.0964651683414567,0.2556831102953285,0.3521481772920463,-0.3322601574341629
2025-03-10 13:11:27.124,87.02549575070822,0.0909023263399305,0.26612142236922,0.3570236481217091,-0.3570394678609542
2025-03-10 13:11:27.126,87.02549575070822,0.0856011304981171,0.273484583409127,0.3590856140899169,-0.3827125343839024
2025-03-10 13:11:27.128,87.02549575070822,0.0799828146156723,0.2762867224452318,0.3562694380657732,-0.4082158647910981
2025-03-10 13:11:27.130,87.52136752136752,0.0732893110324728,0.2736715959763188,0.3469608089029279,-0.4330696125721165
2025-03-10 13:11:27.132,87.52136752136752,0.0650274416933382,0.265557044645245,0.3305843891728681,-0.4571035775490278
2025-03-10 13:11:27.134,87.52136752136752,0.0552391944736385,0.2525134259359451,0.3077525241962042,-0.4800671569542087
2025-03-10 13:11:27.136,87.52136752136752,0.0445070466427949,0.2355179500331415,0.2800249013854268,-0.5014679657548003
2025-03-10 13:11:27.138,87.52136752136752,0.0337124316815391,0.215761363164581,0.2494737004248942,-0.5207556434850374
2025-03-10 13:11:27.140,87.52136752136752,0.0236697446672908,0.194573408463205,0.2182430595297266,-0.537699057026962
2025-03-10 13:11:27.142,87.52136752136752,0.0148311023637197,0.1733723642098142,0.188203373774944,-0.5526577752687479
2025-03-10 13:11:27.143,87.52136752136752,0.0072290851802832,0.1534811449878022,0.1607101381941515,-0.5664986428521571
2025-03-10 13:11:27.145,87.52136752136752,0.000654015723418,0.1357804184253299,0.1364343430527883,-0.5801431090097956
2025-03-10 13:11:27.147,87.52136752136752,-0.0051318819035417,0.1203923331907857,0.1152603611287732,-0.5940039595007227
2025-03-10 13:11:27.149,87.52136752136752,-0.0103388126027189,0.1066668568121021,0.0963279550270913,-0.607675023821601
2025-03-10 13:11:27.151,87.52136752136752,-0.0152331650572987,0.0935607097137426,0.0783274564519256,-0.620095890793237
2025-03-10 13:11:27.153,87.52136752136752,-0.0201721265812369,0.0802154132295096,0.0600431993880432,-0.6301291981925878
2025-03-10 13:11:27.155,87.52136752136752,-0.0254649959763983,0.0664004219953436,0.0409353396532488,-0.6372302580305002
2025-03-10 13:11:27.157,87.52136752136752,-0.0311360489539596,0.0525752512253452,0.0214391167602907,-0.6418139868183469
2025-03-10 13:11:27.159,87.52136752136752,-0.036787540965476,0.0395558967060969,0.0027682710746974,-0.6451123630473625
2025-03-10 13:11:27.161,87.52136752136752,-0.0417144831650756,0.0279992476400122,-0.0137153193192184,-0.6486450524776051
2025-03-10 13:11:27.163,87.52136752136752,-0.0452490941610758,0.0180088545059026,-0.0272403225267762,-0.6536268624729215
2025-03-10 13:11:27.165,87.52136752136752,-0.0471340792023216,0.0090681139444683,-0.0380660471550275,-0.6605797593098093
2025-03-10 13:11:27.167,87.52136752136752,-0.0476750227899464,0.0003152893292724,-0.0473598143535162,-0.6692447988304745
2025-03-10 13:11:27.169,87.52136752136752,-0.0475603989699438,-0.0089775500754423,-0.056538028938058,-0.678777766841674
2025-03-10 13:11:27.171,87.52136752136752,-0.047476758144733,-0.0189416641925771,-0.066418501263708,-0.6881393128170764
2025-03-10 13:11:27.173,87.52136752136752,-0.0477949333793495,-0.0289167736319044,-0.0767117850167157,-0.696488612249086
2025-03-10 13:11:27.175,87.52136752136752,-0.0485196487569772,-0.0376963167915436,-0.086216042666556,-0.7033753118714565
2025-03-10 13:11:27.177,87.52136752136752,-0.0494574389112169,-0.0441405276764985,-0.0935980428228645,-0.7086866828467915
2025-03-10 13:11:27.179,87.52136752136752,-0.0504099681625123,-0.0478179841683918,-0.09822802765568,-0.7124698142142237
2025-03-10 13:11:27.181,87.52136752136752,-0.0512646647430442,-0.0492862298894706,-0.1005509689995662,-0.7147448921641001
2025-03-10 13:11:27.183,87.52136752136752,-0.0519968462698913,-0.0498449718637817,-0.101841891497123,-0.7153725666032537
2025-03-10 13:11:27.185,87.52136752136752,-0.0526390746581213,-0.0509144776322816,-0.1035536246261262,-0.7140812417017095
2025-03-10 13:11:27.186,87.52136752136752,-0.0532280027827921,-0.0533856485220337,-0.1066137226201285,-0.7107600400776322
2025-03-10 13:11:27.188,87.52136752136752,-0.0537335920824834,-0.0572533000951586,-0.110986962505972,-0.7058951316558391
2025-03-10 13:11:27.190,87.52136752136752,-0.0540259954493139,-0.0616599690619954,-0.1156860338947445,-0.7007568463851758
2025-03-10 13:11:27.192,87.52136752136752,-0.0539371143016361,-0.0653120956571867,-0.1192492784267874,-0.6970189594435381
2025-03-10 13:11:27.194,87.52136752136752,-0.0533914887859029,-0.0671199466434452,-0.1205115029836457,-0.695931360117136
2025-03-10 13:11:27.196,87.52136752136752,-0.0525072736454081,-0.0667837649713713,-0.1192911052299139,-0.6975609501303173
2025-03-10 13:11:27.198,87.52136752136752,-0.0515836988861359,-0.0649873874315744,-0.1165711519451064,-0.7006175738650661
2025-03-10 13:11:27.200,87.52136752136752,-0.0509756068154727,-0.063055193010635,-0.1140308644262856,-0.7030231437998683
2025-03-10 13:11:27.202,87.52136752136752,-0.0509370716527178,-0.0622933008809821,-0.113230436086775,-0.7029272518617821
2025-03-10 13:11:27.204,87.52136752136752,-0.051537983783559,-0.0634235695196449,-0.1149616158189748,-0.6996002465786035
2025-03-10 13:11:27.206,87.52136752136752,-0.0527004499794581,-0.0663724396444303,-0.1190729511357941,-0.6937142510693316
2025-03-10 13:11:27.208,87.52136752136752,-0.0543020503989988,-0.0704077873558214,-0.1247098983027729,-0.6869032395108646
2025-03-10 13:11:27.210,87.52136752136752,-0.0562359961477106,-0.0744746115017792,-0.1307106672598361,-0.6809113479229986
2025-03-10 13:11:27.212,87.52136752136752,-0.0583717036056577,-0.0775707048245529,-0.1359424671023614,-0.6768334054677408
2025-03-10 13:11:27.214,87.52136752136752,-0.0604826385347664,-0.0790239594344691,-0.1395066556752588,-0.6748491651016282
2025-03-10 13:11:27.216,87.52136752136752,-0.0622637993421513,-0.0785845848009184,-0.1408484408403268,-0.67452169219894
2025-03-10 13:11:27.218,87.52136752136752,-0.0634786632375135,-0.0763637510515371,-0.1398424699397533,-0.6753328826112864
2025-03-10 13:11:27.220,87.52136752136752,-0.0641499438349738,-0.072745820985933,-0.1368958194092205,-0.6769624708275493
2025-03-10 13:11:27.222,87.52136752136752,-0.0646559093028282,-0.0683477033359117,-0.1330036661772975,-0.6791054231764478
2025-03-10 13:11:27.224,87.52136752136752,-0.0656225607730826,-0.0639512768976614,-0.1295738901935452,-0.6811404217480991
2025-03-10 13:11:27.226,87.52136752136752,-0.0676000650747515,-0.0603030066639937,-0.1279031232839329,-0.6821598703302546
2025-03-10 13:11:27.227,87.52136752136752,-0.0706786838350431,-0.0578350446590621,-0.1285137790849232,-0.6815067731697876
2025-03-10 13:11:27.229,87.52136752136752,-0.0743215055125306,-0.0565169498910885,-0.1308385050366786,-0.6793972947868807
2025-03-10 13:11:27.231,87.52136752136752,-0.0775969686706667,-0.0559763800350013,-0.133573397352097,-0.6770150398097715
2025-03-10 13:11:27.233,87.52136752136752,-0.0797013534702444,-0.0558020058338081,-0.1355034069228967,-0.6758578314609518
2025-03-10 13:11:27.235,87.52136752136752,-0.0804192730982509,-0.0558181121796829,-0.1362374318352963,-0.6767594257659227
2025-03-10 13:11:27.237,87.52136752136752,-0.0802043401563659,-0.0561750399563818,-0.1363794255974235,-0.679319300712906
2025-03-10 13:11:27.239,87.52136752136752,-0.0798460758968026,-0.0572093184514214,-0.1370554387763232,-0.6821673601305909
2025-03-10 13:11:27.241,87.52136752136752,-0.0799813726392766,-0.0591342594602624,-0.1391156755059379,-0.6838411085831931
2025-03-10 13:11:27.243,87.52136752136752,-0.0807841240152669,-0.0617471486915748,-0.1425313151276749,-0.6836330079214692
2025-03-10 13:11:27.245,87.52136752136752,-0.0820009935523863,-0.0643990685719309,-0.1464001035790339,-0.6818805883946633
2025-03-10 13:11:27.247,87.52136752136752,-0.0832507219728768,-0.0663335883300974,-0.1495843507846429,-0.6796138954988221
2025-03-10 13:11:27.249,87.52136752136752,-0.084344052092366,-0.0672014475892442,-0.1515455391601129,-0.6778660624997688
2025-03-10 13:11:27.251,87.52136752136752,-0.0853938211236131,-0.0673486834548263,-0.152742543014913,-0.6771084805439866
2025-03-10 13:11:27.253,87.52136752136752,-0.086650646323822,-0.0675857817573757,-0.1542364654466172,-0.677149559449705
2025-03-10 13:11:27.255,87.52136752136752,-0.0882116307678987,-0.0685398160374143,-0.1567514830941377,-0.677479913609505
2025-03-10 13:11:27.257,87.52136752136752,-0.0898512268512097,-0.0700685560008283,-0.1599198180843151,-0.6777185999556993
2025-03-10 13:11:27.259,87.52136752136752,-0.0911197244595994,-0.0712398621522353,-0.1623596208228455,-0.6778237284906693
2025-03-10 13:11:27.261,87.52136752136752,-0.0916250044180355,-0.0709569828466871,-0.162582020487363,-0.6780211013687675
2025-03-10 13:11:27.263,87.52136752136752,-0.09126755529079,-0.0687634748171411,-0.1600310623565236,-0.678615341285307
2025-03-10 13:11:27.265,87.52136752136752,-0.0902618749305705,-0.0652198824298248,-0.1554817886238441,-0.6798146188580075
2025-03-10 13:11:27.267,87.52136752136752,-0.0889627868696285,-0.0616428037283873,-0.1506056208455426,-0.6815970985548874
2025-03-10 13:11:27.268,87.52136752136752,-0.0876547650237174,-0.0594799010696263,-0.1471346952898174,-0.683640170262842
2025-03-10 13:11:27.270,87.52136752136752,-0.0864635263374773,-0.0597134427111459,-0.1461769971718068,-0.6853786953936781
2025-03-10 13:11:27.272,87.52136752136752,-0.0854217258314285,-0.0625070358415048,-0.1479287887241229,-0.6862306868893414
2025-03-10 13:11:27.274,87.52136752136752,-0.0845731022137719,-0.0671530906111871,-0.1517262188278799,-0.6858888640105769
2025-03-10 13:11:27.276,87.52136752136752,-0.0839775616593886,-0.0723341007542582,-0.1563116874023651,-0.6844538890740146
2025-03-10 13:11:27.278,87.52136752136752,-0.0836031831478406,-0.0766470209606455,-0.160250228110534,-0.6822638300387969
2025-03-10 13:11:27.280,87.52136752136752,-0.0832159428505413,-0.0791991545480276,-0.1624151204217392,-0.6795290128406758
2025-03-10 13:11:27.282,87.52136752136752,-0.0823842855086239,-0.079980143583893,-0.1623644511217883,-0.6760660049229874
2025-03-10 13:11:27.284,87.52136752136752,-0.0806313114303457,-0.0797887090898019,-0.1604200415260134,-0.6713605478204945
2025-03-10 13:11:27.286,87.52136752136752,-0.0776694724391224,-0.0797522215218959,-0.1574217139147835,-0.6649302778049406
2025-03-10 13:11:27.288,87.52136752136752,-0.0735814955267012,-0.0807466932605338,-0.1543282076754846,-0.6567133910250263
2025-03-10 13:11:27.290,87.52136752136752,-0.0688112408474977,-0.0830748109622174,-0.1518860696407833,-0.6471892812346283
2025-03-10 13:11:27.292,87.52136752136752,-0.0639358970300183,-0.0865388092403049,-0.1504747230697954,-0.6371649196514066
2025-03-10 13:11:27.294,87.52136752136752,-0.0593448272889773,-0.090745318612541,-0.1500901616993727,-0.6274141332355883
2025-03-10 13:11:27.296,87.52136752136752,-0.0550234857572362,-0.0953466516862156,-0.150370152259542,-0.61841472346331
2025-03-10 13:11:27.298,87.52136752136752,-0.0505812206552206,-0.1000445607185288,-0.1506257952089317,-0.6103075798323089
2025-03-10 13:11:27.300,87.52136752136752,-0.0455204812239487,-0.1044395095328486,-0.1499600035939164,-0.6030395157102628
2025-03-10 13:11:27.302,87.52136752136752,-0.039598360057007,-0.1079781979107384,-0.1475765697815877,-0.5965290765273481
2025-03-10 13:11:27.304,87.52136752136752,-0.0330613868482515,-0.1101762759709575,-0.143237673590068,-0.5906861189013438
2025-03-10 13:11:27.306,87.52136752136752,-0.0266094877379816,-0.1110157840536476,-0.1376252815155274,-0.5852731583869103
2025-03-10 13:11:27.308,87.52136752136752,-0.0211196448365605,-0.1111760682198474,-0.1322957217470014,-0.5797972058724098
2025-03-10 13:11:27.310,87.52136752136752,-0.0172862053238231,-0.1117951235687049,-0.1290813365741313,-0.5736322385467596
2025-03-10 13:11:27.311,87.52136752136752,-0.0153473492782246,-0.1137940529908811,-0.1291414089647847,-0.5663443582371578
2025-03-10 13:11:27.313,87.52136752136752,-0.015018632462357,-0.1171829533881854,-0.1322015915715255,-0.557971140096438
2025-03-10 13:11:27.315,87.52136752136752,-0.0156612559622439,-0.1208792032901156,-0.1365404639940362,-0.5490452032714822
2025-03-10 13:11:27.317,87.52136752136752,-0.0165753245457574,-0.1232688995024681,-0.1398442277943902,-0.5403731237307022
2025-03-10 13:11:27.319,87.52136752136752,-0.0172374881635689,-0.1232129918496234,-0.1404504827459074,-0.5327221410981396
2025-03-10 13:11:27.321,87.52136752136752,-0.0173820033653453,-0.1208532460737375,-0.1382352511488277,-0.5265483238176047
2025-03-10 13:11:27.323,87.52136752136752,-0.016947751857478,-0.1177011273190874,-0.1346488798675,-0.5218267579195666
2025-03-10 13:11:27.325,87.52136752136752,-0.0159629437426691,-0.115966256922854,-0.1319292003535051,-0.5179990399107824
2025-03-10 13:11:27.327,87.52136752136752,-0.0144489365061825,-0.1175081800928941,-0.1319571153039364,-0.5140537636951411
2025-03-10 13:11:27.329,87.52136752136752,-0.0124170985805322,-0.1229435344980971,-0.1353606308150493,-0.5087739391375148
2025-03-10 13:11:27.331,87.52136752136752,-0.0099480864627378,-0.1313366118084599,-0.1412846950429622,-0.5011480078720107
2025-03-10 13:11:27.333,87.52136752136752,-0.0072399837915929,-0.1406209933758969,-0.1478609729677931,-0.4908152554647511
2025-03-10 13:11:27.335,87.52136752136752,-0.0045478712217549,-0.1485218192175285,-0.1530696852564548,-0.4782914601283486
2025-03-10 13:11:27.337,87.52136752136752,-0.0020835308368156,-0.1534657980573274,-0.1555493227193932,-0.4647596154479724
2025-03-10 13:11:27.339,87.52136752136752,1.181875972883651e-05,-0.1550133162724112,-0.1550014903457022,-0.4514700184747493
2025-03-10 13:11:27.341,87.52136752136752,0.0016240685056441,-0.1537206092368492,-0.1520965325809196,-0.4390869510445487
2025-03-10 13:11:27.343,87.52136752136752,0.0026379564493103,-0.1507009903314826,-0.1480630247627196,-0.4273752832577737
2025-03-10 13:11:27.345,87.52136752136752,0.0029449440902057,-0.1471748926835408,-0.1442299385178321,-0.4153921274251402
2025-03-10 13:11:27.347,87.52136752136752,0.0024393154565226,-0.1440808178213231,-0.1416414913403739,-0.4020362124262078
2025-03-10 13:11:27.349,87.52136752136752,0.0010175583667946,-0.1417413696443749,-0.1407237993041216,-0.3866218490301527
2025-03-10 13:11:27.351,87.52136752136752,-0.0013248550885487,-0.1397314125886888,-0.1410562547501061,-0.3691582948750376
2025-03-10 13:11:27.352,87.52136752136752,-0.0042851622270591,-0.137164308715666,-0.1414494570574956,-0.3501917719736053
2025-03-10 13:11:27.354,87.52136752136752,-0.0071140454172649,-0.1333655122594935,-0.1404795428332461,-0.3303256200773011
2025-03-10 13:11:27.356,87.52136752136752,-0.008798751694539,-0.1285376994530258,-0.1373364353510917,-0.3097526565553878
2025-03-10 13:11:27.358,87.52136752136752,-0.0086028010880559,-0.123928305488623,-0.1325310898362937,-0.2881415819260247
2025-03-10 13:11:27.360,87.52136752136752,-0.0066249712998188,-0.1213205671144081,-0.127945520739281,-0.2649444103382831
2025-03-10 13:11:27.362,87.52136752136752,-0.0039053860412983,-0.1221253348115056,-0.1260307022499794,-0.2398447519386227
2025-03-10 13:11:27.364,87.52136752136752,-0.0019191904887532,-0.126595945375834,-0.1285151163369212,-0.2129846534693898
2025-03-10 13:11:27.366,87.52136752136752,-0.0017919768440102,-0.1335935768816619,-0.1353855332737816,-0.1848658286046274
2025-03-10 13:11:27.368,87.52136752136752,-0.0037776594619098,-0.1410198223868383,-0.1447974604731873,-0.1561268592932686
2025-03-10 13:11:27.370,87.52136752136752,-0.0072994401434239,-0.1467022070910486,-0.1540016249376755,-0.127426507366101
2025-03-10 13:11:27.372,87.52136752136752,-0.0114296238501003,-0.149306919070055,-0.1607365197069109,-0.0994354887570411
2025-03-10 13:11:27.374,87.52136752136752,-0.0154247350674137,-0.1488413312344869,-0.1642660421783517,-0.0727732091540882
2025-03-10 13:11:27.376,87.52136752136752,-0.0189728662632821,-0.1465167558874384,-0.1654895971227874,-0.0478282288746598
2025-03-10 13:11:27.378,87.52136752136752,-0.0220636563103805,-0.1440715138255132,-0.1661351442082405,-0.0246231555928416
2025-03-10 13:11:27.380,87.52136752136752,-0.0246706284518957,-0.1429170509123917,-0.1675876525404314,-0.002922531810272
2025-03-10 13:11:27.382,87.52136752136752,-0.0265442251900638,-0.1435343200145709,-0.1700785174879556,0.0174492798739863
2025-03-10 13:11:27.384,87.52136752136752,-0.027278185301873,-0.1454085311111345,-0.1726866878078136,0.036372155617668
2025-03-10 13:11:27.386,87.52136752136752,-0.0265762219103886,-0.1475089960719166,-0.1740851884941384,0.0535591089876802
2025-03-10 13:11:27.388,87.52136752136752,-0.0245188575801295,-0.149010724434474,-0.1735295516495576,0.0690231065701304
2025-03-10 13:11:27.390,87.52136752136752,-0.0216525068867652,-0.1497991112876816,-0.1714515869380004,0.083499018621509
2025-03-10 13:11:27.392,87.52136752136752,-0.0188132953777489,-0.1504408675959405,-0.1692541308699247,0.0983665158395999
2025-03-10 13:11:27.393,87.52136752136752,-0.0167327731461358,-0.1516777398831914,-0.1684104800611544,0.1149638163600463
2025-03-10 13:11:27.395,87.52136752136752,-0.0156362239193356,-0.1538340423409677,-0.1694702324306176,0.1336921209274784
2025-03-10 13:11:27.397,87.52136752136752,-0.0151080422239061,-0.1565588447583945,-0.1716668522953259,0.1535289034042553
2025-03-10 13:11:27.399,87.52136752136752,-0.0143456041979522,-0.1590340723587492,-0.1733796410185965,0.1723018781328342
2025-03-10 13:11:27.401,87.52136752136752,-0.0126452022929697,-0.1604420971919352,-0.1730872631031525,0.1875870003302459
2025-03-10 13:11:27.403,87.52136752136752,-0.0098016957314194,-0.1603823405187004,-0.1701839990320236,0.1977677352891189
2025-03-10 13:11:27.405,87.52136752136752,-0.0061900160107762,-0.1590579596244044,-0.1652479375864108,0.2027751078357351
2025-03-10 13:11:27.407,87.52136752136752,-0.0025266905263187,-0.1572051334456713,-0.1597317850961367,0.2042189293927007
2025-03-10 13:11:27.409,87.52136752136752,0.000509963278481,-0.1557890881901018,-0.1552790852110888,0.2048672462047888
2025-03-10 13:11:27.411,87.52136752136752,0.0025763354411439,-0.1555455607178444,-0.1529691847544137,0.2076634918429102
2025-03-10 13:11:27.413,87.52136752136752,0.0037257390739301,-0.1565829109891407,-0.1528571305760455,0.2146603016849129
2025-03-10 13:11:27.415,87.52136752136752,0.0042412857181837,-0.1583173996608489,-0.154076071793676,0.2263113323473482
2025-03-10 13:11:27.417,87.52136752136752,0.0043993746004338,-0.1598222299372349,-0.1554228123860561,0.2414186852982515
2025-03-10 13:11:27.419,87.52136752136752,0.0043565707974,-0.1603637599946487,-0.1560071454520008,0.2577349959931422
2025-03-10 13:11:27.421,87.52136752136752,0.0042199487161648,-0.1597679201573824,-0.155547926906602,0.2729299962458044
2025-03-10 13:11:27.423,87.52136752136752,0.004174688585549,-0.1584115682193561,-0.1542368343129607,0.2854962621962409
2025-03-10 13:11:27.425,87.52136752136752,0.0044837501006507,-0.1569182287205572,-0.1524344325155037,0.2952210865926424
2025-03-10 13:11:27.427,87.52136752136752,0.0053064436740492,-0.1558203010026128,-0.1505138104448028,0.3030483577534518
2025-03-10 13:11:27.429,87.52136752136752,0.0064781115416836,-0.1554009161456982,-0.1489227569477227,0.3104413300157103
2025-03-10 13:11:27.431,87.52136752136752,0.0074642298394601,-0.1557238217330113,-0.1482595434735707,0.318619978603576
2025-03-10 13:11:27.433,87.52136752136752,0.0075821693537957,-0.1566986400226037,-0.1491164214939219,0.3280914948291414
2025-03-10 13:11:27.435,87.52136752136752,0.0063809412632289,-0.1580356908272548,-0.15165469964068,0.3386392740051974
2025-03-10 13:11:27.436,87.52136752136752,0.0039550869364913,-0.1590797832777998,-0.1551246456726503,0.3496083958200346
2025-03-10 13:11:27.438,87.52136752136752,0.001014246357461,-0.1586695694314812,-0.1576552716610612,0.3602382248222853
2025-03-10 13:11:27.440,87.52136752136752,-0.0013325973375503,-0.1552448666755731,-0.1565774118575214,0.3699243331911774
2025-03-10 13:11:27.442,87.52136752136752,-0.0019917367428489,-0.1473194939962906,-0.1493111778459928,0.3783688819138754
2025-03-10 13:11:27.444,87.52136752136752,-0.0003370042723046,-0.1341761733680452,-0.1345131240191986,0.3855592579051659
2025-03-10 13:11:27.446,87.52136752136752,0.0034878457466356,-0.1164367519221507,-0.1129488518386771,0.3915857685747722
2025-03-10 13:11:27.448,87.52136752136752,0.0085708300112991,-0.0961835228324027,-0.0876126377800399,0.3964697026684561
2025-03-10 13:11:27.450,87.52136752136752,0.0135739341571287,-0.0764898826065973,-0.0629158927111786,0.4002035344490527
2025-03-10 13:11:27.452,87.52136752136752,0.0172774913521623,-0.060435076966271,-0.0431575291797725,0.4029909908796846
2025-03-10 13:11:27.454,87.52136752136752,0.0190627948703506,-0.0499198546392334,-0.0308570026358625,0.4053967990443557
2025-03-10 13:11:27.456,87.52136752136752,0.0190975804578197,-0.0448325194581539,-0.0257348811667409,0.4081169804603002
2025-03-10 13:11:27.458,87.52136752136752,0.0181546267977546,-0.0431231032341222,-0.0249684179057753,0.4114464636221621
2025-03-10 13:11:27.460,87.52136752136752,0.0171708240797703,-0.0419276939004738,-0.0247568106042321,0.4148757434261041
2025-03-10 13:11:27.462,87.52136752136752,0.0167534887980976,-0.0391970549157492,-0.0224435062318951,0.4172097191544384
2025-03-10 13:11:27.464,87.52136752136752,0.0168596823386778,-0.0348388666376963,-0.0179791237605714,0.4172410297728252
2025-03-10 13:11:27.466,87.52136752136752,0.0168239667343658,-0.0306292097371894,-0.0138051818222222,0.4146242558006093
2025-03-10 13:11:27.468,87.52136752136752,0.0157790470122854,-0.0289799424621041,-0.0132008336283327,0.4103923384356754
2025-03-10 13:11:27.470,87.52136752136752,0.0133036019364212,-0.0314168754739935,-0.0181132110689706,0.4067012499699275
2025-03-10 13:11:27.472,87.52136752136752,0.0099282967595505,-0.0377285785662025,-0.027800218683404,0.4058868298067547
2025-03-10 13:11:27.474,87.52136752136752,0.0071208641842978,-0.0461860823348419,-0.0390651543713383,0.4093976531982111
2025-03-10 13:11:27.476,87.52136752136752,0.0066605749902853,-0.0545280199657411,-0.0478673805498927,0.4172204444213894
2025-03-10 13:11:27.477,87.52136752136752,0.0097150922222825,-0.0610400226267687,-0.0513248653520595,0.4280396438630258
2025-03-10 13:11:27.479,87.52136752136752,0.0161159781930228,-0.0651384440985583,-0.0490224002490065,0.4399018564754052
2025-03-10 13:11:27.481,87.52136752136752,0.0241968805782643,-0.067237323083873,-0.0430403762620405,0.4509164954779002
2025-03-10 13:11:27.483,87.52136752136752,0.0312910498659111,-0.0681047639302992,-0.036813647238665,0.4596280821004331
2025-03-10 13:11:27.485,87.52136752136752,0.0347324159549596,-0.0681718976165705,-0.0334394142462278,0.4650066245659835
2025-03-10 13:11:27.487,87.52136752136752,0.0329848129796884,-0.0672199299401963,-0.0342350489421871,0.4662659144244024
2025-03-10 13:11:27.489,87.52136752136752,0.026386527100446,-0.0646082558863891,-0.0382216601558741,0.4627796197009826
2025-03-10 13:11:27.491,87.52136752136752,0.0170782081955429,-0.0598963244111198,-0.0428180469778608,0.454275898211475
2025-03-10 13:11:27.493,87.52136752136752,0.0080613944026291,-0.0535062134396736,-0.0454447492105796,0.4413678376077773
2025-03-10 13:11:27.495,87.52136752136752,0.0018519173114018,-0.0470472310756297,-0.0451952433766078,0.4262861636091018
2025-03-10 13:11:27.497,87.52136752136752,-0.0005424759497115,-0.0430581291120554,-0.0436005341380773,0.4133677292487319
2025-03-10 13:11:27.499,87.52136752136752,0.0001650092685157,-0.0441525109826154,-0.0439874302664645,0.4086252458202284
2025-03-10 13:11:27.501,87.52136752136752,0.0020789343922196,-0.0518450661914423,-0.0497660598228478,0.4179348587899034
2025-03-10 13:11:27.503,87.52136752136752,0.0029822683301796,-0.0656073606017077,-0.0626250197497276,0.4441407110228172
2025-03-10 13:11:27.505,87.52136752136752,0.0011111278835437,-0.0827342518827508,-0.0816230509151124,0.4843969506804462
2025-03-10 13:11:27.507,87.52136752136752,-0.004335800555521,-0.0992388195411176,-0.103574546445537,0.5296516869146157
2025-03-10 13:11:27.509,87.52136752136752,-0.0129891564395298,-0.1114147161173224,-0.1244037983524946,0.5674429568007103
2025-03-10 13:11:27.511,87.52136752136752,-0.0234393535525714,-0.1173292769192599,-0.1407685557430417,0.5870364154495678
2025-03-10 13:11:27.513,87.52136752136752,-0.0337187355336071,-0.1175730350767225,-0.1512916953893622,0.5839718912843742
2025-03-10 13:11:27.515,87.52136752136752,-0.0419871164314803,-0.1149486605731216,-0.1569357013132154,0.5613067255117459
2025-03-10 13:11:27.517,87.52136752136752,-0.0471099789258997,-0.1131961712138484,-0.160306073980416,0.527203235419707
2025-03-10 13:11:27.518,87.52136752136752,-0.0488709740575448,-0.1152454799028196,-0.1641163773175194,0.4908234704202879
2025-03-10 13:11:27.520,87.52136752136752,-0.0478118923425888,-0.121787301314483,-0.1695991165080325,0.4589870860058031
2025-03-10 13:11:27.522,87.52136752136752,-0.0448947369542764,-0.130922523914554,-0.1758171831988357,0.4348949422674549
2025-03-10 13:11:27.524,87.52136752136752,-0.0411781451782264,-0.1391489724241771,-0.1803270394158176,0.4187045910177416
2025-03-10 13:11:27.526,87.52136752136752,-0.0375970498176726,-0.1432183304691657,-0.1808153016084384,0.408894905344241
2025-03-10 13:11:27.528,87.52136752136752,-0.0348648581226045,-0.1419020152050613,-0.1767667941930885,0.403433806532787
2025-03-10 13:11:27.530,87.52136752136752,-0.0334713825309817,-0.1367256986634119,-0.1701970016345894,0.4003766956373099
2025-03-10 13:11:27.532,87.52136752136752,-0.0337033087246896,-0.1312366358701658,-0.1649398646226919,0.3980704245453784
2025-03-10 13:11:27.534,87.52136752136752,-0.0356244082419304,-0.1291118283156599,-0.1647361561637492,0.3952672712142663
2025-03-10 13:11:27.536,87.52136752136752,-0.0390278398968161,-0.1320593483418473,-0.1710871073991517,0.3912489835080128
2025-03-10 13:11:27.538,87.52136752136752,-0.0434169280154191,-0.1386753699679438,-0.1820922166748312,0.3858641412801576
2025-03-10 13:11:27.540,87.52136752136752,-0.048041696771701,-0.1450204294786279,-0.1930620444652113,0.3794230789987107
2025-03-10 13:11:27.542,87.52136752136752,-0.0519908311926551,-0.1468128981637531,-0.1988036471099051,0.3725636659053278
2025-03-10 13:11:27.544,87.52136752136752,-0.0543455547054547,-0.1422431943478552,-0.1965886663784716,0.3662401476327306
2025-03-10 13:11:27.546,87.52136752136752,-0.0543807874867941,-0.1339611561219509,-0.1883418605421554,0.3618436039773087
2025-03-10 13:11:27.548,87.52136752136752,-0.0517507912567849,-0.1290187220392813,-0.1807694298615775,0.3613176960991307
2025-03-10 13:11:27.550,87.52136752136752,-0.0466093013314663,-0.1363924340329869,-0.1830016515634758,0.3671193236097794
2025-03-10 13:11:27.552,87.52136752136752,-0.0396799169498897,-0.162845169340736,-0.2025250021040473,0.3819130533866905
2025-03-10 13:11:27.554,87.52136752136752,-0.0322765338754309,-0.2088292016984568,-0.2411056509746075,0.4078823662357477
2025-03-10 13:11:27.556,87.52136752136752,-0.0261352237817787,-0.266407220008453,-0.2925423587597445,0.4455879535949313
2025-03-10 13:11:27.558,87.52136752136752,-0.0228451183315771,-0.3205221680220417,-0.3433672008940024,0.4925675324904107
2025-03-10 13:11:27.560,87.52136752136752,-0.0228760486537803,-0.353495908991526,-0.3763718717804295,0.5423083419632786
2025-03-10 13:11:27.561,87.52136752136752,-0.0246256771216945,-0.3509587530030287,-0.3755843438901712,0.5845132131326563
2025-03-10 13:11:27.563,87.52136752136752,-0.0241566279372513,-0.3064868269647685,-0.33064336832911,0.6072887161102678
2025-03-10 13:11:27.565,87.52136752136752,-0.0160372008721529,-0.2228490924534463,-0.2388862064278391,0.6008496881731104
2025-03-10 13:11:27.567,87.52136752136752,0.0049254643038653,-0.1096687830619497,-0.1047432315269872,0.5611122360406412
2025-03-10 13:11:27.569,87.52136752136752,0.0417697937180194,0.0208892974747029,0.062659178780539,0.4911785584709607
2025-03-10 13:11:27.571,87.52136752136752,0.0940234061535708,0.1583074719056676,0.2523309660276205,0.3997138301177618
2025-03-10 13:11:27.573,87.52136752136752,0.1573257800534714,0.2964486245275525,0.4537744929401129,0.2969414233323573
2025-03-10 13:11:27.575,87.52136752136752,0.2241197755742511,0.4345329594978321,0.6586528238116237,0.1902620175022141
2025-03-10 13:11:27.577,87.52136752136752,0.285296009967756,0.5766203412296973,0.8619164402906883,0.081623223014177
2025-03-10 13:11:27.579,87.52136752136752,0.3324454045953979,0.7298895954655703,1.0623350894767027,-0.0322152030769742
2025-03-10 13:11:27.581,87.52136752136752,0.3600728531447637,0.90168563136228,1.2617585742234056,-0.156899710939956
2025-03-10 13:11:27.583,87.52136752136752,0.3669577563646808,1.095045632276864,1.4620034786544356,-0.2967731036600155
2025-03-10 13:11:27.585,87.52136752136752,0.3560253009159175,1.3030391497008813,1.6590645409391018,-0.4519157197175076
2025-03-10 13:11:27.587,87.52136752136752,0.3326547852024955,1.5041322160155102,1.836787091870492,-0.6166410381648826
2025-03-10 13:11:27.589,87.52136752136752,0.3021407956585169,1.6625235483426208,1.9646644350000912,-0.7792194863138329
2025-03-10 13:11:27.591,87.52136752136752,0.2676051313799701,1.7364808275408254,2.004086050268677,-0.9226773384634576
2025-03-10 13:11:27.593,87.52136752136752,0.2295150691958299,1.69330327605102,1.92281843693033,-1.0271990385178402
2025-03-10 13:11:27.595,87.52136752136752,0.1870208600742432,1.5243751763633102,1.7113961284333008,-1.074678122637819
2025-03-10 13:11:27.597,87.52136752136752,0.1401598672575436,1.252163968936069,1.3923239284784392,-1.0546575106051348
2025-03-10 13:11:27.599,87.52136752136752,0.0914067824163152,0.92475741129099,1.0161642862674527,-0.9691456188005328
2025-03-10 13:11:27.601,87.52136752136752,0.0454982296154116,0.6002107408353649,0.6457090632860202,-0.8334012552125203
2025-03-10 13:11:27.602,87.52136752136752,0.0076274745798534,0.3281727471739241,0.3358003148749031,-0.6716405180037304
2025-03-10 13:11:27.604,87.52136752136752,-0.0188059957517011,0.1369029379267904,0.1180970355965406,-0.5094807053608884
2025-03-10 13:11:27.606,87.52136752136752,-0.0334606002340687,0.0299607551584936,-0.0034997513440283,-0.3665786817144252
2025-03-10 13:11:27.608,87.52136752136752,-0.0386735941294895,-0.0084975516843706,-0.0471710517725659,-0.2523949799545487
2025-03-10 13:11:27.610,87.52136752136752,-0.0379503078349995,-0.0042176650520592,-0.0421678785469135,-0.1661497224380744
2025-03-10 13:11:27.612,87.52136752136752,-0.0344568563809359,0.0164258319880679,-0.0180309297710889,-0.1001537338609717
2025-03-10 13:11:27.614,87.52136752136752,-0.0303425728288053,0.0329664066521865,0.0026239287098004,-0.0445945315996698
2025-03-10 13:11:27.616,87.52136752136752,-0.0269089797905317,0.0340216311118891,0.0071127464614754,0.0082524668366273
2025-03-10 13:11:27.618,87.52136752136752,-0.0250502496710616,0.0174637603578496,-0.0075863939215062,0.0617315474942883
2025-03-10 13:11:27.620,87.52136752136752,-0.0254008919887628,-0.0116946118150933,-0.0370954081549047,0.1147704163038806
2025-03-10 13:11:27.622,87.52136752136752,-0.0280915761596541,-0.0447468921118922,-0.0728383723559982,0.1635666637099615
2025-03-10 13:11:27.624,87.52136752136752,-0.0324566663207413,-0.0729668167605409,-0.1054233868913259,0.2039537831001969
2025-03-10 13:11:27.626,87.52136752136752,-0.0370884093967269,-0.0905204011663369,-0.1276087140967569,0.2333417450412238
2025-03-10 13:11:27.628,87.52136752136752,-0.0403342359585685,-0.0959891336995457,-0.1363232729212786,0.2515492042785848
2025-03-10 13:11:27.630,87.52136752136752,-0.0410027694254213,-0.0922980576579334,-0.1333007300884535,0.2605435505333376
2025-03-10 13:11:27.632,87.52136752136752,-0.0389170184938201,-0.0852132900038219,-0.124130211260096,0.263598516527706
2025-03-10 13:11:27.634,87.52136752136752,-0.0350312294216039,-0.0809255421422694,-0.1159566740971346,0.2643641052767784
2025-03-10 13:11:27.636,87.52136752136752,-0.0310207013222258,-0.0835612500335991,-0.1145818536670132,0.266046402566568
2025-03-10 13:11:27.638,87.52136752136752,-0.0285137234346079,-0.0935938652143684,-0.1221074907368192,0.2707376472831355
2025-03-10 13:11:27.640,87.52136752136752,-0.0283646220481735,-0.1078585172097539,-0.1362230411140504,0.2790022177510047
2025-03-10 13:11:27.642,87.52136752136752,-0.0303787821138864,-0.1212052311087589,-0.1515839148360387,0.2898697425308532
2025-03-10 13:11:27.644,87.52136752136752,-0.0336266993207692,-0.1290473789094191,-0.1626739795932903,0.3012714023031735
2025-03-10 13:11:27.645,87.52136752136752,-0.0371075244515474,-0.1295891337539855,-0.1666965593194004,0.3107997097683052
2025-03-10 13:11:27.647,87.52136752136752,-0.0403195740105681,-0.1246415441831724,-0.1649610190697981,0.3165985652271161
2025-03-10 13:11:27.649,87.52136752136752,-0.0434064909656795,-0.1186315796142383,-0.162037971237012,0.3181393410051828
2025-03-10 13:11:27.651,87.52136752136752,-0.0468641114536493,-0.1163158753170084,-0.1631798872282292,0.3165659903889552
2025-03-10 13:11:27.653,87.52136752136752,-0.0510471711104475,-0.1203645294974294,-0.1714116008780954,0.3143462956045287
2025-03-10 13:11:27.655,87.52136752136752,-0.0557514210973046,-0.1300468366342278,-0.1857981578141512,0.3142530396707004
2025-03-10 13:11:27.657,87.52136752136752,-0.0600597412893762,-0.1416753392036631,-0.2017349803758489,0.3180658288014623
2025-03-10 13:11:27.659,87.52136752136752,-0.0625660745679332,-0.1505345783029115,-0.2131005525361229,0.3256101740242221
2025-03-10 13:11:27.661,87.52136752136752,-0.0619828549650856,-0.1532565827029517,-0.2152393371023787,0.3347096394627356
2025-03-10 13:11:27.663,87.52136752136752,-0.0579100106118558,-0.1494277409091167,-0.2073376507238462,0.3422350281053823
2025-03-10 13:11:27.665,87.52136752136752,-0.0513234324758055,-0.1416675604532877,-0.1929908919156516,0.3457755918904026
2025-03-10 13:11:27.667,87.52136752136752,-0.0443856452529131,-0.1342143517219891,-0.1785998957710892,0.3449638136796175
2025-03-10 13:11:27.669,87.52136752136752,-0.0395622989322775,-0.1307756123929878,-0.1703378099570835,0.341631198349949
2025-03-10 13:11:27.671,87.52136752136752,-0.038498704918984,-0.1327259656227275,-0.1712245690236813,0.3387271135234065
2025-03-10 13:11:27.673,87.52136752136752,-0.0413062000665757,-0.1385335138080365,-0.1798396122032804,0.3387273416731557
2025-03-10 13:11:27.675,87.52136752136752,-0.0466592934062569,-0.1446651823815962,-0.1913243739440306,0.3425024968148604
2025-03-10 13:11:27.677,87.52136752136752,-0.0525849891547242,-0.1474670296393959,-0.2000519167532739,0.3491835904121267
2025-03-10 13:11:27.679,87.52136752136752,-0.057420382490151,-0.1450347493098089,-0.2024550295459358,0.3568677998654089
2025-03-10 13:11:27.681,87.52136752136752,-0.06040704409039,-0.1381383496149443,-0.1985452912405724,0.3636088189796619
2025-03-10 13:11:27.683,87.52136752136752,-0.0617264506886601,-0.1297791151098101,-0.1915054631452979,0.3681984937996352
2025-03-10 13:11:27.685,87.52136752136752,-0.0621424495462477,-0.1236341826552456,-0.1857765293933842,0.370499118514617
2025-03-10 13:11:27.686,87.52136752136752,-0.0625394987516254,-0.1221592078827758,-0.1846986037011971,0.3712778962575474
2025-03-10 13:11:27.688,87.52136752136752,-0.0635405755832407,-0.1252741759163212,-0.1888146484539356,0.3716482319209603
2025-03-10 13:11:27.690,87.52136752136752,-0.0652644555655891,-0.1303167618543525,-0.1955811142520505,0.3724110016219956
2025-03-10 13:11:27.692,87.52136752136752,-0.0672707740403111,-0.1333814363659019,-0.200652107089576,0.3736989901791203
2025-03-10 13:11:27.694,87.52136752136752,-0.068757440242892,-0.131432481980228,-0.200189818729123,0.3751622643887067
2025-03-10 13:11:27.696,87.52136752136752,-0.0689873380701201,-0.1240372715926156,-0.1930245059766812,0.376523109018644
2025-03-10 13:11:27.698,87.52136752136752,-0.0677643410812319,-0.1136604655147793,-0.1814247027266181,0.3780197908829059
2025-03-10 13:11:27.700,87.52136752136752,-0.0656890662475865,-0.1042979569879032,-0.1699869192128533,0.3803582445078352
2025-03-10 13:11:27.702,87.52136752136752,-0.0639877076145068,-0.0992838315984519,-0.163271435075717,0.3842101534868262
2025-03-10 13:11:27.704,87.52136752136752,-0.063932005058936,-0.0995800782702163,-0.1635119791070934,0.3896500395909794
2025-03-10 13:11:27.706,87.52136752136752,-0.0661513566588957,-0.1034458253350294,-0.1695970776947056,0.3959454058016361
2025-03-10 13:11:27.708,87.52136752136752,-0.0702563050669757,-0.107502150160661,-0.1777583508343675,0.4018554014431272
2025-03-10 13:11:27.710,87.52136752136752,-0.075015846727266,-0.1084980609754441,-0.1835138031837958,0.4062671063719171
2025-03-10 13:11:27.712,87.52136752136752,-0.0789886485297677,-0.1048509186536716,-0.1838394625099073,0.4087760676000242
2025-03-10 13:11:27.714,87.52136752136752,-0.0812387651023479,-0.0972478334001011,-0.1784864936641787,0.4098266630658009
2025-03-10 13:11:27.716,87.52136752136752,-0.0817175934854628,-0.0880983098568136,-0.1698157983550027,0.4103129378825574
2025-03-10 13:11:27.718,87.52136752136752,-0.0811013257985269,-0.0802047786341836,-0.1613059993322353,0.4109228522931106
2025-03-10 13:11:27.720,87.52136752136752,-0.0802406329730557,-0.0753898439909876,-0.1556303717904636,0.4116909462966722
2025-03-10 13:11:27.722,87.52136752136752,-0.0796372623830704,-0.0737823697442669,-0.1534195269070951,0.4120730768975005
2025-03-10 13:11:27.724,87.52136752136752,-0.0792735593900641,-0.0740533501629489,-0.1533268042876731,0.411484498776114
2025-03-10 13:11:27.726,87.52136752136752,-0.0787950037644404,-0.0743654683707925,-0.1531603668025477,0.409906933404604
2025-03-10 13:11:27.727,87.52136752136752,-0.0778262707867811,-0.0734495693060302,-0.1512757346595179,0.4081201951937319
2025-03-10 13:11:27.729,87.52136752136752,-0.0762243693432063,-0.0712139820949564,-0.1474382458781474,0.407394742291824
2025-03-10 13:11:27.731,87.52136752136752,-0.0741823454706794,-0.0686055370786052,-0.1427877768581277,0.4088643260198251
2025-03-10 13:11:27.733,87.52136752136752,-0.0721597988473386,-0.0668772615379483,-0.1390369545840625,0.4129782070254185
2025-03-10 13:11:27.735,87.52136752136752,-0.070661250442405,-0.0667347805597451,-0.1373959251287254,0.4193172365712475
2025-03-10 13:11:27.737,87.52136752136752,-0.0699530090583224,-0.0678750479768695,-0.1378279511274469,0.4268069699367912
2025-03-10 13:11:27.739,87.52136752136752,-0.0698611553019741,-0.0691779846922478,-0.1390390340735093,0.4341682888205477
2025-03-10 13:11:27.741,87.52136752136752,-0.0697703090095495,-0.0694094425060488,-0.1391796455785033,0.4403821357399175
2025-03-10 13:11:27.743,87.52136752136752,-0.0688472505913772,-0.0679877371565785,-0.1368348817701957,0.4449821014920737
2025-03-10 13:11:27.745,87.52136752136752,-0.0663990074644628,-0.0653248541748755,-0.131723755589637,0.4480763711754301
2025-03-10 13:11:27.747,87.52136752136752,-0.062203505022151,-0.0624967979685155,-0.1247001968476481,0.4501147763660037
2025-03-10 13:11:27.749,87.52136752136752,-0.0566535645404386,-0.0604286480176022,-0.1170821063219269,0.451541849161829
2025-03-10 13:11:27.751,87.52136752136752,-0.0506288292190867,-0.0591549285793398,-0.1097836514920868,0.4525436315736326
2025-03-10 13:11:27.753,87.52136752136752,-0.0451377205855305,-0.0577135881627217,-0.1028512024074668,0.4530363722924187
2025-03-10 13:11:27.755,87.52136752136752,-0.0409019212937473,-0.0547760794284967,-0.0956778943801963,0.452898206021099
2025-03-10 13:11:27.757,87.52136752136752,-0.0380905426158182,-0.0495560515304317,-0.0876464878198068,0.4522977779158108
2025-03-10 13:11:27.759,87.52136752136752,-0.0362998799583848,-0.0423435635542988,-0.0786433371968376,0.4518865715876013
2025-03-10 13:11:27.761,87.52136752136752,-0.0347139497172366,-0.0343221931520389,-0.0690360365419777,0.4526730583172517
2025-03-10 13:11:27.763,87.52136752136752,-0.0323183379178598,-0.0268642884651884,-0.059182520017689,0.4556157892793331
2025-03-10 13:11:27.765,87.52136752136752,-0.0281028821583547,-0.0208326370926148,-0.0489354128303647,0.4611950469528635
2025-03-10 13:11:27.767,87.52136752136752,-0.0212827785191061,-0.0163160840168708,-0.0375987560613809,0.4692318683148583
2025-03-10 13:11:27.769,87.52136752136752,-0.0115803958421179,-0.0128441198508644,-0.0244244091843245,0.4790289100592828
2025-03-10 13:11:27.770,87.52136752136752,0.0005063357851057,-0.0098132324255326,-0.0093067901281754,0.4897053427073709
2025-03-10 13:11:27.772,87.52136752136752,0.0136647686732151,-0.0068116215466445,0.0068532536137966,0.5005169511071779
2025-03-10 13:11:27.774,87.52136752136752,0.0261286039245951,-0.0036791962303581,0.0224495141406087,0.5109903964701834
2025-03-10 13:11:27.776,87.52136752136752,0.0363301418690948,-0.0003315483147922,0.0359986999616184,0.5208228224688807
2025-03-10 13:11:27.778,87.52136752136752,0.0434685672092676,0.0034920174314191,0.0469606910254083,0.529667286735549
2025-03-10 13:11:27.780,87.52136752136752,0.0476493279202913,0.0083713929276816,0.0560208272321774,0.5370365987552591
2025-03-10 13:11:27.782,87.52136752136752,0.0495692149043149,0.0151248044123322,0.0646941257170083,0.5424784201317223
2025-03-10 13:11:27.784,87.52136752136752,0.0500418915906812,0.0245051194796057,0.0745471174897254,0.5459251132462316
2025-03-10 13:11:27.786,87.52136752136752,0.0497039394043021,0.0368013496632354,0.0865053954928237,0.5479236708109761
2025-03-10 13:11:27.788,87.52136752136752,0.0490168408663095,0.0515655613210183,0.1005825085934034,0.549496026011272
2025-03-10 13:11:27.790,87.52136752136752,0.0484336603646397,0.0676520331855731,0.1160857999093436,0.5516402350556752
2025-03-10 13:11:27.792,87.52136752136752,0.0485383585685516,0.0835804266813918,0.1321188915419954,0.5547533105065882
2025-03-10 13:11:27.794,87.52136752136752,0.0500683606869006,0.0980528312769607,0.1481212981835825,0.5583279317498592
2025-03-10 13:11:27.796,87.52136752136752,0.053837652810101,0.1103945173265132,0.1642322762949155,0.5610971528701274
2025-03-10 13:11:27.798,87.52136752136752,0.0605997108337941,0.1207326835433479,0.1813325004956339,0.5615232320243324
2025-03-10 13:11:27.800,87.52136752136752,0.0708659331400321,0.1298181404750085,0.2006841797157564,0.5583655999568675
2025-03-10 13:11:27.802,87.52136752136752,0.0846912787674242,0.1385534530816303,0.2232448379434077,0.5510965667419374
2025-03-10 13:11:27.804,87.52136752136752,0.10147085570705,0.1475009477173687,0.2489719095061227,0.5400617321951289
2025-03-10 13:11:27.806,87.52136752136752,0.1198312190104142,0.1567107858064344,0.2765421108622553,0.5263879848645434
2025-03-10 13:11:27.808,87.52136752136752,0.1377085139827493,0.1659674221593684,0.3036760421184878,0.511687938101538
2025-03-10 13:11:27.810,87.52136752136752,0.1526633022967322,0.1751935541541001,0.3278569623294843,0.4976169648780166
2025-03-10 13:11:27.811,87.52136752136752,0.1623967626201344,0.1846590859948298,0.3470559543836368,0.4853752165539948
2025-03-10 13:11:27.813,87.52136752136752,0.1653446632197085,0.1948710814323203,0.360215850320537,0.4753351853181085
2025-03-10 13:11:27.815,87.52136752136752,0.1611897176699658,0.206248920879975,0.3674387441457752,0.4669952929210735
2025-03-10 13:11:27.817,87.52136752136752,0.1511355261836926,0.2187431922210116,0.3698788239597651,0.4593014610808683
2025-03-10 13:11:27.819,87.52136752136752,0.1377734660327873,0.2315775666972735,0.369351138264209,0.4511495939453109
2025-03-10 13:11:27.821,87.52136752136752,0.1244262094762293,0.2433348818910955,0.367761196876573,0.4418038102450144
2025-03-10 13:11:27.823,87.52136752136752,0.1140870484055987,0.2524989847736657,0.3665861386348386,0.4310835086461286
2025-03-10 13:11:27.825,87.52136752136752,0.1083731663561606,0.2582505299097658,0.3666238016255106,0.4193063513422653
2025-03-10 13:11:27.827,87.52136752136752,0.1069938637177763,0.261034542435401,0.3680285113796314,0.4070176138789657
2025-03-10 13:11:27.829,87.52136752136752,0.1079983767938111,0.2624482320771568,0.3704467139496865,0.3946110798994193
2025-03-10 13:11:27.831,87.52136752136752,0.1086720293252493,0.2643902577558661,0.3730623920272546,0.382085908401368
2025-03-10 13:11:27.833,87.52136752136752,0.106641713117135,0.2679201323248086,0.3745619502932617,0.3691544771057625
2025-03-10 13:11:27.835,87.52136752136752,0.1006913836809503,0.2725091547522614,0.3732006432312626,0.3556109105424954
2025-03-10 13:11:27.837,87.52136752136752,0.0909746868283169,0.2761328029008335,0.3671075944976116,0.3415950038187166
2025-03-10 13:11:27.839,87.52136752136752,0.0786260922456795,0.2761513051638734,0.354777502140411,0.3274934373811285
2025-03-10 13:11:27.841,87.52136752136752,0.0650621312509801,0.2705050597164979,0.335567295622401,0.3136084839317176
2025-03-10 13:11:27.843,87.52136752136752,0.0513883242412319,0.258626691094602,0.3100151198627649,0.2999501362599904
2025-03-10 13:11:27.845,87.52136752136752,0.0382022829146846,0.2416481456467766,0.2798505329187932,0.2863517575423011
2025-03-10 13:11:27.847,87.52136752136752,0.0257856530629541,0.2218451056466031,0.2476308628860816,0.2727909131666911
2025-03-10 13:11:27.849,87.52136752136752,0.0144306229862183,0.2016354945943312,0.2160662216009927,0.2596321279495585
2025-03-10 13:11:27.851,87.52136752136752,0.0046148527887438,0.1826400745289468,0.1872550312304902,0.2475961233090053
2025-03-10 13:11:27.852,87.52136752136752,-0.003111937190779,0.1652163169422132,0.1621044836042232,0.2374803467701035
2025-03-10 13:11:27.854,87.52136752136752,-0.0084620095152421,0.1485838168348905,0.1401219111343226,0.2298208473961897
2025-03-10 13:11:27.856,87.52136752136752,-0.0117346478381315,0.1313921850161074,0.119657640937863,0.224701628100429
2025-03-10 13:11:27.858,87.52136752136752,-0.0138697145735265,0.1124673468288827,0.0985977359113399,0.2218101186791285
2025-03-10 13:11:27.860,87.52136752136752,-0.0161185370374197,0.091454513349083,0.075336079804771,0.2206812552380101
2025-03-10 13:11:27.862,87.52136752136752,-0.0194758636839305,0.0690880308599686,0.0496122704656077,0.2209673475088237
2025-03-10 13:11:27.864,87.52136752136752,-0.0241860177362832,0.046921656899763,0.0227357422468717,0.2225795675837917
2025-03-10 13:11:27.866,87.52136752136752,-0.0296032971059545,0.0266202108882533,-0.0029829833040068,0.2256208559692852
2025-03-10 13:11:27.868,87.52136752136752,-0.0344956546383324,0.0092183672084119,-0.0252771846288553,0.2301038470876621
2025-03-10 13:11:27.870,87.52136752136752,-0.0376530584780845,-0.0051902100508351,-0.0428431657920887,0.2355538385496596
2025-03-10 13:11:27.872,87.52136752136752,-0.0385053321882896,-0.0171800450132734,-0.0556852745146884,0.240747408874402
2025-03-10 13:11:27.874,87.52136752136752,-0.0374420935568837,-0.0274218048626325,-0.0648637958111304,0.2438790752214301
2025-03-10 13:11:27.876,87.52136752136752,-0.0356734234197397,-0.0362847135476927,-0.0719580344961249,0.2432279949948518
2025-03-10 13:11:27.878,87.52136752136752,-0.0346980058811293,-0.0438791437603673,-0.0785770473678152,0.2380249483718979
2025-03-10 13:11:27.880,87.52136752136752,-0.0356314699884285,-0.0503979020548883,-0.0860292700003274,0.2290140089667987
2025-03-10 13:11:27.882,87.52136752136752,-0.0387056890759015,-0.0563676789919928,-0.095073266245296,0.2183511911379455
2025-03-10 13:11:27.884,87.52136752136752,-0.0431644944541856,-0.0625357563175288,-0.1057001491217062,0.2088499927079306
2025-03-10 13:11:27.886,87.52136752136752,-0.0475939851415537,-0.0694576654584998,-0.1170515490621743,0.2029040089725701
2025-03-10 13:11:27.888,87.52136752136752,-0.050524185789461,-0.0771071402188859,-0.1276312245408133,0.2015643679795317
2025-03-10 13:11:27.890,87.52136752136752,-0.0510249499376328,-0.0848052216251196,-0.1358300701644165,0.2042108694590034
2025-03-10 13:11:27.892,87.52136752136752,-0.0490492793856224,-0.0915143863703017,-0.1405635644676656,0.2089952198997409
2025-03-10 13:11:27.894,87.52136752136752,-0.04542275706882,-0.0962881699353884,-0.1417108258890363,0.2138194684099471
2025-03-10 13:11:27.895,87.52136752136752,-0.0415401333523738,-0.0986030456268021,-0.1401430780911876,0.2173222356230703
2025-03-10 13:11:27.897,87.52136752136752,-0.0389172870979946,-0.0984434350628103,-0.1373606215188403,0.2194071021067507
2025-03-10 13:11:27.899,87.52136752136752,-0.0387416201111227,-0.0962116953303565,-0.134953215020863,0.2211516050444923
2025-03-10 13:11:27.901,87.52136752136752,-0.0415164144600062,-0.0926082155329187,-0.1341245297393611,0.224209301958901
2025-03-10 13:11:27.903,87.52136752136752,-0.0468634287829046,-0.0885232510563021,-0.1353865796975056,0.2299644623438198
2025-03-10 13:11:27.905,87.52136752136752,-0.0535503283615085,-0.0848681119329296,-0.138418340237225,0.2387811352331228
2025-03-10 13:11:27.907,87.52136752136752,-0.0598015524410586,-0.0823331138357036,-0.1421345663184983,0.2497039309777087
2025-03-10 13:11:27.909,87.52136752136752,-0.063857958152905,-0.0812151513547422,-0.1450730096970655,0.2608105225921666
2025-03-10 13:11:27.911,87.52136752136752,-0.0645761037895708,-0.0814643006485221,-0.1460403048333733,0.2700581688418163
2025-03-10 13:11:27.913,87.52136752136752,-0.0617615004963926,-0.082904420666813,-0.1446658218030181,0.2761342857864501
2025-03-10 13:11:27.915,87.52136752136752,-0.0560670226356698,-0.0854015647175065,-0.1414684882385481,0.2788267914353857
2025-03-10 13:11:27.917,87.52136752136752,-0.0485687587048035,-0.0887944481515981,-0.1373631079523916,0.2787879277800691
2025-03-10 13:11:27.919,84.62809917355372,-0.0402971759268801,-0.0926451840647275,-0.1329422612472687,0.2769659183383323
2025-03-10 13:11:27.921,84.62809917355372,-0.0319363715962652,-0.096095342476529,-0.1280316154484796,0.2741291315054386
2025-03-10 13:11:27.923,84.62809917355372,-0.0237362774012909,-0.0980883662460357,-0.1218245451349676,0.270740125040415
2025-03-10 13:11:27.925,84.62809917355372,-0.0155860979251682,-0.0979211746928175,-0.1135071742441772,0.2671095986932548
2025-03-10 13:11:27.927,84.62809917355372,-0.0072124836404724,-0.0957614565779408,-0.1029738420295369,0.2635647538084241
2025-03-10 13:11:27.929,84.62809917355372,0.0014971055993616,-0.0927119447897618,-0.0912147412284438,0.2604717178710929
2025-03-10 13:11:27.931,84.62809917355372,0.0100881209358034,-0.0902877388581485,-0.080199520204527,0.2581794473070071
2025-03-10 13:11:27.933,84.62809917355372,0.0172098951414199,-0.0895845913824882,-0.0723745987536739,0.2569983819068634
2025-03-10 13:11:27.935,84.62809917355372,0.0206053287003782,-0.0906543604744188,-0.0700489344827592,0.2571905371133979
2025-03-10 13:11:27.936,84.62809917355372,0.0175995947041897,-0.0924990379789257,-0.0748993461448736,0.258896300857473
2025-03-10 13:11:27.938,84.62809917355372,0.0060526286817442,-0.0937062501958654,-0.0876535245292188,0.2620375317069909
2025-03-10 13:11:27.940,84.62809917355372,-0.0145457019280779,-0.0933308947764008,-0.107876499873532,0.2662919681785152
2025-03-10 13:11:27.942,84.62809917355372,-0.0423606672376445,-0.0914679949702469,-0.1338285655582873,0.2711204586718151
2025-03-10 13:11:27.944,84.62809917355372,-0.0733473337478998,-0.0891714166192402,-0.1625186539284874,0.2757701868598174
2025-03-10 13:11:27.946,84.62809917355372,-0.1023393373013936,-0.0877944754014893,-0.1901337164915429,0.2793237535950219
2025-03-10 13:11:27.948,84.62809917355372,-0.1246958712560764,-0.0881638147231308,-0.2128595899921039,0.2809631957485916
2025-03-10 13:11:27.950,84.62809917355372,-0.137789515810532,-0.0900544340223421,-0.227843854053122,0.2804141531667052
2025-03-10 13:11:27.952,84.62809917355372,-0.141675980423336,-0.0922520354402566,-0.2339279202733732,0.2782481567405039
2025-03-10 13:11:27.954,84.62809917355372,-0.1386815244117472,-0.0932127737803956,-0.2318942027843227,0.2757509751084244
2025-03-10 13:11:27.956,84.62809917355372,-0.1321655733272498,-0.09203121582855,-0.2241966939372139,0.2744055496350235
2025-03-10 13:11:27.958,84.62809917355372,-0.1251029721506322,-0.0891740745330708,-0.2142769516687321,0.2753104072504511
2025-03-10 13:11:27.960,84.62809917355372,-0.1191567674897038,-0.0864354810051254,-0.2055921536942469,0.2788180067421992
2025-03-10 13:11:27.962,84.62809917355372,-0.1145549036141889,-0.0859855557471124,-0.200540364774351,0.2844781366977726
2025-03-10 13:11:27.964,84.62809917355372,-0.1106132427411472,-0.0890215472050469,-0.1996346955616008,0.291255579218778
2025-03-10 13:11:27.966,84.62809917355372,-0.1064917495277441,-0.0948890795274839,-0.2013807348607608,0.2979395491008627
2025-03-10 13:11:27.968,84.62809917355372,-0.1017991060599163,-0.1012852023375266,-0.2030842143915987,0.3035514484763573
2025-03-10 13:11:27.970,84.62809917355372,-0.0968196542394792,-0.1054530923258372,-0.2022726527626618,0.3075169845624755
2025-03-10 13:11:27.972,84.62809917355372,-0.0923149134272998,-0.1056463935495646,-0.1979612134021291,0.3095600480346165
2025-03-10 13:11:27.974,84.62809917355372,-0.0890438040769623,-0.1020030474832875,-0.1910467582335075,0.3095125589017503
2025-03-10 13:11:27.976,84.62809917355372,-0.087298773978337,-0.0963676901373846,-0.1836663710374799,0.3072521034820801
2025-03-10 13:11:27.977,84.62809917355372,-0.0867386931954538,-0.0912553092661841,-0.1779939096080662,0.3028338111448281
2025-03-10 13:11:27.979,84.62809917355372,-0.0865834886134643,-0.0886527068654202,-0.1752361028122752,0.2967521104521973
2025-03-10 13:11:27.981,84.62809917355372,-0.0859945354042884,-0.0893689837884656,-0.1753634266831744,0.2901583580190746
2025-03-10 13:11:27.983,84.62809917355372,-0.0843977898044495,-0.0931450035960366,-0.177542701046752,0.2847806364586313
