Timestamp,GSR_Filtered,PPG_Filtered,FMSQ
2025-03-10 13:17:08.371,0.0050754828921389,-54.2605992901406,3.0
2025-03-10 13:17:08.390,0.0047181232022328,-54.4277744735688,3.0
2025-03-10 13:17:08.410,0.004334990410578,-53.9520012713878,3.0
2025-03-10 13:17:08.429,0.0039381739376523,-52.38067226141273,3.0
2025-03-10 13:17:08.449,0.0035396914065743,-49.16406881669221,3.0
2025-03-10 13:17:08.468,0.00315021592939,-43.73816256825791,3.0
2025-03-10 13:17:08.488,0.0027783602459239,-35.632155739924066,3.0
2025-03-10 13:17:08.507,0.0024304303072163,-24.579115026678256,3.0
2025-03-10 13:17:08.527,0.0021104195122914,-10.605990292363826,3.0
2025-03-10 13:17:08.546,0.0018200892858459,5.916564988239692,3.0
2025-03-10 13:17:08.566,0.0015591331060151,24.275349551604613,3.0
2025-03-10 13:17:08.586,0.0013254829050289,43.46706766548953,3.0
2025-03-10 13:17:08.605,0.0011157527028881,62.293357544156486,3.0
2025-03-10 13:17:08.625,0.0009257292230599,79.48379065264523,3.0
2025-03-10 13:17:08.644,0.0007508234292025,93.82967533080088,3.0
2025-03-10 13:17:08.664,0.0005864860239297,104.31153201824182,3.0
2025-03-10 13:17:08.683,0.0004286560825964,110.20492579333953,3.0
2025-03-10 13:17:08.703,0.0002742587870869,111.15239317030613,3.0
2025-03-10 13:17:08.722,0.0001216227921915,107.19325689058628,3.0
2025-03-10 13:17:08.742,-2.939940189812668e-05,98.7482047628626,3.0
2025-03-10 13:17:08.761,-0.0001777257284102,86.56153856293446,3.0
2025-03-10 13:17:08.781,-0.0003216425105795,71.61026890310136,3.0
2025-03-10 13:17:08.800,-0.0004594425115821,54.99420355785087,3.0
2025-03-10 13:17:08.820,-0.0005898903332186,37.823111237463394,3.0
2025-03-10 13:17:08.839,-0.0007124680754209,21.115221561854806,3.0
2025-03-10 13:17:08.859,-0.0008274517346588,5.71679778869949,3.0
2025-03-10 13:17:08.878,-0.0009358297720556,-7.752455418451928,3.0
2025-03-10 13:17:08.898,-0.0010389989316091,-18.92687488143103,3.0
2025-03-10 13:17:08.918,-0.0011381986232583,-27.69552847731555,3.0
2025-03-10 13:17:08.937,-0.0012338011412431,-34.17722386647998,3.0
2025-03-10 13:17:08.957,-0.0013247420417589,-38.67246446119089,3.0
2025-03-10 13:17:08.976,-0.0014083923273153,-41.59786874853825,3.0
2025-03-10 13:17:08.996,-0.0014809864318127,-43.4121334287222,3.0
2025-03-10 13:17:09.015,-0.0015384449204241,-44.545298318569664,3.0
2025-03-10 13:17:09.035,-0.0015772685341189,-45.34335439113975,3.0
2025-03-10 13:17:09.054,-0.0015952327460603,-46.037431275685584,3.0
2025-03-10 13:17:09.074,-0.0015917904237042,-46.74133681329769,3.0
2025-03-10 13:17:09.093,-0.00156821088278,-47.47449933300449,3.0
2025-03-10 13:17:09.113,-0.0015274592571535,-48.20125052583796,3.0
2025-03-10 13:17:09.132,-0.0014737493698009,-48.87358260593852,3.0
2025-03-10 13:17:09.152,-0.001411755882168,-49.46403640198632,3.0
2025-03-10 13:17:09.171,-0.0013456758587324,-49.97833802044364,3.0
2025-03-10 13:17:09.191,-0.0012785045688357,-50.44307546546251,3.0
2025-03-10 13:17:09.211,-0.0012118303102392,-50.87078573201116,3.0
2025-03-10 13:17:09.230,-0.0011461705056382,-51.211710269102014,3.0
2025-03-10 13:17:09.250,-0.0010815944965589,-51.30655027621273,3.0
2025-03-10 13:17:09.269,-0.0010183078553538,-50.856428255195226,3.0
2025-03-10 13:17:09.289,-0.0009569920524688,-49.42408475923575,3.0
2025-03-10 13:17:09.308,-0.0008988334562962,-46.47409659128811,3.0
2025-03-10 13:17:09.328,-0.0008452258632665,-41.450665267476985,3.0
2025-03-10 13:17:09.347,-0.0007971481929318,-33.881447949284706,3.0
2025-03-10 13:17:09.367,-0.0007543300911813,-23.48779782976219,3.0
2025-03-10 13:17:09.386,-0.0007145283675768,-10.278230289256877,3.0
2025-03-10 13:17:09.406,-0.000673374339763,5.395754459524933,3.0
2025-03-10 13:17:09.425,-0.0006251222013976,22.834819898079594,3.0
2025-03-10 13:17:09.445,-0.0005642233205104,41.04086976658973,3.0
2025-03-10 13:17:09.464,-0.0004872001561218,58.81287696278364,3.0
2025-03-10 13:17:09.484,-0.0003940974699178,74.87478053448262,3.0
2025-03-10 13:17:09.504,-0.0002889737592374,88.0168557810564,3.0
2025-03-10 13:17:09.523,-0.000179310604015,97.23138493525776,3.0
2025-03-10 13:17:09.543,-7.45744953728878e-05,101.82533957179685,3.0
2025-03-10 13:17:09.562,1.569746802937222e-05,101.49625734733016,3.0
2025-03-10 13:17:09.582,8.391182549895546e-05,96.36207488917718,3.0
2025-03-10 13:17:09.601,0.0001261134342543,86.94129938684057,3.0
2025-03-10 13:17:09.621,0.0001428731249044,74.08646333262064,3.0
2025-03-10 13:17:09.640,0.0001389840896104,58.88057825155209,3.0
2025-03-10 13:17:09.660,0.0001219632282034,42.51178901025924,3.0
2025-03-10 13:17:09.679,9.985319949122148e-05,26.144042246591116,3.0
2025-03-10 13:17:09.699,7.912879016153743e-05,10.800697864280414,3.0
2025-03-10 13:17:09.718,6.341999303407375e-05,-2.725558878150664,3.0
2025-03-10 13:17:09.738,5.334182697159768e-05,-13.92783938384906,3.0
2025-03-10 13:17:09.757,4.725055662312774e-05,-22.601232835200623,3.0
2025-03-10 13:17:09.777,4.248570036264612e-05,-28.8206254295798,3.0
2025-03-10 13:17:09.796,3.66587263524528e-05,-32.885462534323544,3.0
2025-03-10 13:17:09.816,2.8681787087372145e-05,-35.24148043808279,3.0
2025-03-10 13:17:09.836,1.9337219271766395e-05,-36.39316870259984,3.0
2025-03-10 13:17:09.855,1.1237987888735504e-05,-36.82217519917815,3.0
2025-03-10 13:17:09.875,8.122361751215291e-06,-36.92519058078889,3.0
2025-03-10 13:17:09.894,1.3643560284870777e-05,-36.98012750500031,3.0
2025-03-10 13:17:09.914,3.0070551897415787e-05,-37.142672860626085,3.0
2025-03-10 13:17:09.933,5.741273625955209e-05,-37.46820435246659,3.0
2025-03-10 13:17:09.953,9.330930571765384e-05,-37.94842588431053,3.0
2025-03-10 13:17:09.972,0.0001336755957526,-38.549311359634494,3.0
2025-03-10 13:17:09.992,0.0001737914215106,-39.237736816004045,3.0
2025-03-10 13:17:10.011,0.000209419282822,-39.988330381254535,3.0
2025-03-10 13:17:10.031,0.0002376522467344,-40.76856617598813,3.0
2025-03-10 13:17:10.050,0.0002573620568834,-41.50735983125343,3.0
2025-03-10 13:17:10.070,0.0002692062110081,-42.05850796114864,3.0
2025-03-10 13:17:10.089,0.0002751762404925,-42.17351144114024,3.0
2025-03-10 13:17:10.109,0.0002777530285659,-41.49747479038402,3.0
2025-03-10 13:17:10.129,0.0002789076067067,-39.59668612473752,3.0
2025-03-10 13:17:10.148,0.00027931664327,-36.01813075078398,3.0
2025-03-10 13:17:10.168,0.0002781123706102,-30.371666659740825,3.0
2025-03-10 13:17:10.187,0.0002732530414655,-22.417691220613985,3.0
2025-03-10 13:17:10.207,0.0002623152772036,-12.13957813120401,3.0
2025-03-10 13:17:10.226,0.0002433562468991,0.2174252480700374,3.0
2025-03-10 13:17:10.246,0.0002155628256973,14.151132918609148,3.0
2025-03-10 13:17:10.265,0.0001796011425886,28.950306759150443,3.0
2025-03-10 13:17:10.285,0.0001377100339937,43.77398450520532,3.0
2025-03-10 13:17:10.304,9.355369207528328e-05,57.74413946910124,3.0
2025-03-10 13:17:10.324,5.175646507789544e-05,70.0328844851773,3.0
2025-03-10 13:17:10.343,1.7064605429153715e-05,79.93032223896168,3.0
2025-03-10 13:17:10.363,-6.718851655700102e-06,86.88729467236591,3.0
2025-03-10 13:17:10.382,-1.7653688032774446e-05,90.53545402942709,3.0
2025-03-10 13:17:10.402,-1.6046648012239238e-05,90.69235177623096,3.0
2025-03-10 13:17:10.421,-4.155035345786537e-06,87.36007272596153,3.0
2025-03-10 13:17:10.441,1.4612756896775983e-05,80.7226587407185,3.0
2025-03-10 13:17:10.461,3.66539229555956e-05,71.14216563251622,3.0
2025-03-10 13:17:10.480,5.89952296957066e-05,59.14844603704374,3.0
2025-03-10 13:17:10.500,7.984940775093634e-05,45.41592505795879,3.0
2025-03-10 13:17:10.519,9.886142132538108e-05,30.722486884482542,3.0
2025-03-10 13:17:10.539,0.0001170070827228,15.890166982275687,3.0
2025-03-10 13:17:10.558,0.0001361231095998,1.712760599144472,3.0
2025-03-10 13:17:10.578,0.0001581506121527,-11.120053681843098,3.0
2025-03-10 13:17:10.597,0.0001843233782417,-22.090074205500454,3.0
2025-03-10 13:17:10.617,0.0002146079331274,-30.897733097590432,3.0
2025-03-10 13:17:10.636,0.0002476096491261,-37.48052383828111,3.0
2025-03-10 13:17:10.656,0.0002809288472198,-41.9995835015112,3.0
2025-03-10 13:17:10.675,0.0003117394521742,-44.79759446979028,3.0
2025-03-10 13:17:10.695,0.0003373231034908,-46.33657630421368,3.0
2025-03-10 13:17:10.714,0.0003554269471428,-47.12719135251445,3.0
2025-03-10 13:17:10.734,0.0003644786122403,-47.66118856740496,3.0
2025-03-10 13:17:10.754,0.0003637440619055,-48.35583674348296,3.0
2025-03-10 13:17:10.773,0.0003534493966716,-49.51476169082546,3.0
2025-03-10 13:17:10.793,0.0003348272196618,-51.305049874544885,3.0
2025-03-10 13:17:10.812,0.0003100801027236,-53.74730749316655,3.0
2025-03-10 13:17:10.832,0.0002823118660563,-56.71454295885805,3.0
2025-03-10 13:17:10.851,0.0002554306149759,-59.93737255070972,3.0
2025-03-10 13:17:10.871,0.0002338816204713,-63.0162386130165,3.0
2025-03-10 13:17:10.890,0.0002220031773378,-65.44442596697971,3.0
2025-03-10 13:17:10.910,0.0002229704422972,-66.64685094581971,3.0
2025-03-10 13:17:10.929,0.000237627948397,-66.03765205702383,3.0
2025-03-10 13:17:10.949,0.0002637425193311,-63.09450809081376,3.0
2025-03-10 13:17:10.968,0.0002961193675332,-57.44074900828728,3.0
2025-03-10 13:17:10.988,0.0003276532522002,-48.92021774218048,3.0
2025-03-10 13:17:11.007,0.0003509815361779,-37.64725780664048,3.0
2025-03-10 13:17:11.027,0.0003602051994829,-24.01698457285425,3.0
2025-03-10 13:17:11.047,0.0003521987067909,-8.669032146163214,3.0
2025-03-10 13:17:11.066,0.0003272176166575,7.591018401742724,3.0
2025-03-10 13:17:11.086,0.0002886948970674,23.89780938869201,3.0
2025-03-10 13:17:11.105,0.0002422633551469,39.43835832363296,3.0
2025-03-10 13:17:11.125,0.0001942099594873,53.54695185857388,3.0
2025-03-10 13:17:11.144,0.0001497731778593,65.76335841830858,3.0
2025-03-10 13:17:11.164,0.0001118259412996,75.84336586216762,3.0
2025-03-10 13:17:11.183,8.039208410129125e-05,83.72209734115533,3.0
2025-03-10 13:17:11.203,5.310767007983936e-05,89.44255140108122,3.0
2025-03-10 13:17:11.222,2.634175554512477e-05,93.07122664702838,3.0
2025-03-10 13:17:11.242,-3.52609734281268e-06,94.62658249106772,3.0
2025-03-10 13:17:11.261,-3.9102534463348205e-05,94.04277608678188,3.0
2025-03-10 13:17:11.281,-8.142112822622298e-05,91.18098748809888,3.0
2025-03-10 13:17:11.300,-0.0001297713652234,85.88632421324043,3.0
2025-03-10 13:17:11.320,-0.0001818263996743,78.07403311063942,3.0
2025-03-10 13:17:11.339,-0.0002340783219891,67.81907820988468,3.0
2025-03-10 13:17:11.359,-0.000282611845186,55.42122246993879,3.0
2025-03-10 13:17:11.379,-0.0003240801001868,41.42409048234185,3.0
2025-03-10 13:17:11.398,-0.0003565312992531,26.579010739979825,3.0
2025-03-10 13:17:11.418,-0.000379730425507,11.758762705000802,3.0
2025-03-10 13:17:11.437,-0.0003948941877591,-2.1613571532144693,3.0
2025-03-10 13:17:11.457,-0.0004040880758179,-14.430368450827263,3.0
2025-03-10 13:17:11.476,-0.0004096397092919,-24.530384717023843,3.0
2025-03-10 13:17:11.496,-0.0004137444864936,-32.246094576196874,3.0
2025-03-10 13:17:11.515,-0.0004181812218908,-37.68265626420077,3.0
2025-03-10 13:17:11.535,-0.00042397328964,-41.230434347789945,3.0
2025-03-10 13:17:11.554,-0.000430989329144,-43.48492645355535,3.0
2025-03-10 13:17:11.574,-0.0004376938625238,-45.13735329970566,3.0
2025-03-10 13:17:11.593,-0.000441294283305,-46.85471368947271,3.0
2025-03-10 13:17:11.613,-0.0004383379214954,-49.16773104317255,3.0
2025-03-10 13:17:11.632,-0.0004255668063549,-52.382011858860345,3.0
2025-03-10 13:17:11.652,-0.0004007447677845,-56.52325737372988,3.0
2025-03-10 13:17:11.672,-0.0003632716443441,-61.32268587024126,3.0
2025-03-10 13:17:11.691,-0.0003145533261876,-66.24450193152158,3.0
2025-03-10 13:17:11.711,-0.0002581371076801,-70.55318137569915,3.0
2025-03-10 13:17:11.730,-0.0001995246781623,-73.41403582390595,3.0
2025-03-10 13:17:11.750,-0.0001454969482202,-74.01566231692324,3.0
2025-03-10 13:17:11.769,-0.0001029026487937,-71.69788923676626,3.0
2025-03-10 13:17:11.789,-7.715324750216079e-05,-66.06507480783027,3.0
2025-03-10 13:17:11.808,-7.089989774163842e-05,-57.06404837157308,3.0
2025-03-10 13:17:11.828,-8.334185697325802e-05,-45.010170676883206,3.0
2025-03-10 13:17:11.847,-0.0001103571172205,-30.55400034922513,3.0
2025-03-10 13:17:11.867,-0.0001453595170249,-14.592959743325604,3.0
2025-03-10 13:17:11.886,-0.0001806350376938,1.856099995491968,3.0
2025-03-10 13:17:11.906,-0.0002088785244896,17.799554759673065,3.0
2025-03-10 13:17:11.925,-0.000224631604755,32.398199509755514,3.0
2025-03-10 13:17:11.945,-0.0002252848789434,45.06270443339548,3.0
2025-03-10 13:17:11.965,-0.0002113474116192,55.49592961622473,3.0
2025-03-10 13:17:11.984,-0.0001858878773782,63.67505664300329,3.0
2025-03-10 13:17:12.004,-0.0001533576499195,69.77901882396371,3.0
2025-03-10 13:17:12.023,-0.0001182479447465,74.07918423728577,3.0
2025-03-10 13:17:12.043,-8.405894353279607e-05,76.82065538877704,3.0
2025-03-10 13:17:12.062,-5.284628033224391e-05,78.1249383186305,3.0
2025-03-10 13:17:12.082,-2.5305744223722507e-05,77.94036140338352,3.0
2025-03-10 13:17:12.101,-1.1713246846338694e-06,76.05483021145115,3.0
2025-03-10 13:17:12.121,2.028764878131982e-05,72.16893152284383,3.0
2025-03-10 13:17:12.140,3.9785823240049406e-05,66.01046032554365,3.0
2025-03-10 13:17:12.160,5.762459685744951e-05,57.45910419537075,3.0
2025-03-10 13:17:12.179,7.347342804066352e-05,46.64617333861716,3.0
2025-03-10 13:17:12.199,8.644907075347946e-05,34.000273648558284,3.0
2025-03-10 13:17:12.218,9.553414283152091e-05,20.22391634942317,3.0
2025-03-10 13:17:12.238,0.0001001870890257,6.203971014587051,3.0
2025-03-10 13:17:12.257,0.0001008270000644,-7.124594716809981,3.0
2025-03-10 13:17:12.277,9.89016858726686e-05,-18.93142066986102,3.0
2025-03-10 13:17:12.297,9.648741065929667e-05,-28.6267666237535,3.0
2025-03-10 13:17:12.316,9.564041705531116e-05,-35.95261886513126,3.0
2025-03-10 13:17:12.336,9.78164442352234e-05,-41.01135034591139,3.0
2025-03-10 13:17:12.355,0.0001035635652442,-44.227791220644576,3.0
2025-03-10 13:17:12.375,0.0001125117370576,-46.25359021660407,3.0
2025-03-10 13:17:12.394,0.0001235763129151,-47.83288576579248,3.0
2025-03-10 13:17:12.414,0.0001352966412907,-49.65403246060799,3.0
2025-03-10 13:17:12.433,0.0001462612238814,-52.21305044040695,3.0
2025-03-10 13:17:12.453,0.0001555370357273,-55.71120667402161,3.0
2025-03-10 13:17:12.472,0.0001629418408257,-60.002951327259545,3.0
2025-03-10 13:17:12.492,0.0001689892927324,-64.6026586894742,3.0
2025-03-10 13:17:12.511,0.0001744749202973,-68.75024312662606,3.0
2025-03-10 13:17:12.531,0.0001798917326232,-71.52728253519925,3.0
2025-03-10 13:17:12.550,0.0001849940630906,-72.00722230359729,3.0
2025-03-10 13:17:12.570,0.0001887432360293,-69.41637288529193,3.0
2025-03-10 13:17:12.590,0.0001896266790507,-63.27821888239725,3.0
2025-03-10 13:17:12.609,0.0001861461101971,-53.51384543327556,3.0
2025-03-10 13:17:12.629,0.0001772737875967,-40.47736905948697,3.0
2025-03-10 13:17:12.648,0.0001628243627599,-24.916908157107223,3.0
2025-03-10 13:17:12.668,0.0001437801861114,-7.866582653786345,3.0
2025-03-10 13:17:12.687,0.0001225149695355,9.51042345045354,3.0
2025-03-10 13:17:12.707,0.000102691354129,26.09728377088924,3.0
2025-03-10 13:17:12.726,8.860024086905243e-05,40.983043082336565,3.0
2025-03-10 13:17:12.746,8.397340704932379e-05,53.574985305716936,3.0
2025-03-10 13:17:12.765,9.067195698596328e-05,63.64217566518889,3.0
2025-03-10 13:17:12.785,0.000107824767579,71.28283712197263,3.0
2025-03-10 13:17:12.804,0.0001318035837808,76.82478029388918,3.0
2025-03-10 13:17:12.824,0.0001570156139148,80.68343221497574,3.0
2025-03-10 13:17:12.843,0.0001771692282531,83.21236064644658,3.0
2025-03-10 13:17:12.863,0.0001866072542243,84.5835614109293,3.0
2025-03-10 13:17:12.882,0.0001814466343525,84.72792520875335,3.0
2025-03-10 13:17:12.902,0.0001604132744528,83.35139124872079,3.0
2025-03-10 13:17:12.922,0.0001252791189286,80.02288036622237,3.0
2025-03-10 13:17:12.941,8.074648431104106e-05,74.31132884973258,3.0
2025-03-10 13:17:12.961,3.365790177242938e-05,65.93628761525663,3.0
2025-03-10 13:17:12.980,-8.377488448684854e-06,54.89324720333475,3.0
2025-03-10 13:17:13.000,-3.858969339122498e-05,41.52175668256744,3.0
2025-03-10 13:17:13.019,-5.243958913815127e-05,26.49900786692303,3.0
2025-03-10 13:17:13.039,-4.8483708048299e-05,10.759347741128073,3.0
2025-03-10 13:17:13.058,-2.86246364236698e-05,-4.643438361582096,3.0
2025-03-10 13:17:13.078,2.202850510572817e-06,-18.702543722794065,3.0
2025-03-10 13:17:13.097,3.685534793621893e-05,-30.619424085879007,3.0
2025-03-10 13:17:13.117,6.726651920851425e-05,-39.92766547414771,3.0
2025-03-10 13:17:13.136,8.603939571280476e-05,-46.55500402654057,3.0
2025-03-10 13:17:13.156,8.801215096849684e-05,-50.811554388033066,3.0
2025-03-10 13:17:13.175,7.138910076138736e-05,-53.30681213740316,3.0
2025-03-10 13:17:13.195,3.8153144807012266e-05,-54.81157332800317,3.0
2025-03-10 13:17:13.215,-6.279126797474617e-06,-56.09103552890351,3.0
2025-03-10 13:17:13.234,-5.400452178851188e-05,-57.74041298342744,3.0
2025-03-10 13:17:13.254,-9.598506711190316e-05,-60.05386276466509,3.0
2025-03-10 13:17:13.273,-0.0001236546523551,-62.95172566375558,3.0
2025-03-10 13:17:13.293,-0.0001306200855653,-65.98104335459075,3.0
2025-03-10 13:17:13.312,-0.0001141627929774,-68.3914910079318,3.0
2025-03-10 13:17:13.332,-7.610211426703545e-05,-69.27507088730879,3.0
2025-03-10 13:17:13.351,-2.2626908848706736e-05,-67.74525098329038,3.0
2025-03-10 13:17:13.371,3.697716397202098e-05,-63.12204344831658,3.0
2025-03-10 13:17:13.390,9.234618844206516e-05,-55.08611711525555,3.0
2025-03-10 13:17:13.410,0.0001341892603391,-43.7691017277928,3.0
2025-03-10 13:17:13.429,0.0001560260253423,-29.75894911967617,3.0
2025-03-10 13:17:13.449,0.0001552331631141,-14.016643755897883,3.0
2025-03-10 13:17:13.468,0.0001333551498987,2.280167903977124,3.0
2025-03-10 13:17:13.488,9.571279724979532e-05,17.934695961885595,3.0
2025-03-10 13:17:13.508,5.034611930093533e-05,31.928438855671036,3.0
2025-03-10 13:17:13.527,6.395621129199259e-06,43.57731842528035,3.0
2025-03-10 13:17:13.547,-2.780418128975345e-05,52.614510376189365,3.0
2025-03-10 13:17:13.566,-4.647250252688794e-05,59.184061865647934,3.0
2025-03-10 13:17:13.586,-4.750093000345763e-05,63.74874784717265,3.0
2025-03-10 13:17:13.605,-3.266665505894413e-05,66.9341108327633,3.0
2025-03-10 13:17:13.625,-6.975259295723438e-06,69.34439987597665,3.0
2025-03-10 13:17:13.644,2.259773787337909e-05,71.39224110407272,3.0
2025-03-10 13:17:13.664,4.863817971334813e-05,73.18087376581651,3.0
2025-03-10 13:17:13.683,6.481100043999045e-05,74.46606314092078,3.0
2025-03-10 13:17:13.703,6.710161910582067e-05,74.70668596316852,3.0
2025-03-10 13:17:13.722,5.451477722650651e-05,73.19245114194608,3.0
2025-03-10 13:17:13.742,2.903821402388535e-05,69.21914347859844,3.0
2025-03-10 13:17:13.761,-5.105500989992607e-06,62.2707502746182,3.0
2025-03-10 13:17:13.781,-4.263438960305534e-05,52.16675097077282,3.0
2025-03-10 13:17:13.800,-7.840080423836928e-05,39.14182191997527,3.0
2025-03-10 13:17:13.820,-0.0001082859548242,23.841377886403308,3.0
2025-03-10 13:17:13.840,-0.0001296905976119,7.235053243821062,3.0
2025-03-10 13:17:13.859,-0.0001416877231836,-9.533167318164905,3.0
2025-03-10 13:17:13.879,-0.0001449419546755,-25.32789340499549,3.0
2025-03-10 13:17:13.898,-0.0001414467863614,-39.20270154051056,3.0
2025-03-10 13:17:13.918,-0.000134087064313,-50.54323908145402,3.0
2025-03-10 13:17:13.937,-0.0001260616142824,-59.1453746351509,3.0
2025-03-10 13:17:13.957,-0.0001202704395054,-65.21297373719372,3.0
2025-03-10 13:17:13.976,-0.0001188009056964,-69.2755431611422,3.0
2025-03-10 13:17:13.996,-0.0001225965104527,-72.04212958925527,3.0
2025-03-10 13:17:14.015,-0.0001313099595666,-74.22112365068502,3.0
2025-03-10 13:17:14.035,-0.0001433175432226,-76.34312879369267,3.0
2025-03-10 13:17:14.054,-0.0001559339032963,-78.624110222105,3.0
2025-03-10 13:17:14.074,-0.0001659364842547,-80.89845696494923,3.0
2025-03-10 13:17:14.093,-0.0001704505086499,-82.63768346657012,3.0
2025-03-10 13:17:14.113,-0.0001680168223713,-83.05284651223114,3.0
2025-03-10 13:17:14.133,-0.0001594274830566,-81.26083351050438,3.0
2025-03-10 13:17:14.152,-0.0001478992767071,-76.48032991952468,3.0
2025-03-10 13:17:14.172,-0.0001384130325457,-68.21596020057456,3.0
2025-03-10 13:17:14.191,-0.0001363970450095,-56.39096064918765,3.0
2025-03-10 13:17:14.211,-0.0001461619949433,-41.39971365181675,3.0
2025-03-10 13:17:14.230,-0.0001695273592302,-24.068935924934248,3.0
2025-03-10 13:17:14.250,-0.0002049800385501,-5.535804167824624,3.0
2025-03-10 13:17:14.269,-0.0002475760121006,12.931870232235465,3.0
2025-03-10 13:17:14.289,-0.0002896792347941,30.137436442282816,3.0
2025-03-10 13:17:14.308,-0.0003224909813406,45.13962918226221,3.0
2025-03-10 13:17:14.328,-0.000338103810998,57.38341607233938,3.0
2025-03-10 13:17:14.347,-0.000331562590078,66.7519732627706,3.0
2025-03-10 13:17:14.367,-0.0003022962678373,73.52977005493035,3.0
2025-03-10 13:17:14.386,-0.0002544360501475,78.28487287994743,3.0
2025-03-10 13:17:14.406,-0.000195912891725,81.69582559103246,3.0
2025-03-10 13:17:14.426,-0.0001366307460438,84.3609991582619,3.0
2025-03-10 13:17:14.445,-8.624998033848573e-05,86.63303856114453,3.0
2025-03-10 13:17:14.465,-5.212829585434721e-05,88.51644965508021,3.0
2025-03-10 13:17:14.484,-3.78406446593938e-05,89.65297331801654,3.0
2025-03-10 13:17:14.504,-4.255956916232802e-05,89.39977961369412,3.0
2025-03-10 13:17:14.523,-6.143863910196227e-05,86.98397589071647,3.0
2025-03-10 13:17:14.543,-8.692098305083515e-05,81.69860497593662,3.0
2025-03-10 13:17:14.562,-0.0001105967426528,73.09494649402879,3.0
2025-03-10 13:17:14.582,-0.0001250281030362,61.126431486709365,3.0
2025-03-10 13:17:14.601,-0.0001250178745467,46.21081578607284,3.0
2025-03-10 13:17:14.621,-0.0001081044817848,29.19629124261437,3.0
2025-03-10 13:17:14.640,-7.443043975369496e-05,11.23876270252874,3.0
2025-03-10 13:17:14.660,-2.6321636139271607e-05,-6.383704083765829,3.0
2025-03-10 13:17:14.679,3.216739185048561e-05,-22.4809804197846,3.0
2025-03-10 13:17:14.699,9.572051615699472e-05,-36.14315632091403,3.0
2025-03-10 13:17:14.718,0.0001583716899347,-46.87689142375812,3.0
2025-03-10 13:17:14.738,0.0002143405050246,-54.659263735306894,3.0
2025-03-10 13:17:14.758,0.0002589844911795,-59.899209782705775,3.0
2025-03-10 13:17:14.777,0.0002896252438793,-63.315219261816566,3.0
2025-03-10 13:17:14.797,0.0003060323964226,-65.75471771472537,3.0
2025-03-10 13:17:14.816,0.0003104734351834,-67.99217912236381,3.0
2025-03-10 13:17:14.836,0.0003073154021066,-70.5471643878851,3.0
2025-03-10 13:17:14.855,0.000302167698202,-73.55940204648277,3.0
2025-03-10 13:17:14.875,0.0003005932988517,-76.74655015858545,3.0
2025-03-10 13:17:14.894,0.0003065763668564,-79.45363755129317,3.0
2025-03-10 13:17:14.914,0.0003211578956753,-80.78457408543424,3.0
2025-03-10 13:17:14.933,0.0003417656499009,-79.78917425162082,3.0
2025-03-10 13:17:14.953,0.0003626239678093,-75.66736326223251,3.0
2025-03-10 13:17:14.972,0.0003762480745378,-67.94837528314316,3.0
2025-03-10 13:17:14.992,0.0003756023484797,-56.60804067828232,3.0
2025-03-10 13:17:15.011,0.0003562645555248,-42.10073054543156,3.0
2025-03-10 13:17:15.031,0.0003179756392394,-25.30091259842211,3.0
2025-03-10 13:17:15.051,0.0002651726423212,-7.367913678533509,3.0
2025-03-10 13:17:15.070,0.0002063518525355,10.4379298838477,3.0
2025-03-10 13:17:15.090,0.0001523328772104,26.95150413083341,3.0
2025-03-10 13:17:15.109,0.0001137383374083,41.27424679178446,3.0
2025-03-10 13:17:15.129,9.82881193967229e-05,52.88858170499108,3.0
2025-03-10 13:17:15.148,0.0001087075043976,61.6942159398445,3.0
2025-03-10 13:17:15.168,0.0001419634577529,67.96008581607607,3.0
2025-03-10 13:17:15.187,0.0001901066465376,72.20294434588942,3.0
2025-03-10 13:17:15.207,0.0002423964499482,75.01967557242699,3.0
2025-03-10 13:17:15.226,0.0002879500611013,76.91154080911008,3.0
2025-03-10 13:17:15.246,0.0003181071729887,78.14148833865384,3.0
2025-03-10 13:17:15.265,0.0003279880663774,78.65895289653967,3.0
2025-03-10 13:17:15.285,0.0003170857903934,78.11119602203028,3.0
2025-03-10 13:17:15.304,0.0002889546118954,75.93951565200705,3.0
2025-03-10 13:17:15.324,0.0002501376162309,71.53759080735178,3.0
2025-03-10 13:17:15.344,0.0002085538653629,64.43330640971557,3.0
2025-03-10 13:17:15.363,0.0001716983365255,54.449046268359936,3.0
2025-03-10 13:17:15.383,0.0001450986062167,41.80056870108755,3.0
2025-03-10 13:17:15.402,0.0001314018634743,27.10982875040663,3.0
2025-03-10 13:17:15.422,0.000130236032062,11.328183875612543,3.0
2025-03-10 13:17:15.441,0.0001387151545247,-4.412493944505143,3.0
2025-03-10 13:17:15.461,0.0001522858266214,-18.98756837761968,3.0
2025-03-10 13:17:15.480,0.0001656288257107,-31.46605470254985,3.0
2025-03-10 13:17:15.500,0.0001734960465792,-41.2579476087334,3.0
2025-03-10 13:17:15.519,0.0001715077599686,-48.19486063192269,3.0
2025-03-10 13:17:15.539,0.0001569191911513,-52.53113995805704,3.0
2025-03-10 13:17:15.558,0.0001292305239548,-54.868499243629465,3.0
2025-03-10 13:17:15.578,9.04328246047361e-05,-56.02110851518955,3.0
2025-03-10 13:17:15.597,4.475987090061643e-05,-56.84767678124133,3.0
2025-03-10 13:17:15.617,-2.0179503316557987e-06,-58.08120647781408,3.0
2025-03-10 13:17:15.636,-4.361698977763794e-05,-60.18573412852871,3.0
2025-03-10 13:17:15.656,-7.444145354037243e-05,-63.26344520274646,3.0
2025-03-10 13:17:15.676,-9.08227823825161e-05,-67.02657409277151,3.0
2025-03-10 13:17:15.695,-9.20600726838032e-05,-70.83807236310503,3.0
2025-03-10 13:17:15.715,-8.090085126607028e-05,-73.81448165586713,3.0
2025-03-10 13:17:15.734,-6.313695488747305e-05,-74.97478928739947,3.0
2025-03-10 13:17:15.754,-4.627808403767296e-05,-73.41120426676345,3.0
2025-03-10 13:17:15.773,-3.7680462649156485e-05,-68.45294110187348,3.0
2025-03-10 13:17:15.793,-4.277934851256564e-05,-59.79368021466784,3.0
2025-03-10 13:17:15.812,-6.400458784166771e-05,-47.55858026463443,3.0
2025-03-10 13:17:15.832,-0.0001006011507177,-32.29756558447635,3.0
2025-03-10 13:17:15.851,-0.0001491903556916,-14.906216140418952,3.0
2025-03-10 13:17:15.871,-0.0002047245169328,3.50960563870548,3.0
2025-03-10 13:17:15.890,-0.0002615373790076,21.798099985508465,3.0
2025-03-10 13:17:15.910,-0.0003143296665513,38.92256255153744,3.0
2025-03-10 13:17:15.929,-0.0003589939730214,54.088517854601584,3.0
2025-03-10 13:17:15.949,-0.000393152463832,66.81390177723345,3.0
2025-03-10 13:17:15.969,-0.000416277615158,76.93122021967783,3.0
2025-03-10 13:17:15.988,-0.0004293995353836,84.525209366964,3.0
2025-03-10 13:17:16.008,-0.0004346066690475,89.82410795738619,3.0
2025-03-10 13:17:16.027,-0.0004346223965997,93.07381442588454,3.0
2025-03-10 13:17:16.047,-0.0004325800055966,94.42862273911688,3.0
2025-03-10 13:17:16.066,-0.0004318519047016,93.88797799289178,3.0
2025-03-10 13:17:16.086,-0.0004356772176894,91.29624421604728,3.0
2025-03-10 13:17:16.105,-0.0004465058094057,86.40495939079214,3.0
2025-03-10 13:17:16.125,-0.0004652891555658,78.97949494189113,3.0
2025-03-10 13:17:16.144,-0.0004911038407333,68.91974774339151,3.0
2025-03-10 13:17:16.164,-0.0005213372844773,56.36109119674273,3.0
2025-03-10 13:17:16.183,-0.0005523365981154,41.72780578306977,3.0
2025-03-10 13:17:16.203,-0.0005802069897601,25.723973970607823,3.0
2025-03-10 13:17:16.222,-0.0006014962473561,9.26208409962709,3.0
2025-03-10 13:17:16.242,-0.000613702692145,-6.656606534023408,3.0
2025-03-10 13:17:16.261,-0.0006156626575224,-21.086076284915425,3.0
2025-03-10 13:17:16.281,-0.0006078117706029,-33.275460238097544,3.0
2025-03-10 13:17:16.301,-0.0005921937698968,-42.777595936451846,3.0
2025-03-10 13:17:16.320,-0.0005720895182102,-49.50550140970185,3.0
2025-03-10 13:17:16.340,-0.0005512904145875,-53.72671872878672,3.0
2025-03-10 13:17:16.359,-0.0005332168496615,-55.99766606635309,3.0
2025-03-10 13:17:16.379,-0.0005201437583047,-57.05116718474886,3.0
2025-03-10 13:17:16.398,-0.0005127190351192,-57.657956828571706,3.0
2025-03-10 13:17:16.418,-0.0005098365782399,-58.48610692183976,3.0
2025-03-10 13:17:16.437,-0.0005088503055483,-59.981098747054205,3.0
2025-03-10 13:17:16.457,-0.0005060963909788,-62.28467868890441,3.0
2025-03-10 13:17:16.476,-0.0004976601820383,-65.20404428482213,3.0
2025-03-10 13:17:16.496,-0.0004802407529586,-68.23555119140589,3.0
2025-03-10 13:17:16.515,-0.000451881271497,-70.63982230163649,3.0
2025-03-10 13:17:16.535,-0.0004123426261149,-71.55825794807575,3.0
2025-03-10 13:17:16.554,-0.0003630409287407,-70.15471803520438,3.0
2025-03-10 13:17:16.574,-0.0003066729000853,-65.76106893367087,3.0
2025-03-10 13:17:16.594,-0.0002467598417323,-58.002426827543786,3.0
2025-03-10 13:17:16.613,-0.000187246028771,-46.87879875622373,3.0
2025-03-10 13:17:16.633,-0.0001320791554802,-32.78568809562157,3.0
2025-03-10 13:17:16.652,-8.460818410249039e-05,-16.467099824294117,3.0
2025-03-10 13:17:16.672,-4.6779972796698935e-05,1.0916660522498205,3.0
2025-03-10 13:17:16.691,-1.836765898349151e-05,18.81054614826339,3.0
2025-03-10 13:17:16.711,3.4175617473229253e-06,35.670502331206805,3.0
2025-03-10 13:17:16.730,2.3689048042124647e-05,50.84630795861568,3.0
2025-03-10 13:17:16.750,4.901524585303604e-05,63.78954962447611,3.0
2025-03-10 13:17:16.769,8.611456717853878e-05,74.24696104483222,3.0
2025-03-10 13:17:16.789,0.0001403986671016,82.21478336272303,3.0
2025-03-10 13:17:16.808,0.0002146449128084,87.84537613004187,3.0
2025-03-10 13:17:16.828,0.0003080590750808,91.33382738637664,3.0
2025-03-10 13:17:16.847,0.0004159811913312,92.81665494391628,3.0
2025-03-10 13:17:16.867,0.0005304294559321,92.3104424588965,3.0
2025-03-10 13:17:16.887,0.0006414917078528,89.70636869589585,3.0
2025-03-10 13:17:16.906,0.0007392881950649,84.82035152915198,3.0
2025-03-10 13:17:16.926,0.0008159946614059,77.48271279313019,3.0
2025-03-10 13:17:16.945,0.0008673865331353,67.64060244303317,3.0
2025-03-10 13:17:16.965,0.0008935563445623,55.443852130605016,3.0
2025-03-10 13:17:16.984,0.0008987333418092,41.290520296200114,3.0
2025-03-10 13:17:17.004,0.0008903441619936,25.819529920867826,3.0
2025-03-10 13:17:17.023,0.0008775425360856,9.850710919621736,3.0
2025-03-10 13:17:17.043,0.0008694629242919,-5.715956476056857,3.0
2025-03-10 13:17:17.062,0.0008735067321544,-20.02192933861498,3.0
2025-03-10 13:17:17.082,0.000894045290336,-32.368652489009584,3.0
2025-03-10 13:17:17.101,0.0009318951440176,-42.31012457595536,3.0
2025-03-10 13:17:17.121,0.0009846876258403,-49.70227253045319,3.0
2025-03-10 13:17:17.140,0.0010479015316731,-54.70138099678222,3.0
2025-03-10 13:17:17.160,0.001116091654395,-57.71465349228194,3.0
2025-03-10 13:17:17.179,0.0011838986860663,-59.31530063832889,3.0
2025-03-10 13:17:17.199,0.001246696382475,-60.14001299163745,3.0
2025-03-10 13:17:17.219,0.0013009696367629,-60.78731528940516,3.0
2025-03-10 13:17:17.238,0.0013445478292689,-61.73174605227217,3.0
2025-03-10 13:17:17.258,0.001376697987011,-63.26290433811859,3.0
2025-03-10 13:17:17.277,0.0013979950336178,-65.45242364744765,3.0
2025-03-10 13:17:17.297,0.0014099390419471,-68.14768442263917,3.0
2025-03-10 13:17:17.316,0.0014144258226741,-70.98927767938454,3.0
2025-03-10 13:17:17.336,0.0014132527549794,-73.44936136588954,3.0
2025-03-10 13:17:17.355,0.001407776825648,-74.88873252468716,3.0
2025-03-10 13:17:17.375,0.0013987108180571,-74.63014943395753,3.0
2025-03-10 13:17:17.394,0.0013859989623598,-72.04325494776562,3.0
2025-03-10 13:17:17.414,0.0013688034275767,-66.63260218231032,3.0
2025-03-10 13:17:17.433,0.0013457247317723,-58.11628215286797,3.0
2025-03-10 13:17:17.453,0.0013153120398169,-46.480808420668446,3.0
2025-03-10 13:17:17.472,0.0012767082176323,-32.00018661152668,3.0
2025-03-10 13:17:17.492,0.0012301026179829,-15.213794456303608,3.0
2025-03-10 13:17:17.512,0.0011766987982049,3.133093701745252,3.0
2025-03-10 13:17:17.531,0.0011181465728113,22.173896220142534,3.0
2025-03-10 13:17:17.551,0.0010556785401351,41.01346034690175,3.0
2025-03-10 13:17:17.570,0.0009893430690185,58.811951823119216,3.0
2025-03-10 13:17:17.590,0.0009176681186926,74.84674820831358,3.0
2025-03-10 13:17:17.609,0.0008378944791182,88.54532896306446,3.0
2025-03-10 13:17:17.629,0.000746699778767,99.4891996650548,3.0
2025-03-10 13:17:17.648,0.0006411707784329,107.39564956597616,3.0
2025-03-10 13:17:17.668,0.0005197056988168,112.08924628584742,3.0
2025-03-10 13:17:17.687,0.0003825591339235,113.4768503206372,3.0
2025-03-10 13:17:17.707,0.0002318656413919,111.5375040291342,3.0
2025-03-10 13:17:17.726,7.114212643726341e-05,106.33209511047856,3.0
2025-03-10 13:17:17.746,-9.55804751751198e-05,98.02919753371776,3.0
2025-03-10 13:17:17.765,-0.0002647405394914,86.93605420439317,3.0
2025-03-10 13:17:17.785,-0.0004340545050541,73.52014071190032,3.0
2025-03-10 13:17:17.805,-0.0006029303688776,58.40833636070101,3.0
2025-03-10 13:17:17.824,-0.0007724262214322,42.35647146937701,3.0
2025-03-10 13:17:17.844,-0.000944844355412,26.18963933252061,3.0
2025-03-10 13:17:17.863,-0.0011230836589403,10.720974218541512,3.0
2025-03-10 13:17:17.883,-0.0013098269891944,-3.337752818591929,3.0
2025-03-10 13:17:17.902,-0.0015066572110521,-15.45724293548598,3.0
2025-03-10 13:17:17.922,-0.0017133076504364,-25.34725726192143,3.0
2025-03-10 13:17:17.941,-0.0019273293440325,-32.976657518095,3.0
2025-03-10 13:17:17.961,-0.0021443635699391,-38.55253764250401,3.0
2025-03-10 13:17:17.980,-0.0023589511738253,-42.46332968333471,3.0
2025-03-10 13:17:18.000,-0.002565556445086,-45.19887056431956,3.0
2025-03-10 13:17:18.019,-0.002759430207208,-47.26489862537985,3.0
2025-03-10 13:17:18.039,-0.0029371161814399,-49.10902281182133,3.0
2025-03-10 13:17:18.058,-0.0030966412222598,-51.07019910148148,3.0
2025-03-10 13:17:18.078,-0.0032375309485794,-53.35593836930372,3.0
2025-03-10 13:17:18.097,-0.003360725364529,-56.04347168959918,3.0
2025-03-10 13:17:18.117,-0.0034683474036013,-59.095475634702034,3.0
2025-03-10 13:17:18.137,-0.0035632419814753,-62.379350661469616,3.0
2025-03-10 13:17:18.156,-0.0036483108544641,-65.68163285581207,3.0
2025-03-10 13:17:18.176,-0.0037258266439272,-68.71463659341181,3.0
2025-03-10 13:17:18.195,-0.003796947627963,-71.11866220117886,3.0
2025-03-10 13:17:18.215,-0.0038615163395495,-72.46767699055356,3.0
2025-03-10 13:17:18.234,-0.0039180457249047,-72.2875158576958,3.0
2025-03-10 13:17:18.254,-0.00396375355112,-70.09276186024242,3.0
2025-03-10 13:17:18.273,-0.0039946225618041,-65.4424131833153,3.0
2025-03-10 13:17:18.293,-0.0040056021475614,-58.00735416972223,3.0
2025-03-10 13:17:18.312,-0.0039910823914174,-47.637264098812494,3.0
2025-03-10 13:17:18.332,-0.0039456471246358,-34.413133389476776,3.0
2025-03-10 13:17:18.351,-0.0038649584224258,-18.674539960027477,3.0
2025-03-10 13:17:18.371,-0.0037465634996954,-1.0166960733614885,3.0
2025-03-10 13:17:18.390,-0.0035904668837953,17.741761915870722,3.0
2025-03-10 13:17:18.410,-0.0033993821200518,36.61540658167154,3.0
2025-03-10 13:17:18.430,-0.003178577542323,54.52687431639782,3.0
2025-03-10 13:17:18.449,-0.0029352021527108,70.39371952326695,3.0
2025-03-10 13:17:18.469,-0.0026770652803408,83.22097594838291,3.0
2025-03-10 13:17:18.488,-0.0024111061161699,92.19241038391267,3.0
2025-03-10 13:17:18.508,-0.0021420655181681,96.75231564565932,3.0
2025-03-10 13:17:18.527,-0.0018718919614098,96.66871217977577,3.0
2025-03-10 13:17:18.547,-0.0016000756432824,92.0686186029138,3.0
2025-03-10 13:17:18.566,-0.001324626960336,83.43728079292417,3.0
2025-03-10 13:17:18.586,-0.0010431530439739,71.57656876322116,3.0
2025-03-10 13:17:18.605,-0.0007536044897911,57.523334824916965,3.0
2025-03-10 13:17:18.625,-0.0004546076614652,42.43557110528256,3.0
2025-03-10 13:17:18.644,-0.0001455539772072,27.460959232439368,3.0
2025-03-10 13:17:18.664,0.0001733910721818,13.60689734732204,3.0
2025-03-10 13:17:18.683,0.0005013603116309,1.632009034329882,3.0
2025-03-10 13:17:18.703,0.0008370095020004,-8.023805675324084,3.0
2025-03-10 13:17:18.722,0.001178849064582,-15.260003878840202,3.0
2025-03-10 13:17:18.742,0.0015254969540438,-20.284494969655185,3.0
2025-03-10 13:17:18.762,0.0018757023961951,-23.538236935168293,3.0
2025-03-10 13:17:18.781,0.0022281979686508,-25.59049133964688,3.0
2025-03-10 13:17:18.801,0.0025816048612112,-27.02510215737149,3.0
2025-03-10 13:17:18.820,0.0029345595353131,-28.339250216165684,3.0
2025-03-10 13:17:18.840,0.0032860031570798,-29.87277711944192,3.0
2025-03-10 13:17:18.859,0.0036354069813762,-31.779035978237083,3.0
2025-03-10 13:17:18.879,0.0039827521655012,-34.0388364232822,3.0
2025-03-10 13:17:18.898,0.0043282787533134,-36.50948690892201,3.0
2025-03-10 13:17:18.918,0.0046721776415878,-38.99339365984223,3.0
2025-03-10 13:17:18.937,0.0050143964169903,-41.306935178192255,3.0
2025-03-10 13:17:18.957,0.0053545916097455,-43.33126656230137,3.0
2025-03-10 13:17:18.976,0.005692110002544,-45.03202647350079,3.0
2025-03-10 13:17:18.996,0.006025844027911,-46.44327624277175,3.0
2025-03-10 13:17:19.015,0.0063539247546608,-47.62040366973532,3.0
2025-03-10 13:17:19.035,0.0066734056230211,-48.57503733332141,3.0
2025-03-10 13:17:19.055,0.0069801869876797,-49.21038668666357,3.0
2025-03-10 13:17:19.074,0.007269343788797,-49.27657274466405,3.0
2025-03-10 13:17:19.094,0.0075358175987023,-48.361958874306254,3.0
2025-03-10 13:17:19.113,0.0077752704162293,-45.928719773796544,3.0
2025-03-10 13:17:19.133,0.0079848550232997,-41.39046193801205,3.0
2025-03-10 13:17:19.152,0.0081637088668869,-34.21912914067571,3.0
2025-03-10 13:17:19.172,0.0083130482313789,-24.060586307793677,3.0
2025-03-10 13:17:19.191,0.0084357859101592,-10.835515337168024,3.0
2025-03-10 13:17:19.211,0.0085356593865063,5.194683656252182,3.0
2025-03-10 13:17:19.230,0.0086159994006024,23.40977021025816,3.0
2025-03-10 13:17:19.250,0.0086784543349017,42.86393592858285,3.0
2025-03-10 13:17:19.269,0.0087220753756346,62.36596081608017,3.0
2025-03-10 13:17:19.289,0.0087430605557896,80.5958654962546,3.0
2025-03-10 13:17:19.308,0.008735200345907,96.24374344081518,3.0
2025-03-10 13:17:19.328,0.008690824225078,108.15380495093956,3.0
2025-03-10 13:17:19.348,0.0086019592574994,115.45525156870846,3.0
2025-03-10 13:17:19.367,0.0084614787614509,117.66208070373278,3.0
2025-03-10 13:17:19.387,0.0082641024256266,114.72704246825772,3.0
2025-03-10 13:17:19.406,0.0080070923918765,107.04100706249972,3.0
2025-03-10 13:17:19.426,0.0076904293445389,95.3774161793242,3.0
2025-03-10 13:17:19.445,0.007316318804102,80.79075302368373,3.0
2025-03-10 13:17:19.465,0.0068881422504292,64.48571534921615,3.0
2025-03-10 13:17:19.484,0.0064092757307793,47.67771758900737,3.0
2025-03-10 13:17:19.504,0.0058822849565831,31.464544031405108,3.0
2025-03-10 13:17:19.523,0.0053087623705191,16.724481275429934,3.0
2025-03-10 13:17:19.543,0.0046896818241188,4.050351187123304,3.0
2025-03-10 13:17:19.562,0.0040259174664596,-6.276539820646717,3.0
2025-03-10 13:17:19.582,0.0033186384049771,-14.27288366777217,3.0
2025-03-10 13:17:19.601,0.0025695069600944,-20.20451772680159,3.0
2025-03-10 13:17:19.621,0.0017807449288473,-24.51046118622956,3.0
2025-03-10 13:17:19.640,0.0009551118853878,-27.71195389577282,3.0
2025-03-10 13:17:19.660,9.577144626038248e-05,-30.32135271897653,3.0
2025-03-10 13:17:19.680,-0.0007939615451231,-32.766067883584526,3.0
2025-03-10 13:17:19.699,-0.0017108954683133,-35.33987058653695,3.0
2025-03-10 13:17:19.719,-0.0026520980202573,-38.18809010789671,3.0
2025-03-10 13:17:19.738,-0.0036148225937181,-41.32568089090166,3.0
2025-03-10 13:17:19.758,-0.0045963260222014,-44.67974395283874,3.0
2025-03-10 13:17:19.777,-0.0055937443959031,-48.142723213207645,3.0
2025-03-10 13:17:19.797,-0.0066040814834403,-51.62053856493601,3.0
2025-03-10 13:17:19.816,-0.0076242247638581,-55.06189637265565,3.0
2025-03-10 13:17:19.836,-0.0086509071650432,-58.46052914963129,3.0
2025-03-10 13:17:19.855,-0.0096806562813015,-61.82989405115977,3.0
2025-03-10 13:17:19.875,-0.0107098581774207,-65.15801128583189,3.0
2025-03-10 13:17:19.894,-0.0117350033733247,-68.35651455435035,3.0
2025-03-10 13:17:19.914,-0.0127530125430725,-71.2207535506065,3.0
2025-03-10 13:17:19.933,-0.0137613905547083,-73.41587868944451,3.0
2025-03-10 13:17:19.953,-0.0147579601653344,-74.49740875409655,3.0
2025-03-10 13:17:19.973,-0.0157401194510229,-73.96533571910201,3.0
2025-03-10 13:17:19.992,-0.0167038528385681,-71.34098655070747,3.0
2025-03-10 13:17:20.012,-0.017642910588438,-66.24878698525217,3.0
2025-03-10 13:17:20.031,-0.0185485096531459,-58.48342176290378,3.0
2025-03-10 13:17:20.051,-0.0194096566795084,-48.04764373028826,3.0
2025-03-10 13:17:20.070,-0.020213980446744,-35.15561133105254,3.0
2025-03-10 13:17:20.090,-0.0209489496621157,-20.2073043624784,3.0
2025-03-10 13:17:20.109,-0.0216034547949246,-3.7468263235442327,3.0
2025-03-10 13:17:20.129,-0.0221697094871293,13.581489156329551,3.0
2025-03-10 13:17:20.148,-0.0226451721754737,31.069914294909054,3.0
2025-03-10 13:17:20.168,-0.0230338703757105,47.9753586163762,3.0
2025-03-10 13:17:20.187,-0.0233464021517766,63.54351673965101,3.0
2025-03-10 13:17:20.207,-0.023598107355234,77.03711232759008,3.0
2025-03-10 13:17:20.226,-0.0238053423521805,87.77469310637485,3.0
2025-03-10 13:17:20.246,-0.0239802810004063,95.1812863479439,3.0
2025-03-10 13:17:20.266,-0.0241251032879568,98.84582981061207,3.0
2025-03-10 13:17:20.285,-0.0242268121172005,98.57530997041816,3.0
2025-03-10 13:17:20.305,-0.0242542059439271,94.43365287906596,3.0
2025-03-10 13:17:20.324,-0.0241585789101577,86.75472585816149,3.0
2025-03-10 13:17:20.344,-0.023879314452339,76.12240063786192,3.0
2025-03-10 13:17:20.363,-0.0233545939434498,63.3157272453366,3.0
2025-03-10 13:17:20.383,-0.0225360861460156,49.2236615477313,3.0
2025-03-10 13:17:20.402,-0.0214050290034264,34.74095584637829,3.0
2025-03-10 13:17:20.422,-0.0199859539490505,20.662967680109595,3.0
2025-03-10 13:17:20.441,-0.0183537828445503,7.599606435528894,3.0
2025-03-10 13:17:20.461,-0.0166303999701909,-4.074473034185722,3.0
2025-03-10 13:17:20.480,-0.0149682465442545,-14.224705989332536,3.0
2025-03-10 13:17:20.500,-0.0135210898058264,-22.91883886737137,3.0
2025-03-10 13:17:20.519,-0.0124057115349984,-30.359003761094225,3.0
2025-03-10 13:17:20.539,-0.0116622088176605,-36.802104478998615,3.0
2025-03-10 13:17:20.558,-0.0112237613274421,-42.48732396343871,3.0
2025-03-10 13:17:20.578,-0.0109076864104379,-47.584725012427,3.0
2025-03-10 13:17:20.598,-0.0104371881523157,-52.170940477707184,3.0
2025-03-10 13:17:20.617,-0.0094969488050433,-56.22967098996224,3.0
2025-03-10 13:17:20.637,-0.0078162150136237,-59.66875494214828,3.0
2025-03-10 13:17:20.656,-0.0052621633461925,-62.34351710016494,3.0
2025-03-10 13:17:20.676,-0.0019172023021648,-64.07801704510058,3.0
2025-03-10 13:17:20.695,0.0018898343639903,-64.68037617267794,3.0
2025-03-10 13:17:20.715,0.0056241020335416,-63.953369849760136,3.0
2025-03-10 13:17:20.734,0.0086687763426596,-61.70472647141112,3.0
2025-03-10 13:17:20.754,0.0105239149110556,-57.761742278404725,3.0
2025-03-10 13:17:20.773,0.0110466753307255,-51.99199625665941,3.0
2025-03-10 13:17:20.793,0.0106756575445211,-44.327664956272095,3.0
2025-03-10 13:17:20.812,0.0105659302202092,-34.78753211347853,3.0
2025-03-10 13:17:20.832,0.0125611294473559,-23.490262595617715,3.0
2025-03-10 13:17:20.851,0.018952584939031,-10.655309723926006,3.0
2025-03-10 13:17:20.871,0.0320242148364577,3.4075965343388543,3.0
2025-03-10 13:17:20.891,0.0534472833604616,18.315670433482627,3.0
2025-03-10 13:17:20.910,0.0836534505082364,33.63123615211768,3.0
2025-03-10 13:17:20.930,0.1213560858221998,48.87681038143323,3.0
2025-03-10 13:17:20.949,0.1633877751997864,63.54618981545471,3.0
2025-03-10 13:17:20.969,0.2049632550603733,77.11338184379898,3.0
2025-03-10 13:17:20.988,0.2403677731204191,89.04252862080756,3.0
2025-03-10 13:17:21.008,0.263945251905692,98.8018343135633,3.0
2025-03-10 13:17:21.027,0.2711686277905696,105.88366917722364,3.0
2025-03-10 13:17:21.047,0.2595496463333491,109.83221481401254,3.0
2025-03-10 13:17:21.066,0.2291845198923592,110.27917160343684,3.0
2025-03-10 13:17:21.086,0.1828111079279142,106.9863952505432,3.0
2025-03-10 13:17:21.105,0.1253517383159425,99.8913363305031,3.0
2025-03-10 13:17:21.125,0.0630219852738518,89.14748482666289,3.0
2025-03-10 13:17:21.144,0.0021876003146818,75.14944667414582,3.0
2025-03-10 13:17:21.164,-0.0517735554330086,58.53256554913442,3.0
2025-03-10 13:17:21.183,-0.0953322356603504,40.14064163670546,3.0
2025-03-10 13:17:21.203,-0.127185314221078,20.961186473770766,3.0
2025-03-10 13:17:21.223,-0.1480826335102825,2.033967309491042,3.0
2025-03-10 13:17:21.242,-0.1601978043326012,-15.65604417183382,3.0
2025-03-10 13:17:21.262,-0.1662610847274909,-31.286429276582066,3.0
2025-03-10 13:17:21.281,-0.168716779150733,-44.28916594033825,3.0
2025-03-10 13:17:21.301,-0.1691285148372625,-54.410936133315325,3.0
2025-03-10 13:17:21.320,-0.1679560104568146,-61.73048938663361,3.0
2025-03-10 13:17:21.340,-0.1647020662618837,-66.62865422634927,3.0
2025-03-10 13:17:21.359,-0.1583188877332768,-69.71485784150704,3.0
2025-03-10 13:17:21.379,-0.1477043541879231,-71.72152894081978,3.0
2025-03-10 13:17:21.398,-0.1321271468141915,-73.38280354395928,3.0
2025-03-10 13:17:21.418,-0.1114808444663268,-75.31568571788702,3.0
2025-03-10 13:17:21.437,-0.0863464257005066,-77.92040573515901,3.0
2025-03-10 13:17:21.457,-0.0579052499476601,-81.3130921338728,3.0
2025-03-10 13:17:21.476,-0.0277725201258969,-85.29919925532309,3.0
2025-03-10 13:17:21.496,0.0021835219391418,-89.39129526488186,3.0
2025-03-10 13:17:21.516,0.0299957008654558,-92.87013594986988,3.0
2025-03-10 13:17:21.535,0.053714167669476,-94.88324218605884,3.0
2025-03-10 13:17:21.555,0.0714982249028759,-94.57016505890653,3.0
2025-03-10 13:17:21.574,0.0817101505275956,-91.1984058738082,3.0
2025-03-10 13:17:21.594,0.0830382321051856,-84.28958098603755,3.0
2025-03-10 13:17:21.613,0.0746663638605292,-73.7137259811594,3.0
2025-03-10 13:17:21.633,0.056486523852341,-59.73249982917572,3.0
2025-03-10 13:17:21.652,0.0293185277946649,-42.98013681771229,3.0
2025-03-10 13:17:21.672,-0.0049326147195745,-24.382852301049912,3.0
2025-03-10 13:17:21.691,-0.043269756842596,-5.029855883827438,3.0
2025-03-10 13:17:21.711,-0.0818196825074267,13.98116403387148,3.0
2025-03-10 13:17:21.730,-0.1162892924792669,31.696215175453755,3.0
2025-03-10 13:17:21.750,-0.1425976194649859,47.427076602838525,3.0
2025-03-10 13:17:21.769,-0.1575465232572266,60.82044352600847,3.0
2025-03-10 13:17:21.789,-0.1593665180655276,71.8606619431397,3.0
2025-03-10 13:17:21.809,-0.1480085146281709,80.80550641357193,3.0
2025-03-10 13:17:21.828,-0.1251260933099986,88.06894535169708,3.0
2025-03-10 13:17:21.848,-0.0937682458904309,94.07757066263268,3.0
2025-03-10 13:17:21.867,-0.0578544744598934,99.13462818569498,3.0
2025-03-10 13:17:21.887,-0.0215322369914995,103.32466034522837,3.0
2025-03-10 13:17:21.906,0.0114684721796309,106.48210706196348,3.0
2025-03-10 13:17:21.926,0.0383651194256095,108.23085209744892,3.0
2025-03-10 13:17:21.945,0.0576375840272479,108.08291915873316,3.0
2025-03-10 13:17:21.965,0.0690772995926312,105.56869564636536,3.0
2025-03-10 13:17:21.984,0.0735874749195404,100.36306285349988,3.0
2025-03-10 13:17:22.004,0.0728111260425364,92.37426769089922,3.0
2025-03-10 13:17:22.023,0.0686937491220669,81.77444756303099,3.0
2025-03-10 13:17:22.043,0.0630832882643154,68.96816016081037,3.0
2025-03-10 13:17:22.062,0.0574410767360207,54.51209270807723,3.0
2025-03-10 13:17:22.082,0.0526974909491811,39.01028669276671,3.0
2025-03-10 13:17:22.101,0.0492472549895437,23.01252955338879,3.0
2025-03-10 13:17:22.121,0.0470502452166891,6.939747398756965,3.0
2025-03-10 13:17:22.141,0.045788921839164,-8.948375616999716,3.0
2025-03-10 13:17:22.160,0.0450336062473088,-24.53903186118261,3.0
2025-03-10 13:17:22.180,0.0443783196941522,-39.81110888295129,3.0
2025-03-10 13:17:22.199,0.0435270398660801,-54.75352857547098,3.0
2025-03-10 13:17:22.219,0.0423271526850197,-69.27660377267435,3.0
2025-03-10 13:17:22.238,0.0407594522234432,-83.13717526463968,3.0
2025-03-10 13:17:22.258,0.0389005765919159,-95.89558001082816,3.0
2025-03-10 13:17:22.277,0.0368746917867369,-106.91636077554892,3.0
2025-03-10 13:17:22.297,0.0348082607799816,-115.4162901084162,3.0
2025-03-10 13:17:22.316,0.0327968889485345,-120.5544783526118,3.0
2025-03-10 13:17:22.336,0.0308881769350107,-121.55173141120804,3.0
2025-03-10 13:17:22.355,0.0290802616795768,-117.8208953759748,3.0
2025-03-10 13:17:22.375,0.0273326900000577,-109.08694050239755,3.0
2025-03-10 13:17:22.394,0.0255844595161989,-95.47521527116628,3.0
2025-03-10 13:17:22.414,0.0237734552248657,-77.54927700799371,3.0
2025-03-10 13:17:22.434,0.0218521923668612,-56.28655731902359,3.0
2025-03-10 13:17:22.453,0.0197966954523554,-32.99035597571975,3.0
2025-03-10 13:17:22.473,0.0176079864073019,-9.148290316677958,3.0
2025-03-10 13:17:22.492,0.0153080652041969,13.742347551988924,3.0
2025-03-10 13:17:22.512,0.0129334873008019,34.355005207756335,3.0
2025-03-10 13:17:22.531,0.0105292924476083,51.69037333462868,3.0
2025-03-10 13:17:22.551,0.008144548660859,65.18183077277583,3.0
2025-03-10 13:17:22.570,0.0058291052780068,74.73026598434205,3.0
2025-03-10 13:17:22.590,0.003630277936892,80.66086504126925,3.0
2025-03-10 13:17:22.609,0.0015885979810779,83.6094116744406,3.0
2025-03-10 13:17:22.629,-0.0002669450761288,84.36030096581007,3.0
2025-03-10 13:17:22.648,-0.0019226510533038,83.66920523138828,3.0
2025-03-10 13:17:22.668,-0.0033813297084984,82.1071315586609,3.0
2025-03-10 13:17:22.687,-0.0046604651572279,79.95802398356828,3.0
2025-03-10 13:17:22.707,-0.0057879661118255,77.18978722967307,3.0
2025-03-10 13:17:22.727,-0.0067968229289057,73.5015284673058,3.0
2025-03-10 13:17:22.746,-0.0077200131745171,68.43236068711026,3.0
2025-03-10 13:17:22.766,-0.0085865561373011,61.50398969145376,3.0
2025-03-10 13:17:22.785,-0.0094190362911445,52.363887711159286,3.0
2025-03-10 13:17:22.805,-0.0102324756135838,40.89886210564228,3.0
2025-03-10 13:17:22.824,-0.0110342464920718,27.29811688936661,3.0
2025-03-10 13:17:22.844,-0.0118247133748733,12.056759626085976,3.0
2025-03-10 13:17:22.863,-0.012598346600932,-4.078149838253364,3.0
2025-03-10 13:17:22.883,-0.0133451064505004,-20.20805154850862,3.0
2025-03-10 13:17:22.902,-0.0140519691580317,-35.41238960144481,3.0
2025-03-10 13:17:22.922,-0.0147045763198155,-48.88525899194322,3.0
2025-03-10 13:17:22.941,-0.0152890767700233,-60.0550049594594,3.0
2025-03-10 13:17:22.961,-0.0157941925923985,-68.66340325614891,3.0
2025-03-10 13:17:22.980,-0.0162133421452932,-74.78623422456903,3.0
2025-03-10 13:17:23.000,-0.0165463879212763,-78.7871947924583,3.0
2025-03-10 13:17:23.019,-0.016800413663729,-81.21099925910303,3.0
2025-03-10 13:17:23.039,-0.0169889971989132,-82.63608193769325,3.0
2025-03-10 13:17:23.059,-0.017129732307208,-83.51847828013673,3.0
2025-03-10 13:17:23.078,-0.0172401446959972,-84.0628023444925,3.0
2025-03-10 13:17:23.098,-0.0173325087037509,-84.15213487243187,3.0
2025-03-10 13:17:23.117,-0.0174083707828897,-83.35664094789205,3.0
2025-03-10 13:17:23.137,-0.0174538741871713,-81.02330761571818,3.0
2025-03-10 13:17:23.156,-0.0174372374232173,-76.43010223494956,3.0
2025-03-10 13:17:23.176,-0.0173097869146676,-68.97149142218832,3.0
2025-03-10 13:17:23.195,-0.0170115392441537,-58.33283099010861,3.0
2025-03-10 13:17:23.215,-0.0164813574497381,-44.611635970524205,3.0
2025-03-10 13:17:23.234,-0.0156703139674614,-28.354830553650007,3.0
2025-03-10 13:17:23.254,-0.0145554836500053,-10.500389098711036,3.0
2025-03-10 13:17:23.273,-0.0131505035465869,7.765685841472491,3.0
2025-03-10 13:17:23.293,-0.0115093448333856,25.206302673945046,3.0
2025-03-10 13:17:23.312,-0.009721086320953,40.74117808988651,3.0
2025-03-10 13:17:23.332,-0.0078959381686699,53.62059412550138,3.0
2025-03-10 13:17:23.352,-0.0061456578567206,63.527870340542414,3.0
2025-03-10 13:17:23.371,-0.0045635864759786,70.58942704644484,3.0
2025-03-10 13:17:23.391,-0.0032096853238163,75.2918091774801,3.0
2025-03-10 13:17:23.410,-0.0021040735789109,78.32552067919801,3.0
2025-03-10 13:17:23.430,-0.0012296645940506,80.39155020258536,3.0
2025-03-10 13:17:23.449,-0.000541864762248,82.01459983076417,3.0
2025-03-10 13:17:23.469,1.8208545633123684e-05,83.4054652905209,3.0
2025-03-10 13:17:23.488,0.0005106554734019,84.4039656044384,3.0
2025-03-10 13:17:23.508,0.0009865296208789,84.51551658088991,3.0
2025-03-10 13:17:23.527,0.0014815604345807,83.03284799098422,3.0
2025-03-10 13:17:23.547,0.0020138017416064,79.21449836661569,3.0
2025-03-10 13:17:23.566,0.0025845172458918,72.47856167369766,3.0
2025-03-10 13:17:23.586,0.0031814710864596,62.56720005471003,3.0
2025-03-10 13:17:23.605,0.0037837996317955,49.64533825261905,3.0
2025-03-10 13:17:23.625,0.004367607766649,34.31307929134386,3.0
2025-03-10 13:17:23.644,0.0049113904130352,17.530820583593446,3.0
2025-03-10 13:17:23.664,0.0054004374341883,0.4737968768741586,3.0
2025-03-10 13:17:23.684,0.005829588285911,-15.654435464863363,3.0
2025-03-10 13:17:23.703,0.0062040117369048,-29.81346430372712,3.0
2025-03-10 13:17:23.723,0.0065379813130651,-41.2860711743947,3.0
2025-03-10 13:17:23.742,0.0068518343893759,-49.77642875159015,3.0
2025-03-10 13:17:23.762,0.0071675176154661,-55.427561153401086,3.0
2025-03-10 13:17:23.781,0.0075034439902287,-58.75473002860585,3.0
2025-03-10 13:17:23.801,0.0078697503332193,-60.5080911208704,3.0
2025-03-10 13:17:23.820,0.0082651950796493,-61.492298417524914,3.0
2025-03-10 13:17:23.840,0.0086766699469692,-62.37963608188372,3.0
2025-03-10 13:17:23.859,0.0090816485630476,-63.554869562043706,3.0
2025-03-10 13:17:23.879,0.0094531042593487,-65.02401312933836,3.0
2025-03-10 13:17:23.898,0.0097657744347199,-66.40675620983367,3.0
2025-03-10 13:17:23.918,0.0100022964081135,-67.0156562529136,3.0
2025-03-10 13:17:23.937,0.0101577513681676,-66.00742053268884,3.0
2025-03-10 13:17:23.957,0.0102415308200946,-62.57603671568901,3.0
2025-03-10 13:17:23.977,0.0102760920986767,-56.14743520582796,3.0
2025-03-10 13:17:23.996,0.0102929072058829,-46.53336456756597,3.0
2025-03-10 13:17:24.016,0.0103265251883943,-34.0094550976776,3.0
2025-03-10 13:17:24.035,0.0104079912591062,-19.29818649662203,3.0
2025-03-10 13:17:24.055,0.0105588104482493,-3.458449355684768,3.0
2025-03-10 13:17:24.074,0.0107863026172779,12.295400342615055,3.0
2025-03-10 13:17:24.094,0.0110808263947701,26.8059539339451,3.0
2025-03-10 13:17:24.113,0.011415172194599,39.17044044463774,3.0
2025-03-10 13:17:24.133,0.0117464354391099,48.88084829873121,3.0
2025-03-10 13:17:24.152,0.0120206709461168,55.87649549167168,3.0
2025-03-10 13:17:24.172,0.0121803481160265,60.49856532725462,3.0
2025-03-10 13:17:24.191,0.0121739709650181,63.35813012965782,3.0
2025-03-10 13:17:24.211,0.0119663669877065,65.1489543735508,3.0
2025-03-10 13:17:24.230,0.0115474700427954,66.44936749368874,3.0
2025-03-10 13:17:24.250,0.0109372745831734,67.56044882425897,3.0
2025-03-10 13:17:24.270,0.0101851287885775,68.41960540853076,3.0
2025-03-10 13:17:24.289,0.0093625542995867,68.61092481469683,3.0
2025-03-10 13:17:24.309,0.0085501383390247,67.47043059616908,3.0
2025-03-10 13:17:24.328,0.00782050587246,64.2611254476968,3.0
2025-03-10 13:17:24.348,0.0072206293383025,58.37537762339621,3.0
2025-03-10 13:17:24.367,0.0067573818852367,49.51545971476435,3.0
2025-03-10 13:17:24.387,0.006389962936354,37.80876484603652,3.0
2025-03-10 13:17:24.406,0.0060315816096465,23.83061770733642,3.0
2025-03-10 13:17:24.426,0.0055609167452382,8.52976235513293,3.0
2025-03-10 13:17:24.445,0.004841939311933,-6.926499005815009,3.0
2025-03-10 13:17:24.465,0.0037491301717157,-21.353853275599928,3.0
2025-03-10 13:17:24.484,0.0021940945114815,-33.75679566003791,3.0
2025-03-10 13:17:24.504,0.0001490011775104,-43.496339031049374,3.0
2025-03-10 13:17:24.523,-0.0023378314506944,-50.38560811589216,3.0
2025-03-10 13:17:24.543,-0.0051383202741088,-54.694363907287496,3.0
2025-03-10 13:17:24.562,-0.0080556512555609,-57.06221929974804,3.0
2025-03-10 13:17:24.582,-0.0108503147131078,-58.33880283269406,3.0
2025-03-10 13:17:24.602,-0.0132784764849254,-59.38364109722397,3.0
2025-03-10 13:17:24.621,-0.0151367900436866,-60.86633305957395,3.0
2025-03-10 13:17:24.641,-0.0163052651994216,-63.1074243218144,3.0
2025-03-10 13:17:24.660,-0.0167791215040786,-65.99248901734171,3.0
2025-03-10 13:17:24.680,-0.0166820580119639,-68.97780846215852,3.0
2025-03-10 13:17:24.699,-0.0162566640296975,-71.18820129637963,3.0
2025-03-10 13:17:24.719,-0.015832180289978,-71.58916237292145,3.0
2025-03-10 13:17:24.738,-0.0157748314229703,-69.19994850911772,3.0
2025-03-10 13:17:24.758,-0.016430253313359,-63.304893896706375,3.0
2025-03-10 13:17:24.777,-0.0180693634210813,-53.61952554147756,3.0
2025-03-10 13:17:24.797,-0.0208471433932534,-40.3767927198696,3.0
2025-03-10 13:17:24.816,-0.0247787681326015,-24.31536247134168,3.0
2025-03-10 13:17:24.836,-0.029731795097801,-6.572589924504725,3.0
2025-03-10 13:17:24.855,-0.0354296897969943,11.495588730595484,3.0
2025-03-10 13:17:24.875,-0.0414622207768253,28.531411425905425,3.0
2025-03-10 13:17:24.895,-0.0473014120219136,43.386097127673686,3.0
2025-03-10 13:17:24.914,-0.0523260108643164,55.28446612582943,3.0
2025-03-10 13:17:24.934,-0.0558610353848184,63.91303511722816,3.0
2025-03-10 13:17:24.953,-0.057239726859374,69.4166832550029,3.0
2025-03-10 13:17:24.973,-0.0558907989097468,72.30715092214751,3.0
2025-03-10 13:17:24.992,-0.0514438321690308,73.30422900130822,3.0
2025-03-10 13:17:25.012,-0.0438332100513602,73.14421389789419,3.0
2025-03-10 13:17:25.031,-0.033371863243175,72.39725692845882,3.0
2025-03-10 13:17:25.051,-0.0207656266950429,71.33386373047884,3.0
2025-03-10 13:17:25.070,-0.007049666081377,69.87071446823892,3.0
2025-03-10 13:17:25.090,0.006551324855781,67.60868652171176,3.0
2025-03-10 13:17:25.109,0.0188133955073527,63.954799463194895,3.0
2025-03-10 13:17:25.129,0.02870975182735,58.29950917118949,3.0
2025-03-10 13:17:25.148,0.0355650772823571,50.20654082900599,3.0
2025-03-10 13:17:25.168,0.0391330916504155,39.568453496083805,3.0
2025-03-10 13:17:25.188,0.0395872172685846,26.68900805130605,3.0
2025-03-10 13:17:25.207,0.0374383797059057,12.271314922829765,3.0
2025-03-10 13:17:25.227,0.0334091093414168,-2.686287961556023,3.0
2025-03-10 13:17:25.246,0.0282969039869901,-17.062904080949586,3.0
2025-03-10 13:17:25.266,0.0228546615409385,-29.817329789926017,3.0
2025-03-10 13:17:25.285,0.0177058984759366,-40.17520057816044,3.0
2025-03-10 13:17:25.305,0.0133011021306476,-47.760637085146215,3.0
2025-03-10 13:17:25.324,0.0099116641995096,-52.644762640404,3.0
2025-03-10 13:17:25.344,0.0076510947833486,-55.30162466095626,3.0
2025-03-10 13:17:25.363,0.0065102376831827,-56.48163803229132,3.0
2025-03-10 13:17:25.383,0.0063938362013369,-57.02968327964416,3.0
2025-03-10 13:17:25.402,0.0071494091779038,-57.68620056278756,3.0
2025-03-10 13:17:25.422,0.0085848904623547,-58.91303344208047,3.0
2025-03-10 13:17:25.441,0.0104773278785593,-60.78085439958154,3.0
2025-03-10 13:17:25.461,0.0125795504401248,-62.94267305574229,3.0
2025-03-10 13:17:25.480,0.0146337965341675,-64.70043916928664,3.0
2025-03-10 13:17:25.500,0.0163998327704053,-65.15237735338978,3.0
2025-03-10 13:17:25.520,0.0176994667446616,-63.39125571262574,3.0
2025-03-10 13:17:25.539,0.0184701748500819,-58.71206267337321,3.0
2025-03-10 13:17:25.559,0.0188109153810656,-50.78447956544768,3.0
2025-03-10 13:17:25.578,0.0189985258075946,-39.752334592148266,3.0
2025-03-10 13:17:25.598,0.0194579616000312,-26.237791452884576,3.0
2025-03-10 13:17:25.617,0.0206834198365487,-11.248848283867057,3.0
2025-03-10 13:17:25.637,0.0231241653039067,3.990257332686333,3.0
2025-03-10 13:17:25.656,0.0270617207735972,18.24998970023069,3.0
2025-03-10 13:17:25.676,0.0325098318803641,30.50430573459223,3.0
2025-03-10 13:17:25.695,0.0391644370820536,40.0955901692914,3.0
2025-03-10 13:17:25.715,0.0464197066014868,46.82418212072592,3.0
2025-03-10 13:17:25.734,0.0534517229664731,50.94671159049887,3.0
2025-03-10 13:17:25.754,0.0593567349873289,53.08550157187313,3.0
2025-03-10 13:17:25.773,0.0633176614831726,54.06833972842842,3.0
2025-03-10 13:17:25.793,0.0647623161272355,54.73119780828297,3.0
2025-03-10 13:17:25.813,0.0634733462703252,55.72381685184836,3.0
2025-03-10 13:17:25.832,0.0596175419220758,57.358090050989205,3.0
2025-03-10 13:17:25.852,0.053682582232536,59.53147038912662,3.0
2025-03-10 13:17:25.871,0.0463380556385255,61.74309109605437,3.0
2025-03-10 13:17:25.891,0.0382639224683885,63.20124531979858,3.0
2025-03-10 13:17:25.910,0.0300008823483031,63.00096987360397,3.0
2025-03-10 13:17:25.930,0.0218670032607229,60.3340969706493,3.0
2025-03-10 13:17:25.949,0.0139580876400826,54.68543423231896,3.0
2025-03-10 13:17:25.969,0.0062180564550238,45.97047321582344,3.0
2025-03-10 13:17:25.988,-0.0014570112771442,34.582505297865296,3.0
2025-03-10 13:17:26.008,-0.0091238681112968,21.337548695579105,3.0
2025-03-10 13:17:26.027,-0.0167381996748503,7.328938018565516,3.0
2025-03-10 13:17:26.047,-0.0241529837636979,-6.276132332700303,3.0
2025-03-10 13:17:26.066,-0.0311598277104771,-18.453204229170947,3.0
2025-03-10 13:17:26.086,-0.0375526829728157,-28.50307036419066,3.0
2025-03-10 13:17:26.105,-0.0431923166606078,-36.1609520849507,3.0
2025-03-10 13:17:26.125,-0.0480547488028058,-41.60931592418165,3.0
2025-03-10 13:17:26.145,-0.0522530717549859,-45.39236755307439,3.0
2025-03-10 13:17:26.164,-0.0560277491194023,-48.25181500218684,3.0
2025-03-10 13:17:26.184,-0.0597052662286338,-50.92095899069944,3.0
2025-03-10 13:17:26.203,-0.0636292152954599,-53.92368109133807,3.0
2025-03-10 13:17:26.223,-0.0680726089508328,-57.424236703545965,3.0
2025-03-10 13:17:26.242,-0.0731460988649367,-61.162881640380526,3.0
2025-03-10 13:17:26.262,-0.0787224648741344,-64.4934378967848,3.0
2025-03-10 13:17:26.281,-0.084399963889842,-66.51591112266594,3.0
2025-03-10 13:17:26.301,-0.0895228309493368,-66.27528941703643,3.0
2025-03-10 13:17:26.320,-0.0932657363907341,-62.98189115005689,3.0
2025-03-10 13:17:26.340,-0.0947726852522531,-56.2031942172069,3.0
2025-03-10 13:17:26.359,-0.0933240981906883,-45.98366678098865,3.0
2025-03-10 13:17:26.379,-0.0884936559127924,-32.86615688165199,3.0
2025-03-10 13:17:26.398,-0.0802538246403524,-17.81127119552295,3.0
2025-03-10 13:17:26.418,-0.0689996157552281,-2.033782683308489,3.0
2025-03-10 13:17:26.438,-0.0554835419933037,13.207916106474071,3.0
2025-03-10 13:17:26.457,-0.0406823644799485,26.82502394087028,3.0
2025-03-10 13:17:26.477,-0.0256343859592634,38.07098400416125,3.0
2025-03-10 13:17:26.496,-0.0112867833871033,46.639748487252746,3.0
2025-03-10 13:17:26.516,0.001619584789088,52.67149060925357,3.0
2025-03-10 13:17:26.535,0.0126146431844555,56.6666306642997,3.0
2025-03-10 13:17:26.555,0.021510004481807,59.32785633254509,3.0
2025-03-10 13:17:26.574,0.0283612258967509,61.36472994821189,3.0
2025-03-10 13:17:26.594,0.0333939553364268,63.303446162779686,3.0
2025-03-10 13:17:26.613,0.0369135914987852,65.34354980333954,3.0
2025-03-10 13:17:26.633,0.0392216071813481,67.2937984227751,3.0
2025-03-10 13:17:26.652,0.0405589453615172,68.60249223240646,3.0
2025-03-10 13:17:26.672,0.0410875396053106,68.47678996304691,3.0
2025-03-10 13:17:26.691,0.0409076903330553,66.06526534484705,3.0
2025-03-10 13:17:26.711,0.0400970574752942,60.66304180044258,3.0
2025-03-10 13:17:26.731,0.0387517535668406,51.8931951546157,3.0
2025-03-10 13:17:26.750,0.0370129518476744,39.82348952022538,3.0
2025-03-10 13:17:26.770,0.0350704757919874,24.992663138402985,3.0
2025-03-10 13:17:26.789,0.0331435466324482,8.341351784907891,3.0
2025-03-10 13:17:26.809,0.0314454484609311,-8.93617290784872,3.0
2025-03-10 13:17:26.828,0.0301425429455303,-25.586968981414472,3.0
2025-03-10 13:17:26.848,0.0293190027497587,-40.500185094715086,3.0
2025-03-10 13:17:26.867,0.0289571188103183,-52.87307660516643,3.0
2025-03-10 13:17:26.887,0.0289391366137316,-62.310144183219606,3.0
2025-03-10 13:17:26.906,0.0290706641504901,-68.8377557753908,3.0
2025-03-10 13:17:26.926,0.0291194050749527,-72.83431873397991,3.0
2025-03-10 13:17:26.945,0.0288588772776276,-74.89356526016529,3.0
2025-03-10 13:17:26.965,0.0281065640386764,-75.65237665790056,3.0
2025-03-10 13:17:26.984,0.0267492110052719,-75.6219471245957,3.0
2025-03-10 13:17:27.004,0.0247528655146891,-75.06022211571728,3.0
2025-03-10 13:17:27.023,0.0221597417976445,-73.91425266657889,3.0
2025-03-10 13:17:27.043,0.0190766911260401,-71.84505310338743,3.0
2025-03-10 13:17:27.063,0.0156604182329834,-68.32817942475234,3.0
2025-03-10 13:17:27.082,0.0121029463513379,-62.80519629093449,3.0
2025-03-10 13:17:27.102,0.0086181971931701,-54.84918992479763,3.0
2025-03-10 13:17:27.121,0.0054281739010919,-44.30483754876852,3.0
2025-03-10 13:17:27.141,0.0027461673622961,-31.370842568867385,3.0
2025-03-10 13:17:27.160,0.0007551767646482,-16.60719565523444,3.0
2025-03-10 13:17:27.180,-0.0004178181736092,-0.8670564384832347,3.0
2025-03-10 13:17:27.199,-0.0007278151966277,14.831494600304074,3.0
2025-03-10 13:17:27.219,-0.0002312371369176,29.46772355168887,3.0
2025-03-10 13:17:27.238,0.000908866358813,42.182878754609376,3.0
2025-03-10 13:17:27.258,0.0024376832582348,52.41515074425322,3.0
2025-03-10 13:17:27.277,0.0040442816615355,59.97760292524539,3.0
2025-03-10 13:17:27.297,0.0054118000788676,65.06156603428198,3.0
2025-03-10 13:17:27.316,0.0062703902961352,68.1623439561079,3.0
2025-03-10 13:17:27.336,0.0064401155402241,69.94071826554726,3.0
2025-03-10 13:17:27.356,0.0058549051702981,71.04895525109806,3.0
2025-03-10 13:17:27.375,0.0045647030320798,71.95974676428676,3.0
2025-03-10 13:17:27.395,0.0027180826255521,72.83776615078739,3.0
2025-03-10 13:17:27.414,0.0005307317322668,73.48536508903058,3.0
2025-03-10 13:17:27.434,-0.0017533343071825,73.37779786526426,3.0
2025-03-10 13:17:27.453,-0.0039007241947238,71.7827036499024,3.0
2025-03-10 13:17:27.473,-0.0057214501935028,67.93819086880295,3.0
2025-03-10 13:17:27.492,-0.0070908774571384,61.248825809989214,3.0
2025-03-10 13:17:27.512,-0.0079585450628858,51.453261478460064,3.0
2025-03-10 13:17:27.531,-0.0083441551365329,38.72309750211978,3.0
2025-03-10 13:17:27.551,-0.0083232867970902,23.668738060321125,3.0
2025-03-10 13:17:27.570,-0.0080068385653996,7.250396432704839,3.0
2025-03-10 13:17:27.590,-0.007518587686285,-9.384996802286372,3.0
2025-03-10 13:17:27.609,-0.0069746107572013,-25.103312446639716,3.0
2025-03-10 13:17:27.629,-0.0064669642806644,-38.97429972779232,3.0
2025-03-10 13:17:27.649,-0.0060525223091214,-50.41297325372594,3.0
2025-03-10 13:17:27.668,-0.0057467572189039,-59.24279649616041,3.0
2025-03-10 13:17:27.688,-0.0055218309185742,-65.6704087856472,3.0
2025-03-10 13:17:27.707,-0.0053086208728182,-70.18113839997231,3.0
2025-03-10 13:17:27.727,-0.0050029723629024,-73.38125002076258,3.0
2025-03-10 13:17:27.746,-0.0044771119771974,-75.82360871227975,3.0
2025-03-10 13:17:27.766,-0.0035973017404705,-77.85619000514188,3.0
2025-03-10 13:17:27.785,-0.0022481256763396,-79.52704574120851,3.0
2025-03-10 13:17:27.805,-0.0003621989684647,-80.56604628004894,3.0
2025-03-10 13:17:27.824,0.0020482583090275,-80.4458111523968,3.0
2025-03-10 13:17:27.844,0.0048641911273196,-78.50597002381848,3.0
2025-03-10 13:17:27.863,0.0078451617687824,-74.11097138328665,3.0
2025-03-10 13:17:27.883,0.0106362650876039,-66.80571920243166,3.0
2025-03-10 13:17:27.902,0.0128029125723448,-56.43642026218757,3.0
2025-03-10 13:17:27.922,0.0138942395406206,-43.2140927147724,3.0
2025-03-10 13:17:27.941,0.0135276630623869,-27.7111939444932,3.0
2025-03-10 13:17:27.961,0.0114783285913909,-10.79408965800387,3.0
2025-03-10 13:17:27.981,0.0077509309704618,6.496112509779148,3.0
2025-03-10 13:17:28.000,0.002611079480342,23.09447212569893,3.0
2025-03-10 13:17:28.020,-0.003438860891032,38.0696521791955,3.0
2025-03-10 13:17:28.039,-0.0097396374994874,50.75982216699438,3.0
2025-03-10 13:17:28.059,-0.0155936407611247,60.86004772221918,3.0
2025-03-10 13:17:28.078,-0.0203923490046047,68.4408235441744,3.0
2025-03-10 13:17:28.098,-0.023720219349216,73.8899869556671,3.0
2025-03-10 13:17:28.117,-0.0254108232716228,77.78684108875984,3.0
2025-03-10 13:17:28.137,-0.0255463939791172,80.73388689687934,3.0
2025-03-10 13:17:28.156,-0.024407995583922,83.1834231103644,3.0
2025-03-10 13:17:28.176,-0.0223947437623574,85.29978115958902,3.0
2025-03-10 13:17:28.195,-0.019934557962822,86.89163905315691,3.0
2025-03-10 13:17:28.215,-0.0174065026770773,87.43372690337195,3.0
2025-03-10 13:17:28.234,-0.0150881795613606,86.17656875338088,3.0
2025-03-10 13:17:28.254,-0.0131334758763683,82.32154604780472,3.0
2025-03-10 13:17:28.274,-0.0115784873436514,75.22189633296739,3.0
2025-03-10 13:17:28.293,-0.0103681139449008,64.56283641258682,3.0
2025-03-10 13:17:28.313,-0.0093933159228398,50.47813404997974,3.0
2025-03-10 13:17:28.332,-0.0085291887170532,33.57522913630941,3.0
2025-03-10 13:17:28.352,-0.0076661945556677,14.8623778466221,3.0
2025-03-10 13:17:28.371,-0.0067301158565658,-4.406499419880146,3.0
2025-03-10 13:17:28.391,-0.005689624316519,-22.93591767079468,3.0
2025-03-10 13:17:28.410,-0.0045530793096805,-39.5988278646126,3.0
2025-03-10 13:17:28.430,-0.0033578869608093,-53.60897510623976,3.0
2025-03-10 13:17:28.449,-0.0021563844141646,-64.6203746415916,3.0
2025-03-10 13:17:28.469,-0.0010019290241474,-72.73412673243169,3.0
2025-03-10 13:17:28.488,6.203613043144066e-05,-78.41251933775342,3.0
2025-03-10 13:17:28.508,0.0010083907320442,-82.32039522794658,3.0
2025-03-10 13:17:28.527,0.0018279275467235,-85.12976912679432,3.0
2025-03-10 13:17:28.547,0.0025268949386437,-87.33202447248703,3.0
2025-03-10 13:17:28.567,0.0031219560654411,-89.10061322925185,3.0
2025-03-10 13:17:28.586,0.0036342641245982,-90.23602765404377,3.0
2025-03-10 13:17:28.606,0.0040841575060629,-90.20610923172308,3.0
2025-03-10 13:17:28.625,0.0044874899739472,-88.27259723237995,3.0
2025-03-10 13:17:28.645,0.0048540035320465,-83.67444475396816,3.0
2025-03-10 13:17:28.664,0.005187583732998,-75.82506154509394,3.0
2025-03-10 13:17:28.684,0.0054878298425549,-64.47792637416156,3.0
2025-03-10 13:17:28.703,0.0057521871934699,-49.823588420962125,3.0
2025-03-10 13:17:28.723,0.0059779288269984,-32.49809888052629,3.0
2025-03-10 13:17:28.742,0.0061634973054793,-13.503150895821696,3.0
2025-03-10 13:17:28.762,0.0063090365223123,5.943654145981161,3.0
2025-03-10 13:17:28.781,0.0064162355019287,24.59736102694888,3.0
2025-03-10 13:17:28.801,0.0064877798701799,41.37597976523856,3.0
2025-03-10 13:17:28.820,0.0065267440271756,55.51600162405193,3.0
2025-03-10 13:17:28.840,0.0065361855646521,66.66316478329696,3.0
2025-03-10 13:17:28.859,0.0065190508023329,74.88075948385068,3.0
2025-03-10 13:17:28.879,0.0064783073678836,80.57419766446088,3.0
2025-03-10 13:17:28.899,0.0064170721615943,84.34832623284456,3.0
2025-03-10 13:17:28.918,0.0063384946466959,86.8290856411985,3.0
2025-03-10 13:17:28.938,0.0062453070930791,88.4897524505513,3.0
2025-03-10 13:17:28.957,0.0061391776869318,89.52163740029131,3.0
2025-03-10 13:17:28.977,0.0060201552600204,89.77935674573192,3.0
2025-03-10 13:17:28.996,0.0058864813891675,88.81362721863185,3.0
2025-03-10 13:17:29.016,0.0057348874066642,85.98392901837099,3.0
2025-03-10 13:17:29.035,0.0055612950339369,80.62444287726416,3.0
2025-03-10 13:17:29.055,0.0053617123946749,72.22433911851641,3.0
2025-03-10 13:17:29.074,0.0051331137930215,60.581041276169145,3.0
2025-03-10 13:17:29.094,0.0048741667262985,45.89282121929595,3.0
2025-03-10 13:17:29.113,0.0045857294761449,28.77212279176345,3.0
2025-03-10 13:17:29.133,0.0042710470408071,10.178543309990696,3.0
2025-03-10 13:17:29.152,0.0039355649072324,-8.714065549694045,3.0
2025-03-10 13:17:29.172,0.0035863220644199,-26.69087745489386,3.0
2025-03-10 13:17:29.192,0.0032309941220121,-42.67820928224193,3.0
2025-03-10 13:17:29.211,0.0028767841455777,-55.90162200286,3.0
2025-03-10 13:17:29.231,0.0025294172290632,-65.99058804466112,3.0
2025-03-10 13:17:29.250,0.0021924442870666,-73.0088015598937,3.0
2025-03-10 13:17:29.270,0.0018669523014532,-77.40242592345152,3.0
2025-03-10 13:17:29.289,0.0015517025792671,-79.87466822261472,3.0
2025-03-10 13:17:29.309,0.0012437114350794,-81.21072531296458,3.0
2025-03-10 13:17:29.328,0.0009392926686633,-82.08859047708762,3.0
2025-03-10 13:17:29.348,0.000635502606245,-82.91548165809508,3.0
2025-03-10 13:17:29.367,0.0003317438043208,-83.72543697693041,3.0
2025-03-10 13:17:29.387,3.109974408583395e-05,-84.16152075459436,3.0
2025-03-10 13:17:29.406,-0.0002590678580811,-83.54842804121749,3.0
2025-03-10 13:17:29.426,-0.0005275886106494,-81.04166176800814,3.0
2025-03-10 13:17:29.445,-0.0007611029734597,-75.82209617714892,3.0
2025-03-10 13:17:29.465,-0.0009466341199383,-67.29371195662213,3.0
2025-03-10 13:17:29.484,-0.0010746325401921,-55.24064087052325,3.0
2025-03-10 13:17:29.504,-0.0011417812354214,-39.90840989160239,3.0
2025-03-10 13:17:29.524,-0.0011527689503121,-21.991678987128815,3.0
2025-03-10 13:17:29.543,-0.0011204051264434,-2.5324335788529924,3.0
2025-03-10 13:17:29.563,-0.001063859164863,17.24719433168822,3.0
2025-03-10 13:17:29.582,-0.0010053369189528,36.13958724878104,3.0
2025-03-10 13:17:29.602,-0.0009659709549931,53.13151264594018,3.0
2025-03-10 13:17:29.621,-0.0009619185350547,67.53217345023876,3.0
2025-03-10 13:17:29.641,-0.0010015637211066,79.02556111485303,3.0
2025-03-10 13:17:29.660,-0.001084399940682,87.64116555219945,3.0
2025-03-10 13:17:29.680,-0.0012017778465138,93.65578943249912,3.0
2025-03-10 13:17:29.699,-0.0013393117892251,97.45446640518934,3.0
2025-03-10 13:17:29.719,-0.0014803610830994,99.38680313795416,3.0
2025-03-10 13:17:29.738,-0.0016097181873637,99.65449703180268,3.0
2025-03-10 13:17:29.758,-0.001716581250966,98.25644992668828,3.0
2025-03-10 13:17:29.777,-0.0017961174081575,95.0021711719589,3.0
2025-03-10 13:17:29.797,-0.0018493544686962,89.58627512166257,3.0
2025-03-10 13:17:29.817,-0.0018816305409002,81.70186662396155,3.0
2025-03-10 13:17:29.836,-0.0019002305228114,71.1626530378937,3.0
2025-03-10 13:17:29.856,-0.001912004192448,58.00434062346815,3.0
2025-03-10 13:17:29.875,-0.0019216416005631,42.54361403767341,3.0
2025-03-10 13:17:29.895,-0.0019309562267727,25.38393273043364,3.0
2025-03-10 13:17:29.914,-0.0019391393244917,7.367856447753063,3.0
2025-03-10 13:17:29.934,-0.0019436398531118,-10.516083644196408,3.0
2025-03-10 13:17:29.953,-0.0019411959789925,-27.257700636304147,3.0
2025-03-10 13:17:29.973,-0.0019286238623986,-41.961568846683285,3.0
2025-03-10 13:17:29.992,-0.0019031838856077,-53.97315315428439,3.0
2025-03-10 13:17:30.012,-0.0018625629830703,-62.97158493639871,3.0
2025-03-10 13:17:30.031,-0.0018046449042762,-69.00949728827358,3.0
2025-03-10 13:17:30.051,-0.0017272854301504,-72.48868332863638,3.0
2025-03-10 13:17:30.070,-0.001628290166451,-74.07247719365353,3.0
2025-03-10 13:17:30.090,-0.0015057036702595,-74.54888455274516,3.0
2025-03-10 13:17:30.110,-0.0013583729468661,-74.66925221706077,3.0
2025-03-10 13:17:30.129,-0.0011866189260903,-74.99304263940726,3.0
2025-03-10 13:17:30.149,-0.0009928075852968,-75.76888621492859,3.0
2025-03-10 13:17:30.168,-0.0007816533089428,-76.87579673273909,3.0
2025-03-10 13:17:30.188,-0.0005601560542898,-77.83759657688131,3.0
2025-03-10 13:17:30.207,-0.0003371347996657,-77.91014324948762,3.0
2025-03-10 13:17:30.227,-0.0001223737322486,-76.22705638457336,3.0
2025-03-10 13:17:30.246,7.454098316843851e-05,-71.97758702269685,3.0
2025-03-10 13:17:30.266,0.0002455412225813,-64.58235097786934,3.0
2025-03-10 13:17:30.285,0.0003853230239988,-53.83098568281857,3.0
2025-03-10 13:17:30.305,0.00049223326751,-39.95175551023781,3.0
2025-03-10 13:17:30.324,0.0005685171519738,-23.596506337439827,3.0
2025-03-10 13:17:30.344,0.0006197485969584,-5.742741096959557,3.0
2025-03-10 13:17:30.363,0.0006534707896847,12.46641735084138,3.0
2025-03-10 13:17:30.383,0.000677330352019,29.90906563688686,3.0
2025-03-10 13:17:30.402,0.0006971885727124,45.65679310126056,3.0
2025-03-10 13:17:30.422,0.0007157327461107,59.095076012428,3.0
2025-03-10 13:17:30.442,0.0007319610688733,69.96747150861017,3.0
2025-03-10 13:17:30.461,0.0007416478021406,78.33780931841399,3.0
2025-03-10 13:17:30.481,0.0007386356555622,84.4840848080886,3.0
2025-03-10 13:17:30.500,0.0007166322627789,88.75369477231443,3.0
2025-03-10 13:17:30.520,0.0006711072159135,91.41836842665168,3.0
2025-03-10 13:17:30.539,0.0006008673851186,92.56654644541211,3.0
2025-03-10 13:17:30.559,0.0005089276907024,92.06101966298117,3.0
2025-03-10 13:17:30.578,0.0004024007432585,89.57258190329757,3.0
2025-03-10 13:17:30.598,0.0002913063582013,84.68051777666285,3.0
2025-03-10 13:17:30.617,0.0001864467665948,77.01329748168344,3.0
2025-03-10 13:17:30.637,9.676553295322818e-05,66.39279801433572,3.0
2025-03-10 13:17:30.656,2.682386553707129e-05,52.94535392272448,3.0
2025-03-10 13:17:30.676,-2.4901133784071428e-05,37.15221254984954,3.0
2025-03-10 13:17:30.695,-6.63194261428528e-05,19.826890867260385,3.0
2025-03-10 13:17:30.715,-0.0001103808065504,2.022960301768635,3.0
2025-03-10 13:17:30.735,-0.0001722748874228,-15.110499407576718,3.0
2025-03-10 13:17:30.754,-0.0002658066545726,-30.49882436803858,3.0
2025-03-10 13:17:30.774,-0.0003998407227922,-43.30513444115876,3.0
2025-03-10 13:17:30.793,-0.0005757249253465,-53.05559931404427,3.0
2025-03-10 13:17:30.813,-0.0007863917722201,-59.70130637956362,3.0
2025-03-10 13:17:30.832,-0.0010174747316756,-63.603066159212304,3.0
2025-03-10 13:17:30.852,-0.0012503401806755,-65.44048182763117,3.0
2025-03-10 13:17:30.871,-0.0014664847625251,-66.06175559104072,3.0
2025-03-10 13:17:30.891,-0.0016523746952853,-66.30267551436327,3.0
2025-03-10 13:17:30.910,-0.001803618420312,-66.80955237738758,3.0
2025-03-10 13:17:30.930,-0.0019274073356343,-67.90044178627659,3.0
2025-03-10 13:17:30.949,-0.0020423953031182,-69.49204997825512,3.0
2025-03-10 13:17:30.969,-0.0021755804612052,-71.10764922591032,3.0
2025-03-10 13:17:30.988,-0.0023562849854341,-71.96623305472431,3.0
2025-03-10 13:17:31.008,-0.0026079578242917,-71.13755302139471,3.0
2025-03-10 13:17:31.028,-0.0029391665400323,-67.73429317973083,3.0
2025-03-10 13:17:31.047,-0.0033356675636543,-61.104074594664006,3.0
2025-03-10 13:17:31.067,-0.0037556964211151,-50.98241182392197,3.0
2025-03-10 13:17:31.086,-0.0041304718162512,-37.57428756214677,3.0
2025-03-10 13:17:31.106,-0.004371257233724,-21.54604406426581,3.0
2025-03-10 13:17:31.125,-0.0043830912375562,-3.928089952945645,3.0
2025-03-10 13:17:31.145,-0.004083554284014,14.051856099154424,3.0
2025-03-10 13:17:31.164,-0.0034230591070292,31.17029904604522,3.0
2025-03-10 13:17:31.184,-0.0024017499964211,46.40241382287029,3.0
2025-03-10 13:17:31.203,-0.001077829293834,59.06958780956564,3.0
2025-03-10 13:17:31.223,0.0004364854926201,68.91077877685187,3.0
2025-03-10 13:17:31.242,0.0019920325560428,76.06497065996085,3.0
2025-03-10 13:17:31.262,0.0034293421700406,80.97107911662069,3.0
2025-03-10 13:17:31.281,0.0046079883075064,84.20935066251346,3.0
2025-03-10 13:17:31.301,0.0054308891535965,86.32101197539058,3.0
2025-03-10 13:17:31.320,0.0058577787218647,87.64791529920058,3.0
2025-03-10 13:17:31.340,0.0059057974132065,88.2298301917975,3.0
2025-03-10 13:17:31.360,0.0056388565226989,87.78429635589622,3.0
2025-03-10 13:17:31.379,0.005149893503847,85.77498467447971,3.0
2025-03-10 13:17:31.399,0.0045409802455858,81.55342485404122,3.0
2025-03-10 13:17:31.418,0.0039057055060913,74.540824127706,3.0
2025-03-10 13:17:31.438,0.0033168196046539,64.40634708040987,3.0
2025-03-10 13:17:31.457,0.0028203515525182,51.19871166513543,3.0
2025-03-10 13:17:31.477,0.0024357700538356,35.39930302812346,3.0
2025-03-10 13:17:31.496,0.0021605999840976,17.88394277188896,3.0
2025-03-10 13:17:31.516,0.0019773745976804,-0.1984143021809524,3.0
2025-03-10 13:17:31.535,0.0018608767149304,-17.60388494364971,3.0
2025-03-10 13:17:31.555,0.001784157777733,-33.19167190128825,3.0
2025-03-10 13:17:31.574,0.0017226057496834,-46.10235177297671,3.0
2025-03-10 13:17:31.594,0.0016561037276383,-55.88252072820741,3.0
2025-03-10 13:17:31.613,0.0015698417273699,-62.53373688821341,3.0
2025-03-10 13:17:31.633,0.0014544696102004,-66.4789803887673,3.0
2025-03-10 13:17:31.653,0.0013060332128545,-68.45538308948773,3.0
2025-03-10 13:17:31.672,0.0011257421547864,-69.35489955830822,3.0
2025-03-10 13:17:31.692,0.0009193743524822,-70.0428699815932,3.0
2025-03-10 13:17:31.711,0.0006961672368981,-71.18708049957418,3.0
2025-03-10 13:17:31.731,0.0004672767558212,-73.12700155638316,3.0
2025-03-10 13:17:31.750,0.0002440961007383,-75.80527915270086,3.0
2025-03-10 13:17:31.770,3.677661782510984e-05,-78.77273996924056,3.0
2025-03-10 13:17:31.789,-0.0001468095624983,-81.26586641070554,3.0
2025-03-10 13:17:31.809,-0.0003015728452755,-82.34359811730214,3.0
2025-03-10 13:17:31.828,-0.0004251943767203,-81.06001911771837,3.0
2025-03-10 13:17:31.848,-0.0005176994006225,-76.6425773843506,3.0
2025-03-10 13:17:31.867,-0.0005807892762717,-68.64351564838276,3.0
2025-03-10 13:17:31.887,-0.0006171535090503,-57.03629931180896,3.0
2025-03-10 13:17:31.906,-0.0006299703896054,-42.238942171913024,3.0
2025-03-10 13:17:31.926,-0.0006227079553262,-25.06038685636183,3.0
2025-03-10 13:17:31.945,-0.0005991755375522,-6.581092657028966,3.0
2025-03-10 13:17:31.965,-0.000563641605285,12.008908270197944,3.0
2025-03-10 13:17:31.985,-0.0005208301182305,29.584319824548583,3.0
2025-03-10 13:17:32.004,-0.0004757311402924,45.2398520979232,3.0
2025-03-10 13:17:32.024,-0.0004332919411815,58.39884636929608,3.0
2025-03-10 13:17:32.043,-0.0003980908244389,68.85577235166404,3.0
2025-03-10 13:17:32.063,-0.0003740487820583,76.74496251825362,3.0
2025-03-10 13:17:32.082,-0.0003641796049452,82.4423404755899,3.0
2025-03-10 13:17:32.102,-0.00037036776144,86.4214509434616,3.0
2025-03-10 13:17:32.121,-0.0003931929143471,89.09642891596918,3.0
2025-03-10 13:17:32.141,-0.0004318565976156,90.68929381077436,3.0
2025-03-10 13:17:32.160,-0.0004842708453918,91.1549803839276,3.0
2025-03-10 13:17:32.180,-0.0005473226626764,90.18479880805572,3.0
2025-03-10 13:17:32.199,-0.000617261651683,87.29000453121839,3.0
2025-03-10 13:17:32.219,-0.0006901293479763,81.94645688274232,3.0
2025-03-10 13:17:32.238,-0.0007621757400586,73.76461280810848,3.0
2025-03-10 13:17:32.258,-0.0008302409276091,62.641348248530136,3.0
2025-03-10 13:17:32.278,-0.0008920708913892,48.85389614074168,3.0
2025-03-10 13:17:32.297,-0.0009465032601983,33.07059026975901,3.0
2025-03-10 13:17:32.317,-0.0009934458924353,16.273887634996786,3.0
2025-03-10 13:17:32.336,-0.0010335991033251,-0.3876474906525237,3.0
2025-03-10 13:17:32.356,-0.0010679444555953,-15.785663598866623,3.0
2025-03-10 13:17:32.375,-0.0010971214213397,-28.99654264898507,3.0
2025-03-10 13:17:32.395,-0.0011208870884379,-39.44613167071002,3.0
2025-03-10 13:17:32.414,-0.0011378568321777,-46.98673466129203,3.0
2025-03-10 13:17:32.434,-0.001145650498115,-51.89336539702467,3.0
2025-03-10 13:17:32.453,-0.0011414406094145,-54.78260098389732,3.0
2025-03-10 13:17:32.473,-0.0011227531962434,-56.47182745194527,3.0
2025-03-10 13:17:32.492,-0.0010882687945972,-57.80675346127202,3.0
2025-03-10 13:17:32.512,-0.0010383708388817,-59.48943207984316,3.0
2025-03-10 13:17:32.531,-0.0009752960927315,-61.93750948067749,3.0
2025-03-10 13:17:32.551,-0.0009028858501405,-65.19884609437855,3.0
2025-03-10 13:17:32.571,-0.0008260257287428,-68.93550435384248,3.0
2025-03-10 13:17:32.590,-0.0007498706726049,-72.47910766622168,3.0
2025-03-10 13:17:32.610,-0.0006789345633134,-74.94748412535148,3.0
2025-03-10 13:17:32.629,-0.0006161460990938,-75.40195331697105,3.0
2025-03-10 13:17:32.649,-0.0005620467047705,-73.01717830870001,3.0
2025-03-10 13:17:32.668,-0.0005143737404455,-67.23271929553813,3.0
2025-03-10 13:17:32.688,-0.0004682427912704,-57.8584738715004,3.0
2025-03-10 13:17:32.707,-0.0004169809324468,-45.11522126922694,3.0
2025-03-10 13:17:32.727,-0.0003534394220785,-29.60490054026736,3.0
2025-03-10 13:17:32.746,-0.0002714540398861,-12.219679591267038,3.0
2025-03-10 13:17:32.766,-0.0001671048886889,5.9896100679445725,3.0
2025-03-10 13:17:32.785,-3.954075815122291e-05,23.95912848333189,3.0
2025-03-10 13:17:32.805,0.0001087090813266,40.74514674180199,3.0
2025-03-10 13:17:32.824,0.0002718966698153,55.62245671706139,3.0
2025-03-10 13:17:32.844,0.0004416076674603,68.13326283713408,3.0
2025-03-10 13:17:32.863,0.0006076226794349,78.08104240640533,3.0
2025-03-10 13:17:32.883,0.0007590071125996,85.47448560794945,3.0
2025-03-10 13:17:32.903,0.0008853242914787,90.43740952221536,3.0
2025-03-10 13:17:32.922,0.0009778325378061,93.10911877098172,3.0
2025-03-10 13:17:32.942,0.0010305186655013,93.56303923462896,3.0
2025-03-10 13:17:32.961,0.0010408453973998,91.7673909272082,3.0
2025-03-10 13:17:32.981,0.0010101262281615,87.60025973857319,3.0
2025-03-10 13:17:33.000,0.0009434747841852,80.91548591359464,3.0
2025-03-10 13:17:33.020,0.0008493121727498,71.6401209423348,3.0
2025-03-10 13:17:33.039,0.0007384560401231,59.87392434536094,3.0
2025-03-10 13:17:33.059,0.0006228575493108,45.95990738666342,3.0
2025-03-10 13:17:33.078,0.0005141099435143,30.50266638664832,3.0
2025-03-10 13:17:33.098,0.0004219238387855,14.325461922877668,3.0
2025-03-10 13:17:33.117,0.0003528062374763,-1.6268816760191998,3.0
2025-03-10 13:17:33.137,0.0003091528859983,-16.418764991411322,3.0
2025-03-10 13:17:33.156,0.0002888881935433,-29.26029857771349,3.0
2025-03-10 13:17:33.176,0.0002857155837619,-39.6211460614767,3.0
2025-03-10 13:17:33.196,0.0002899915676057,-47.29951566633389,3.0
2025-03-10 13:17:33.215,0.000290180984051,-52.4345526282108,3.0
2025-03-10 13:17:33.235,0.0002747511341346,-55.462291980718064,3.0
2025-03-10 13:17:33.254,0.0002342155385347,-57.0258678878194,3.0
2025-03-10 13:17:33.274,0.0001629041238464,-57.85778259514489,3.0
2025-03-10 13:17:33.293,6.001653759057556e-05,-58.65480432430385,3.0
2025-03-10 13:17:33.313,-7.033309450364697e-05,-59.96477625438429,3.0
2025-03-10 13:17:33.332,-0.000220091457628,-62.10046867582142,3.0
2025-03-10 13:17:33.352,-0.0003789778235918,-65.09014921461505,3.0
2025-03-10 13:17:33.371,-0.0005364542745969,-68.66913009083389,3.0
2025-03-10 13:17:33.391,-0.0006834472630864,-72.31191947967194,3.0
2025-03-10 13:17:33.410,-0.0008134376751483,-75.30078870994616,3.0
2025-03-10 13:17:33.430,-0.0009227458137621,-76.82311155826578,3.0
2025-03-10 13:17:33.449,-0.0010100610915608,-76.08628132258806,3.0
2025-03-10 13:17:33.469,-0.0010754532155444,-72.43547628980154,3.0
2025-03-10 13:17:33.489,-0.0011192103893638,-65.45700659528225,3.0
2025-03-10 13:17:33.508,-0.0011408587369215,-55.05002908354596,3.0
2025-03-10 13:17:33.528,-0.001138646386446,-41.45339568097588,3.0
2025-03-10 13:17:33.547,-0.0011096591426801,-25.222291968955545,3.0
2025-03-10 13:17:33.567,-0.0010505756864715,-7.159249007543037,3.0
2025-03-10 13:17:33.586,-0.0009588715621733,11.786963391604308,3.0
2025-03-10 13:17:33.606,-0.0008341044164536,30.635693828769845,3.0
2025-03-10 13:17:33.625,-0.0006788571415657,48.48218150503613,3.0
2025-03-10 13:17:33.645,-0.0004990327027457,64.58155153407849,3.0
2025-03-10 13:17:33.664,-0.0003034373071277,78.39685799280468,3.0
2025-03-10 13:17:33.684,-0.0001028255841143,89.60564555755035,3.0
2025-03-10 13:17:33.703,9.132150812882624e-05,98.0674639640356,3.0
2025-03-10 13:17:33.723,0.0002680791657384,103.76329311807687,3.0
2025-03-10 13:17:33.742,0.0004183226822885,106.72501809100048,3.0
2025-03-10 13:17:33.762,0.0005358560190476,106.97626649730988,3.0
2025-03-10 13:17:33.781,0.0006182747026802,104.5030503999152,3.0
2025-03-10 13:17:33.801,0.0006673470341521,99.26376213113112,3.0
2025-03-10 13:17:33.821,0.0006887377317477,91.23569503791182,3.0
2025-03-10 13:17:33.840,0.0006910517539472,80.48357154374492,3.0
2025-03-10 13:17:33.860,0.000684374670044,67.22854618071884,3.0
2025-03-10 13:17:33.879,0.0006786348521079,51.895797166514505,3.0
2025-03-10 13:17:33.899,0.0006821329854779,35.12443564142392,3.0
2025-03-10 13:17:33.918,0.0007004669366708,17.732557307694968,3.0
2025-03-10 13:17:33.938,0.0007359106031367,0.640199969610743,3.0
2025-03-10 13:17:33.957,0.0007872013245477,-15.238030005888746,3.0
2025-03-10 13:17:33.977,0.0008497022019745,-29.11198974527547,3.0
2025-03-10 13:17:33.996,0.0009159766287363,-40.42435625299655,3.0
2025-03-10 13:17:34.016,0.0009768302542504,-48.92671482318948,3.0
2025-03-10 13:17:34.035,0.0010227785776308,-54.707334163984825,3.0
2025-03-10 13:17:34.055,0.0010457330552461,-58.1639097009857,3.0
2025-03-10 13:17:34.074,0.0010405643105121,-59.92536111376268,3.0
2025-03-10 13:17:34.094,0.0010061613616661,-60.73636847877293,3.0
2025-03-10 13:17:34.114,0.000945678752979,-61.32463691026326,3.0
2025-03-10 13:17:34.133,0.0008658493478195,-62.27295673655126,3.0
2025-03-10 13:17:34.153,0.0007754998081027,-63.91622853209771,3.0
2025-03-10 13:17:34.172,0.0006836433311263,-66.27884162027611,3.0
2025-03-10 13:17:34.192,0.0005976464752703,-69.06149573629992,3.0
2025-03-10 13:17:34.211,0.0005219343871736,-71.67982129419535,3.0
2025-03-10 13:17:34.231,0.0004575249817451,-73.35050150411847,3.0
2025-03-10 13:17:34.250,0.0004024283238041,-73.21412934039034,3.0
2025-03-10 13:17:34.270,0.000352705352463,-70.47792147599685,3.0
2025-03-10 13:17:34.289,0.0003038302188086,-64.55642822023071,3.0
2025-03-10 13:17:34.309,0.0002519773363703,-55.1860186939084,3.0
2025-03-10 13:17:34.328,0.0001949421547811,-42.49092905972319,3.0
2025-03-10 13:17:34.348,0.0001325475760263,-26.98603838921764,3.0
2025-03-10 13:17:34.367,6.65244221148408e-05,-9.51353143954945,3.0
2025-03-10 13:17:34.387,-4.3035879188658246e-08,8.875527495086459,3.0
2025-03-10 13:17:34.406,-6.35465040205238e-05,27.071736354059123,3.0
2025-03-10 13:17:34.426,-0.0001207587607987,44.06018553664305,3.0
2025-03-10 13:17:34.446,-0.0001695998195193,59.045468014169856,3.0
2025-03-10 13:17:34.465,-0.0002095658201385,71.52490862588962,3.0
2025-03-10 13:17:34.485,-0.0002417039968075,81.297445043435,3.0
2025-03-10 13:17:34.504,-0.0002681734664135,88.41017251190824,3.0
2025-03-10 13:17:34.524,-0.0002915949032175,93.05927246089496,3.0
2025-03-10 13:17:34.543,-0.0003144597028719,95.47316798720068,3.0
2025-03-10 13:17:34.563,-0.0003387957186562,95.80996175493372,3.0
2025-03-10 13:17:34.582,-0.0003661259418214,94.0968409124326,3.0
2025-03-10 13:17:34.602,-0.0003976158004704,90.22703045538904,3.0
2025-03-10 13:17:34.621,-0.0004342492511278,84.01346306153448,3.0
2025-03-10 13:17:34.641,-0.0004768862215891,75.28261169029544,3.0
2025-03-10 13:17:34.660,-0.000526098789978,63.98164683151665,3.0
2025-03-10 13:17:34.680,-0.000581763433114,50.26980264727165,3.0
2025-03-10 13:17:34.699,-0.0006424969808695,34.57005735357766,3.0
2025-03-10 13:17:34.719,-0.000705107922039,17.567166254858666,3.0
2025-03-10 13:17:34.739,-0.0007642435145755,0.1495814830174276,3.0
2025-03-10 13:17:34.758,-0.0008123726862295,-16.696225898808866,3.0
2025-03-10 13:17:34.778,-0.0008402121221925,-32.02111358498757,3.0
2025-03-10 13:17:34.797,-0.0008376779908522,-45.05349164665819,3.0
2025-03-10 13:17:34.817,-0.0007953715236831,-55.31676375993393,3.0
2025-03-10 13:17:34.836,-0.0007064533388464,-62.69894833813486,3.0
2025-03-10 13:17:34.856,-0.0005685704466078,-67.45795300129176,3.0
2025-03-10 13:17:34.875,-0.0003853525154605,-70.15889397810989,3.0
2025-03-10 13:17:34.895,-0.0001669769150148,-71.55405944619989,3.0
2025-03-10 13:17:34.914,7.052589535876985e-05,-72.42804256220897,3.0
2025-03-10 13:17:34.934,0.0003072249856912,-73.43748097894516,3.0
2025-03-10 13:17:34.953,0.0005221429342208,-74.97556101883794,3.0
2025-03-10 13:17:34.973,0.0006964226350343,-77.08638299990969,3.0
2025-03-10 13:17:34.992,0.0008161785573607,-79.44494011338433,3.0
2025-03-10 13:17:35.012,0.0008745247576341,-81.40678079194872,3.0
2025-03-10 13:17:35.032,0.0008724643415593,-82.11930342859242,3.0
2025-03-10 13:17:35.051,0.0008185152393205,-80.6757595055748,3.0
2025-03-10 13:17:35.071,0.0007271226624381,-76.2849726782801,3.0
2025-03-10 13:17:35.090,0.0006160946513087,-68.42603399560338,3.0
2025-03-10 13:17:35.110,0.0005034919356685,-56.95908429051988,3.0
2025-03-10 13:17:35.129,0.0004045510966248,-42.17115228050597,3.0
2025-03-10 13:17:35.149,0.0003292489868729,-24.748676174665324,3.0
2025-03-10 13:17:35.168,0.000280990745771,-5.682848532695243,3.0
2025-03-10 13:17:35.188,0.0002566453733935,13.873396182629511,3.0
2025-03-10 13:17:35.207,0.000247839004349,32.769842292242586,3.0
2025-03-10 13:17:35.227,0.0002431472827117,50.01534402693201,3.0
2025-03-10 13:17:35.246,0.0002306682906249,64.8987176056977,3.0
2025-03-10 13:17:35.266,0.000200414707551,77.05306496329135,3.0
2025-03-10 13:17:35.285,0.0001460354779418,86.45221480844201,3.0
2025-03-10 13:17:35.305,6.556330905859161e-05,93.34069261417102,3.0
2025-03-10 13:17:35.324,-3.885722364446893e-05,98.11260676430008,3.0
2025-03-10 13:17:35.344,-0.0001620632946981,101.16703743126018,3.0
2025-03-10 13:17:35.364,-0.0002974304617573,102.77434696880523,3.0
2025-03-10 13:17:35.383,-0.0004384652356303,102.98655011202452,3.0
2025-03-10 13:17:35.403,-0.0005800280566748,101.61485638179327,3.0
2025-03-10 13:17:35.422,-0.0007189017538398,98.28079071818632,3.0
2025-03-10 13:17:35.442,-0.0008536245876452,92.52833443004228,3.0
2025-03-10 13:17:35.461,-0.0009837278128402,83.96880060456421,3.0
2025-03-10 13:17:35.481,-0.0011086764831753,72.42229903387684,3.0
2025-03-10 13:17:35.500,-0.0012268696242514,58.02159606156356,3.0
2025-03-10 13:17:35.520,-0.0013350110988096,41.25444120475103,3.0
2025-03-10 13:17:35.539,-0.0014280344471589,22.935048708403095,3.0
2025-03-10 13:17:35.559,-0.0014996026356722,4.110103119742683,3.0
2025-03-10 13:17:35.578,-0.0015430720577836,-14.08338912711852,3.0
2025-03-10 13:17:35.598,-0.0015527324693694,-30.582884195898306,3.0
2025-03-10 13:17:35.617,-0.0015250826546898,-44.55801456112473,3.0
2025-03-10 13:17:35.637,-0.0014598614024592,-55.5317985312631,3.0
2025-03-10 13:17:35.657,-0.0013605571383499,-63.441337928679424,3.0
2025-03-10 13:17:35.676,-0.001234201316249,-68.62459873439383,3.0
2025-03-10 13:17:35.696,-0.0010904095740285,-71.73408841908955,3.0
2025-03-10 13:17:35.715,-0.0009398403335146,-73.59298088289877,3.0
2025-03-10 13:17:35.735,-0.0007924324300097,-75.02094637928342,3.0
2025-03-10 13:17:35.754,-0.00065587975671,-76.66293241907273,3.0
2025-03-10 13:17:35.774,-0.0005347478783977,-78.85334673862218,3.0
2025-03-10 13:17:35.793,-0.0004304383917084,-81.5410930336232,3.0
2025-03-10 13:17:35.813,-0.0003419120143447,-84.28944738518781,3.0
2025-03-10 13:17:35.832,-0.0002667997662401,-86.35110345110213,3.0
2025-03-10 13:17:35.852,-0.0002024132698237,-86.80513562394833,3.0
2025-03-10 13:17:35.871,-0.0001462854596772,-84.73121114712166,3.0
2025-03-10 13:17:35.891,-9.615285278811969e-05,-79.38901578751891,3.0
2025-03-10 13:17:35.910,-4.957127564201793e-05,-70.36917943399351,3.0
2025-03-10 13:17:35.930,-3.509456260597294e-06,-57.68696151501083,3.0
2025-03-10 13:17:35.950,4.576181758633776e-05,-41.80115794960236,3.0
2025-03-10 13:17:35.969,0.0001023282378175,-23.555817614436,3.0
2025-03-10 13:17:35.989,0.0001698738196552,-4.057645702695722,3.0
2025-03-10 13:17:36.008,0.000250695421522,15.486321343837409,3.0
2025-03-10 13:17:36.028,0.0003447867355172,33.94019810275842,3.0
2025-03-10 13:17:36.047,0.0004493442324181,50.389154982938095,3.0
2025-03-10 13:17:36.067,0.0005590066363764,64.24166064064585,3.0
2025-03-10 13:17:36.086,0.0006669572256233,75.26648248091092,3.0
2025-03-10 13:17:36.106,0.0007667175226304,83.55859263174685,3.0
2025-03-10 13:17:36.125,0.0008541477610786,89.44206078526791,3.0
2025-03-10 13:17:36.145,0.000928985476696,93.33194877382356,3.0
2025-03-10 13:17:36.164,0.0009953044581219,95.5877711989397,3.0
2025-03-10 13:17:36.184,0.0010605759017624,96.394742328495,3.0
2025-03-10 13:17:36.203,0.0011334736031236,95.7036491155846,3.0
2025-03-10 13:17:36.223,0.0012210253744973,93.24615072105227,3.0
2025-03-10 13:17:36.242,0.0013259918987739,88.62280397641713,3.0
2025-03-10 13:17:36.262,0.0014453244787619,81.44145112420107,3.0
2025-03-10 13:17:36.282,0.0015702159510728,71.46959332555421,3.0
2025-03-10 13:17:36.301,0.0016877469455305,58.76033217274662,3.0
2025-03-10 13:17:36.321,0.0017836359057814,43.71854017202268,3.0
2025-03-10 13:17:36.340,0.0018453023557469,27.089603306268177,3.0
2025-03-10 13:17:36.360,0.0018644431717715,9.87234289170766,3.0
2025-03-10 13:17:36.379,0.0018385621971226,-6.8247576596417785,3.0
2025-03-10 13:17:36.399,0.0017712374915425,-21.95297906091464,3.0
2025-03-10 13:17:36.418,0.0016712125750411,-34.68301768155412,3.0
2025-03-10 13:17:36.438,0.0015505990800738,-44.52291999103452,3.0
2025-03-10 13:17:36.457,0.0014225952013785,-51.372635830277744,3.0
2025-03-10 13:17:36.477,0.0012991868837458,-55.5080613829751,3.0
2025-03-10 13:17:36.496,0.0011892966609924,-57.50260504475152,3.0
2025-03-10 13:17:36.516,0.0010977363896664,-58.106347758724354,3.0
2025-03-10 13:17:36.535,0.0010251007924242,-58.10905379782167,3.0
2025-03-10 13:17:36.555,0.0009684861893123,-58.212711487257074,3.0
2025-03-10 13:17:36.575,0.000922739358321,-58.93304409120508,3.0
2025-03-10 13:17:36.594,0.0008818820916332,-60.54013701402268,3.0
2025-03-10 13:17:36.614,0.0008403833213146,-63.03909173980395,3.0
2025-03-10 13:17:36.633,0.0007940140432457,-66.18494157645469,3.0
2025-03-10 13:17:36.653,0.0007401306849078,-69.52307496756087,3.0
2025-03-10 13:17:36.672,0.0006774229428218,-72.44670846674569,3.0
2025-03-10 13:17:36.692,0.0006053804008663,-74.2650269370749,3.0
2025-03-10 13:17:36.711,0.0005238406526599,-74.27760239356256,3.0
2025-03-10 13:17:36.731,0.0004328927041098,-71.85121349577688,3.0
2025-03-10 13:17:36.750,0.0003331758629621,-66.49389448415823,3.0
2025-03-10 13:17:36.770,0.0002263723060123,-57.918890880337365,3.0
2025-03-10 13:17:36.789,0.0001155588857928,-46.0899666212601,3.0
2025-03-10 13:17:36.809,5.115756948892305e-06,-31.24079769472775,3.0
2025-03-10 13:17:36.828,-9.992755165601536e-05,-13.86531024251894,3.0
2025-03-10 13:17:36.848,-0.0001949806399591,5.318663658245873,3.0
2025-03-10 13:17:36.867,-0.0002771028240558,25.425535682132512,3.0
2025-03-10 13:17:36.887,-0.0003459832455812,45.469293867786,3.0
2025-03-10 13:17:36.907,-0.0004044236991026,64.43437897624864,3.0
2025-03-10 13:17:36.926,-0.0004581936679204,81.34471763006545,3.0
2025-03-10 13:17:36.946,-0.0005152576071567,95.32747666545863,3.0
2025-03-10 13:17:36.965,-0.0005844836322714,105.66909144842091,3.0
2025-03-10 13:17:36.985,-0.0006740331659287,111.86138557259034,3.0
2025-03-10 13:17:37.004,-0.0007897033339714,113.63559792747584,3.0
2025-03-10 13:17:37.024,-0.0009335389544664,110.98205278128802,3.0
2025-03-10 13:17:37.043,-0.0011030299634979,104.15312851483912,3.0
2025-03-10 13:17:37.063,-0.0012911391665674,93.6474600089502,3.0
2025-03-10 13:17:37.082,-0.0014872472391078,80.17449812687094,3.0
2025-03-10 13:17:37.102,-0.0016788711733468,64.60078018523723,3.0
2025-03-10 13:17:37.121,-0.001853779451874,47.88184984369765,3.0
2025-03-10 13:17:37.141,-0.0020019981801596,30.985648341401497,3.0
2025-03-10 13:17:37.160,-0.0021172408049725,14.813952598300604,3.0
2025-03-10 13:17:37.180,-0.0021974714177053,0.1286579041815611,3.0
2025-03-10 13:17:37.200,-0.0022445495443935,-12.509758333850916,3.0
2025-03-10 13:17:37.219,-0.0022631344663312,-22.783467378367718,3.0
2025-03-10 13:17:37.239,-0.0022591931721634,-30.63032819024496,3.0
2025-03-10 13:17:37.258,-0.0022385091096379,-36.22365925720129,3.0
2025-03-10 13:17:37.278,-0.0022055244161293,-39.91949636035537,3.0
2025-03-10 13:17:37.297,-0.0021627161735268,-42.17960230872799,3.0
2025-03-10 13:17:37.317,-0.0021105600152917,-43.485090784662205,3.0
2025-03-10 13:17:37.336,-0.0020479947306564,-44.25859146811004,3.0
2025-03-10 13:17:37.356,-0.0019731858387559,-44.81097493505049,3.0
2025-03-10 13:17:37.375,-0.0018843252434664,-45.322079770219,3.0
2025-03-10 13:17:37.395,-0.0017802291612284,-45.85554758217641,3.0
2025-03-10 13:17:37.414,-0.0016606094082534,-46.39857230913124,3.0
2025-03-10 13:17:37.434,-0.0015260442261572,-46.91084846489349,3.0
2025-03-10 13:17:37.453,-0.0013777841098691,-47.36510272041792,3.0
2025-03-10 13:17:37.473,-0.0012175483468847,-47.764788993136975,3.0
2025-03-10 13:17:37.493,-0.0010474125106677,-48.13189390478241,3.0
2025-03-10 13:17:37.512,-0.0008697972850266,-48.46734464565893,3.0
2025-03-10 13:17:37.532,-0.0006874901241209,-48.695720005302086,3.0
2025-03-10 13:17:37.551,-0.0005036055080879,-48.61240869331996,3.0
2025-03-10 13:17:37.571,-0.0003214269988281,-47.85323095982503,3.0
2025-03-10 13:17:37.590,-0.000144142094781,-45.903030637895775,3.0
2025-03-10 13:17:37.610,2.546214273349925e-05,-42.15126206487962,3.0
2025-03-10 13:17:37.629,0.0001852502920652,-35.99085916896436,3.0
2025-03-10 13:17:37.649,0.00033385894132,-26.944566467297182,3.0
2025-03-10 13:17:37.668,0.0004706610248913,-14.793852598308314,3.0
2025-03-10 13:17:37.688,0.0005956207763498,0.3176658523060871,3.0
2025-03-10 13:17:37.707,0.0007091362134204,17.830650291515738,3.0
2025-03-10 13:17:37.727,0.0008119581644489,36.78127407463657,3.0
2025-03-10 13:17:37.746,0.0009052113098541,55.8799455104844,3.0
2025-03-10 13:17:37.766,0.0009904555727781,73.64806504221414,3.0
2025-03-10 13:17:37.785,0.0010696530426353,88.5934686101935,3.0
2025-03-10 13:17:37.805,0.0011448954401574,99.39860955063791,3.0
2025-03-10 13:17:37.825,0.0012178436161076,105.09276500123298,3.0
2025-03-10 13:17:37.844,0.0012890109968808,105.1810659619101,3.0
2025-03-10 13:17:37.864,0.0013571818966371,99.70922375863118,3.0
2025-03-10 13:17:37.883,0.0014192775023144,89.25313960674409,3.0
2025-03-10 13:17:37.903,0.00147083091609,74.83567667162761,3.0
2025-03-10 13:17:37.922,0.0015069834355216,57.78593361976223,3.0
2025-03-10 13:17:37.942,0.0015237049422396,39.56590764145218,3.0
2025-03-10 13:17:37.961,0.0015188699924492,21.59291395601325,3.0
2025-03-10 13:17:37.981,0.0014928865391156,5.08333923187568,3.0
2025-03-10 13:17:38.000,0.0014487162530666,-9.063589364334238,3.0
2025-03-10 13:17:38.020,0.0013912963871504,-20.331368204886967,3.0
2025-03-10 13:17:38.039,0.0013265438647203,-28.597654970400463,3.0
2025-03-10 13:17:38.059,0.0012602437618508,-34.094178052176005,3.0
2025-03-10 13:17:38.078,0.0011971330973786,-37.32329385155587,3.0
2025-03-10 13:17:38.098,0.0011403750449106,-38.94479908381797,3.0
2025-03-10 13:17:38.118,0.0010914474098236,-39.65118682501295,3.0
2025-03-10 13:17:38.137,0.0010503305951198,-40.05182749208353,3.0
2025-03-10 13:17:38.157,0.0010158227876666,-40.585256953938256,3.0
2025-03-10 13:17:38.176,0.0009858464228582,-41.47348463213513,3.0
2025-03-10 13:17:38.196,0.0009577144371717,-42.72384098925477,3.0
2025-03-10 13:17:38.215,0.0009284187045126,-44.17420683552739,3.0
2025-03-10 13:17:38.235,0.0008950069424333,-45.56875712768843,3.0
2025-03-10 13:17:38.254,0.0008550336531776,-46.645598143126655,3.0
2025-03-10 13:17:38.274,0.000806992164297,-47.2160697908544,3.0
2025-03-10 13:17:38.293,0.0007506268938088,-47.21815894553912,3.0
2025-03-10 13:17:38.313,0.0006870692620782,-46.73258663798033,3.0
2025-03-10 13:17:38.332,0.0006187750725246,-45.95824182020384,3.0
2025-03-10 13:17:38.352,0.000549245122707,-45.15211828611366,3.0
2025-03-10 13:17:38.371,0.0004825274171938,-44.54630293634082,3.0
2025-03-10 13:17:38.391,0.0004225700616157,-44.25968920712208,3.0
2025-03-10 13:17:38.411,0.000372584981288,-44.22410362453044,3.0
2025-03-10 13:17:38.430,0.0003346100373965,-44.14296138555498,3.0
2025-03-10 13:17:38.450,0.000309382567369,-43.4954046185692,3.0
2025-03-10 13:17:38.469,0.0002965021766033,-41.590721408035215,3.0
2025-03-10 13:17:38.489,0.0002947418724512,-37.66798738138807,3.0
2025-03-10 13:17:38.508,0.0003023346421067,-31.02626209276005,3.0
2025-03-10 13:17:38.528,0.0003171397128987,-21.1635783518109,3.0
2025-03-10 13:17:38.547,0.0003367140428134,-7.90026059498848,3.0
2025-03-10 13:17:38.567,0.0003583712547395,8.535571309625714,3.0
2025-03-10 13:17:38.586,0.0003792637147812,27.476130814364527,3.0
2025-03-10 13:17:38.606,0.0003964450693818,47.8433219261488,3.0
2025-03-10 13:17:38.625,0.0004068558746717,68.23870312079922,3.0
2025-03-10 13:17:38.645,0.0004072472153829,87.08589315659711,3.0
2025-03-10 13:17:38.664,0.0003941565781199,102.8100362268502,3.0
2025-03-10 13:17:38.684,0.00036408892218,114.03194378694224,3.0
2025-03-10 13:17:38.703,0.0003139851498212,119.74897401994768,3.0
2025-03-10 13:17:38.723,0.0002419122693755,119.47301433777628,3.0
2025-03-10 13:17:38.743,0.0001477773308239,113.30034908067154,3.0
2025-03-10 13:17:38.762,3.382844056973954e-05,101.89919360920592,3.0
2025-03-10 13:17:38.782,-9.523556446109766e-05,86.41612296841193,3.0
2025-03-10 13:17:38.801,-0.0002326227747083,68.31828193870729,3.0
2025-03-10 13:17:38.821,-0.0003702443505031,49.19952972367774,3.0
2025-03-10 13:17:38.840,-0.0004998191181535,30.5827309285669,3.0
2025-03-10 13:17:38.860,-0.0006140721543729,13.747415041641872,3.0
2025-03-10 13:17:38.879,-0.0007077862726259,-0.3955311473392646,3.0
2025-03-10 13:17:38.899,-0.0007785198492157,-11.369664438372595,3.0
2025-03-10 13:17:38.918,-0.0008269017516466,-19.135766132758672,3.0
2025-03-10 13:17:38.938,-0.0008564834270367,-24.036251254525816,3.0
2025-03-10 13:17:38.957,-0.0008731483561188,-26.69312441177751,3.0
2025-03-10 13:17:38.977,-0.0008841065617998,-27.87731556331713,3.0
2025-03-10 13:17:38.996,-0.0008965912428081,-28.37082703204759,3.0
2025-03-10 13:17:39.016,-0.0009164995223148,-28.84344389126018,3.0
2025-03-10 13:17:39.036,-0.0009472990546896,-29.762416279879663,3.0
2025-03-10 13:17:39.055,-0.0009894957042434,-31.34698479558148,3.0
2025-03-10 13:17:39.075,-0.0010408132287511,-33.57116737587723,3.0
2025-03-10 13:17:39.094,-0.0010970115121052,-36.20962181574954,3.0
2025-03-10 13:17:39.114,-0.0011530543518176,-38.91439559771459,3.0
2025-03-10 13:17:39.133,-0.0012042410132904,-41.30622119837342,3.0
2025-03-10 13:17:39.153,-0.001246988225191,-43.06314765688594,3.0
2025-03-10 13:17:39.172,-0.0012791353176596,-43.99133989465712,3.0
2025-03-10 13:17:39.192,-0.0012998351966578,-44.06690824410239,3.0
2025-03-10 13:17:39.211,-0.0013092084033758,-43.44261660291957,3.0
2025-03-10 13:17:39.231,-0.0013079557828614,-42.41847092485085,3.0
2025-03-10 13:17:39.250,-0.0012970666301052,-41.38011438208537,3.0
2025-03-10 13:17:39.270,-0.0012776624074917,-40.71353838270015,3.0
2025-03-10 13:17:39.289,-0.0012509270227501,-40.70875737532733,3.0
2025-03-10 13:17:39.309,-0.0012180330012647,-41.46842200592618,3.0
2025-03-10 13:17:39.329,-0.0011799928309831,-42.83911814532321,3.0
2025-03-10 13:17:39.348,-0.0011374235719334,-44.38235315976547,3.0
2025-03-10 13:17:39.368,-0.0010902753853508,-45.39812715533155,3.0
2025-03-10 13:17:39.387,-0.0010376258641199,-45.00623962724734,3.0
2025-03-10 13:17:39.407,-0.0009776700820834,-42.27974653202601,3.0
2025-03-10 13:17:39.426,-0.000908009885386,-36.41307228188832,3.0
2025-03-10 13:17:39.446,-0.0008262557417313,-26.896992906518214,3.0
2025-03-10 13:17:39.465,-0.0007308417503401,-13.66709920972805,3.0
2025-03-10 13:17:39.485,-0.0006218593964057,2.806397077950733,3.0
2025-03-10 13:17:39.504,-0.0005016536941456,21.51124493815982,3.0
2025-03-10 13:17:39.524,-0.0003749349566332,40.97806734653887,3.0
2025-03-10 13:17:39.543,-0.0002482870589358,59.45129680311552,3.0
2025-03-10 13:17:39.563,-0.0001291644075042,75.12389043184777,3.0
2025-03-10 13:17:39.582,-2.464441067636298e-05,86.4001736090514,3.0
2025-03-10 13:17:39.602,5.975524336923355e-05,92.1424659851794,3.0
2025-03-10 13:17:39.621,0.0001209577844869,91.85576391245432,3.0
2025-03-10 13:17:39.641,0.0001587737287022,85.7728776263104,3.0
2025-03-10 13:17:39.661,0.0001758693904368,74.82005418672814,3.0
2025-03-10 13:17:39.680,0.0001773058053865,60.46690927654391,3.0
2025-03-10 13:17:39.700,0.0001697856679644,44.48845768345712,3.0
2025-03-10 13:17:39.719,0.000160786007871,28.68486637655668,3.0
2025-03-10 13:17:39.739,0.000157715270111,14.611950398670812,3.0
2025-03-10 13:17:39.758,0.0001671476095899,3.371141619150897,3.0
2025-03-10 13:17:39.778,0.0001941232322985,-4.506691757880958,3.0
2025-03-10 13:17:39.797,0.0002415140471786,-9.06984706279683,3.0
2025-03-10 13:17:39.817,0.000309530204565,-10.855098569470206,3.0
2025-03-10 13:17:39.836,0.0003955131895807,-10.724488361683406,3.0
2025-03-10 13:17:39.856,0.0004941577021659,-9.667625227854144,3.0
2025-03-10 13:17:39.875,0.0005982221014337,-8.609848568318613,3.0
2025-03-10 13:17:39.895,0.0006996537744507,-8.260479088039501,3.0
2025-03-10 13:17:39.914,0.0007909066002723,-9.023089708726028,3.0
2025-03-10 13:17:39.934,0.0008661330771573,-10.974719397152093,3.0
2025-03-10 13:17:39.954,0.0009219707024186,-13.906834368059242,3.0
2025-03-10 13:17:39.973,0.0009577952497014,-17.410514318392888,3.0
2025-03-10 13:17:39.993,0.0009754714069573,-20.98336763334575,3.0
2025-03-10 13:17:40.012,0.0009787145994011,-24.13608639735653,3.0
2025-03-10 13:17:40.032,0.0009722110262342,-26.481076151150024,3.0
2025-03-10 13:17:40.051,0.0009606758978398,-27.79225322653833,3.0
2025-03-10 13:17:40.071,0.0009480495759737,-28.03187481986479,3.0
2025-03-10 13:17:40.090,0.0009369869045436,-27.34566190044591,3.0
2025-03-10 13:17:40.110,0.0009286806829513,-26.030822736276924,3.0
2025-03-10 13:17:40.129,0.000922947972851,-24.48304240285701,3.0
2025-03-10 13:17:40.149,0.0009184856491785,-23.128831714542454,3.0
2025-03-10 13:17:40.168,0.0009132635457178,-22.34981562611188,3.0
2025-03-10 13:17:40.188,0.0009050600699861,-22.406360115057463,3.0
2025-03-10 13:17:40.207,0.0008920869337498,-23.36957247014254,3.0
2025-03-10 13:17:40.227,0.0008735603872901,-25.07260599709328,3.0
2025-03-10 13:17:40.246,0.0008500475965931,-27.09320820195372,3.0
2025-03-10 13:17:40.266,0.000823458513665,-28.778222489369096,3.0
2025-03-10 13:17:40.286,0.0007966388876645,-29.31623520795921,3.0
2025-03-10 13:17:40.305,0.0007726370241121,-27.856491923173152,3.0
2025-03-10 13:17:40.325,0.0007538376038116,-23.66151150510726,3.0
2025-03-10 13:17:40.344,0.0007412281744536,-16.26975143033785,3.0
2025-03-10 13:17:40.364,0.0007340457075456,-5.636498277225467,3.0
2025-03-10 13:17:40.383,0.0007299323773146,7.780697152644531,3.0
2025-03-10 13:17:40.403,0.0007255492472032,23.019010328393325,3.0
2025-03-10 13:17:40.422,0.0007174309019133,38.701698728899416,3.0
2025-03-10 13:17:40.442,0.0007027858122149,53.21561808060402,3.0
2025-03-10 13:17:40.461,0.0006799896262639,64.94674302097371,3.0
2025-03-10 13:17:40.481,0.0006486646041241,72.53127024615223,3.0
2025-03-10 13:17:40.500,0.0006094159022352,75.07505909404551,3.0
2025-03-10 13:17:40.520,0.0005634078338159,72.29980242288855,3.0
2025-03-10 13:17:40.539,0.0005119667549936,64.58871901968693,3.0
2025-03-10 13:17:40.559,0.000456332669316,52.92403197578548,3.0
2025-03-10 13:17:40.579,0.000397604690687,38.7286127386021,3.0
2025-03-10 13:17:40.598,0.0003368462640953,23.64107429671524,3.0
2025-03-10 13:17:40.618,0.0002752421921263,9.264704190530136,3.0
2025-03-10 13:17:40.637,0.00021418039719,-3.065541417175021,3.0
2025-03-10 13:17:40.657,0.0001552001340744,-12.457911317303088,3.0
2025-03-10 13:17:40.676,9.985587641088067e-05,-18.552352949654267,3.0
2025-03-10 13:17:40.696,4.9599111603217326e-05,-21.51193372350704,3.0
2025-03-10 13:17:40.715,5.734316950394615e-06,-21.926060233849203,3.0
2025-03-10 13:17:40.735,-3.059219564017273e-05,-20.65131352196379,3.0
2025-03-10 13:17:40.754,-5.846599914567619e-05,-18.62604737803924,3.0
2025-03-10 13:17:40.774,-7.73976340265797e-05,-16.696512005829685,3.0
2025-03-10 13:17:40.793,-8.759833226177808e-05,-15.48550483531004,3.0
2025-03-10 13:17:40.813,-9.022219666853782e-05,-15.32189241662356,3.0
2025-03-10 13:17:40.832,-8.743603952028798e-05,-16.23451405416756,3.0
2025-03-10 13:17:40.852,-8.223042824452866e-05,-18.000758770574564,3.0
2025-03-10 13:17:40.872,-7.799839305456795e-05,-20.231302815950407,3.0
2025-03-10 13:17:40.891,-7.801388246908592e-05,-22.469304337092694,3.0
2025-03-10 13:17:40.911,-8.496559806878647e-05,-24.28432703179708,3.0
2025-03-10 13:17:40.930,-0.0001006434207932,-25.34673953685433,3.0
2025-03-10 13:17:40.950,-0.0001258054840965,-25.475112455172997,3.0
2025-03-10 13:17:40.969,-0.0001602223616762,-24.655185413019044,3.0
2025-03-10 13:17:40.989,-0.0002028775460477,-23.033004379596285,3.0
2025-03-10 13:17:41.008,-0.0002522686245435,-20.886537740570315,3.0
2025-03-10 13:17:41.028,-0.0003067205702875,-18.58010225939911,3.0
2025-03-10 13:17:41.047,-0.0003646256043893,-16.505448893191964,3.0
2025-03-10 13:17:41.067,-0.0004245667709582,-15.013556656889078,3.0
2025-03-10 13:17:41.086,-0.0004853484740355,-14.342743045097338,3.0
2025-03-10 13:17:41.106,-0.0005460140991048,-14.551511611657912,3.0
2025-03-10 13:17:41.125,-0.0006059250102434,-15.467698947460736,3.0
2025-03-10 13:17:41.145,-0.0006648859005428,-16.667455639114092,3.0
2025-03-10 13:17:41.164,-0.0007231927747733,-17.496761118284486,3.0
2025-03-10 13:17:41.184,-0.0007814558465822,-17.143328095990444,3.0
2025-03-10 13:17:41.204,-0.0008401582689237,-14.75772561453859,3.0
2025-03-10 13:17:41.223,-0.0008990966088291,-9.610621593461527,3.0
2025-03-10 13:17:41.243,-0.0009569831383551,-1.2609762961973616,3.0
2025-03-10 13:17:41.262,-0.0010114691754501,10.298509784054112,3.0
2025-03-10 13:17:41.282,-0.00105967594666,24.553907437233875,3.0
2025-03-10 13:17:41.301,-0.0010990943879486,40.46836552612041,3.0
2025-03-10 13:17:41.321,-0.0011285448247493,56.578447405117664,3.0
2025-03-10 13:17:41.340,-0.0011488316999597,71.18017758624434,3.0
2025-03-10 13:17:41.360,-0.0011628121376634,82.57593186071492,3.0
2025-03-10 13:17:41.379,-0.0011748038620652,89.33799234358159,3.0
2025-03-10 13:17:41.399,-0.0011895062210825,90.53862555273224,3.0
2025-03-10 13:17:41.418,-0.0012107837567407,85.90184841773288,3.0
2025-03-10 13:17:41.438,-0.0012406890475691,75.84769359478165,3.0
2025-03-10 13:17:41.457,-0.0012789811279652,61.421956094773314,3.0
2025-03-10 13:17:41.477,-0.0013232037847402,44.12735672191583,3.0
2025-03-10 13:17:41.497,-0.0013692328707904,25.690083167151325,3.0
2025-03-10 13:17:41.516,-0.0014121396900424,7.805154138125208,3.0
2025-03-10 13:17:41.536,-0.0014472085651352,-8.09564970355813,3.0
2025-03-10 13:17:41.555,-0.0014709214857531,-21.016855952916025,3.0
2025-03-10 13:17:41.575,-0.0014816823186649,-30.48947677141598,3.0
2025-03-10 13:17:41.594,-0.0014800702508904,-36.56982271985133,3.0
2025-03-10 13:17:41.614,-0.0014685335234071,-39.75450868518813,3.0
2025-03-10 13:17:41.633,-0.0014506143451032,-40.8333226646109,3.0
2025-03-10 13:17:41.653,-0.0014299386262486,-40.711307638927856,3.0
2025-03-10 13:17:41.672,-0.0014092456872654,-40.23476274642591,3.0
2025-03-10 13:17:41.692,-0.0013896762769732,-40.052331696095386,3.0
2025-03-10 13:17:41.711,-0.0013704379864219,-40.53291405042174,3.0
2025-03-10 13:17:41.731,-0.0013488855005345,-41.74912356045745,3.0
2025-03-10 13:17:41.750,-0.0013209998614189,-43.521414397773285,3.0
2025-03-10 13:17:41.770,-0.001282191313553,-45.50666090852301,3.0
2025-03-10 13:17:41.790,-0.0012282662387836,-47.30796045827387,3.0
2025-03-10 13:17:41.809,-0.0011563271923569,-48.58062085215696,3.0
2025-03-10 13:17:41.829,-0.0010653720294229,-49.11243599440968,3.0
2025-03-10 13:17:41.848,-0.0009564367378458,-48.863315320897215,3.0
2025-03-10 13:17:41.868,-0.000832250856862,-47.95848619620773,3.0
2025-03-10 13:17:41.887,-0.0006965036462867,-46.63906799330056,3.0
2025-03-10 13:17:41.907,-0.0005529328506701,-45.18220054113856,3.0
2025-03-10 13:17:41.926,-0.0004045230315438,-43.80880329753231,3.0
2025-03-10 13:17:41.946,-0.000253085203288,-42.59956283561719,3.0
2025-03-10 13:17:41.965,-9.933826333757304e-05,-41.43846027898416,3.0
2025-03-10 13:17:41.985,5.66247956326245e-05,-39.9981186599448,3.0
2025-03-10 13:17:42.004,0.0002147760087584,-37.77311831917714,3.0
2025-03-10 13:17:42.024,0.0003747834317049,-34.15750983899158,3.0
2025-03-10 13:17:42.043,0.0005359697395719,-28.553010783301318,3.0
2025-03-10 13:17:42.063,0.0006975466011367,-20.487153179550543,3.0
2025-03-10 13:17:42.082,0.0008589434368847,-9.71806978246692,3.0
2025-03-10 13:17:42.102,0.0010200261939218,3.694326071899776,3.0
2025-03-10 13:17:42.122,0.0011810786855969,19.363110071146306,3.0
2025-03-10 13:17:42.141,0.001342541608398,36.597230869245735,3.0
2025-03-10 13:17:42.161,0.0015046128194285,54.465455289783925,3.0
2025-03-10 13:17:42.180,0.0016668727047587,71.88845970615947,3.0
2025-03-10 13:17:42.200,0.0018280993214406,87.74430280411971,3.0
2025-03-10 13:17:42.219,0.0019863814290401,100.973850866332,3.0
2025-03-10 13:17:42.239,0.002139535624242,110.67580563679492,3.0
2025-03-10 13:17:42.258,0.0022857103963846,116.18439485886728,3.0
2025-03-10 13:17:42.278,0.0024239588363553,117.12543837355716,3.0
2025-03-10 13:17:42.297,0.0025545446989854,113.44789874364332,3.0
2025-03-10 13:17:42.317,0.00267884692119,105.4284953107006,3.0
2025-03-10 13:17:42.336,0.0027988949692963,93.64753602271566,3.0
2025-03-10 13:17:42.356,0.0029166985339501,78.9358946210157,3.0
2025-03-10 13:17:42.375,0.0030335729725062,62.29637308722572,3.0
2025-03-10 13:17:42.395,0.0031496275433905,44.80676920272809,3.0
2025-03-10 13:17:42.415,0.0032635221232956,27.515417253921427,3.0
2025-03-10 13:17:42.434,0.0033725354195688,11.341730503518736,3.0
2025-03-10 13:17:42.454,0.0034729311115904,-3.005852725749878,3.0
2025-03-10 13:17:42.473,0.0035605591102803,-15.08387392786154,3.0
2025-03-10 13:17:42.493,0.0036315876829298,-24.73247038912346,3.0
2025-03-10 13:17:42.512,0.0036832308336538,-32.056192908303984,3.0
2025-03-10 13:17:42.532,0.0037143196521829,-37.37080338263102,3.0
2025-03-10 13:17:42.551,0.0037255749713281,-41.12609331592554,3.0
2025-03-10 13:17:42.571,0.0037194810023526,-43.81941120313443,3.0
2025-03-10 13:17:42.590,0.0036997419600776,-45.91611078469785,3.0
2025-03-10 13:17:42.610,0.0036704220022252,-47.79082722049309,3.0
2025-03-10 13:17:42.629,0.0036349917279512,-49.69775714266341,3.0
2025-03-10 13:17:42.649,0.0035955598208187,-51.7704237389239,3.0
2025-03-10 13:17:42.668,0.0035524848228506,-54.04387386726914,3.0
2025-03-10 13:17:42.688,0.0035043656231447,-56.48703079160328,3.0
2025-03-10 13:17:42.707,0.0034482447108558,-59.031531410357815,3.0
2025-03-10 13:17:42.727,0.0033798560990373,-61.58623087847287,3.0
2025-03-10 13:17:42.747,0.0032938887941543,-64.0328345325841,3.0
2025-03-10 13:17:42.766,0.0031843708202266,-66.20595286763722,3.0
2025-03-10 13:17:42.786,0.0030452867601554,-67.86787707072013,3.0
2025-03-10 13:17:42.805,0.0028714308663497,-68.6922820885804,3.0
2025-03-10 13:17:42.825,0.0026593645548348,-68.27039271128174,3.0
2025-03-10 13:17:42.844,0.0024082648791505,-66.14764563697291,3.0
2025-03-10 13:17:42.864,0.002120429114626,-61.88975455308128,3.0
2025-03-10 13:17:42.883,0.0018012313508803,-55.16688452968931,3.0
2025-03-10 13:17:42.903,0.0014584167949706,-45.83669166972804,3.0
2025-03-10 13:17:42.922,0.0011007764716849,-34.004338255665346,3.0
2025-03-10 13:17:42.942,0.0007364458562387,-20.04175703876013,3.0
2025-03-10 13:17:42.961,0.0003712374467823,-4.558472791367494,3.0
2025-03-10 13:17:42.981,7.445296690046312e-06,11.671018652872055,3.0
2025-03-10 13:17:43.000,-0.0003565874235084,27.8071024263427,3.0
2025-03-10 13:17:43.020,-0.0007260809204487,43.04949566782368,3.0
2025-03-10 13:17:43.040,-0.0011087404360451,56.72349388908083,3.0
2025-03-10 13:17:43.059,-0.0015131979719495,68.3309558732581,3.0
2025-03-10 13:17:43.079,-0.0019472128702025,77.55900361330472,3.0
2025-03-10 13:17:43.098,-0.0024159181207027,84.25112944617686,3.0
2025-03-10 13:17:43.118,-0.0029204655082559,88.35559865479014,3.0
2025-03-10 13:17:43.137,-0.0034574105893235,89.8716833826839,3.0
2025-03-10 13:17:43.157,-0.0040190066810671,88.81350134844273,3.0
2025-03-10 13:17:43.176,-0.0045943030717755,85.20411684181768,3.0
2025-03-10 13:17:43.196,-0.0051707266455398,79.10124034857554,3.0
2025-03-10 13:17:43.215,-0.0057357720791636,70.6440369046724,3.0
2025-03-10 13:17:43.235,-0.0062785018949903,60.10225967529174,3.0
2025-03-10 13:17:43.254,-0.0067906648527042,47.90702430787881,3.0
2025-03-10 13:17:43.274,-0.007267313118079,34.64758104243731,3.0
2025-03-10 13:17:43.293,-0.0077068326533948,21.0285187550392,3.0
2025-03-10 13:17:43.313,-0.0081103360253978,7.793482933544187,3.0
2025-03-10 13:17:43.333,-0.0084804520270386,-4.368917659450087,3.0
2025-03-10 13:17:43.352,-0.0088197061594994,-14.916403395243352,3.0
2025-03-10 13:17:43.372,-0.0091288731073407,-23.52161222165393,3.0
2025-03-10 13:17:43.391,-0.0094057781077247,-30.103811425823334,3.0
2025-03-10 13:17:43.411,-0.0096449337531968,-34.81844165908683,3.0
2025-03-10 13:17:43.430,-0.0098381560923053,-38.00872027971081,3.0
2025-03-10 13:17:43.450,-0.0099760334223489,-40.1312223451609,3.0
2025-03-10 13:17:43.469,-0.0100499073898329,-41.67144827853805,3.0
2025-03-10 13:17:43.489,-0.0100538851494659,-43.06522131730866,3.0
2025-03-10 13:17:43.508,-0.0099863541408142,-44.63791239253643,3.0
2025-03-10 13:17:43.528,-0.0098505529509305,-46.56753597805949,3.0
2025-03-10 13:17:43.547,-0.0096539594971126,-48.871719378347365,3.0
2025-03-10 13:17:43.567,-0.0094065477750655,-51.414217726498,3.0
2025-03-10 13:17:43.586,-0.0091182843517717,-53.92503132836662,3.0
2025-03-10 13:17:43.606,-0.0087965144590806,-56.02920836566253,3.0
2025-03-10 13:17:43.625,-0.0084440212830872,-57.282012531793015,3.0
2025-03-10 13:17:43.645,-0.0080584392323665,-57.21063763828127,3.0
2025-03-10 13:17:43.665,-0.0076333500910216,-55.36343971021151,3.0
