Timestamp,ECG_test1_ECGtoHR_LA_RA_CAL,Lead I (LA-RA),Lead II (LL-LA),Lead III (LL-RA),Vx-RL,FMSQ
2025-03-10 13:17:07.367,74.20289855072464,-0.001052970395996,-0.0950346372585117,-0.0960876023613005,0.0462599026124333,3.0
2025-03-10 13:17:07.369,74.20289855072464,0.0035141844945166,-0.1112226619449039,-0.1077084724238473,0.0618855328634942,3.0
2025-03-10 13:17:07.371,74.20289855072464,0.008080164369517,-0.121086680108213,-0.1130065110840546,0.069989985298124,3.0
2025-03-10 13:17:07.373,74.20289855072464,0.0120994391007963,-0.1255341571579248,-0.1134347138231812,0.0680604992851386,3.0
2025-03-10 13:17:07.375,74.20289855072464,0.0152933056491267,-0.1277794293822254,-0.1124861198893178,0.0565052111867735,3.0
2025-03-10 13:17:07.377,74.20289855072464,0.0176002130383771,-0.1313852368985954,-0.1137850203139737,0.0384614068186745,3.0
2025-03-10 13:17:07.379,74.20289855072464,0.018939035125225,-0.1382605304993798,-0.1193214920178682,0.0185137023836901,3.0
2025-03-10 13:17:07.381,74.20289855072464,0.0190653373607301,-0.1477674703106039,-0.1287021297135443,0.0009644468797082,3.0
2025-03-10 13:17:07.383,74.20289855072464,0.0176919985136627,-0.1573638376070217,-0.1396718359763383,-0.0115119205241472,3.0
2025-03-10 13:17:07.385,74.20289855072464,0.0147758425402091,-0.1642350312592592,-0.1494591857863807,-0.0182672411753334,3.0
2025-03-10 13:17:07.387,74.20289855072464,0.0107063409418119,-0.1668511237311786,-0.1561447801361135,-0.020161975847917,3.0
2025-03-10 13:17:07.389,74.20289855072464,0.0062117895275553,-0.1655957692229979,-0.1593839773979745,-0.0186804922538082,3.0
2025-03-10 13:17:07.390,74.20289855072464,0.0020352947642461,-0.1622922632451491,-0.1602569665595129,-0.0152760512489047,3.0
2025-03-10 13:17:07.392,74.20289855072464,-0.0013754794317027,-0.1590935445666358,-0.1604690224088181,-0.0111505419362957,3.0
2025-03-10 13:17:07.394,74.20289855072464,-0.0039363318210231,-0.1574268146164386,-0.1613631450942673,-0.0072748672196214,3.0
2025-03-10 13:17:07.396,74.20289855072464,-0.0057404611941589,-0.1574717557693949,-0.163212215781767,-0.0043905131848646,3.0
2025-03-10 13:17:07.398,74.20289855072464,-0.0068286947197301,-0.1582913864446118,-0.1651200800992415,-0.0029268655040652,3.0
2025-03-10 13:17:07.400,74.20289855072464,-0.0071452327219397,-0.1584809216045945,-0.1656261533918959,-0.00293517949775,3.0
2025-03-10 13:17:07.402,74.20289855072464,-0.0067198866466632,-0.1570583954704924,-0.1637782813746236,-0.004132351323937,3.0
2025-03-10 13:17:07.404,74.20289855072464,-0.0059114853918077,-0.1542014798406348,-0.1601129647585498,-0.0060412360264832,3.0
2025-03-10 13:17:07.406,74.20289855072464,-0.0054935933567383,-0.1513876768458868,-0.1568812700503131,-0.0081476562474219,3.0
2025-03-10 13:17:07.408,74.20289855072464,-0.0064750358446141,-0.1506900232169532,-0.1571650592347371,-0.0100103447067874,3.0
2025-03-10 13:17:07.410,74.20289855072464,-0.009714605751526,-0.1534661980734596,-0.1631808042774477,-0.0113153363666741,3.0
2025-03-10 13:17:07.412,74.20289855072464,-0.0155021649502954,-0.1591908112801695,-0.1746929768885602,-0.0119191395067169,3.0
2025-03-10 13:17:07.414,74.20289855072464,-0.0233045585456712,-0.1652712365787071,-0.188575795921478,-0.0119247306802755,3.0
2025-03-10 13:17:07.416,74.20289855072464,-0.0318246823467202,-0.1681559243038214,-0.1999806075566883,-0.01174061216297,3.0
2025-03-10 13:17:07.418,74.20289855072464,-0.0394013135775393,-0.1652136702140521,-0.2046149848246453,-0.0119832765638129,3.0
2025-03-10 13:17:07.420,74.20289855072464,-0.0446217798743216,-0.15633131972478,-0.200953100812998,-0.0131642649566656,3.0
2025-03-10 13:17:07.422,74.20289855072464,-0.0469015247165938,-0.1443027314485909,-0.1912042576217194,-0.0153263149295274,3.0
2025-03-10 13:17:07.424,74.20289855072464,-0.046757754636054,-0.1337340026847637,-0.1804917590587225,-0.0179182555728393,3.0
2025-03-10 13:17:07.426,74.20289855072464,-0.0456040823719555,-0.1289411208387596,-0.1745452052265105,-0.0200614199263934,3.0
2025-03-10 13:17:07.428,74.20289855072464,-0.0451214620854508,-0.1317978200682569,-0.1769192844028678,-0.021068319705359,3.0
2025-03-10 13:17:07.430,74.20289855072464,-0.0465012388924994,-0.1405723539516809,-0.1870735952614921,-0.0208783615996952,3.0
2025-03-10 13:17:07.431,74.20289855072464,-0.0499259030807181,-0.1504724021930776,-0.2003983078029347,-0.0201074598678141,3.0
2025-03-10 13:17:07.433,74.20289855072464,-0.0545042539210774,-0.1559169231979645,-0.210421179737332,-0.01960786542254,3.0
2025-03-10 13:17:07.435,74.20289855072464,-0.0586436900661563,-0.1536475734612356,-0.2122912662542073,-0.0196912447068893,3.0
2025-03-10 13:17:07.437,74.20289855072464,-0.0606677207643313,-0.145148846185013,-0.2058165698344102,-0.0193941253341224,3.0
2025-03-10 13:17:07.439,74.20289855072464,-0.0594199341927217,-0.1369620870570501,-0.1963820243470881,-0.0162258149517444,3.0
2025-03-10 13:17:07.441,74.20289855072464,-0.0546426876751604,-0.1383968308405812,-0.1930395218556144,-0.0066186214097863,3.0
2025-03-10 13:17:07.443,74.20289855072464,-0.0470546815100164,-0.157374544777988,-0.2044292298605628,0.0130681075342969,3.0
2025-03-10 13:17:07.445,74.20289855072464,-0.0381677997924494,-0.196080745251579,-0.2342485488021667,0.0453214160116867,3.0
2025-03-10 13:17:07.447,74.20289855072464,-0.0298805341607796,-0.2483763052996726,-0.2782568433408418,0.0902627659658059,3.0
2025-03-10 13:17:07.449,74.20289855072464,-0.0238340230169073,-0.3003833645106011,-0.3242173914795476,0.1446232859202942,3.0
2025-03-10 13:17:07.451,74.20289855072464,-0.0205910831262913,-0.3343877334907905,-0.3549788206256496,0.2012815340869017,3.0
2025-03-10 13:17:07.453,74.20289855072464,-0.0189263694587624,-0.3346316255496995,-0.3535579990991803,0.2499690511676967,3.0
2025-03-10 13:17:07.455,74.20289855072464,-0.0156900367672653,-0.2925353777122879,-0.3082254187037391,0.2795132501230811,3.0
2025-03-10 13:17:07.457,74.20289855072464,-0.0065701646301364,-0.2091248332656375,-0.215695002302347,0.2811196963624192,3.0
2025-03-10 13:17:07.459,74.20289855072464,0.0124016250037688,-0.0938873047203118,-0.0814856843248527,0.2512027807651012,3.0
2025-03-10 13:17:07.461,74.20289855072464,0.0432666134941772,0.0390738317760903,0.0823404404829235,0.1920582545253603,3.0
2025-03-10 13:17:07.463,74.20289855072464,0.0852464379823502,0.1759342096044934,0.2611806426764536,0.1097316324724699,3.0
2025-03-10 13:17:07.465,74.20289855072464,0.1348934702157216,0.3076292533393467,0.44252271858509,0.0102159134206199,3.0
2025-03-10 13:17:07.467,74.20289855072464,0.1870463111654645,0.4328810211556691,0.6199273273326827,-0.103735675215167,3.0
2025-03-10 13:17:07.469,74.20289855072464,0.2360406305473947,0.5589044907638353,0.7949451163046236,-0.2333443234129307,3.0
2025-03-10 13:17:07.471,74.20289855072464,0.2767342333089323,0.6991376444069236,0.9758718726532248,-0.3819439386379912,3.0
2025-03-10 13:17:07.473,74.20289855072464,0.3052310201180516,0.8680131947465256,1.1732442096924312,-0.5519471353660597,3.0
2025-03-10 13:17:07.474,74.20289855072464,0.3194007753337977,1.073785102026546,1.393185872040516,-0.7423597525903188,3.0
2025-03-10 13:17:07.476,74.20289855072464,0.3191935742792314,1.3113245672272746,1.6305181360393386,-0.947602277183368,3.0
2025-03-10 13:17:07.478,74.20289855072464,0.306494852621205,1.557493539015376,1.863988386064052,-1.1572353973500515,3.0
2025-03-10 13:17:07.480,74.20289855072464,0.2842814512253053,1.7720183749784175,2.056299820590688,-1.3559664134819671,3.0
2025-03-10 13:17:07.482,74.20289855072464,0.2553077718769701,1.905865956399395,2.161173722679682,-1.5241932326066343,3.0
2025-03-10 13:17:07.484,74.20289855072464,0.2210885493203253,1.9161844116614664,2.1372729554236765,-1.6402908101595266,3.0
2025-03-10 13:17:07.486,74.20289855072464,0.1819412017340624,1.7828275875294537,1.964768783723358,-1.68552339797421,3.0
2025-03-10 13:17:07.488,74.20289855072464,0.1381473557418592,1.5190456054291812,1.6571929556000533,-1.650556652206164,3.0
2025-03-10 13:17:07.490,74.20289855072464,0.0914130112600028,1.1704457800854438,1.2618587856962449,-1.5404487927233197,3.0
2025-03-10 13:17:07.492,74.20289855072464,0.0454910187225909,0.801582145527673,0.8470731585054359,-1.374872263579532,3.0
2025-03-10 13:17:07.494,74.20289855072464,0.0053685499794609,0.4756310411828408,0.4809995853466977,-1.1827708365707277,3.0
2025-03-10 13:17:07.496,74.20289855072464,-0.0245695495322972,0.2359370263665309,0.211367471004595,-0.9937966429414063,3.0
2025-03-10 13:17:07.498,74.20289855072464,-0.0422654746029025,0.0967756330803474,0.0545101526952256,-0.8302637543512804,3.0
2025-03-10 13:17:07.500,74.20289855072464,-0.0485855774842274,0.0455110714543999,-0.0030745117276928,-0.7024849541281347,3.0
2025-03-10 13:17:07.502,74.20289855072464,-0.0466168469912913,0.0528585650863689,0.0062417124782946,-0.6085176742475479,3.0
2025-03-10 13:17:07.504,74.20289855072464,-0.0403034204008239,0.0853895675905545,0.0450861416164742,-0.5377426843570793,3.0
2025-03-10 13:17:07.506,74.20289855072464,-0.0332229382766419,0.115382409805166,0.0821594659508423,-0.4765917673868558,3.0
2025-03-10 13:17:07.508,74.20289855072464,-0.0279021590489811,0.1259167191760315,0.0980145545153118,-0.4141483873632955,3.0
2025-03-10 13:17:07.510,74.20289855072464,-0.025632477218239,0.1116159149286615,0.0859834320714739,-0.3455912085731438,3.0
2025-03-10 13:17:07.512,74.20289855072464,-0.0265766658660415,0.0765572687798496,0.0499805972892174,-0.2726047786998988,3.0
2025-03-10 13:17:07.514,74.20289855072464,-0.0300077517451562,0.0307466887887279,0.0007389314894681,-0.201289029316222,3.0
2025-03-10 13:17:07.515,74.20289855072464,-0.0346296520567296,-0.0139539251549503,-0.0485835826518957,-0.138942123244197,3.0
2025-03-10 13:17:07.517,74.20289855072464,-0.0389819459043187,-0.0477531271967684,-0.0867350784164406,-0.0911184375585673,3.0
2025-03-10 13:17:07.519,74.20289855072464,-0.0418861457064479,-0.0658669524127019,-0.1077531033329925,-0.0598639225348252,3.0
2025-03-10 13:17:07.521,74.20289855072464,-0.0428057987877388,-0.0695941407222988,-0.1123999446637599,-0.0434192537846192,3.0
2025-03-10 13:17:07.523,74.20289855072464,-0.0419753028146708,-0.065123632561844,-0.1070989405043823,-0.0371967824023192,3.0
2025-03-10 13:17:07.525,74.20289855072464,-0.0402412363610776,-0.0605373874281871,-0.1007786288980772,-0.035501395136567,3.0
2025-03-10 13:17:07.527,74.20289855072464,-0.0386879297316271,-0.0622708826604254,-0.1009588174562486,-0.0333040283526624,3.0
2025-03-10 13:17:07.529,74.20289855072464,-0.0381986574397991,-0.0725466762475408,-0.1107453386615323,-0.0274895267970374,3.0
2025-03-10 13:17:07.531,74.20289855072464,-0.0391161957349242,-0.0888417886876622,-0.1279579892641527,-0.0173194433194992,3.0
2025-03-10 13:17:07.533,74.20289855072464,-0.041135606936435,-0.1055118918710246,-0.1466475034967574,-0.0041465747879016,3.0
2025-03-10 13:17:07.535,74.20289855072464,-0.0434837017732964,-0.1167282165134976,-0.1602119228343537,0.0094103737377269,3.0
2025-03-10 13:17:07.537,74.20289855072464,-0.0453081740939912,-0.1193200114487179,-0.1646281899801569,0.0205392759692146,3.0
2025-03-10 13:17:07.539,74.20289855072464,-0.046081260580879,-0.1141896024649662,-0.1602708674061281,0.0272468138876341,3.0
2025-03-10 13:17:07.541,74.20289855072464,-0.0458151941069887,-0.1056597169144247,-0.1514749153193562,0.0290424751796435,3.0
2025-03-10 13:17:07.543,74.20289855072464,-0.0450009477609801,-0.0991403116769031,-0.1441412636614232,0.0270939283057941,3.0
2025-03-10 13:17:07.545,74.20289855072464,-0.0443265709546528,-0.0983608869458544,-0.142687462016754,0.0237794276800454,3.0
2025-03-10 13:17:07.547,74.20289855072464,-0.0443185981559148,-0.103617510369644,-0.1479361124977017,0.0217693929733915,3.0
2025-03-10 13:17:07.549,74.20289855072464,-0.0450668227364628,-0.1118951097656871,-0.1569619363076308,0.0229769339563979,3.0
2025-03-10 13:17:07.551,74.20289855072464,-0.0461608448785143,-0.1186827279633851,-0.1648435764820831,0.0278146597428268,3.0
2025-03-10 13:17:07.553,74.20289855072464,-0.0468863637095285,-0.1204152299047936,-0.1673015971109574,0.0351199153673391,3.0
2025-03-10 13:17:07.555,74.20289855072464,-0.046602317193227,-0.1162485992316831,-0.1628509198059987,0.0428321692766154,3.0
2025-03-10 13:17:07.556,74.20289855072464,-0.0451034620484229,-0.1083565002122479,-0.1534599655438914,0.0490912365137698,3.0
2025-03-10 13:17:07.558,74.20289855072464,-0.042759158119164,-0.1007347928502917,-0.1434939541521421,0.0531352907342024,3.0
2025-03-10 13:17:07.560,74.20289855072464,-0.0403425682917575,-0.0971694797967137,-0.1375120511491134,0.0554866577712984,3.0
2025-03-10 13:17:07.562,74.20289855072464,-0.0386466863440205,-0.09934812751792,-0.1379948167717092,0.0573787248104289,3.0
2025-03-10 13:17:07.564,74.20289855072464,-0.0381002981843579,-0.1060225935570249,-0.1441228944788909,0.0598483658938414,3.0
2025-03-10 13:17:07.566,74.20289855072464,-0.0385864827378092,-0.1136497578106528,-0.1522362431096605,0.0630695481744283,3.0
2025-03-10 13:17:07.568,74.20289855072464,-0.03954992193552,-0.1181939318428951,-0.1577438561766439,0.0662900986199455,3.0
2025-03-10 13:17:07.570,74.20289855072464,-0.0403218320305325,-0.1171540469560045,-0.1574758812433681,0.0683577534630684,3.0
2025-03-10 13:17:07.572,74.20289855072464,-0.0404747453848213,-0.1107666133892387,-0.1512413609064712,0.068508420409885,3.0
2025-03-10 13:17:07.574,74.20289855072464,-0.0400104147672247,-0.1018043806887649,-0.1418147974670024,0.0669527193202884,3.0
2025-03-10 13:17:07.576,74.20289855072464,-0.0392909896706458,-0.0941422603923114,-0.1334332519404975,0.0648967506948841,3.0
2025-03-10 13:17:07.578,74.20289855072464,-0.038780234075306,-0.0908600378590839,-0.1296402736583546,0.0639631830180557,3.0
2025-03-10 13:17:07.580,74.20289855072464,-0.0387626073960055,-0.0928176886379986,-0.131580297587098,0.0653514129721096,3.0
2025-03-10 13:17:07.582,74.20289855072464,-0.0391927569459093,-0.0983592362513595,-0.1375519945734963,0.0692223903931372,3.0
2025-03-10 13:17:07.584,74.20289855072464,-0.0397322990065806,-0.1042372250936335,-0.1439695253066793,0.0746338681762728,3.0
2025-03-10 13:17:07.586,74.20289855072464,-0.0399337270408613,-0.1072553470477818,-0.1471890751402912,0.0800354162965307,3.0
2025-03-10 13:17:07.588,74.20289855072464,-0.0394744193004222,-0.1057878819614879,-0.1452623021726848,0.0840396640268717,3.0
2025-03-10 13:17:07.590,74.20289855072464,-0.0383291672690536,-0.1004338479647273,-0.1387630160092816,0.086036849652807,3.0
2025-03-10 13:17:07.592,74.20289855072464,-0.03679779590786,-0.0935406081648691,-0.1303384047081436,0.0863216895973752,3.0
2025-03-10 13:17:07.594,74.20289855072464,-0.0353707844346344,-0.0879119806193102,-0.1232827655378009,0.0857444234524961,3.0
2025-03-10 13:17:07.596,74.20289855072464,-0.0344926879093143,-0.0853928784911356,-0.1198855667215209,0.0852187142578142,3.0
2025-03-10 13:17:07.598,74.20289855072464,-0.0343348685115713,-0.0860310317833769,-0.1203659004482439,0.0854190726930942,3.0
2025-03-10 13:17:07.599,74.20289855072464,-0.0346930130880757,-0.088191436573756,-0.1228844496505846,0.086720618703584,3.0
2025-03-10 13:17:07.601,74.20289855072464,-0.0350732701465132,-0.0895187415407935,-0.1245920115204236,0.0892226366711312,3.0
2025-03-10 13:17:07.603,74.20289855072464,-0.0349333477084037,-0.0882296499812611,-0.1231629973766549,0.092757197555208,3.0
2025-03-10 13:17:07.605,74.20289855072464,-0.0339486597953458,-0.0840607237878016,-0.1180093831296329,0.0969431271438428,3.0
2025-03-10 13:17:07.607,74.20289855072464,-0.0321556519044237,-0.0783814780895306,-0.1105371294000883,0.1013543299736602,3.0
2025-03-10 13:17:07.609,74.20289855072464,-0.0299093106235055,-0.0734271162026172,-0.1033364260882547,0.1057265728517838,3.0
2025-03-10 13:17:07.611,74.20289855072464,-0.0277018882763142,-0.0710777058644738,-0.0987795932548446,0.1100194352295092,3.0
2025-03-10 13:17:07.613,74.20289855072464,-0.0259452440388584,-0.0718489686590308,-0.0977942116622408,0.1142372295642209,3.0
2025-03-10 13:17:07.615,74.20289855072464,-0.0248216018118756,-0.0746264515205013,-0.0994480521487017,0.118151175310566,3.0
2025-03-10 13:17:07.617,74.20289855072464,-0.0242690023550367,-0.0772512285603519,-0.1015202295875428,0.1212141555249789,3.0
2025-03-10 13:17:07.619,74.20289855072464,-0.0240831771895216,-0.0776102049507541,-0.1016933806724159,0.1228270556397729,3.0
2025-03-10 13:17:07.621,74.20289855072464,-0.0240444238914563,-0.0746496471782151,-0.0986940694650744,0.1228037234599996,3.0
2025-03-10 13:17:07.623,74.20289855072464,-0.0239923748381911,-0.0688069323180333,-0.0927993054174352,0.1216831506879943,3.0
2025-03-10 13:17:07.625,74.20289855072464,-0.0238420927998004,-0.0616813372526255,-0.0855234281822049,0.1206311141742119,3.0
2025-03-10 13:17:07.627,74.20289855072464,-0.0235719926220095,-0.0551767177070635,-0.0787487083309981,0.1209699437043721,3.0
2025-03-10 13:17:07.629,74.20289855072464,-0.0232037237765109,-0.0506067565696515,-0.0738104782240922,0.1236163659982719,3.0
2025-03-10 13:17:07.631,74.20289855072464,-0.0227800994843089,-0.0481931926512556,-0.0709732898922164,0.1287215484361589,3.0
2025-03-10 13:17:07.633,74.20289855072464,-0.0223385605863047,-0.0471052368040905,-0.0694437950262191,0.1356481550332297,3.0
2025-03-10 13:17:07.635,74.20289855072464,-0.0218668927199801,-0.0459325687680322,-0.0677994590016022,0.1432341601199186,3.0
2025-03-10 13:17:07.637,74.20289855072464,-0.0212478426651431,-0.0433647420775784,-0.0646125821330417,0.1501874065789253,3.0
2025-03-10 13:17:07.639,74.20289855072464,-0.0202587269979995,-0.0388007457344558,-0.0590594700017602,0.1554775169094619,3.0
2025-03-10 13:17:07.640,74.20289855072464,-0.0186965262715936,-0.0326110586190505,-0.0513075820461292,0.1586763739704474,3.0
2025-03-10 13:17:07.642,74.20289855072464,-0.0165744833046656,-0.0259031963656781,-0.042477676723003,0.1601918473986441,3.0
2025-03-10 13:17:07.644,74.20289855072464,-0.0142035470513599,-0.0199054338201032,-0.0341089778322393,0.1612369979690304,3.0
2025-03-10 13:17:07.646,74.20289855072464,-0.0120282087401537,-0.0153155273567811,-0.0273437329721227,0.1633888220662314,3.0
2025-03-10 13:17:07.648,74.20289855072464,-0.0103169315085367,-0.0119747154677733,-0.0222916437650501,0.167844729849384,3.0
2025-03-10 13:17:07.650,74.20289855072464,-0.0089667609418072,-0.0090093416158246,-0.0179760992534857,0.1747819889019927,3.0
2025-03-10 13:17:07.652,74.20289855072464,-0.0075873026759085,-0.0053112750547364,-0.0128985743269612,0.1832375468884116,3.0
2025-03-10 13:17:07.654,74.20289855072464,-0.0057800055925607,-8.861235125115323e-05,-0.0058686144401488,0.1915987526952652,3.0
2025-03-10 13:17:07.656,74.20289855072464,-0.0033790281028312,0.0067668500592011,0.0033878255505623,0.1984077560659267,3.0
2025-03-10 13:17:07.658,74.20289855072464,-0.0004903806668015,0.0146549574270962,0.0141645804273641,0.2030297972876008,3.0
2025-03-10 13:17:07.660,74.20289855072464,0.0026502041520083,0.0226004205834197,0.0252506284562638,0.2058812740568245,3.0
2025-03-10 13:17:07.662,74.20289855072464,0.0058582216985322,0.0297744087485879,0.0356326342095251,0.208196173240988,3.0
2025-03-10 13:17:07.664,74.20289855072464,0.0090907149058622,0.0359100639032798,0.0450007826130154,0.2115123231993672,3.0
2025-03-10 13:17:07.666,74.20289855072464,0.0124127161893761,0.041378292153797,0.0537910121990582,0.2170964382650874,3.0
2025-03-10 13:17:07.668,74.20289855072464,0.0158947633776199,0.0469163308074819,0.0628110981062429,0.2254777044889873,3.0
2025-03-10 13:17:07.670,74.20289855072464,0.0195300012100272,0.0532164344302193,0.0727464396321689,0.2362257283687954,3.0
2025-03-10 13:17:07.672,74.20289855072464,0.0232401007893287,0.0606337733993674,0.083873878242191,0.2480836797103543,3.0
2025-03-10 13:17:07.674,74.20289855072464,0.0269747298507886,0.0691525454048419,0.0961272793475783,0.2594569873357235,3.0
2025-03-10 13:17:07.676,74.20289855072464,0.0308207939590764,0.0785596455188816,0.1093804435802344,0.2690538045213613,3.0
2025-03-10 13:17:07.678,74.20289855072464,0.0350003028146774,0.0886551211248817,0.1236554280315576,0.2763540293551552,3.0
2025-03-10 13:17:07.680,74.20289855072464,0.0397215217135949,0.0993515817811459,0.1390731075725615,0.2817019604389267,3.0
2025-03-10 13:17:07.682,74.20289855072464,0.0449979374440472,0.1106239193837655,0.1556218609045249,0.28605800434986,3.0
2025-03-10 13:17:07.683,74.20289855072464,0.0505988500333913,0.1223753973145082,0.1729742514440105,0.2905751509173973,3.0
2025-03-10 13:17:07.685,74.20289855072464,0.0561775910222765,0.1343549445596417,0.1905325397107683,0.2961490556572002,3.0
2025-03-10 13:17:07.687,74.20289855072464,0.0614661372876845,0.1462463012359336,0.2077124426796973,0.3030623437863284,3.0
2025-03-10 13:17:07.689,74.20289855072464,0.0663922691063222,0.1578998080709063,0.2242920813343179,0.310856077596006,3.0
2025-03-10 13:17:07.691,74.20289855072464,0.0710712767029994,0.1695084562170984,0.2405797370409992,0.3185229429325946,3.0
2025-03-10 13:17:07.693,74.20289855072464,0.0757177705623432,0.181550229854326,0.2572680044697882,0.3249707406076765,3.0
2025-03-10 13:17:07.695,74.20289855072464,0.0805392662149642,0.1945179696738503,0.2750572398626313,0.329530050132133,3.0
2025-03-10 13:17:07.697,74.20289855072464,0.0856538880130977,0.2086183318138386,0.2942722237340134,0.3322140712971352,3.0
2025-03-10 13:17:07.699,74.20289855072464,0.0910594560288328,0.2236215057688066,0.3146809656652194,0.3335757454016591,3.0
2025-03-10 13:17:07.701,74.20289855072464,0.0966572802318648,0.2389363714348199,0.3355936555183583,0.3342957625565536,3.0
2025-03-10 13:17:07.703,74.20289855072464,0.102305232909071,0.2538646274418956,0.35616986418922,0.3348266376341376,3.0
2025-03-10 13:17:07.705,74.20289855072464,0.1078677358286521,0.2679114306306075,0.3757791702588026,0.3353058806963737,3.0
2025-03-10 13:17:07.707,74.20289855072464,0.1132420489969,0.2810130250038521,0.3942550777170129,0.3356782387769591,3.0
2025-03-10 13:17:07.709,74.20289855072464,0.1183555761694417,0.2935716470597588,0.411927226818074,0.3358382445363889,3.0
2025-03-10 13:17:07.711,74.20289855072464,0.1231483634187748,0.3062642919396149,0.4294126587967595,0.3356704661340689,3.0
2025-03-10 13:17:07.713,74.20289855072464,0.1275647060048516,0.3197020184008707,0.4472667277012656,0.3349694207832842,3.0
2025-03-10 13:17:07.715,74.20289855072464,0.1315594501439248,0.3341039841699577,0.4656634374980907,0.333298155023202,3.0
2025-03-10 13:17:07.717,74.20289855072464,0.1351039843950749,0.3491567573235555,0.4842607448261194,0.3299158340455307,3.0
2025-03-10 13:17:07.719,74.20289855072464,0.1381884390235538,0.3641398167785907,0.5023282588471949,0.3239180138764011,3.0
2025-03-10 13:17:07.721,74.20289855072464,0.1408357436162781,0.3782523408257064,0.5190880874053501,0.3145998152229226,3.0
2025-03-10 13:17:07.723,74.20289855072464,0.1431241528152378,0.3909583702458652,0.5340825258949453,0.3018366408693153,3.0
2025-03-10 13:17:07.724,74.20289855072464,0.1451766993806365,0.4021508403469208,0.5473275423765263,0.2862094166314053,3.0
2025-03-10 13:17:07.726,74.20289855072464,0.1470850595842562,0.4120317583988233,0.5591168204103895,0.2687927077823563,3.0
2025-03-10 13:17:07.728,74.20289855072464,0.148799448142359,0.4207746867735419,0.5695741371200039,0.2507797782991638,3.0
2025-03-10 13:17:07.730,74.20289855072464,0.1500625300658223,0.4281897144809186,0.5782522465589419,0.23317641686314,3.0
2025-03-10 13:17:07.732,74.20289855072464,0.1504422794480052,0.433628037939237,0.5840703192509549,0.2166476385476832,3.0
2025-03-10 13:17:07.734,74.20289855072464,0.1494572685036266,0.4361969983429664,0.5856542685892339,0.2014566154014624,3.0
2025-03-10 13:17:07.736,74.20289855072464,0.1467411370026244,0.4351397595822596,0.5818808981978459,0.187442750165455,3.0
2025-03-10 13:17:07.738,74.20289855072464,0.1421741521128319,0.4301531626295184,0.5723273161804006,0.1740869442418894,3.0
2025-03-10 13:17:07.740,74.20289855072464,0.1359160452413937,0.4214953874262276,0.5574114338685164,0.1607336883530295,3.0
2025-03-10 13:17:07.742,74.20289855072464,0.1283191154238419,0.4098524176602048,0.5381715339979203,0.1469124977405093,3.0
2025-03-10 13:17:07.744,74.20289855072464,0.1197782756115514,0.3960198996514917,0.5157981758754855,0.1325600955940705,3.0
2025-03-10 13:17:07.746,74.20289855072464,0.1106232061233488,0.3805331094865153,0.4911563159458533,0.1179808182896865,3.0
2025-03-10 13:17:07.748,74.20289855072464,0.1011121764982733,0.363428697648324,0.4645408742528691,0.1036151659080686,3.0
2025-03-10 13:17:07.750,74.20289855072464,0.0914804941034067,0.3442851282631911,0.4357656222819194,0.0898780211710275,3.0
2025-03-10 13:17:07.752,74.20289855072464,0.0819495793975253,0.3225557782722594,0.4045053573993571,0.0772090864893806,3.0
2025-03-10 13:17:07.754,74.20289855072464,0.072670751570381,0.2980439504049846,0.37071470148344,0.0661555254718663,3.0
2025-03-10 13:17:07.756,74.20289855072464,0.0636716243553204,0.2712506627423275,0.3349222863225007,0.0572198918781812,3.0
2025-03-10 13:17:07.758,74.20289855072464,0.0548797771234858,0.2433447101868844,0.2982244861935099,0.0505041503349749,3.0
2025-03-10 13:17:07.760,74.20289855072464,0.046217590743687,0.2157216630066129,0.2619392522639278,0.0454780766062682,3.0
2025-03-10 13:17:07.762,74.20289855072464,0.0376878120170385,0.1894221586812096,0.2271099688559316,0.0411281871387657,3.0
2025-03-10 13:17:07.764,74.20289855072464,0.0293819002250381,0.1648054984128505,0.1941873964826244,0.0364185603288945,3.0
2025-03-10 13:17:07.765,74.20289855072464,0.0214267811351644,0.1416838460005128,0.1631106247119439,0.0307865264156258,3.0
2025-03-10 13:17:07.767,74.20289855072464,0.013942740027824,0.1197770639190001,0.1337198012719941,0.0244361467097366,3.0
2025-03-10 13:17:07.769,74.20289855072464,0.0070523519946663,0.0991365894649195,0.1061889385103511,0.0183113283883685,3.0
2025-03-10 13:17:07.771,74.20289855072464,0.0009116509738082,0.080241633010824,0.0811532807057826,0.0137069898328985,3.0
2025-03-10 13:17:07.773,74.20289855072464,-0.0042822030012798,0.0637099114151704,0.0594277047444652,0.0115992654893877,3.0
2025-03-10 13:17:07.775,74.20289855072464,-0.0083254407699376,0.0498251647176187,0.0414997198500134,0.0119958505441792,3.0
2025-03-10 13:17:07.777,74.20289855072464,-0.0110902819470431,0.0382171046563815,0.027126818185034,0.0137460808086469,3.0
2025-03-10 13:17:07.779,74.20289855072464,-0.0126478413313283,0.02794060252152,0.0152927562743992,0.0150630534918376,3.0
2025-03-10 13:17:07.781,74.20289855072464,-0.0133639730452795,0.0179268867026502,0.0045629083947202,0.014511169258297,3.0
2025-03-10 13:17:07.783,74.20289855072464,-0.0138502510397228,0.0075148480367053,-0.0063354085873756,0.0118001191731956,3.0
2025-03-10 13:17:07.785,74.20289855072464,-0.0147207822908465,-0.0032762563336385,-0.0179970445427457,0.0078446401882495,3.0
2025-03-10 13:17:07.787,74.20289855072464,-0.0162773513196355,-0.0138636613723694,-0.0301410189907606,0.0041387266303462,3.0
2025-03-10 13:17:07.789,74.20289855072464,-0.0183503357506139,-0.023457937481177,-0.0418082799701412,0.0019787867914705,3.0
2025-03-10 13:17:07.791,74.20289855072464,-0.0204302621102298,-0.031404919000718,-0.0518351883319742,0.0020191870057546,3.0
2025-03-10 13:17:07.793,74.20289855072464,-0.0220058600787899,-0.0373839053570919,-0.0593897731473366,0.0042342615741015,3.0
2025-03-10 13:17:07.795,74.20289855072464,-0.022874800844177,-0.041486703413539,-0.0643615124325095,0.0080731181671803,3.0
2025-03-10 13:17:07.797,74.20289855072464,-0.0232301936039722,-0.0442033126092623,-0.0674335148092381,0.0126211388203166,3.0
2025-03-10 13:17:07.799,74.20289855072464,-0.0234957601384623,-0.0462772742922653,-0.0697730434187075,0.0167514748034555,3.0
2025-03-10 13:17:07.801,74.20289855072464,-0.024044144809386,-0.0484319311482514,-0.0724760853417294,0.0193553582330597,3.0
2025-03-10 13:17:07.803,74.20289855072464,-0.0249855015783109,-0.0510792752244928,-0.0760647866222186,0.019700141178181,3.0
2025-03-10 13:17:07.805,74.20289855072464,-0.0261447721422997,-0.0541679057702195,-0.0803126882236891,0.0177933681859512,3.0
2025-03-10 13:17:07.807,74.20289855072464,-0.0272141022483944,-0.0572549160471953,-0.084469029144846,0.0144886206230742,3.0
2025-03-10 13:17:07.808,74.20289855072464,-0.0279632413450437,-0.0597501057733745,-0.0877133585204879,0.0111652026426118,3.0
2025-03-10 13:17:07.810,74.20289855072464,-0.0283743346186601,-0.0611845358842734,-0.0895588824372007,0.0091133403941893,3.0
2025-03-10 13:17:07.812,74.20289855072464,-0.0286265369707282,-0.0613828305919041,-0.0900093799891543,0.0089718872033104,3.0
2025-03-10 13:17:07.814,74.20289855072464,-0.0289479578465603,-0.0605231967122204,-0.0894711674450328,0.0105242019180838,3.0
2025-03-10 13:17:07.816,74.20289855072464,-0.0294361508796749,-0.059116515060539,-0.0885526792836061,0.0129385723400324,3.0
2025-03-10 13:17:07.818,74.20289855072464,-0.0299740486801417,-0.0578921915307782,-0.087866254044543,0.0152799533497948,3.0
2025-03-10 13:17:07.820,74.20289855072464,-0.0303044806246676,-0.0575551971435128,-0.0878596921466211,0.016957277685414,3.0
2025-03-10 13:17:07.822,74.20289855072464,-0.0302088309725724,-0.0584662030874672,-0.0886750490331989,0.0178466130692029,3.0
2025-03-10 13:17:07.824,74.20289855072464,-0.0296536978008937,-0.0604269786968334,-0.0900806920872288,0.0181091375151518,3.0
2025-03-10 13:17:07.826,74.20289855072464,-0.0287916231455747,-0.0627624350383683,-0.091554074375252,0.017943545861191,3.0
2025-03-10 13:17:07.828,74.20289855072464,-0.0278156112530419,-0.0647069511275344,-0.0925225791352081,0.0174743502656248,3.0
2025-03-10 13:17:07.830,74.20289855072464,-0.0267896214505748,-0.0658581003953601,-0.0926477391269993,0.016776596741288,3.0
2025-03-10 13:17:07.832,74.20289855072464,-0.0256105702971024,-0.0663834794916321,-0.0919940675856738,0.0159322618314079,3.0
2025-03-10 13:17:07.834,74.20289855072464,-0.0241568128839713,-0.0668422551609629,-0.0909990863837611,0.0150768488339025,3.0
2025-03-10 13:17:07.836,74.20289855072464,-0.022509013862752,-0.0677669109498041,-0.0902759437458935,0.0144349120558835,3.0
2025-03-10 13:17:07.838,74.20289855072464,-0.0210392446329107,-0.0693123467884151,-0.0903516110036903,0.0142730254613172,3.0
2025-03-10 13:17:07.840,74.20289855072464,-0.0202513060179067,-0.0711995885455804,-0.0914509148253954,0.0147220162728518,3.0
2025-03-10 13:17:07.842,74.20289855072464,-0.0204595693098442,-0.0729380822275432,-0.0933976724725367,0.0156150697240011,3.0
2025-03-10 13:17:07.844,74.20289855072464,-0.0215378646872579,-0.0741141432903911,-0.095652029550266,0.016560789391221,3.0
2025-03-10 13:17:07.846,74.20289855072464,-0.0229264892334633,-0.0745393918904336,-0.0974659032922989,0.0172337454667262,3.0
2025-03-10 13:17:07.848,74.20289855072464,-0.0238997559568041,-0.0742209487704613,-0.0981207274707821,0.0176063236090355,3.0
2025-03-10 13:17:07.849,74.20289855072464,-0.0239294230540326,-0.0732617531827316,-0.0971911995713047,0.0179129601006122,3.0
2025-03-10 13:17:07.851,74.20289855072464,-0.022941031000642,-0.0717992995592778,-0.0947403545336447,0.0184252172998826,3.0
2025-03-10 13:17:07.853,74.20289855072464,-0.0213385548460765,-0.0700000370710604,-0.0913386165885315,0.0192508483457929,3.0
2025-03-10 13:17:07.855,74.20289855072464,-0.0197992255176817,-0.0680731096849081,-0.0878723606128254,0.0202606731696768,3.0
2025-03-10 13:17:07.857,74.20289855072464,-0.0189520717709935,-0.0662766155374399,-0.0852287134630196,0.0211177499990122,3.0
2025-03-10 13:17:07.859,74.20289855072464,-0.0191014494086223,-0.0649016021683145,-0.0840030784466311,0.0213696666047687,3.0
2025-03-10 13:17:07.861,74.20289855072464,-0.0201226471383404,-0.0642201719120045,-0.0843428465908496,0.0206092859755725,3.0
2025-03-10 13:17:07.863,74.20289855072464,-0.0215649639659676,-0.0644115791272556,-0.0859765712730342,0.0187172615584036,3.0
2025-03-10 13:17:07.865,74.20289855072464,-0.0228903437649935,-0.0655149935392768,-0.0884053661256532,0.0161006037997879,3.0
2025-03-10 13:17:07.867,74.20289855072464,-0.0237060040522727,-0.0674344662414384,-0.0911404997955128,0.0137055837432029,3.0
2025-03-10 13:17:07.869,74.20289855072464,-0.0238742043126482,-0.0699631448760927,-0.0938373794295466,0.0126462869078865,3.0
2025-03-10 13:17:07.871,74.20289855072464,-0.023489908391516,-0.0727951572220647,-0.0962850966442994,0.0136041327983048,3.0
2025-03-10 13:17:07.873,74.20289855072464,-0.0228012070516694,-0.0755471632893251,-0.0983484021815922,0.0164065114772118,3.0
2025-03-10 13:17:07.875,74.20289855072464,-0.0221287821691843,-0.0778147156300469,-0.0999435304320442,0.0200974646462345,3.0
2025-03-10 13:17:07.877,74.20289855072464,-0.0217736167833113,-0.0792373315684632,-0.1010109817348986,0.0234502846677012,3.0
2025-03-10 13:17:07.879,74.20289855072464,-0.021894188701121,-0.0795412258799639,-0.101435448674588,0.0255602049323875,3.0
2025-03-10 13:17:07.881,74.20289855072464,-0.0224025934332283,-0.0785866814710171,-0.1009893096951598,0.026153110312622,3.0
2025-03-10 13:17:07.883,74.20289855072464,-0.02297980836669,-0.0764632175670663,-0.0994430614465717,0.0255195319262181,3.0
2025-03-10 13:17:07.885,74.20289855072464,-0.0232504490200494,-0.0735944479642098,-0.0968449332714684,0.0242330080542722,3.0
2025-03-10 13:17:07.887,74.20289855072464,-0.0230182988013837,-0.0707302062949643,-0.0937485422142538,0.0228458628543977,3.0
2025-03-10 13:17:07.889,74.20289855072464,-0.0223906697615552,-0.0687392605753062,-0.0911299683196193,0.0216891469334028,3.0
2025-03-10 13:17:07.890,74.20289855072464,-0.0217039264493913,-0.0682607753762293,-0.0899647406712729,0.0208610761305315,3.0
2025-03-10 13:17:07.892,74.20289855072464,-0.0213221937617541,-0.0693986222395486,-0.0907208556770256,0.0203937957986655,3.0
2025-03-10 13:17:07.894,74.20289855072464,-0.0214568605930041,-0.0716434664499581,-0.0931003675064769,0.0204245121430287,3.0
2025-03-10 13:17:07.896,74.20289855072464,-0.0220977247064355,-0.0740800189036828,-0.0961777848357172,0.0211635065915157,3.0
2025-03-10 13:17:07.898,74.20289855072464,-0.0230524645883167,-0.075769609407125,-0.0988221159908364,0.0226558821085623,3.0
2025-03-10 13:17:07.900,74.20289855072464,-0.0240490131966993,-0.0761091332276743,-0.1001581892296705,0.0245660390726805,3.0
2025-03-10 13:17:07.902,74.20289855072464,-0.0248511267018552,-0.0750148884954756,-0.0998660588670371,0.0262174951381478,3.0
2025-03-10 13:17:07.904,74.20289855072464,-0.0253339824208963,-0.072908902938018,-0.0982429299368039,0.0269071528472608,3.0
2025-03-10 13:17:07.906,74.20289855072464,-0.0254850945482322,-0.0705753356983852,-0.0960604757468205,0.026290604880479,3.0
2025-03-10 13:17:07.908,74.20289855072464,-0.0253497386896633,-0.0689443236803289,-0.0942941087740712,0.0245805347587317,3.0
2025-03-10 13:17:07.910,74.20289855072464,-0.0249782567835898,-0.0688153671088229,-0.093793671163518,0.0224358900911061,3.0
2025-03-10 13:17:07.912,74.20289855072464,-0.0244132074356513,-0.0705531557849468,-0.0949664113267911,0.0206139148128169,3.0
2025-03-10 13:17:07.914,74.20289855072464,-0.0237086216651217,-0.0738721304204917,-0.0975808010198632,0.019574384034112,3.0
2025-03-10 13:17:07.916,74.20289855072464,-0.0229541485374142,-0.0778618188288709,-0.1008160171527874,0.0192524658932588,3.0
2025-03-10 13:17:07.918,74.20289855072464,-0.0222862336254643,-0.0813134788779328,-0.1035997631873885,0.0191607483011517,3.0
2025-03-10 13:17:07.920,74.20289855072464,-0.0218745111735707,-0.083236086113846,-0.1051106489144175,0.0187918746358874,3.0
2025-03-10 13:17:07.922,74.20289855072464,-0.0218715459606239,-0.0833172602447633,-0.1051888588011246,0.0180401588874543,3.0
2025-03-10 13:17:07.924,74.20289855072464,-0.0223358514571742,-0.0820803880049343,-0.104416293023576,0.0172986491940915,3.0
2025-03-10 13:17:07.926,74.20289855072464,-0.0231783115048342,-0.0806236161775269,-0.1038019821841981,0.0171531634964876,3.0
2025-03-10 13:17:07.928,74.20289855072464,-0.0241895191265172,-0.0800463376942691,-0.1042359122329549,0.0179424010642692,3.0
2025-03-10 13:17:07.930,74.20289855072464,-0.0251454369032895,-0.0808672040900552,-0.1060126973003449,0.019511277858731,3.0
2025-03-10 13:17:07.932,74.20289855072464,-0.0259093261084439,-0.0827764962716875,-0.1086858795916453,0.0212488464806746,3.0
2025-03-10 13:17:07.933,74.20289855072464,-0.0264454075437518,-0.0848724171202928,-0.1113178828118917,0.0223121112669567,3.0
2025-03-10 13:17:07.935,74.20289855072464,-0.0267523006258149,-0.0862104343807181,-0.1129627941302619,0.0219394586896566,3.0
2025-03-10 13:17:07.937,74.20289855072464,-0.0268072949614855,-0.0862903184711856,-0.1130976735619594,0.0197724766582102,3.0
2025-03-10 13:17:07.939,74.20289855072464,-0.0265873613974623,-0.0851893282414069,-0.1117767507821334,0.0160528967457948,3.0
2025-03-10 13:17:07.941,74.20289855072464,-0.0261355996954212,-0.083349788757504,-0.109485450597739,0.0115835810533283,3.0
2025-03-10 13:17:07.943,74.20289855072464,-0.025590561745576,-0.0812774933493999,-0.1068681182193308,0.0074704527308905,3.0
2025-03-10 13:17:07.945,74.20289855072464,-0.0251389848878228,-0.0793901372646796,-0.1045291862402761,0.0047580830165276,3.0
2025-03-10 13:17:07.947,74.20289855072464,-0.0249251928031142,-0.0780322695932766,-0.1029575274485727,0.0040842171010849,3.0
2025-03-10 13:17:07.949,74.20289855072464,-0.0249751394152391,-0.0775078264047147,-0.1024830318559814,0.0054623248965294,3.0
2025-03-10 13:17:07.951,74.20289855072464,-0.0251677851433279,-0.0780241968423644,-0.1031920490349026,0.0082672459475674,3.0
2025-03-10 13:17:07.953,74.20289855072464,-0.0252585429629054,-0.0795830855621309,-0.1048416966135279,0.0114387520994115,3.0
2025-03-10 13:17:07.955,74.20289855072464,-0.0249524182415764,-0.0819220125507243,-0.1068744999325985,0.0138474053982926,3.0
2025-03-10 13:17:07.957,74.20289855072464,-0.0240181875762509,-0.0845754017640214,-0.1085936595291395,0.0146926074552047,3.0
2025-03-10 13:17:07.959,74.20289855072464,-0.0224101159937927,-0.0870445802826881,-0.1094547675014085,0.01376644793818,3.0
2025-03-10 13:17:07.961,74.20289855072464,-0.020340911198042,-0.0889893623930829,-0.1093303458412462,0.0114883964189961,3.0
2025-03-10 13:17:07.963,74.20289855072464,-0.0182595634399542,-0.0903256906712721,-0.1085853273862798,0.008739903222654,3.0
2025-03-10 13:17:07.965,74.20289855072464,-0.0167230361821725,-0.0911722933752986,-0.1078954038699917,0.0065680188687058,3.0
2025-03-10 13:17:07.967,74.20289855072464,-0.0161908153372786,-0.0917029015177324,-0.1078937922250693,0.0058058035114013,3.0
2025-03-10 13:17:07.969,74.20289855072464,-0.016818049751008,-0.0920293309398653,-0.1088474571369499,0.0067092091163292,3.0
2025-03-10 13:17:07.971,74.20289855072464,-0.0183581715117359,-0.0921955871080854,-0.1105538361513693,0.0088019984671531,3.0
2025-03-10 13:17:07.973,74.20289855072464,-0.0202514246052847,-0.0922504187083156,-0.1125019219295198,0.0110743770129157,3.0
2025-03-10 13:17:07.974,74.20289855072464,-0.0218635387053264,-0.0923046069189474,-0.1141682253178101,0.012464100341164,3.0
2025-03-10 13:17:07.976,74.20289855072464,-0.0227408177989842,-0.0925233675998272,-0.1152642661655566,0.0123493152626369,3.0
2025-03-10 13:17:07.978,74.20289855072464,-0.0227535097639723,-0.0930794015735319,-0.1158329931814595,0.0107870023966906,3.0
2025-03-10 13:17:07.980,74.20289855072464,-0.0220866756585284,-0.0941005162500681,-0.1161872748426018,0.0084138672832055,3.0
2025-03-10 13:17:07.982,74.20289855072464,-0.0211164042509927,-0.0955993302394195,-0.1167158185307845,0.0061097284190578,3.0
2025-03-10 13:17:07.984,74.20289855072464,-0.0202374393075679,-0.0973729059899381,-0.1176104304563187,0.0046035180790331,3.0
2025-03-10 13:17:07.986,74.20289855072464,-0.0197125320647852,-0.0989445665154752,-0.1186571848601696,0.0042064750546599,3.0
2025-03-10 13:17:07.988,74.20289855072464,-0.019607449558271,-0.0996771324379385,-0.1192846693912134,0.0047957187897015,3.0
2025-03-10 13:17:07.990,74.20289855072464,-0.0198344254324629,-0.0990812289111521,-0.1189157428455047,0.0060161972640489,3.0
2025-03-10 13:17:07.992,74.20289855072464,-0.0202561786985719,-0.0971348782583071,-0.1173911465635653,0.0075136224880602,3.0
2025-03-10 13:17:07.994,74.20289855072464,-0.020761319519385,-0.0943701218903109,-0.1151315321302419,0.0090271420845098,3.0
2025-03-10 13:17:07.996,74.20289855072464,-0.0212579377090773,-0.0916710783447022,-0.1129291079067212,0.0103400246868482,3.0
2025-03-10 13:17:07.998,74.20289855072464,-0.0216214475176076,-0.0899355604948284,-0.1115571010178928,0.0112098677310741,3.0
2025-03-10 13:17:08.000,74.20289855072464,-0.0216891876381763,-0.0897561166831855,-0.1114453984912799,0.0113869690635918,3.0
2025-03-10 13:17:08.002,74.20289855072464,-0.0213492427054233,-0.0911869723202175,-0.1125363103579649,0.0107445364286054,3.0
2025-03-10 13:17:08.004,74.20289855072464,-0.0206598753275222,-0.0936740246570321,-0.1143339964652096,0.0094340221793381,3.0
2025-03-10 13:17:08.006,74.20289855072464,-0.0198764634110156,-0.0962587956676394,-0.1161353566908691,0.0078967113626798,3.0
2025-03-10 13:17:08.008,74.20289855072464,-0.0193254728741218,-0.0980345097993151,-0.1173600814095525,0.0066360213577421,3.0
2025-03-10 13:17:08.010,74.20289855072464,-0.0191981375505624,-0.0985955232152526,-0.1177937606348952,0.0058931831096852,3.0
2025-03-10 13:17:08.012,74.20289855072464,-0.019419787530488,-0.0981684109983371,-0.1175882995552653,0.0055234214040854,3.0
2025-03-10 13:17:08.014,74.20289855072464,-0.0197016263048699,-0.097363829278019,-0.1170655577960579,0.0052076415836716,3.0
2025-03-10 13:17:08.015,74.20289855072464,-0.0197384260629754,-0.0967928359906624,-0.1165313654737011,0.004791812806062,3.0
2025-03-10 13:17:08.017,74.20289855072464,-0.0194086756091854,-0.0968312896827417,-0.1162400699195628,0.0044140185419015,3.0
2025-03-10 13:17:08.019,74.20289855072464,-0.0188441426779944,-0.0975977885363712,-0.1164420370304522,0.0043182395876326,3.0
2025-03-10 13:17:08.021,74.20289855072464,-0.0183300134071301,-0.0990143380160968,-0.1173444583994405,0.0045815825156957,3.0
2025-03-10 13:17:08.023,74.20289855072464,-0.0181049062583374,-0.1008260382897454,-0.1189310526633288,0.0050395394735523,3.0
2025-03-10 13:17:08.025,74.20289855072464,-0.0181966147026517,-0.1025889253040039,-0.1207856492606952,0.0054689662191629,3.0
2025-03-10 13:17:08.027,74.20289855072464,-0.0184061757335808,-0.1037285428879229,-0.1221348290381147,0.0058385066802919,3.0
2025-03-10 13:17:08.029,74.20289855072464,-0.0184446400017774,-0.10374591473442,-0.122190666353456,0.0063766488048321,3.0
2025-03-10 13:17:08.031,74.20289855072464,-0.0181233227396136,-0.1025230286531482,-0.1206464642449013,0.0073784443559245,3.0
2025-03-10 13:17:08.033,74.20289855072464,-0.0174802679092891,-0.1005471965697641,-0.1180275785791853,0.0089213738143445,3.0
2025-03-10 13:17:08.035,74.20289855072464,-0.0167749197231708,-0.0988476468337226,-0.1156226818899369,0.0107353053433633,3.0
2025-03-10 13:17:08.037,74.20289855072464,-0.0163480790107291,-0.098574623295632,-0.1149228188365359,0.0123055255925086,3.0
2025-03-10 13:17:08.039,74.20289855072464,-0.0164184303022428,-0.1003908588339661,-0.1168094068258806,0.013099995700828,3.0
2025-03-10 13:17:08.041,74.20289855072464,-0.0169445205725417,-0.1040305141367148,-0.1209751535397033,0.0127772305626249,3.0
2025-03-10 13:17:08.043,74.20289855072464,-0.0176507854221848,-0.1083442392890175,-0.1259951446944031,0.0112950413405343,3.0
2025-03-10 13:17:08.045,74.20289855072464,-0.0181976721532524,-0.1118538074837418,-0.1300516008117887,0.0089096857236237,3.0
2025-03-10 13:17:08.047,74.20289855072464,-0.0183727443466714,-0.1134834443740907,-0.1318563111346929,0.0061011549624487,3.0
2025-03-10 13:17:08.049,74.20289855072464,-0.0181757016989205,-0.1130202057146976,-0.1311960310993526,0.0034654081049885,3.0
2025-03-10 13:17:08.051,74.20289855072464,-0.0177538103110133,-0.1110717787335138,-0.1288257140029694,0.0015888645892325,3.0
2025-03-10 13:17:08.053,74.20289855072464,-0.017249959716342,-0.1086226523929896,-0.1258727383085038,0.0009047659405229,3.0
2025-03-10 13:17:08.055,74.20289855072464,-0.01668634600431,-0.1064911804851902,-0.1231776538803865,0.0015443971386581,3.0
2025-03-10 13:17:08.057,74.20289855072464,-0.0159796693204294,-0.1049915347945411,-0.120971332656724,0.0032361157083849,3.0
2025-03-10 13:17:08.058,74.20289855072464,-0.0150797434732514,-0.1039544120643903,-0.1190342852194261,0.0053401947673303,3.0
2025-03-10 13:17:08.060,74.20289855072464,-0.0141162279527948,-0.1030428552616486,-0.1171592140625052,0.007065694308225,3.0
2025-03-10 13:17:08.062,74.20289855072464,-0.0134181105210335,-0.1021313747713413,-0.1155496173582158,0.0077880032220301,3.0
2025-03-10 13:17:08.064,74.20289855072464,-0.0133675586006668,-0.1014941288826319,-0.1148618208184521,0.0073036465357375,3.0
2025-03-10 13:17:08.066,74.20289855072464,-0.01418729935057,-0.1016758445540889,-0.1158632785346297,0.0059176392964337,3.0
2025-03-10 13:17:08.068,74.20289855072464,-0.0158117001674281,-0.1031178504431095,-0.1189296865212501,0.0043555168441372,3.0
2025-03-10 13:17:08.070,74.20289855072464,-0.0179108441266998,-0.1057751013198015,-0.1236860825905325,0.003517443375629,3.0
2025-03-10 13:17:08.072,74.20289855072464,-0.0200154563725304,-0.108994976861853,-0.1290105715543099,0.0041103878464968,3.0
2025-03-10 13:17:08.074,74.20289855072464,-0.0216534443863861,-0.1117822274490156,-0.1334358112927659,0.0062765882508861,3.0
2025-03-10 13:17:08.076,74.20289855072464,-0.0224664908348886,-0.1133079056316423,-0.1357745370617994,0.0094105944794206,3.0
2025-03-10 13:17:08.078,74.20289855072464,-0.0223174937734286,-0.1133359355343693,-0.135653571080953,0.0123181897397401,3.0
2025-03-10 13:17:08.080,74.20289855072464,-0.0213594741864713,-0.1123083211462551,-0.1336679383437732,0.0137050625757567,3.0
2025-03-10 13:17:08.082,74.20289855072464,-0.0199928928860187,-0.1110780907861103,-0.1310711279710026,0.0127883359749207,3.0
2025-03-10 13:17:08.084,74.20289855072464,-0.0186922319875117,-0.1104815478796398,-0.1291739254680712,0.0097272981922984,3.0
2025-03-10 13:17:08.086,74.20289855072464,-0.0177967538683969,-0.1109785146344636,-0.1287754153762012,0.0056253172883877,3.0
2025-03-10 13:17:08.088,74.20289855072464,-0.0174053502980876,-0.1125077502236818,-0.1299132486078659,0.0020556828329711,3.0
2025-03-10 13:17:08.090,74.20289855072464,-0.0174365224046373,-0.1145825706405591,-0.1320192422834692,0.0003403425554832,3.0
2025-03-10 13:17:08.092,74.20289855072464,-0.0177847486851408,-0.116540483416124,-0.1343253824602113,0.0009705983792163,3.0
2025-03-10 13:17:08.094,74.20289855072464,-0.0184381156596472,-0.1178093049247698,-0.1362475720773669,0.0034513527878277,3.0
2025-03-10 13:17:08.096,74.20289855072464,-0.0194720305534684,-0.1180810173594378,-0.1375532005914219,0.0065860885913825,3.0
2025-03-10 13:17:08.098,74.20289855072464,-0.0209481552302245,-0.1173569001216203,-0.1383052092798048,0.0090180642729814,3.0
2025-03-10 13:17:08.099,74.20289855072464,-0.0228180364532309,-0.1158866100066977,-0.1387048016810849,0.0097766675191002,3.0
2025-03-10 13:17:08.101,74.20289855072464,-0.024905185767609,-0.1140452337282831,-0.1389505760111049,0.0086181475719616,3.0
2025-03-10 13:17:08.103,74.20289855072464,-0.026964651507666,-0.1121925625767519,-0.1391573718500648,0.0060635466765355,3.0
2025-03-10 13:17:08.105,74.20289855072464,-0.0287653260129432,-0.1105632064210421,-0.1393286913825283,0.0031525574559342,3.0
2025-03-10 13:17:08.107,74.20289855072464,-0.030136169223946,-0.1092403981312667,-0.1393767274278151,0.0010021195576636,3.0
2025-03-10 13:17:08.109,74.20289855072464,-0.0309619948337318,-0.1082362533358072,-0.1391984093445315,0.0003281761865929,3.0
2025-03-10 13:17:08.111,74.20289855072464,-0.0311753310716684,-0.1076251739246923,-0.1388006672993444,0.0011546690060411,3.0
2025-03-10 13:17:08.113,74.20289855072464,-0.0307973611780487,-0.1076171580947652,-0.1384146827632776,0.0028718073069818,3.0
2025-03-10 13:17:08.115,74.20289855072464,-0.0300033165964662,-0.1085008535403471,-0.1385043348778217,0.0045984104005596,3.0
2025-03-10 13:17:08.117,74.20289855072464,-0.0291155037629116,-0.1105037152449844,-0.1396193850338411,0.0056265872790533,3.0
2025-03-10 13:17:08.119,74.20289855072464,-0.0284722240940156,-0.1136591178501852,-0.1421315092426032,0.0057064437350377,3.0
2025-03-10 13:17:08.121,74.20289855072464,-0.0282529739772928,-0.1176991826851332,-0.145952325178827,0.0050403459800302,3.0
2025-03-10 13:17:08.123,74.20289855072464,-0.0284093389645487,-0.12196939351647,-0.1503789021445767,0.0040410066542794,3.0
2025-03-10 13:17:08.125,74.20289855072464,-0.0287681076342032,-0.1254607998816943,-0.1542290782730659,0.0030592299424268,3.0
2025-03-10 13:17:08.127,74.20289855072464,-0.0292117526042653,-0.127095296931786,-0.1563072213757308,0.0022680322195922,3.0
2025-03-10 13:17:08.129,74.20289855072464,-0.0297611821985827,-0.1262270008089509,-0.1559883559653075,0.0017127484037077,3.0
2025-03-10 13:17:08.131,74.20289855072464,-0.0304778745085922,-0.1230759219573233,-0.1535539706052972,0.0013974081915061,3.0
2025-03-10 13:17:08.133,74.20289855072464,-0.0312890795385157,-0.1187594587260649,-0.1500487136445143,0.0013221439479001,3.0
2025-03-10 13:17:08.135,74.20289855072464,-0.0319283453179662,-0.1148291722836365,-0.1467576942461853,0.0015121510576745,3.0
2025-03-10 13:17:08.137,74.20289855072464,-0.0320733265054458,-0.1125729881322063,-0.1446464925229149,0.002070881528223,3.0
2025-03-10 13:17:08.139,74.20289855072464,-0.0315706016584027,-0.112505471893822,-0.1440762526164145,0.0031649858006889,3.0
2025-03-10 13:17:08.141,74.20289855072464,-0.0305579767455543,-0.1143030198028325,-0.1448611767206724,0.0048545302893506,3.0
2025-03-10 13:17:08.142,74.20289855072464,-0.0293873586471814,-0.1171118615512775,-0.1464994014319995,0.0068760327173854,3.0
2025-03-10 13:17:08.144,74.20289855072464,-0.028415138046017,-0.1199588392404459,-0.1483741595796857,0.0086056688901417,3.0
2025-03-10 13:17:08.146,74.20289855072464,-0.0278231222864456,-0.1220493789614004,-0.1498726846435739,0.0093046315163755,3.0
2025-03-10 13:17:08.148,74.20289855072464,-0.027589933625556,-0.1229159519005814,-0.1505060700890308,0.0085221495407907,3.0
2025-03-10 13:17:08.150,74.20289855072464,-0.0275939666456071,-0.1224886330841094,-0.1500827855130557,0.0064092950659803,3.0
2025-03-10 13:17:08.152,74.20289855072464,-0.0277245386237872,-0.1211226875417683,-0.1488474131835615,0.0037313176178076,3.0
2025-03-10 13:17:08.154,74.20289855072464,-0.0279058691004217,-0.1195254519542507,-0.1474315092738396,0.001516812050591,3.0
2025-03-10 13:17:08.156,74.20289855072464,-0.0280577632585392,-0.1185210434079308,-0.1465789960201055,0.0005013622877352,3.0
2025-03-10 13:17:08.158,74.20289855072464,-0.0280874326987693,-0.1187067854456409,-0.1467944085632791,0.0007090135210638,3.0
2025-03-10 13:17:08.160,74.20289855072464,-0.027948228783324,-0.120170690597121,-0.1481191108245947,0.0014777043812458,3.0
2025-03-10 13:17:08.162,74.20289855072464,-0.0276908088844561,-0.1224326459436394,-0.1501236473043732,0.0019179487917427,3.0
2025-03-10 13:17:08.164,74.20289855072464,-0.0274195206599599,-0.1246445271591458,-0.1520642413758594,0.0014623064237544,3.0
2025-03-10 13:17:08.166,74.20289855072464,-0.027178796459025,-0.1259455559268945,-0.1531245470874682,0.0001369077527719,3.0
2025-03-10 13:17:08.168,74.20289855072464,-0.0268886757829684,-0.1258173638065816,-0.1527062354828523,-0.0015474545338328,3.0
2025-03-10 13:17:08.170,74.20289855072464,-0.0264018087758909,-0.1243068704656611,-0.1507088763312928,-0.0029256930774835,3.0
2025-03-10 13:17:08.172,74.20289855072464,-0.025626116159496,-0.1220199110044035,-0.1476462254081245,-0.0035182723953602,3.0
2025-03-10 13:17:08.174,74.20289855072464,-0.0246003971682426,-0.1198462621894125,-0.1444468586860816,-0.0032486968274583,3.0
2025-03-10 13:17:08.176,74.20289855072464,-0.0234723223199797,-0.118509255158459,-0.1419817778245339,-0.0024722512762563,3.0
2025-03-10 13:17:08.178,74.20289855072464,-0.0224179963139712,-0.1181791648322981,-0.1405973624774746,-0.0018004161259412,3.0
2025-03-10 13:17:08.180,74.20289855072464,-0.0215670043552199,-0.118390347540366,-0.1399575542269526,-0.0017950588842027,3.0
2025-03-10 13:17:08.182,74.20289855072464,-0.0209621362132503,-0.118314969813767,-0.1392773094115874,-0.0026897279032389,3.0
2025-03-10 13:17:08.183,74.20289855072464,-0.0205500694231614,-0.1172279205342076,-0.1377781944579751,-0.0042889025047384,3.0
2025-03-10 13:17:08.185,74.20289855072464,-0.0201964101754711,-0.1149139551280906,-0.1351105709598005,-0.0060907837296494,3.0
2025-03-10 13:17:08.187,74.20289855072464,-0.0197232102389843,-0.1118274879947139,-0.1315509050402162,-0.007542100700332,3.0
2025-03-10 13:17:08.189,74.20289855072464,-0.0189588340534803,-0.1089316531626194,-0.1278906951228287,-0.0082601082709664,3.0
2025-03-10 13:17:08.191,74.20289855072464,-0.0177781371529996,-0.1072569709007169,-0.1250353169879732,-0.008109929833785,3.0
2025-03-10 13:17:08.193,74.20289855072464,-0.0161112621892414,-0.1073226688887804,-0.1234341409776667,-0.0071515497773882,3.0
2025-03-10 13:17:08.195,74.20289855072464,-0.0139202147382034,-0.1086559127410537,-0.122576338320656,-0.0055420377602696,3.0
2025-03-10 13:17:08.197,74.20289855072464,-0.0111741583886883,-0.109688727137116,-0.1208630973328515,-0.0034714111883333,3.0
2025-03-10 13:17:08.199,74.20289855072464,-0.0078612902607142,-0.1082339175996071,-0.1160954206900667,-0.0011871553658007,3.0
2025-03-10 13:17:08.201,74.20289855072464,-0.0040421889157838,-0.1024881571818992,-0.1065305600096194,0.0009138088652474,3.0
2025-03-10 13:17:08.203,74.20289855072464,8.673695003341914e-05,-0.0921505244818779,-0.0920640025559826,0.0022948271631253,3.0
2025-03-10 13:17:08.205,74.20289855072464,0.00416629292014,-0.0790173808530697,-0.0748513040524156,0.0025829865864395,3.0
2025-03-10 13:17:08.207,74.20289855072464,0.0077409011879282,-0.0665883415796571,-0.058847657548596,0.0021001992265891,3.0
2025-03-10 13:17:08.209,74.20289855072464,0.0104607978281276,-0.0587826589572166,-0.0483220792502961,0.0022206527020463,3.0
2025-03-10 13:17:08.211,74.20289855072464,0.0123654474439476,-0.0584203237281204,-0.046055095315018,0.0051128275149696,3.0
2025-03-10 13:17:08.213,74.20289855072464,0.0140521194118997,-0.0662178276406095,-0.0521659281570378,0.0127849091994028,3.0
2025-03-10 13:17:08.215,74.20289855072464,0.01651444485911,-0.0806534590651189,-0.0641392350652013,0.0258447770486586,3.0
2025-03-10 13:17:08.217,74.20289855072464,0.0206385988193271,-0.0985824981349377,-0.0779441211649112,0.0426557744113552,3.0
2025-03-10 13:17:08.219,74.20289855072464,0.0266334446635408,-0.1162915510883576,-0.089658329316849,0.0594659626499951,3.0
2025-03-10 13:17:08.221,74.20289855072464,0.0337812660879821,-0.1306951038063018,-0.0969140616700399,0.071644799149739,3.0
2025-03-10 13:17:08.223,74.20289855072464,0.0406978729537461,-0.140319608390869,-0.0996219604187142,0.0755401102424003,3.0
2025-03-10 13:17:08.224,74.20289855072464,0.0459346874103571,-0.1456315306122401,-0.0996970691490749,0.0700246257643088,3.0
2025-03-10 13:17:08.226,74.20289855072464,0.048548493526111,-0.1484693535963589,-0.099921086913774,0.0569015212210178,3.0
2025-03-10 13:17:08.228,74.20289855072464,0.0483613994119303,-0.1508735634649249,-0.1025123917503017,0.0399797792698669,3.0
2025-03-10 13:17:08.230,74.20289855072464,0.0458813040365211,-0.1540213633294763,-0.1081402878461983,0.0233845674964511,3.0
2025-03-10 13:17:08.232,74.20289855072464,0.042014219169404,-0.1578528374760124,-0.115838847757958,0.0100336837587101,3.0
2025-03-10 13:17:08.234,74.20289855072464,0.0377225734956422,-0.1614624381882604,-0.1237400950994227,0.0009944836430284,3.0
2025-03-10 13:17:08.236,74.20289855072464,0.0337483452861065,-0.1638927287803127,-0.1301446148967403,-0.0041572812643751,3.0
2025-03-10 13:17:08.238,74.20289855072464,0.0304687350624105,-0.1648485472903438,-0.1343800446261506,-0.006426016905631,3.0
2025-03-10 13:17:08.240,74.20289855072464,0.0278971965071624,-0.1649679001644675,-0.1370709370083186,-0.0066043324883129,3.0
2025-03-10 13:17:08.242,74.20289855072464,0.0258039042701322,-0.1655172657012487,-0.1397135956684711,-0.0050493481467273,3.0
2025-03-10 13:17:08.244,74.20289855072464,0.0238987729259272,-0.1676589097751053,-0.1437603719138357,-0.0019886783092733,3.0
2025-03-10 13:17:08.246,74.20289855072464,0.0219931501769202,-0.1716739907898582,-0.1496810764799908,0.0020589368509954,3.0
2025-03-10 13:17:08.248,74.20289855072464,0.0200713214358546,-0.1765952864466186,-0.1565242016982446,0.0061495349951915,3.0
2025-03-10 13:17:08.250,74.20289855072464,0.0182624055578099,-0.1805300929739468,-0.1622679249716514,0.0091491668494477,3.0
2025-03-10 13:17:08.252,74.20289855072464,0.0167454994824585,-0.1815801711196583,-0.1648349101095922,0.0101342503412754,3.0
2025-03-10 13:17:08.254,74.20289855072464,0.0156170459149401,-0.1788908704477002,-0.1632740639436714,0.0087061929709097,3.0
2025-03-10 13:17:08.256,74.20289855072464,0.0147435385583863,-0.1732343127304944,-0.1584910145021547,0.0051045675400875,3.0
2025-03-10 13:17:08.258,74.20289855072464,0.0136587010632358,-0.1667499799589878,-0.153091520092247,0.0001472697465926,3.0
2025-03-10 13:17:08.260,74.20289855072464,0.0116138476116561,-0.1619131397071381,-0.1502995340972998,-0.0049518195682014,3.0
2025-03-10 13:17:08.262,74.20289855072464,0.0078612895618646,-0.1602421792823709,-0.1523811324867947,-0.008915398087449,3.0
2025-03-10 13:17:08.264,74.20289855072464,0.0020955305966049,-0.1614480572276374,-0.1593527701586707,-0.0109000508199438,3.0
2025-03-10 13:17:08.266,74.20289855072464,-0.0051980514050156,-0.163535751019464,-0.1687340467453373,-0.0109657695407628,3.0
2025-03-10 13:17:08.267,74.20289855072464,-0.0127482408231726,-0.1638698130197427,-0.1766182990027581,-0.0101524100363697,3.0
2025-03-10 13:17:08.269,74.20289855072464,-0.0189240254691295,-0.1606828699589538,-0.1796071414586431,-0.0099605255553807,3.0
2025-03-10 13:17:08.271,74.20289855072464,-0.0224058633862139,-0.1542189558953807,-0.1766250661807425,-0.0114732676491009,3.0
2025-03-10 13:17:08.273,74.20289855072464,-0.022795420170172,-0.1468236423737525,-0.1696193102743202,-0.0146805925588136,3.0
2025-03-10 13:17:08.275,74.20289855072464,-0.0208728175111568,-0.1418048703510905,-0.1626779363688089,-0.0184675769048462,3.0
2025-03-10 13:17:08.277,74.20289855072464,-0.0183433065478119,-0.1415693222827315,-0.1599128780670195,-0.0212819696866377,3.0
2025-03-10 13:17:08.279,74.20289855072464,-0.01713361628153,-0.1460235705428042,-0.1631574367745384,-0.0220588874017177,3.0
2025-03-10 13:17:08.281,74.20289855072464,-0.018531339490025,-0.1522130363301667,-0.1707446265025702,-0.0208304809491423,3.0
2025-03-10 13:17:08.283,74.20289855072464,-0.0225748373602516,-0.1556141468030577,-0.1781892356166801,-0.0186310378457142,3.0
2025-03-10 13:17:08.285,74.20289855072464,-0.0279900059954505,-0.1526511594117224,-0.1806414176656906,-0.0167208313543906,3.0
2025-03-10 13:17:08.287,74.20289855072464,-0.0326868162159067,-0.1432856754489827,-0.1759727447360212,-0.0155601722976381,3.0
2025-03-10 13:17:08.289,74.20289855072464,-0.0345641249868823,-0.13228843316499,-0.1668528120093432,-0.0140823592054676,3.0
2025-03-10 13:17:08.291,74.20289855072464,-0.0322764500394154,-0.1282231928195194,-0.1604998974542876,-0.0095884713404749,3.0
2025-03-10 13:17:08.293,74.20289855072464,-0.0256928367799664,-0.1401435485114586,-0.1658366405776285,0.0017229685654409,3.0
2025-03-10 13:17:08.295,74.20289855072464,-0.015932197016836,-0.1731390989906084,-0.1890715519614515,0.0237201870662298,3.0
2025-03-10 13:17:08.297,74.20289855072464,-0.0049925711799717,-0.2246463680601412,-0.2296391958719655,0.0589240051466496,3.0
2025-03-10 13:17:08.299,74.20289855072464,0.0049411080773328,-0.2834276124443773,-0.2784867617106182,0.1069200540315681,3.0
2025-03-10 13:17:08.301,74.20289855072464,0.0123779304419611,-0.3321587877229363,-0.319781115371603,0.1630888415979182,3.0
2025-03-10 13:17:08.303,74.20289855072464,0.0173481250187939,-0.3529259319358039,-0.3355780657684388,0.2184571168576317,3.0
2025-03-10 13:17:08.305,74.20289855072464,0.0218023285605765,-0.3333719450315939,-0.3115698760644613,0.2613615123354482,3.0
2025-03-10 13:17:08.307,74.20289855072464,0.0292488183920312,-0.2707404478998853,-0.2414918897991741,0.2807827867397841,3.0
2025-03-10 13:17:08.308,74.20289855072464,0.0436365629204551,-0.1720896134133768,-0.1284533114339217,0.2699889982565354,3.0
2025-03-10 13:17:08.310,74.20289855072464,0.06795691905895,-0.050867331346895,0.017089326150034,0.2284686957592928,3.0
2025-03-10 13:17:08.312,74.20289855072464,0.1032230750967947,0.0784367010128871,0.1816595139229506,0.1608680948236041,3.0
2025-03-10 13:17:08.314,74.20289855072464,0.1481955787541881,0.2054692046432643,0.3536645205550576,0.0735103939023798,3.0
2025-03-10 13:17:08.316,74.20289855072464,0.1997193730149598,0.3273920542838173,0.5271111637626871,-0.0293301310263738,3.0
2025-03-10 13:17:08.318,74.20289855072464,0.2532838329758849,0.4495311538177775,0.7028147225428953,-0.1471947848068203,3.0
2025-03-10 13:17:08.320,74.20289855072464,0.3035895359912049,0.5831599512431258,0.8867492222796648,-0.2825143763914554,3.0
2025-03-10 13:17:08.322,74.20289855072464,0.3452338825432782,0.7411103693562421,1.0863439862806257,-0.4379821725262308,3.0
2025-03-10 13:17:08.324,74.20289855072464,0.3736828865113587,0.9323122280235372,1.3059948483014472,-0.6139457165747082,3.0
2025-03-10 13:17:08.326,74.20289855072464,0.3863490869005527,1.1562100490658351,1.5425588691535947,-0.8069406506673997,3.0
2025-03-10 13:17:08.328,74.20289855072464,0.3832002567167765,1.3980780466130107,1.7812780359418712,-1.0092804017856594,3.0
2025-03-10 13:17:08.330,74.20289855072464,0.3663826177244095,1.62715429403247,1.9935366437676243,-1.208946270041796,3.0
2025-03-10 13:17:08.332,74.20289855072464,0.3389503013251541,1.800273869906987,2.139223902602171,-1.389521429357501,3.0
2025-03-10 13:17:08.334,74.20289855072464,0.3034788006148916,1.8724615316378608,2.1759400629539405,-1.5310718945260386,3.0
2025-03-10 13:17:08.336,74.20289855072464,0.2614967421842517,1.812305101928544,2.0738015741463207,-1.6133820200710325,3.0
2025-03-10 13:17:08.338,74.20289855072464,0.2141039226096364,1.6159708643012451,1.8300745163090573,-1.6217869356102312,3.0
2025-03-10 13:17:08.340,74.20289855072464,0.1632450622856694,1.3126491106682263,1.4758939017648998,-1.5534658239899914,3.0
2025-03-10 13:17:08.342,74.20289855072464,0.1125592848892133,0.9575609903314216,1.0701200034847496,-1.4205224127424787,3.0
2025-03-10 13:17:08.344,74.20289855072464,0.0669708796160644,0.6147936242343981,0.681764231580989,-1.2473605705582254,3.0
2025-03-10 13:17:08.346,74.20289855072464,0.0310892816942716,0.3374558711593475,0.3685448800328751,-1.0631887243963904,3.0
2025-03-10 13:17:08.348,74.20289855072464,0.0073984763188621,0.1536986050434937,0.1610968079547186,-0.8932367339779462,3.0
2025-03-10 13:17:08.349,74.20289855072464,-0.0045883732587368,0.0634708707534255,0.0588822234692162,-0.7524762650164188,3.0
2025-03-10 13:17:08.351,74.20289855072464,-0.0077495868851364,0.0451517288148722,0.0374018672797701,-0.6437995253137583,3.0
2025-03-10 13:17:08.353,74.20289855072464,-0.0058933432843799,0.0671576271607367,0.0612640086254,-0.5604440274779268,3.0
2025-03-10 13:17:08.355,74.20289855072464,-0.002377436764106,0.0990970986630472,0.0967193860898618,-0.4910223825655981,3.0
2025-03-10 13:17:08.357,74.20289855072464,0.000589252815573,0.119104019025,0.1196929955144337,-0.4249660200614995,3.0
2025-03-10 13:17:08.359,74.20289855072464,0.0019777212801866,0.1165915500317649,0.1185689944883397,-0.3564043535350018,3.0
2025-03-10 13:17:08.361,74.20289855072464,0.001634516748271,0.0913992301054633,0.093033469523386,-0.2853646928013996,3.0
2025-03-10 13:17:08.363,74.20289855072464,-7.369600612701626e-05,0.0508204133469372,0.0507464394743018,-0.2163797935377325,3.0
2025-03-10 13:17:08.365,74.20289855072464,-0.0025529871488572,0.0057346790250106,0.0031814134434755,-0.155600584304491,3.0
2025-03-10 13:17:08.367,74.20289855072464,-0.0051962141700569,-0.0333156363216362,-0.0385121295017566,-0.1078858632481993,3.0
2025-03-10 13:17:08.369,74.20289855072464,-0.0075160051252586,-0.0593867843167588,-0.0669030690134167,-0.07500710777485,3.0
2025-03-10 13:17:08.371,74.20289855072464,-0.0092027099202911,-0.070964137934123,-0.0801671279506892,-0.055386303588828,3.0
2025-03-10 13:17:08.373,74.20289855072464,-0.0101410278094993,-0.0717713923328303,-0.0819127007246125,-0.0451020583390128,3.0
2025-03-10 13:17:08.375,74.20289855072464,-0.0104213446993952,-0.0686158030131392,-0.079037428758419,-0.0394900796791722,3.0
2025-03-10 13:17:08.377,74.20289855072464,-0.0103369874988272,-0.0681896981644763,-0.0785269671760679,-0.0345939110187154,3.0
2025-03-10 13:17:08.379,74.20289855072464,-0.0103139147785909,-0.0742584049885805,-0.0845726017704505,-0.0279883861470972,3.0
2025-03-10 13:17:08.381,74.20289855072464,-0.010740339885269,-0.0864463692187059,-0.0971869916252096,-0.0189284813580655,3.0
2025-03-10 13:17:08.383,74.20289855072464,-0.0117565482121171,-0.1010070393011181,-0.1127638705654172,-0.0080539609883829,3.0
2025-03-10 13:17:08.385,74.20289855072464,-0.0131451129393352,-0.1130164963123529,-0.1261618928236592,0.0031136222032519,3.0
2025-03-10 13:17:08.387,74.20289855072464,-0.0144277695110069,-0.1188558431620735,-0.1332838967336317,0.012750058419965,3.0
2025-03-10 13:17:08.389,74.20289855072464,-0.0151364239734535,-0.1178489502798291,-0.132985658766448,0.0193289089722647,3.0
2025-03-10 13:17:08.391,74.20289855072464,-0.0151010235567163,-0.1123993402869728,-0.1275006487863966,0.0221983912232484,3.0
2025-03-10 13:17:08.392,74.20289855072464,-0.0145769072694939,-0.10667470909824,-0.1212519017398266,0.0219833694829585,3.0
2025-03-10 13:17:08.394,74.20289855072464,-0.0141165392642474,-0.1045404579385797,-0.1186572830239481,0.0205185185555798,3.0
2025-03-10 13:17:08.396,74.20289855072464,-0.0142352996765113,-0.1077627689155039,-0.1219983548873535,0.0201245691932931,3.0
2025-03-10 13:17:08.398,74.20289855072464,-0.0150650963412706,-0.1153149119153927,-0.1303802950398014,0.0224876671161986,3.0
2025-03-10 13:17:08.400,74.20289855072464,-0.01622811780197,-0.1240356773473641,-0.1402640824119401,0.0278024846129545,3.0
2025-03-10 13:17:08.402,74.20289855072464,-0.0170317475519913,-0.130250058055722,-0.1472820933218127,0.0347363044281155,3.0
2025-03-10 13:17:08.404,74.20289855072464,-0.0168675605156442,-0.1315708225323792,-0.1484386711794052,0.0412258712330542,3.0
2025-03-10 13:17:08.406,74.20289855072464,-0.0155672524633982,-0.1280490029137217,-0.1436165439021628,0.0456076221632129,3.0
2025-03-10 13:17:08.408,74.20289855072464,-0.013514801648807,-0.122119205585816,-0.1356342961509783,0.0474417544118334,3.0
2025-03-10 13:17:08.410,74.20289855072464,-0.0114695047269657,-0.1173448300595232,-0.1288146241116179,0.04761318698437,3.0
2025-03-10 13:17:08.412,74.20289855072464,-0.0102029991203931,-0.1165936627675276,-0.1267969516463925,0.0477059550967034,3.0
2025-03-10 13:17:08.414,74.20289855072464,-0.0101354081916053,-0.1205851539250354,-0.1307208523234372,0.0490448514890864,3.0
2025-03-10 13:17:08.416,74.20289855072464,-0.0111513633417705,-0.1275342000193458,-0.1386858540104059,0.051966033589955,3.0
2025-03-10 13:17:08.418,74.20289855072464,-0.0126796792079229,-0.1340444562786399,-0.1467244265522762,0.055715760143614,3.0
2025-03-10 13:17:08.420,74.20289855072464,-0.0139776480640711,-0.1368110575360847,-0.15078899704803,0.0590000065540434,3.0
2025-03-10 13:17:08.422,74.20289855072464,-0.0144639150672737,-0.1343062599501986,-0.1487704668217725,0.0608405745595369,3.0
2025-03-10 13:17:08.424,74.20289855072464,-0.0139434432282946,-0.1275847329745916,-0.141528468358397,0.0612092693986278,3.0
2025-03-10 13:17:08.426,74.20289855072464,-0.012641111698051,-0.1197452079004737,-0.1323866121210586,0.0610307586588226,3.0
2025-03-10 13:17:08.428,74.20289855072464,-0.0110553117336676,-0.1142990601608171,-0.1253546648095909,0.0615603417881785,3.0
2025-03-10 13:17:08.430,74.20289855072464,-0.0097153281854043,-0.1133316789807748,-0.1230473004923361,0.0635765218120784,3.0
2025-03-10 13:17:08.432,74.20289855072464,-0.0089523377028124,-0.1164737665870778,-0.1254263980255455,0.0669176474274665,3.0
2025-03-10 13:17:08.433,74.20289855072464,-0.0087770736192199,-0.1212171831091025,-0.1299945508500129,0.070599841193325,3.0
2025-03-10 13:17:08.435,74.20289855072464,-0.0089119236083009,-0.1243359033836686,-0.1332481214646024,0.073381480480369,3.0
2025-03-10 13:17:08.437,74.20289855072464,-0.008956271541025,-0.1235994095288474,-0.1325559758635089,0.0744375095677363,3.0
2025-03-10 13:17:08.439,74.20289855072464,-0.0085907903067209,-0.1188817127463353,-0.127472798156949,0.0737944216939369,3.0
2025-03-10 13:17:08.441,74.20289855072464,-0.0077041295417359,-0.1121380618786555,-0.119842486846543,0.0723144405606895,3.0
2025-03-10 13:17:08.443,74.20289855072464,-0.0063890494039534,-0.1063140496213337,-0.1127033947995651,0.0712707020964372,3.0
2025-03-10 13:17:08.445,74.20289855072464,-0.0048553126527829,-0.1037876933801039,-0.1086433021785534,0.0717785440924137,3.0
2025-03-10 13:17:08.447,74.20289855072464,-0.0033451141732869,-0.1051686710052356,-0.1085140817011611,0.0743690416582456,3.0
2025-03-10 13:17:08.449,74.20289855072464,-0.0020777093700941,-0.1090647077004096,-0.1111427139525198,0.0788363691602628,3.0
2025-03-10 13:17:08.451,74.20289855072464,-0.0011798022514396,-0.1128858117096886,-0.1140659111687626,0.0843395141362248,3.0
2025-03-10 13:17:08.453,74.20289855072464,-0.0005884918659447,-0.1142046342585594,-0.1147934236235105,0.0896841174061729,3.0
2025-03-10 13:17:08.455,74.20289855072464,-1.4867836432356975e-05,-0.1119408496828448,-0.1119560152907893,0.0937096193206113,3.0
2025-03-10 13:17:08.457,74.20289855072464,0.0009271056727383,-0.1068027204837116,-0.1058759128590715,0.0956993844061107,3.0
2025-03-10 13:17:08.459,74.20289855072464,0.0024576465116142,-0.1008488423654333,-0.0983914942008509,0.0956962383639458,3.0
2025-03-10 13:17:08.461,74.20289855072464,0.0044234497573933,-0.0964533765733038,-0.0920302254882005,0.0945661664060537,3.0
2025-03-10 13:17:08.463,74.20289855072464,0.0063370255806368,-0.0951811014350682,-0.0888443748660748,0.0936870554710784,3.0
2025-03-10 13:17:08.465,74.20289855072464,0.0076732752514581,-0.097066997881453,-0.0893940219733002,0.094324158405051,3.0
2025-03-10 13:17:08.467,74.20289855072464,0.0082184730799371,-0.1005971548756389,-0.0923789814431694,0.0970064104317058,3.0
2025-03-10 13:17:08.469,74.20289855072464,0.0082127761241606,-0.1033891037646766,-0.09517662755707,0.101283964951665,3.0
2025-03-10 13:17:08.471,74.20289855072464,0.0081884887053579,-0.1032755838521738,-0.0950873953056885,0.1060038277702716,3.0
2025-03-10 13:17:08.473,74.20289855072464,0.0086382470940395,-0.0993080532902648,-0.0906701065901773,0.1099057016193538,3.0
2025-03-10 13:17:08.474,74.20289855072464,0.0097520209364005,-0.0922007907931714,-0.0824490704990093,0.1122106822740449,3.0
2025-03-10 13:17:08.476,74.20289855072464,0.0113752578780427,-0.0839758376065069,-0.0726008806431117,0.112960708357065,3.0
2025-03-10 13:17:08.478,74.20289855072464,0.0131644854563788,-0.0769683448493071,-0.0638041606002629,0.1129883511214334,3.0
2025-03-10 13:17:08.480,74.20289855072464,0.0147986458635502,-0.0726992378272773,-0.0579008934678687,0.1135217940733656,3.0
2025-03-10 13:17:08.482,74.20289855072464,0.0161124776384639,-0.0712004131639351,-0.055088237310628,0.1156106497038874,3.0
2025-03-10 13:17:08.484,74.20289855072464,0.0171128951877828,-0.0711318127741756,-0.054019219623185,0.1196705211768314,3.0
2025-03-10 13:17:08.486,74.20289855072464,0.0179262061777002,-0.0706001057524539,-0.0526742018330005,0.125347839483442,3.0
2025-03-10 13:17:08.488,74.20289855072464,0.018735908958353,-0.0682105544075823,-0.049474947910551,0.1317189880649127,3.0
2025-03-10 13:17:08.490,74.20289855072464,0.019727735595115,-0.0637618335744676,-0.0440344006433945,0.1377283359445526,3.0
2025-03-10 13:17:08.492,74.20289855072464,0.0210343465417793,-0.0582080289854487,-0.0371739853252582,0.1426978336360184,3.0
2025-03-10 13:17:08.494,74.20289855072464,0.022690745407192,-0.0529507669237213,-0.0302603246356696,0.1466537943402395,3.0
2025-03-10 13:17:08.496,74.20289855072464,0.0246260952591705,-0.0489175575705315,-0.0242917656813205,0.1502512965365024,3.0
2025-03-10 13:17:08.498,74.20289855072464,0.0266969441635871,-0.0459856804341856,-0.0192890398898844,0.1543305329074545,3.0
2025-03-10 13:17:08.500,74.20289855072464,0.0287373653336661,-0.0430780168075482,-0.014340955325634,0.1594195889199461,3.0
2025-03-10 13:17:08.502,74.20289855072464,0.0305965547028093,-0.0388441103039406,-0.0082478596596942,0.1655140923138401,3.0
2025-03-10 13:17:08.504,74.20289855072464,0.0321521976593691,-0.0324923644700713,-0.0003404710518248,0.1722114768720193,3.0
2025-03-10 13:17:08.506,74.20289855072464,0.0333082635602055,-0.0242623607715747,0.0090455983788932,0.179035253548892,3.0
2025-03-10 13:17:08.508,74.20289855072464,0.0340014596873077,-0.0152691729081661,0.0187319822007259,0.1857346650561978,3.0
2025-03-10 13:17:08.510,74.20289855072464,0.0342463373031758,-0.0068582067747912,0.0273878257699614,0.192411595341561,3.0
2025-03-10 13:17:08.512,74.20289855072464,0.0342199437063972,9.736784558331268e-05,0.0343170065984514,0.1994067834144075,3.0
2025-03-10 13:17:08.514,74.20289855072464,0.0343215364737618,0.0055410367422124,0.0398622680571445,0.2069926977396907,3.0
2025-03-10 13:17:08.516,74.20289855072464,0.0351115612947751,0.0100919509819742,0.045203206913425,0.2150702908635745,3.0
2025-03-10 13:17:08.517,74.20289855072464,0.0371064069335763,0.014614618666087,0.0517207200447977,0.2231112044826258,3.0
2025-03-10 13:17:08.519,74.20289855072464,0.0405338761154187,0.019824187628862,0.0603577580189848,0.2304177849542094,3.0
2025-03-10 13:17:08.521,74.20289855072464,0.0452058159412773,0.0261428822808675,0.0713483923484228,0.2365245782160716,3.0
2025-03-10 13:17:08.523,74.20289855072464,0.0505853256203343,0.0337957774587786,0.0843807970723575,0.2414760796639176,3.0
2025-03-10 13:17:08.525,74.20289855072464,0.0560059008845125,0.0429487720450117,0.0989543667937887,0.2458330683961468,3.0
2025-03-10 13:17:08.527,74.20289855072464,0.0609379712731214,0.0536842569213794,0.1146219219224436,0.2504358005565072,3.0
2025-03-10 13:17:08.529,74.20289855072464,0.0651913683214893,0.0658085352680834,0.1309995971671675,0.2560585371903563,3.0
2025-03-10 13:17:08.531,74.20289855072464,0.0689583871380335,0.0787139289840698,0.1476720095363398,0.2631085584387935,3.0
2025-03-10 13:17:08.533,74.20289855072464,0.0726637110787107,0.0915272095693345,0.164190613894546,0.2714877893873136,3.0
2025-03-10 13:17:08.535,74.20289855072464,0.076699879945598,0.1035288993972592,0.1802284724301515,0.2806606807720818,3.0
2025-03-10 13:17:08.537,74.20289855072464,0.0812102423775591,0.1145641635818044,0.195774098907696,0.2898620077588219,3.0
2025-03-10 13:17:08.539,74.20289855072464,0.0860526318997901,0.1251412376461335,0.2111935623806633,0.298306153652969,3.0
2025-03-10 13:17:08.541,74.20289855072464,0.0909497324347861,0.1361424751789576,0.2270919003558986,0.3053243129618834,3.0
2025-03-10 13:17:08.543,74.20289855072464,0.0957030619623277,0.1483387196275666,0.2440414742478627,0.3104878072932214,3.0
2025-03-10 13:17:08.545,74.20289855072464,0.1003160814788181,0.1619905678197169,0.2623063418651162,0.3137723607485291,3.0
2025-03-10 13:17:08.547,74.20289855072464,0.1049555979373943,0.1767323378111334,0.2816876282051512,0.3156708822759053,3.0
2025-03-10 13:17:08.549,74.20289855072464,0.1098014620799362,0.1917792668671165,0.3015804212738834,0.3170938086338583,3.0
2025-03-10 13:17:08.551,74.20289855072464,0.1149045080126932,0.2063381096441076,0.3212423098443164,0.3190165143280378,3.0
2025-03-10 13:17:08.553,74.20289855072464,0.1201544920556128,0.2199841723054352,0.3401383564174719,0.3220219081966933,3.0
2025-03-10 13:17:08.555,74.20289855072464,0.1253629144503733,0.2327956257224911,0.3581582321233454,0.3259934429664803,3.0
2025-03-10 13:17:08.557,74.20289855072464,0.1303661739047762,0.2452161757294584,0.3755820415114509,0.3301589008780686,3.0
2025-03-10 13:17:08.558,74.20289855072464,0.1350597587422582,0.2577897864569685,0.3928492370294633,0.3334696057311351,3.0
2025-03-10 13:17:08.560,74.20289855072464,0.1393750837137932,0.2709400190346673,0.4103147945399188,0.3350759020317091,3.0
2025-03-10 13:17:08.562,74.20289855072464,0.1432695149886267,0.2848684324503947,0.4281376391785318,0.3346279157539032,3.0
2025-03-10 13:17:08.564,74.20289855072464,0.1467531195478077,0.2995286332118694,0.4462814444201153,0.3322900060888148,3.0
2025-03-10 13:17:08.566,74.20289855072464,0.1499132572764039,0.3146102505171345,0.4645231993488325,0.328527385316464,3.0
2025-03-10 13:17:08.568,74.20289855072464,0.1528995785412157,0.3295611510385244,0.4824604210201866,0.3237983781880443,3.0
2025-03-10 13:17:08.570,74.20289855072464,0.1558662366243742,0.3437441644686407,0.4996100924329943,0.3182935464428446,3.0
2025-03-10 13:17:08.572,74.20289855072464,0.1588910684482069,0.356720598311909,0.5156113580337922,0.3118313022721972,3.0
2025-03-10 13:17:08.574,74.20289855072464,0.1619057073545818,0.3684668286231325,0.5303722272243251,0.3039470822127914,3.0
2025-03-10 13:17:08.576,74.20289855072464,0.1646740311755064,0.3793136480854343,0.5439873705068115,0.2941192528254302,3.0
2025-03-10 13:17:08.578,74.20289855072464,0.1668361352322494,0.3896164726525389,0.5564522991312657,0.2820090954543761,3.0
2025-03-10 13:17:08.580,74.20289855072464,0.168002194145846,0.3993881612247938,0.567390046594445,0.2676113314176745,3.0
2025-03-10 13:17:08.582,74.20289855072464,0.1678543026892283,0.4081318572981642,0.5759858511536751,0.2513018309546996,3.0
2025-03-10 13:17:08.584,74.20289855072464,0.1662068833035494,0.4149372892512671,0.5811438636365733,0.2338153039470469,3.0
2025-03-10 13:17:08.586,74.20289855072464,0.1630028871972969,0.4187435996396573,0.5817461778309482,0.2161276386885353,3.0
2025-03-10 13:17:08.588,74.20289855072464,0.1582731326715654,0.4186414454216439,0.5769142690240543,0.1991770894567698,3.0
2025-03-10 13:17:08.590,74.20289855072464,0.1521033077565057,0.4141410328058902,0.56624403147237,0.1834816568945662,3.0
2025-03-10 13:17:08.592,74.20289855072464,0.1446129893071897,0.4053533643669053,0.5499660446035746,0.1689006451871565,3.0
2025-03-10 13:17:08.594,74.20289855072464,0.1359244487108924,0.3929966832602014,0.5289208229394822,0.1547670626357585,3.0
2025-03-10 13:17:08.596,74.20289855072464,0.1261442840727396,0.3781539378848441,0.5042979129546025,0.140334497404566,3.0
2025-03-10 13:17:08.598,74.20289855072464,0.115417752331099,0.3618340446948059,0.4772514880179788,0.1252470644497869,3.0
2025-03-10 13:17:08.599,74.20289855072464,0.1040422026061045,0.3445439369128843,0.4485858304677535,0.1097788011393343,3.0
2025-03-10 13:17:08.601,74.20289855072464,0.0925140312986022,0.3261255056809791,0.4186392278632078,0.0947593962027912,3.0
2025-03-10 13:17:08.603,74.20289855072464,0.0813993129571741,0.3059907420419817,0.3873897458255173,0.0812248276212596,3.0
2025-03-10 13:17:08.605,74.20289855072464,0.0710788478223335,0.2836427497799813,0.3547212884070162,0.0699354145033876,3.0
2025-03-10 13:17:08.607,74.20289855072464,0.0615580138394657,0.2591527243199277,0.3207104289893896,0.0610145798355473,3.0
2025-03-10 13:17:08.609,74.20289855072464,0.052502490679246,0.2332671817708452,0.2857693633411157,0.0539442272871193,3.0
2025-03-10 13:17:08.611,74.20289855072464,0.0434887003910112,0.2070882954828172,0.250576686833227,0.0479267269202152,3.0
2025-03-10 13:17:08.613,74.20289855072464,0.0342968729864777,0.1815925264664068,0.2158890904568656,0.0423456719423086,3.0
2025-03-10 13:17:08.615,74.20289855072464,0.0250540861654316,0.1573433248772249,0.1823971020496424,0.0369894801449053,3.0
2025-03-10 13:17:08.617,74.20289855072464,0.0161578003497531,0.1345408611832658,0.1506983525064321,0.0319296644914651,3.0
2025-03-10 13:17:08.619,74.20289855072464,0.0080671945426032,0.1132550262400551,0.1213219117114379,0.0272546766458254,3.0
2025-03-10 13:17:08.621,74.20289855072464,0.001115389033835,0.0935899000569117,0.0947049799968598,0.0229483402722191,3.0
2025-03-10 13:17:08.623,74.20289855072464,-0.004563814923886,0.0756786569613689,0.0711145329662952,0.019006459077164,3.0
2025-03-10 13:17:08.625,74.20289855072464,-0.0090124628955828,0.0596013623185721,0.0505885904212441,0.015616803846029,3.0
2025-03-10 13:17:08.627,74.20289855072464,-0.0124070381770423,0.0453547339998986,0.0329473869155775,0.0131441558686388,3.0
2025-03-10 13:17:08.629,74.20289855072464,-0.0150498982055158,0.0328927460738768,0.0178425390467524,0.01186038274532,3.0
2025-03-10 13:17:08.631,74.20289855072464,-0.0173743383222879,0.0221526101423203,0.0047779630468856,0.0116633549232329,3.0
2025-03-10 13:17:08.633,74.20289855072464,-0.0199001919752296,0.0129941729014451,-0.0069063278437411,0.0120934414422518,3.0
2025-03-10 13:17:08.635,74.20289855072464,-0.0230884273998883,0.0050911035088657,-0.017997632686286,0.0126592375690781,3.0
2025-03-10 13:17:08.637,74.20289855072464,-0.0271125895194751,-0.0020978950399245,-0.0292107933753466,0.0131495689974158,3.0
2025-03-10 13:17:08.639,74.20289855072464,-0.0316691123122629,-0.0091818061033348,-0.0408512272153566,0.0136385198402567,3.0
2025-03-10 13:17:08.641,74.20289855072464,-0.0359989214878053,-0.0165606678114812,-0.052559898031627,0.0142361452269338,3.0
2025-03-10 13:17:08.642,74.20289855072464,-0.0391918667559985,-0.0242016049382248,-0.0633937803192936,0.0148752633889328,3.0
2025-03-10 13:17:08.644,74.20289855072464,-0.0406364936131034,-0.031651735788275,-0.0722885379108364,0.0153162543013235,3.0
2025-03-10 13:17:08.646,74.20289855072464,-0.0403459299382852,-0.0383136663115849,-0.0786599046706998,0.015299403612962,3.0
2025-03-10 13:17:08.648,74.20289855072464,-0.0389617996157897,-0.0438028755414753,-0.0827649835370187,0.0146786628026089,3.0
2025-03-10 13:17:08.650,74.20289855072464,-0.0374441762050305,-0.0481316080504337,-0.0855760926364536,0.0134588574193001,3.0
2025-03-10 13:17:08.652,74.20289855072464,-0.0366323802531936,-0.0516011729842016,-0.0882338616333205,0.0117662227097057,3.0
2025-03-10 13:17:08.654,74.20289855072464,-0.036908555985359,-0.0545173520208102,-0.0914262163935953,0.0098170274434028,3.0
2025-03-10 13:17:08.656,74.20289855072464,-0.0381162490309316,-0.0569656029912854,-0.0950821603516383,0.0079205621282516,3.0
2025-03-10 13:17:08.658,74.20289855072464,-0.0397375340726402,-0.0588050752541018,-0.0985429175476636,0.0064873934945128,3.0
2025-03-10 13:17:08.660,74.20289855072464,-0.0411978985092203,-0.0598578519424637,-0.1010560585386185,0.0059696301074783,3.0
2025-03-10 13:17:08.662,74.20289855072464,-0.0421281764615073,-0.0601334998221312,-0.1022619842492226,0.0067034407377556,3.0
2025-03-10 13:17:08.664,74.20289855072464,-0.0424765242903681,-0.0599191717296694,-0.1023960039080934,0.0087196658963017,3.0
2025-03-10 13:17:08.666,74.20289855072464,-0.0424585455418715,-0.0596736703847554,-0.1021325237885504,0.0116349748869917,3.0
2025-03-10 13:17:08.668,74.20289855072464,-0.0423984619530609,-0.0598063760770437,-0.1022051458968932,0.0147069099270705,3.0
2025-03-10 13:17:08.670,74.20289855072464,-0.0425469979773358,-0.0604834209530361,-0.1030307267951294,0.0170686675042879,3.0
2025-03-10 13:17:08.672,74.20289855072464,-0.0429661317194058,-0.0615541463861062,-0.1045205859259214,0.0180726267956515,3.0
2025-03-10 13:17:08.674,74.20289855072464,-0.0435291707416585,-0.0626186902640758,-0.1061481687254917,0.0175863226162213,3.0
2025-03-10 13:17:08.676,74.20289855072464,-0.0440110976977787,-0.0632207431585896,-0.1072321484344287,0.0160680750546411,3.0
2025-03-10 13:17:08.678,74.20289855072464,-0.0442009653795201,-0.0631035652877843,-0.1073048380994394,0.0143592822755952,3.0
2025-03-10 13:17:08.680,74.20289855072464,-0.0439880973570471,-0.0624015763445167,-0.1063899810225949,0.0133034674061859,3.0
2025-03-10 13:17:08.682,74.20289855072464,-0.0434129112595611,-0.0616387195886501,-0.1050519381134328,0.0133875333552179,3.0
2025-03-10 13:17:08.683,74.20289855072464,-0.0426786248618054,-0.0615045586036547,-0.1041834907208774,0.0145564298366564,3.0
2025-03-10 13:17:08.685,74.20289855072464,-0.0421045926357465,-0.0624984530782822,-0.1046033529711652,0.0162754436415828,3.0
2025-03-10 13:17:08.687,74.20289855072464,-0.0420103448020155,-0.0645961903049859,-0.1066068423358205,0.0178281226558881,3.0
2025-03-10 13:17:08.689,74.20289855072464,-0.0425610679273234,-0.0671098472581756,-0.1096712223294848,0.0186909572465208,3.0
2025-03-10 13:17:08.691,74.20289855072464,-0.0436487168619355,-0.0688826170065004,-0.1125316408740687,0.0187288479895872,3.0
2025-03-10 13:17:08.693,74.20289855072464,-0.0448872360692108,-0.0688257820885442,-0.1137133250028003,0.0180908487753192,3.0
2025-03-10 13:17:08.695,74.20289855072464,-0.0457502782792567,-0.0665615433810261,-0.1123121283657337,0.0169596594295588,3.0
2025-03-10 13:17:08.697,74.20289855072464,-0.0458031841296027,-0.0627614234734969,-0.1085649142221731,0.0154118466198213,3.0
2025-03-10 13:17:08.699,74.20289855072464,-0.0449223238870375,-0.0588949286668091,-0.1038175591436385,0.013483737106392,3.0
2025-03-10 13:17:08.701,74.20289855072464,-0.0433870807816723,-0.0564981457872828,-0.0998855331597152,0.0113354678601653,3.0
2025-03-10 13:17:08.703,74.20289855072464,-0.0417880176557824,-0.0564032465431006,-0.0981915707773159,0.0093604848710834,3.0
2025-03-10 13:17:08.705,74.20289855072464,-0.0407927687394756,-0.0583644408529719,-0.0991575161081142,0.0081457229989411,3.0
2025-03-10 13:17:08.707,74.20289855072464,-0.0408794260634155,-0.0612422517022569,-0.1021219841573102,0.0082422641105047,3.0
2025-03-10 13:17:08.709,74.20289855072464,-0.0421437213512734,-0.0636080660839355,-0.1057520936630979,0.0098061783145307,3.0
2025-03-10 13:17:08.711,74.20289855072464,-0.0442433047109864,-0.0644494826709121,-0.1086930934490427,0.0123471369975666,3.0
2025-03-10 13:17:08.713,74.20289855072464,-0.0465063252475368,-0.0636290461835983,-0.1101356773818453,0.0148768527476997,3.0
2025-03-10 13:17:08.715,74.20289855072464,-0.0481926423108656,-0.0618773220335116,-0.1100702702408247,0.0164767199424553,3.0
2025-03-10 13:17:08.717,74.20289855072464,-0.0488224991698008,-0.0603377215941212,-0.1091605266530027,0.0168882625823736,3.0
2025-03-10 13:17:08.719,74.20289855072464,-0.0484103429706792,-0.0599165964907395,-0.1083272453495394,0.0166242112966695,3.0
2025-03-10 13:17:08.721,74.20289855072464,-0.0474521753833322,-0.0608061113821137,-0.1082585926147378,0.0164849688705231,3.0
2025-03-10 13:17:08.723,74.20289855072464,-0.0466551556217979,-0.0624498804712166,-0.1091053418411266,0.0168987198366594,3.0
2025-03-10 13:17:08.725,74.20289855072464,-0.0465757502803072,-0.0639369708842208,-0.1105130267575776,0.0176508782634863,3.0
2025-03-10 13:17:08.726,74.20289855072464,-0.0473893310757028,-0.0645359948769674,-0.1119256313738537,0.0181768577552526,3.0
2025-03-10 13:17:08.728,74.20289855072464,-0.048895757295544,-0.064039774592479,-0.1129358371666197,0.0180657954155862,3.0
2025-03-10 13:17:08.730,74.20289855072464,-0.0506920943320071,-0.0627868172275449,-0.1134792167554484,0.0172999428144177,3.0
2025-03-10 13:17:08.732,74.20289855072464,-0.0523726047206053,-0.0614478025011308,-0.1138207123936349,0.0161158971599422,3.0
2025-03-10 13:17:08.734,74.20289855072464,-0.0536656133127072,-0.0607377685282153,-0.1144036870151265,0.0147658477919338,3.0
2025-03-10 13:17:08.736,74.20289855072464,-0.0544852398373012,-0.0611598357323036,-0.1156453807260016,0.0134544085891168,3.0
2025-03-10 13:17:08.738,74.20289855072464,-0.05490445765623,-0.0628297630363545,-0.1177345257753182,0.0124277540446685,3.0
2025-03-10 13:17:08.740,74.20289855072464,-0.0550728567316183,-0.0654227363428166,-0.1204958980216013,0.0120019237411385,3.0
2025-03-10 13:17:08.742,74.20289855072464,-0.0551253042406567,-0.0682743594465084,-0.1233999684637195,0.0124116317258188,3.0
2025-03-10 13:17:08.744,74.20289855072464,-0.0551308560623189,-0.0706154148294619,-0.1257465755081397,0.0135811718948558,3.0
2025-03-10 13:17:08.746,74.20289855072464,-0.0551045041308752,-0.0718484902331177,-0.1269532988704492,0.0150361749679282,3.0
2025-03-10 13:17:08.748,74.20289855072464,-0.0550622798524038,-0.0717428938699398,-0.1268054781823229,0.0160792156107662,3.0
2025-03-10 13:17:08.750,74.20289855072464,-0.0550637982334537,-0.0704736870780861,-0.1255377897679995,0.0161301208721065,3.0
2025-03-10 13:17:08.752,74.20289855072464,-0.0551940364803669,-0.0685257050260911,-0.1237200459593425,0.0150081779658728,3.0
2025-03-10 13:17:08.754,74.20289855072464,-0.0555026475476141,-0.0665301979222231,-0.1220331498765347,0.01301705184215,3.0
2025-03-10 13:17:08.756,74.20289855072464,-0.0559730602485011,-0.0650758069893051,-0.1210491715362351,0.0108430454296885,3.0
2025-03-10 13:17:08.758,74.20289855072464,-0.0565559843553002,-0.0645181533218248,-0.121074441819011,0.0093197648222766,3.0
2025-03-10 13:17:08.760,74.20289855072464,-0.0572149362196091,-0.0648483150167508,-0.1220635552129175,0.0090901930549117,3.0
2025-03-10 13:17:08.762,74.20289855072464,-0.0579113512282237,-0.0657023203712347,-0.123613975445877,0.0102615001989504,3.0
2025-03-10 13:17:08.764,74.20289855072464,-0.0585377504675737,-0.0665380439493267,-0.1250760981934469,0.0122584673611595,3.0
2025-03-10 13:17:08.766,74.20289855072464,-0.0588957231376653,-0.0669109264182771,-0.1258069533159875,0.0140376483327131,3.0
2025-03-10 13:17:08.767,74.20289855072464,-0.0587947211703359,-0.0667204626502174,-0.1255154875826912,0.0145930266903381,3.0
2025-03-10 13:17:08.769,74.20289855072464,-0.0582199557210709,-0.0663016651316007,-0.1245219245917266,0.0134649887882434,3.0
2025-03-10 13:17:08.771,74.20289855072464,-0.0574226497934984,-0.06629230667972,-0.1237152601346734,0.0109445622384612,3.0
2025-03-10 13:17:08.773,74.20289855072464,-0.0568386145924723,-0.0673068618866418,-0.1241457800089349,0.0078625376661527,3.0
2025-03-10 13:17:08.775,74.20289855072464,-0.0568859233349499,-0.0695602861128208,-0.1264465128214962,0.0051316129892785,3.0
2025-03-10 13:17:08.777,74.20289855072464,-0.0577765628158825,-0.0726464867825636,-0.1304233528340528,0.0033515755876029,3.0
2025-03-10 13:17:08.779,74.20289855072464,-0.0594354516789491,-0.0756263145223294,-0.1350620693492455,0.0026733393762634,3.0
2025-03-10 13:17:08.781,74.20289855072464,-0.0615306144448355,-0.0774178377089525,-0.1389487552700929,0.0028866637090079,3.0
2025-03-10 13:17:08.783,74.20289855072464,-0.0635801486168775,-0.0772993070729364,-0.1408797588066128,0.0035935867686789,3.0
2025-03-10 13:17:08.785,74.20289855072464,-0.0651127514607901,-0.0752586978643081,-0.1403717524348004,0.0043884893184322,3.0
2025-03-10 13:17:08.787,74.20289855072464,-0.0658485206495896,-0.0720097144313288,-0.1378585381418694,0.0050127404071168,3.0
2025-03-10 13:17:08.789,74.20289855072464,-0.0658243364265384,-0.0686852364801193,-0.1345098758668848,0.0054079309836759,3.0
2025-03-10 13:17:08.791,74.20289855072464,-0.0653830249327948,-0.0663861531239913,-0.1317694808826493,0.005595719070176,3.0
2025-03-10 13:17:08.793,74.20289855072464,-0.0650153713073046,-0.0658014980004799,-0.1308171720020527,0.0054770942226303,3.0
2025-03-10 13:17:08.795,74.20289855072464,-0.0651323349743431,-0.0670301149495363,-0.1321627525238126,0.0047944254189928,3.0
2025-03-10 13:17:08.797,74.20289855072464,-0.0658800103961261,-0.0696169104332276,-0.1354972233863839,0.0033710029287279,3.0
2025-03-10 13:17:08.799,74.20289855072464,-0.0670834247730829,-0.0727402682518464,-0.1398239955774093,0.0014149824425044,3.0
2025-03-10 13:17:08.801,74.20289855072464,-0.0683421821657867,-0.0754677032462477,-0.1438101879659509,-0.0004645234662037,3.0
2025-03-10 13:17:08.803,74.20289855072464,-0.0692246877901596,-0.0770272215374409,-0.1462522118554143,-0.0016258520660343,3.0
2025-03-10 13:17:08.805,74.20289855072464,-0.0694582712505061,-0.0770751844065512,-0.1465337581147081,-0.0018420085349346,3.0
2025-03-10 13:17:08.807,74.20289855072464,-0.0690268597633095,-0.0758985184718481,-0.1449256805874076,-0.0014169307410154,3.0
2025-03-10 13:17:08.808,74.20289855072464,-0.0681497259705305,-0.0743940687347272,-0.1425440969453157,-0.0008827383773875,3.0
2025-03-10 13:17:08.810,74.20289855072464,-0.0671762868359418,-0.0736996464604701,-0.1408762354493432,-0.0005766964999925,3.0
2025-03-10 13:17:08.812,74.20289855072464,-0.0664613771681274,-0.0745988148799292,-0.1410604941566892,-0.0004543349286873,3.0
2025-03-10 13:17:08.814,74.20289855072464,-0.0662684696551119,-0.0770651991291063,-0.143333970885901,-0.0002524697506607,3.0
2025-03-10 13:17:08.816,74.20289855072464,-0.0667025504628788,-0.0802570994947091,-0.1469599520649299,0.0001556371352472,3.0
2025-03-10 13:17:08.818,74.20289855072464,-0.0676609938526107,-0.0829495921063555,-0.1506108880550655,0.0005142324051762,3.0
2025-03-10 13:17:08.820,74.20289855072464,-0.0688302476548519,-0.0841174042637548,-0.1529479539688986,0.0002871330530514,3.0
2025-03-10 13:17:08.822,74.20289855072464,-0.0697755456038499,-0.0833621781352968,-0.1531380257126677,-0.0009429418952022,3.0
2025-03-10 13:17:08.824,74.20289855072464,-0.0701165235103256,-0.0810273385798743,-0.1511441639780108,-0.0031165028373887,3.0
2025-03-10 13:17:08.826,74.20289855072464,-0.0697077979416052,-0.0779970498210821,-0.1477051495831556,-0.0056892789642307,3.0
2025-03-10 13:17:08.828,74.20289855072464,-0.068727419233717,-0.0752858161125872,-0.1440135371346648,-0.0079650381122608,3.0
2025-03-10 13:17:08.830,74.20289855072464,-0.067623614755974,-0.0736066041235393,-0.1412305206681362,-0.0094912219072576,3.0
2025-03-10 13:17:08.832,74.20289855072464,-0.0669395214690555,-0.0731176271179357,-0.1400574503879574,-0.0102331382276452,3.0
2025-03-10 13:17:08.834,74.20289855072464,-0.0670915132490143,-0.073446614769266,-0.140538429818302,-0.0104390658665384,3.0
2025-03-10 13:17:08.836,74.20289855072464,-0.0681993050894696,-0.0739368082976662,-0.1421364151575333,-0.0103393808426873,3.0
2025-03-10 13:17:08.838,74.20289855072464,-0.0700421391139665,-0.0739697493032708,-0.14401219013287,-0.0099376271379617,3.0
2025-03-10 13:17:08.840,74.20289855072464,-0.072153085004708,-0.0732323877041782,-0.1453857743647449,-0.0090597429942172,3.0
2025-03-10 13:17:08.842,74.20289855072464,-0.073998840285899,-0.0718490088500258,-0.1458481507515307,-0.0075898938176464,3.0
2025-03-10 13:17:08.844,74.20289855072464,-0.0751591945012866,-0.0703411843601099,-0.1455006804703791,-0.0056642113614754,3.0
2025-03-10 13:17:08.846,74.20289855072464,-0.07543290951649,-0.0694181642806984,-0.1448513754282318,-0.0036739833747779,3.0
2025-03-10 13:17:08.848,74.20289855072464,-0.0748521830174433,-0.0696557378960798,-0.1445082225740969,-0.0021186597843893,3.0
2025-03-10 13:17:08.850,74.20289855072464,-0.0736420790254175,-0.0711919851428493,-0.1448343658410711,-0.0014157689353067,3.0
2025-03-10 13:17:08.851,74.20289855072464,-0.0721560667864825,-0.0736159627698749,-0.1457723312109695,-0.0017266290834829,3.0
2025-03-10 13:17:08.853,74.20289855072464,-0.0707788592680611,-0.0761707433900522,-0.1469499042712106,-0.0028630692873544,3.0
2025-03-10 13:17:08.855,74.20289855072464,-0.0697978689755571,-0.0781935774089465,-0.1479917479566375,-0.0043759287170149,3.0
2025-03-10 13:17:08.857,74.20289855072464,-0.0693050181441418,-0.0794953596692542,-0.1488006793719211,-0.0058175860580985,3.0
2025-03-10 13:17:08.859,74.20289855072464,-0.0692072375991801,-0.0803733910496605,-0.1495809302345349,-0.0069766852915475,3.0
2025-03-10 13:17:08.861,74.20289855072464,-0.0693490342286699,-0.0812337965534618,-0.1505831324267694,-0.0078685684692198,3.0
2025-03-10 13:17:08.863,74.20289855072464,-0.0696505274174664,-0.0821409624016754,-0.1517917915271073,-0.0084957582714378,3.0
2025-03-10 13:17:08.865,74.20289855072464,-0.0701452492160655,-0.082685645944871,-0.1528311969062497,-0.0086316236301517,3.0
2025-03-10 13:17:08.867,74.20289855072464,-0.0708932846699289,-0.0822952559820039,-0.1531888423934752,-0.0078760272917072,3.0
2025-03-10 13:17:08.869,74.20289855072464,-0.0718603384265633,-0.0807387482774277,-0.1525993884110249,-0.0059807991286663,3.0
2025-03-10 13:17:08.871,74.20289855072464,-0.0728769262395829,-0.0784244740879872,-0.1513017020010264,-0.003184881841868,3.0
2025-03-10 13:17:08.873,74.20289855072464,-0.0737081895888748,-0.0762686939335857,-0.1499771851990449,-0.0002711608433468,3.0
2025-03-10 13:17:08.875,74.20289855072464,-0.0741697754854365,-0.0752413678057379,-0.1494114450266336,0.0017381082419667,3.0
2025-03-10 13:17:08.877,74.20289855072464,-0.0742078311029052,-0.0758896408168738,-0.1500977737596667,0.0020786062620769,3.0
2025-03-10 13:17:08.879,74.20289855072464,-0.0739090023909166,-0.0780979737682034,-0.1520072781132725,0.000636659663916,3.0
2025-03-10 13:17:08.881,74.20289855072464,-0.0734513688147269,-0.0811720767263163,-0.1546237475768994,-0.0020027818340823,3.0
2025-03-10 13:17:08.883,74.20289855072464,-0.0730238604158613,-0.0841613961345655,-0.1571855586104175,-0.0048802702717031,3.0
2025-03-10 13:17:08.885,74.20289855072464,-0.0727480573527449,-0.0862393729982902,-0.1589877323857182,-0.0071450668131899,3.0
2025-03-10 13:17:08.887,74.20289855072464,-0.0726364612934044,-0.0869773211212463,-0.1596140844136667,-0.0083980441876852,3.0
2025-03-10 13:17:08.889,74.20289855072464,-0.0726086611461313,-0.0864368614466661,-0.159045824595797,-0.0087289553908839,3.0
2025-03-10 13:17:08.891,74.20289855072464,-0.0725666005483669,-0.0850843919958415,-0.1576512946241688,-0.0085047814206795,3.0
2025-03-10 13:17:08.892,74.20289855072464,-0.0724980962016594,-0.0835757652584054,-0.156074163686621,-0.0080979846642387,3.0
2025-03-10 13:17:08.894,74.20289855072464,-0.0725338092740014,-0.0824929061142938,-0.1550270177904922,-0.0077184037593376,3.0
2025-03-10 13:17:08.896,74.20289855072464,-0.0728801635680825,-0.0821271388734921,-0.1550076049909553,-0.0073868217654536,3.0
2025-03-10 13:17:08.898,74.20289855072464,-0.0736406950314474,-0.082382551586493,-0.1560235492426957,-0.0069966164012662,3.0
2025-03-10 13:17:08.900,74.20289855072464,-0.0746562633183498,-0.0828400248932673,-0.1574965908357631,-0.0064264601686557,3.0
2025-03-10 13:17:08.902,74.20289855072464,-0.0755054032646185,-0.0829863022043424,-0.158492008056213,-0.0056944296292284,3.0
2025-03-10 13:17:08.904,74.20289855072464,-0.0756854627760913,-0.082537014396426,-0.1582227797508121,-0.0050796593129103,3.0
2025-03-10 13:17:08.906,74.20289855072464,-0.0748661608025767,-0.0816745157887827,-0.1565409792434201,-0.0050725507029346,3.0
2025-03-10 13:17:08.908,74.20289855072464,-0.0730781092116632,-0.0809952966211524,-0.1540737086561532,-0.0060984348336435,3.0
2025-03-10 13:17:08.910,74.20289855072464,-0.0707535275025342,-0.0811302924507638,-0.1518841230100322,-0.0081610678460362,3.0
2025-03-10 13:17:08.912,74.20289855072464,-0.0686027183535436,-0.0822825980639346,-0.15088561970093,-0.0106774103416275,3.0
2025-03-10 13:17:08.914,74.20289855072464,-0.0673576159157542,-0.084048825179815,-0.1514067445326608,-0.012677421856015,3.0
2025-03-10 13:17:08.916,74.20289855072464,-0.0674588229082997,-0.0856787578044577,-0.1531378842025742,-0.0132760831656793,3.0
2025-03-10 13:17:08.918,74.20289855072464,-0.0688150582024265,-0.0865568853502455,-0.1553722470218809,-0.0121153032910964,3.0
2025-03-10 13:17:08.920,74.20289855072464,-0.0707837365763807,-0.0865266113978336,-0.1573106514200632,-0.0095111032345471,3.0
2025-03-10 13:17:08.922,74.20289855072464,-0.072441982396433,-0.0858687031381223,-0.1583109890317109,-0.0062743332169539,3.0
2025-03-10 13:17:08.924,74.20289855072464,-0.0730427560925771,-0.0850573030915793,-0.1581003628502376,-0.0033644941175453,3.0
2025-03-10 13:17:08.926,74.20289855072464,-0.0723981306798997,-0.0845340681750398,-0.1569325027916748,-0.0015492614870478,3.0
2025-03-10 13:17:08.928,74.20289855072464,-0.070942809659315,-0.0846105783505386,-0.1555536922505294,-0.0011667333474929,3.0
2025-03-10 13:17:08.930,74.20289855072464,-0.0694355856328061,-0.0854343347779533,-0.1548702249023305,-0.0020496886105572,3.0
2025-03-10 13:17:08.932,74.20289855072464,-0.0685087414545771,-0.0869262221438466,-0.1554352682290447,-0.0036505277418865,3.0
2025-03-10 13:17:08.933,74.20289855072464,-0.0683637052774956,-0.088708716686578,-0.1570727266228639,-0.0053189272657294,3.0
2025-03-10 13:17:08.935,74.20289855072464,-0.0687739600890469,-0.0901383062920586,-0.1589125710193341,-0.0065679928443376,3.0
2025-03-10 13:17:08.937,74.20289855072464,-0.0693313347305818,-0.0905157577648979,-0.1598473971566713,-0.0071675582731064,3.0
2025-03-10 13:17:08.939,74.20289855072464,-0.0697307747387509,-0.0894093748926633,-0.1591404544334904,-0.0070676454050578,3.0
2025-03-10 13:17:08.941,74.20289855072464,-0.0699050211465806,-0.0869196925453365,-0.1568250187695074,-0.0062998455334508,3.0
2025-03-10 13:17:08.943,74.20289855072464,-0.0699593012352492,-0.0837250009237351,-0.1536846075953949,-0.0049629021166666,3.0
2025-03-10 13:17:08.945,74.20289855072464,-0.070004359545003,-0.080852883439924,-0.150857548769469,-0.0032618357241888,3.0
2025-03-10 13:17:08.947,74.20289855072464,-0.0700358294751481,-0.0792524938431649,-0.1492886293521207,-0.0015183521274587,3.0
2025-03-10 13:17:08.949,74.20289855072464,-0.0699440536326099,-0.0793473217708782,-0.1492916815518619,-0.0001203967249184,3.0
2025-03-10 13:17:08.951,74.20289855072464,-0.0696289350188932,-0.0807932603746539,-0.1504225015582528,0.0005697011089403,3.0
2025-03-10 13:17:08.953,74.20289855072464,-0.0691197915651841,-0.0826052823909139,-0.1517253801299987,0.0003250025652193,3.0
2025-03-10 13:17:08.955,74.20289855072464,-0.0686043942675953,-0.0836369865022866,-0.1522416870448568,-0.0008397914349097,3.0
2025-03-10 13:17:08.957,74.20289855072464,-0.0683416079706906,-0.0831872892747535,-0.1515292037685888,-0.0026168042099488,3.0
2025-03-10 13:17:08.959,74.20289855072464,-0.0685132783468414,-0.081408136534923,-0.1499217217819627,-0.0044764544149512,3.0
2025-03-10 13:17:08.961,74.20289855072464,-0.0691112868207486,-0.0792684849620827,-0.1483800791056981,-0.005872608148966,3.0
2025-03-10 13:17:08.963,74.20289855072464,-0.06993676268694,-0.0780542869912468,-0.1479913573635636,-0.0064872840962986,3.0
2025-03-10 13:17:08.965,74.20289855072464,-0.0707195668107441,-0.0786476524230755,-0.1493675271481816,-0.0063684035733753,3.0
2025-03-10 13:17:08.967,74.20289855072464,-0.0712789191288863,-0.0809870095178439,-0.1522662366542566,-0.0058748682416196,3.0
2025-03-10 13:17:08.969,74.20289855072464,-0.0716048518589298,-0.084034384812087,-0.1556395447066434,-0.0054773754168296,3.0
2025-03-10 13:17:08.971,74.20289855072464,-0.071803294458266,-0.0862797544142981,-0.1580833569788978,-0.0055575621028279,3.0
2025-03-10 13:17:08.973,74.20289855072464,-0.0719713158850581,-0.0864959932915016,-0.1584676174850565,-0.0063051190306806,3.0
2025-03-10 13:17:08.975,74.20289855072464,-0.072118620853439,-0.0843440416892715,-0.156462971208474,-0.0076813962853614,3.0
2025-03-10 13:17:08.976,74.20289855072464,-0.0721767775087913,-0.0805540660158548,-0.152731152648499,-0.0093809955998852,3.0
2025-03-10 13:17:08.978,74.20289855072464,-0.0720498040348399,-0.0766319267854142,-0.1486820403985987,-0.0108372247725488,3.0
2025-03-10 13:17:08.980,74.20289855072464,-0.0716592889454388,-0.0742272579614255,-0.145886856835564,-0.0113910611287466,3.0
2025-03-10 13:17:08.982,74.20289855072464,-0.0709818917091515,-0.0744159000864966,-0.1453981019261077,-0.0106171165674178,3.0
2025-03-10 13:17:08.984,74.20289855072464,-0.0700870828338238,-0.0771900766801233,-0.1472774697323561,-0.0086104574568409,3.0
2025-03-10 13:17:08.986,74.20289855072464,-0.0691585752425832,-0.0813927975941213,-0.1505516831252829,-0.0060274924459773,3.0
2025-03-10 13:17:08.988,74.20289855072464,-0.0684652911689881,-0.085169556055187,-0.1536351576725948,-0.003847028274657,3.0
2025-03-10 13:17:08.990,74.20289855072464,-0.068258868212609,-0.0867772078118687,-0.1550363867855742,-0.0029761400545559,3.0
2025-03-10 13:17:08.992,74.20289855072464,-0.0686199941519339,-0.0853881895529417,-0.1540084949177559,-0.0038742669732149,3.0
2025-03-10 13:17:08.994,74.20289855072464,-0.0693396172535603,-0.0814874235782292,-0.1508273525523452,-0.0063608075207024,3.0
2025-03-10 13:17:08.996,74.20289855072464,-0.0699496430996378,-0.0766400270455917,-0.1465899823200739,-0.0097067616391169,3.0
2025-03-10 13:17:08.998,74.20289855072464,-0.069948633223177,-0.0727393585104813,-0.1426883042307743,-0.012958520087654,3.0
2025-03-10 13:17:09.000,74.20289855072464,-0.069110843336004,-0.0711411545530716,-0.1402523105689076,-0.0153124452362818,3.0
2025-03-10 13:17:09.002,74.20289855072464,-0.0676534104755623,-0.0721451694515267,-0.1397988927169085,-0.0163830833368672,3.0
2025-03-10 13:17:09.004,74.20289855072464,-0.0661125864054188,-0.0750467286892169,-0.1411596280276065,-0.0163145086549124,3.0
2025-03-10 13:17:09.006,74.20289855072464,-0.0650089783721753,-0.0786306174284315,-0.1436399089996661,-0.0157220512357498,3.0
2025-03-10 13:17:09.008,74.20289855072464,-0.0645495758297796,-0.0817747968330311,-0.1463246862783467,-0.0154324399026135,3.0
2025-03-10 13:17:09.010,74.20289855072464,-0.0645668639763842,-0.0838624374325305,-0.148429615543108,-0.0160553919662964,3.0
2025-03-10 13:17:09.012,74.20289855072464,-0.0646938293826666,-0.084873237301246,-0.1495673813411073,-0.0175943126145079,3.0
2025-03-10 13:17:09.014,74.20289855072464,-0.0646087015308275,-0.0852047798563306,-0.1498137964755701,-0.0193889361644672,3.0
2025-03-10 13:17:09.016,74.20289855072464,-0.0641811747658674,-0.0853815203579758,-0.1495630105068751,-0.0204886964871383,3.0
2025-03-10 13:17:09.017,74.20289855072464,-0.0634707068508177,-0.0858165791534701,-0.1492876015740034,-0.0202036808630774,3.0
2025-03-10 13:17:09.019,74.20289855072464,-0.0626376847432789,-0.0867112132143364,-0.149349213691917,-0.0184254211433454,3.0
2025-03-10 13:17:09.021,74.20289855072464,-0.0618554075739092,-0.0880643095631844,-0.1499200331113299,-0.0155362588561887,3.0
2025-03-10 13:17:09.023,74.20289855072464,-0.0612674186190535,-0.0897048111009657,-0.150972546067992,-0.0121041030604491,3.0
2025-03-10 13:17:09.025,74.20289855072464,-0.0609745731993461,-0.0912966709528008,-0.1522715609978573,-0.0086908584544363,3.0
2025-03-10 13:17:09.027,74.20289855072464,-0.0610175863353291,-0.0923558771474041,-0.1533737808789149,-0.005878046632011,3.0
2025-03-10 13:17:09.029,74.20289855072464,-0.0613551022317167,-0.0923713842330908,-0.15372680436991,-0.0043120369338564,3.0
2025-03-10 13:17:09.031,74.20289855072464,-0.0618667137883851,-0.091059871016416,-0.1529269031093187,-0.0045333781510273,3.0
2025-03-10 13:17:09.033,74.20289855072464,-0.0623904480873334,-0.0886290149865503,-0.1510197816610062,-0.006631644014751,3.0
2025-03-10 13:17:09.035,74.20289855072464,-0.062775435481715,-0.0858263927990932,-0.1486021470889469,-0.010051390309351,3.0
2025-03-10 13:17:09.037,74.20289855072464,-0.0629380446170929,-0.0836418299585342,-0.1465801936303357,-0.0138075489825091,3.0
2025-03-10 13:17:09.039,74.20289855072464,-0.0629144496817171,-0.0827620056163226,-0.1456767746977519,-0.0169949394940483,3.0
2025-03-10 13:17:09.041,74.20289855072464,-0.062867024785678,-0.0830851188016349,-0.1459524634518429,-0.0192149414514996,3.0
2025-03-10 13:17:09.043,74.20289855072464,-0.0629917681496845,-0.0836489957155325,-0.1466410842750531,-0.0206369639675887,3.0
2025-03-10 13:17:09.045,74.20289855072464,-0.0633534222667237,-0.0831337063412226,-0.1464874495662141,-0.0216999406222126,3.0
2025-03-10 13:17:09.047,74.20289855072464,-0.0637715482085983,-0.0807208025838657,-0.1444926722284881,-0.0226927395383926,3.0
2025-03-10 13:17:09.049,74.20289855072464,-0.0638706079005332,-0.0767645457226972,-0.1406354754342249,-0.0235191855819848,3.0
2025-03-10 13:17:09.051,74.20289855072464,-0.0632830688944163,-0.0727531589359469,-0.1360365499380051,-0.0238071233577479,3.0
2025-03-10 13:17:09.053,74.20289855072464,-0.0618673104285981,-0.0704678109458199,-0.1323354437661895,-0.0232359470422594,3.0
2025-03-10 13:17:09.055,74.20289855072464,-0.0597761058996081,-0.0707878618613708,-0.1305642904953516,-0.0217885809695922,3.0
2025-03-10 13:17:09.057,74.20289855072464,-0.0573093873121864,-0.0728583559254011,-0.1301680664119306,-0.0197523795732657,3.0
2025-03-10 13:17:09.058,74.20289855072464,-0.0546490796944546,-0.0741780975553629,-0.1288275009495143,-0.0175460953965277,3.0
2025-03-10 13:17:09.060,74.20289855072464,-0.051691168998724,-0.0716906159582834,-0.1233821092133204,-0.0155620706798146,3.0
2025-03-10 13:17:09.062,74.20289855072464,-0.0481491128785362,-0.0633945532088964,-0.1115439908658194,-0.0141090212470078,3.0
2025-03-10 13:17:09.064,74.20289855072464,-0.0438940584097341,-0.0496250447608985,-0.0935194283941712,-0.0133752070646575,3.0
2025-03-10 13:17:09.066,74.20289855072464,-0.0392719590299646,-0.0332618562159985,-0.0725341408397916,-0.0132913491071405,3.0
2025-03-10 13:17:09.068,74.20289855072464,-0.035099414258917,-0.0187102545956198,-0.0538099947867644,-0.0133015628454025,3.0
2025-03-10 13:17:09.070,74.20289855072464,-0.032247678929626,-0.0102046984791461,-0.0424527037063755,-0.0122309068743505,3.0
2025-03-10 13:17:09.072,74.20289855072464,-0.031034948080701,-0.0102965624648717,-0.041331837278141,-0.0084945772362697,3.0
2025-03-10 13:17:09.074,74.20289855072464,-0.030839645507494,-0.0191302345312003,-0.0499702072803792,-0.0007306209471383,3.0
2025-03-10 13:17:09.076,74.20289855072464,-0.0302609226023236,-0.0345932551591798,-0.0648545055526676,0.0113632294040884,3.0
2025-03-10 13:17:09.078,74.20289855072464,-0.0277958778590511,-0.0530891693682845,-0.0808853755564818,0.0264341040357194,3.0
2025-03-10 13:17:09.080,74.20289855072464,-0.0226212169452996,-0.0706622898931424,-0.093283835653072,0.0415392735841161,3.0
2025-03-10 13:17:09.082,74.20289855072464,-0.0149888052500646,-0.0842549036680843,-0.0992440381571478,0.0529921564589861,3.0
2025-03-10 13:17:09.084,74.20289855072464,-0.006049622856332,-0.0927403552613264,-0.0987903077464961,0.0576845655625696,3.0
2025-03-10 13:17:09.086,74.20289855072464,0.0026734975269891,-0.0971922406369095,-0.0945190731393244,0.0542818087849814,3.0
2025-03-10 13:17:09.088,74.20289855072464,0.0097923326151755,-0.1000611639518461,-0.0902691618153681,0.0437141039927344,3.0
2025-03-10 13:17:09.090,74.20289855072464,0.0143355480168682,-0.1036294576813262,-0.089294240651242,0.0287425105384724,3.0
2025-03-10 13:17:09.092,74.20289855072464,0.0158467710850764,-0.1087129972995748,-0.0928665577460292,0.0128562916877491,3.0
2025-03-10 13:17:09.094,74.20289855072464,0.0144134910828417,-0.114433741182917,-0.1000205821725073,-0.0009352273121962,3.0
2025-03-10 13:17:09.096,74.20289855072464,0.0106534071414194,-0.1191016736694925,-0.1084485991021995,-0.0109001483719776,3.0
2025-03-10 13:17:09.098,74.20289855072464,0.0055923258275776,-0.1215196758553126,-0.1159276830538738,-0.0167429125593545,3.0
2025-03-10 13:17:09.100,74.20289855072464,0.0003781415874717,-0.1218611213127956,-0.1214833131732416,-0.0191851517230927,3.0
2025-03-10 13:17:09.101,74.20289855072464,-0.0041094197768401,-0.1216345327878673,-0.1257442864414917,-0.0192471544428676,3.0
2025-03-10 13:17:09.103,74.20289855072464,-0.0075572155222274,-0.1228196302415011,-0.1303771801097607,-0.0176552067546006,3.0
2025-03-10 13:17:09.105,74.20289855072464,-0.0102147447407595,-0.1266990864837893,-0.1369141660903275,-0.0147252908192098,3.0
2025-03-10 13:17:09.107,74.20289855072464,-0.012559857267237,-0.1330220925504711,-0.1455822852350654,-0.0107119483609362,3.0
2025-03-10 13:17:09.109,74.20289855072464,-0.0148594650602178,-0.1399326794233501,-0.1547924804478148,-0.0062441547476154,3.0
2025-03-10 13:17:09.111,74.20289855072464,-0.0169433507110806,-0.1447299752977428,-0.1616736624819818,-0.0024383150893123,3.0
2025-03-10 13:17:09.113,74.20289855072464,-0.0183548471665518,-0.1451540192482519,-0.1635092033480471,-0.0005676003789158,3.0
2025-03-10 13:17:09.115,74.20289855072464,-0.0187758271262189,-0.1406233406090551,-0.1593995050977902,-0.0014832590255417,3.0
2025-03-10 13:17:09.117,74.20289855072464,-0.0184358486275688,-0.1327833939043136,-0.1512195803297049,-0.0051196208432849,3.0
2025-03-10 13:17:09.119,74.20289855072464,-0.0182079270677026,-0.1249459960142591,-0.1431542613559116,-0.0103768782813867,3.0
2025-03-10 13:17:09.121,74.20289855072464,-0.0192721422367892,-0.1205324994228625,-0.1398049804632365,-0.0155193072575282,3.0
2025-03-10 13:17:09.123,74.20289855072464,-0.0225061323307472,-0.1212716776050948,-0.1437781493052733,-0.0189585557635908,3.0
2025-03-10 13:17:09.125,74.20289855072464,-0.027962056481198,-0.1261939279047087,-0.1541563243190086,-0.0200126980510289,3.0
2025-03-10 13:17:09.127,74.20289855072464,-0.0347536674546945,-0.1320824823840223,-0.1668364902948029,-0.0191879645810173,3.0
2025-03-10 13:17:09.129,74.20289855072464,-0.0414118268440152,-0.1351914030819538,-0.1766035708472766,-0.0178305368972044,3.0
2025-03-10 13:17:09.131,74.20289855072464,-0.0464768528919915,-0.1333002330800995,-0.1797774273153908,-0.0173956218466266,3.0
2025-03-10 13:17:09.133,74.20289855072464,-0.0490151806886493,-0.1269908003009087,-0.1760063227506809,-0.0187486360380654,3.0
2025-03-10 13:17:09.135,74.20289855072464,-0.0488927857455453,-0.1194391947396545,-0.1683323227027563,-0.0218066279152398,3.0
2025-03-10 13:17:09.137,74.20289855072464,-0.0468001314529389,-0.1147623002594855,-0.161562774448094,-0.0256319107413983,3.0
2025-03-10 13:17:09.139,74.20289855072464,-0.0440524351214333,-0.1157061846511467,-0.1597589630780771,-0.0289166204660742,3.0
2025-03-10 13:17:09.141,74.20289855072464,-0.0421650019897696,-0.1218924395499795,-0.1640577854280316,-0.030634606251555,3.0
2025-03-10 13:17:09.142,74.20289855072464,-0.0422674855628451,-0.1296970722513867,-0.171964902250611,-0.0305205383297811,3.0
2025-03-10 13:17:09.144,74.20289855072464,-0.0445607386214145,-0.1340707827317967,-0.1786318662716577,-0.0290799508397253,3.0
2025-03-10 13:17:09.146,74.20289855072464,-0.0480924480562675,-0.1315303572066052,-0.1796231505994471,-0.0270668383260594,3.0
2025-03-10 13:17:09.148,74.20289855072464,-0.0510217058556707,-0.1227751300957056,-0.173797181677433,-0.0246665759849166,3.0
2025-03-10 13:17:09.150,74.20289855072464,-0.0512956013461892,-0.1134230900587001,-0.1647190375424885,-0.0208318638156461,3.0
2025-03-10 13:17:09.152,74.20289855072464,-0.0474465835396346,-0.112227266029178,-0.1596741961798288,-0.0132043520295161,3.0
2025-03-10 13:17:09.154,74.20289855072464,-0.039188270782127,-0.127349839462946,-0.1665384573991359,0.0012440529317442,3.0
2025-03-10 13:17:09.156,74.20289855072464,-0.0276133510719515,-0.16223415080452,-0.189847849614017,0.0251352697948003,3.0
2025-03-10 13:17:09.158,74.20289855072464,-0.0149342517146482,-0.2129069250753729,-0.2278415250995398,0.0596498897348278,3.0
2025-03-10 13:17:09.160,74.20289855072464,-0.0037842884756221,-0.2680487706914123,-0.2718334079885436,0.1038091181625365,3.0
2025-03-10 13:17:09.162,74.20289855072464,0.0038127984227508,-0.3120474595688864,-0.3082350103995539,0.1540431151621318,3.0
2025-03-10 13:17:09.164,74.20289855072464,0.0075143392954826,-0.3298979925767087,-0.3223840029055121,0.2040306184273396,3.0
2025-03-10 13:17:09.166,74.20289855072464,0.0092955738316831,-0.3118719180445901,-0.3025766941961191,0.2451383197483312,3.0
2025-03-10 13:17:09.168,74.20289855072464,0.0132225906359304,-0.2559635476519643,-0.2427413074008411,0.2679090151410222,3.0
2025-03-10 13:17:09.170,74.20289855072464,0.0243119361592557,-0.167283478113229,-0.1429718928154555,0.2644778972497486,3.0
2025-03-10 13:17:09.172,74.20289855072464,0.0469064395256738,-0.0550749675591404,-0.00816887944007,0.2308559630794855,3.0
2025-03-10 13:17:09.174,74.20289855072464,0.0832045107092066,0.0710827533782683,0.1542869121102927,0.1676483880986735,3.0
2025-03-10 13:17:09.176,74.20289855072464,0.1324041628140403,0.2044418755459482,0.3368456858450271,0.0785959086251404,3.0
2025-03-10 13:17:09.178,74.20289855072464,0.190605444157678,0.3429043760099418,0.5335094671921615,-0.0321425800001965,3.0
2025-03-10 13:17:09.180,74.20289855072464,0.2514368992319227,0.4893619912010188,0.7407985370825422,-0.1621240034338812,3.0
2025-03-10 13:17:09.182,74.20289855072464,0.3073221191188756,0.6505495151320967,0.957871280578811,-0.310858974696251,3.0
2025-03-10 13:17:09.184,74.20289855072464,0.3511762661059416,0.8342965432857711,1.185472455393913,-0.4782888571014104,3.0
2025-03-10 13:17:09.185,74.20289855072464,0.3780848910335088,1.0451326401995606,1.4232171768525474,-0.6627187986954901,3.0
2025-03-10 13:17:09.187,74.20289855072464,0.3863671728380054,1.278761285458123,1.665128103453248,-0.8593975158941104,3.0
2025-03-10 13:17:09.189,74.20289855072464,0.37754703945462,1.517117605582546,1.8946642896719363,-1.060088910537771,3.0
2025-03-10 13:17:09.191,74.20289855072464,0.3551836230313598,1.727045347022259,2.082228614158244,-1.2532000112867523,3.0
2025-03-10 13:17:09.193,74.20289855072464,0.3231118491786723,1.8656192089577432,2.1887307017617657,-1.4240677085277358,3.0
2025-03-10 13:17:09.195,74.20289855072464,0.2840616115377503,1.892572805459357,2.176634060229833,-1.555818307142526,3.0
2025-03-10 13:17:09.197,74.20289855072464,0.2394587125784968,1.7859323067719712,2.025390662272309,-1.6318124188230256,3.0
2025-03-10 13:17:09.199,74.20289855072464,0.1904381106707022,1.5536651937010648,1.7441029470216145,-1.6400084230839396,3.0
2025-03-10 13:17:09.201,74.20289855072464,0.1392350971817466,1.2347475664080525,1.373982305947599,-1.5777956099143218,3.0
2025-03-10 13:17:09.203,74.20289855072464,0.0898161071014281,0.8878845312938572,0.9777002803956628,-1.4545868270462732,3.0
2025-03-10 13:17:09.205,74.20289855072464,0.0471194125984318,0.572563194499125,0.6196822486659198,-1.2902006535311576,3.0
2025-03-10 13:17:09.207,74.20289855072464,0.0152732346677555,0.3311613249587244,0.3464342007190554,-1.109417374861413,3.0
2025-03-10 13:17:09.209,74.20289855072464,-0.0040619901891298,0.1797370328897634,0.1756746833282133,-0.935158472199147,3.0
2025-03-10 13:17:09.211,74.20289855072464,-0.0121562530706793,0.1097176426638311,0.0975610298170073,-0.7830846100589733,3.0
2025-03-10 13:17:09.213,74.20289855072464,-0.0123079609014909,0.0970391123411986,0.0847307913424561,-0.6592608505761907,3.0
2025-03-10 13:17:09.215,74.20289855072464,-0.0083352388101748,0.1130547470066143,0.104719147843183,-0.561083083138407,3.0
2025-03-10 13:17:09.217,74.20289855072464,-0.0033957477701067,0.1329837595505916,0.1295876511899563,-0.4806383385438416,3.0
2025-03-10 13:17:09.219,74.20289855072464,0.0004611416766979,0.1404397382920154,0.1409005191084609,-0.4090562278805532,3.0
2025-03-10 13:17:09.221,74.20289855072464,0.0022033244459314,0.1285420356264033,0.1307449988794191,-0.3401716123081505,3.0
2025-03-10 13:17:09.223,74.20289855072464,0.001579601384775,0.0987278160372765,0.1003070558379078,-0.2722266321833695,3.0
2025-03-10 13:17:09.225,74.20289855072464,-0.0010365126019619,0.0581830215142309,0.0571461469138208,-0.2073599797518836,3.0
2025-03-10 13:17:09.226,74.20289855072464,-0.0047542784334549,0.0165247947094035,0.011770153887763,-0.1496576577625932,3.0
2025-03-10 13:17:09.228,74.20289855072464,-0.0083676565782391,-0.0176302396618932,-0.0259982589576835,-0.102950605089703,3.0
2025-03-10 13:17:09.230,74.20289855072464,-0.010710632886312,-0.0393986418531668,-0.0501096377189275,-0.0692736660042989,3.0
2025-03-10 13:17:09.232,74.20289855072464,-0.0110678256575137,-0.0488494736967783,-0.0599176625515944,-0.0483295739086448,3.0
2025-03-10 13:17:09.234,74.20289855072464,-0.0094622817134836,-0.0503065554906773,-0.0597692006159774,-0.0378011867759401,3.0
2025-03-10 13:17:09.236,74.20289855072464,-0.0066774581517806,-0.0500590793969739,-0.0567369012088966,-0.0341118693017786,3.0
2025-03-10 13:17:09.238,74.20289855072464,-0.003968133784081,-0.0534854306106883,-0.0574539283529364,-0.0332898979079743,3.0
2025-03-10 13:17:09.240,74.20289855072464,-0.0025373003243881,-0.0628384062846638,-0.0653760709034134,-0.0317983074313698,3.0
2025-03-10 13:17:09.242,74.20289855072464,-0.0029849880690802,-0.0766122814987659,-0.0795976342051632,-0.0272855059811465,3.0
2025-03-10 13:17:09.244,74.20289855072464,-0.0050042466711943,-0.0906810515490692,-0.0956856631725217,-0.0191075591421659,3.0
2025-03-10 13:17:09.246,74.20289855072464,-0.0075195408620295,-0.1005900700180055,-0.1081099760978546,-0.0083608568086065,3.0
2025-03-10 13:17:09.248,74.20289855072464,-0.0092334486418427,-0.1038548510907797,-0.1130886651676311,0.0027236543905913,3.0
2025-03-10 13:17:09.250,74.20289855072464,-0.0092995366802212,-0.1011433621212824,-0.1104432644262818,0.0118440949814119,3.0
