Timestamp,GSR_Filtered,PPG_Filtered
2025-06-23 12:22:38.785,0.0003445124116388,161.02265678034263
2025-06-23 12:22:38.793,0.0003103389935033,156.39469552980114
2025-06-23 12:22:38.801,0.0002767621693715,151.70437220483947
2025-06-23 12:22:38.809,0.0002438078707464,147.00756388096826
2025-06-23 12:22:38.817,0.0002114933572002,142.35252631230517
2025-06-23 12:22:38.824,0.0001798329792549,137.7793855991487
2025-06-23 12:22:38.832,0.0001488431383831,133.31985409320916
2025-06-23 12:22:38.840,0.0001185461651752,128.99716526158855
2025-06-23 12:22:38.848,8.8972937281333e-05,124.82621819908356
2025-06-23 12:22:38.856,6.0164168467087904e-05,120.8139188508449
2025-06-23 12:22:38.863,3.2170378995289726e-05,116.95970178177326
2025-06-23 12:22:38.871,5.050604168198608e-06,113.25621350741756
2025-06-23 12:22:38.879,-2.113005377799812e-05,109.69013598801536
2025-06-23 12:22:38.887,-4.6303847817888e-05,106.24312688594247
2025-06-23 12:22:38.895,-7.040449644658192e-05,102.89285160045485
2025-06-23 12:22:38.902,-9.337160247425133e-05,99.61408092996048
2025-06-23 12:22:38.910,-0.0001151549660706,96.37982748599778
2025-06-23 12:22:38.918,-0.0001357184274744,93.16249371323076
2025-06-23 12:22:38.926,-0.0001550429850115,89.93500456979977
2025-06-23 12:22:38.934,-0.0001731290563351,86.67189859315938
2025-06-23 12:22:38.942,-0.0001899978492895,83.3503522050171
2025-06-23 12:22:38.949,-0.000205691871504,79.95111367382005
2025-06-23 12:22:38.957,-0.0002202746420944,76.45932513111299
2025-06-23 12:22:38.965,-0.0002338296961676,72.86521340531644
2025-06-23 12:22:38.973,-0.0002464590067369,69.16463316687755
2025-06-23 12:22:38.981,-0.000258280968264,65.35944894183856
2025-06-23 12:22:38.988,-0.0002694280578342,61.457745910804775
2025-06-23 12:22:38.996,-0.0002800442245021,57.47386302547415
2025-06-23 12:22:39.004,-0.0002902820071042,53.42824579997392
2025-06-23 12:22:39.012,-0.000300299371584,49.34712012437994
2025-06-23 12:22:39.020,-0.0003102562658658,45.2619925599497
2025-06-23 12:22:39.027,-0.0003203108928994,41.20898676343255
2025-06-23 12:22:39.035,-0.0003306157142182,37.22802989352211
2025-06-23 12:22:39.043,-0.0003413132286401,33.36190700229512
2025-06-23 12:22:39.051,-0.0003525316096708,29.65520541901833
2025-06-23 12:22:39.059,-0.000364380318038,26.153174888677142
2025-06-23 12:22:39.067,-0.0003769458427152,22.90053260935084
2025-06-23 12:22:39.074,-0.0003902877761619,19.94024517135777
2025-06-23 12:22:39.082,-0.0004044354819018,17.312321560952196
2025-06-23 12:22:39.090,-0.0004193856379524,15.05265266364717
2025-06-23 12:22:39.098,-0.0004351009264744,13.191932908270385
2025-06-23 12:22:39.106,-0.0004515100797485,11.754698684464444
2025-06-23 12:22:39.113,-0.0004685093734588,10.7585158415863
2025-06-23 12:22:39.121,-0.0004859655032739,10.213344896966603
2025-06-23 12:22:39.129,-0.0005037196549092,10.121107586804229
2025-06-23 12:22:39.137,-0.0005215925289612,10.47547220921908
2025-06-23 12:22:39.145,-0.0005393900977745,11.261868041375138
2025-06-23 12:22:39.152,-0.0005569099071565,12.45773123945349
2025-06-23 12:22:39.160,-0.0005739477564848,14.03297639676768
2025-06-23 12:22:39.168,-0.0005903045842098,15.95067973671704
2025-06-23 12:22:39.176,-0.0006057933506413,18.16795216743848
2025-06-23 12:22:39.184,-0.0006202456495677,19.97236700832565
2025-06-23 12:22:39.192,-0.0006335177091246,22.21244298513033
2025-06-23 12:22:39.199,-0.0006454953967136,24.832578838041197
2025-06-23 12:22:39.207,-0.000656097871343,27.76799512180668
2025-06-23 12:22:39.215,-0.0006652796511771,30.94624696450453
2025-06-23 12:22:39.223,-0.0006730310472453,34.288911046176764
2025-06-23 12:22:39.231,-0.0006793770747018,37.71339927930898
2025-06-23 12:22:39.238,-0.0006843750200165,41.13485014039381
2025-06-23 12:22:39.246,-0.0006881108140654,44.46804861869357
2025-06-23 12:22:39.254,-0.0006906943072904,47.62932713926848
2025-06-23 12:22:39.262,-0.0006922535365052,50.53840236208764
2025-06-23 12:22:39.270,-0.0006929281255865,53.12010621670938
2025-06-23 12:22:39.277,-0.0006928620399141,55.30597366368375
2025-06-23 12:22:39.285,-0.0006921959847595,57.035654261975694
2025-06-23 12:22:39.293,-0.0006910597882014,58.258119487634055
2025-06-23 12:22:39.301,-0.0006895651371709,58.93264276509465
2025-06-23 12:22:39.309,-0.0006877990407035,59.02953426570808
2025-06-23 12:22:39.317,-0.0006858183777702,58.530617674933545
2025-06-23 12:22:39.324,-0.0006836458491347,57.42944134690267
2025-06-23 12:22:39.332,-0.0006812675950016,55.73122159287676
2025-06-23 12:22:39.340,-0.0006786326648229,53.45252132689312
2025-06-23 12:22:39.348,-0.0006756544350153,50.62067292625468
2025-06-23 12:22:39.356,-0.0006722139675324,47.27295991266246
2025-06-23 12:22:39.363,-0.0006681651906593,43.455577813890734
2025-06-23 12:22:39.371,-0.0006633416669088,39.222400156890544
2025-06-23 12:22:39.379,-0.0006575645956627,34.633580758416564
2025-06-23 12:22:39.387,-0.0006506515863126,29.75402809055056
2025-06-23 12:22:39.395,-0.0006424256470504,24.651791290404663
2025-06-23 12:22:39.402,-0.0006327238001555,19.396400169440994
2025-06-23 12:22:39.410,-0.0006214047931123,14.05720320388972
2025-06-23 12:22:39.418,-0.0006083555155436,8.701747833061841
2025-06-23 12:22:39.426,-0.0005934958844192,3.394246379682695
2025-06-23 12:22:39.434,-0.0005767820636118,-1.8058314837546616
2025-06-23 12:22:39.442,-0.0005582079581432,-6.845002515811648
2025-06-23 12:22:39.449,-0.0005378050347953,-11.676817645797907
2025-06-23 12:22:39.457,-0.0005156406788638,-16.262687307355026
2025-06-23 12:22:39.465,-0.0004918154201837,-20.572464679909757
2025-06-23 12:22:39.473,-0.0004664593682349,-24.584774314121947
2025-06-23 12:22:39.481,-0.0004397281013344,-28.287080997607905
2025-06-23 12:22:39.488,-0.0004117981442624,-31.6755010762182
2025-06-23 12:22:39.496,-0.0003828621021654,-34.75436557437294
2025-06-23 12:22:39.504,-0.0003531234990403,-37.53555117334447
2025-06-23 12:22:39.512,-0.0003227913793592,-40.03760125670389
2025-06-23 12:22:39.520,-0.0002920747626889,-42.284664699184816
2025-06-23 12:22:39.527,-0.000261177090155,-44.30528477130483
2025-06-23 12:22:39.535,-0.0002302908559238,-46.13107438748884
2025-06-23 12:22:39.543,-0.0001995926441638,-47.79531687677864
2025-06-23 12:22:39.551,-0.0001692387573844,-49.33153344488209
2025-06-23 12:22:39.559,-0.0001393615352598,-50.77205948144989
2025-06-23 12:22:39.567,-0.0001100663858518,-52.14667182707379
2025-06-23 12:22:39.574,-8.142953340238503e-05,-53.48130805157153
2025-06-23 12:22:39.582,-5.349652387727644e-05,-54.79691671982114
2025-06-23 12:22:39.590,-2.6281596307091976e-05,-56.108474547034994
2025-06-23 12:22:39.598,2.318966531759833e-07,-57.42420229136569
2025-06-23 12:22:39.606,2.608978973486563e-05,-58.74500623472298
2025-06-23 12:22:39.613,5.136392252741626e-05,-60.06416622435786
2025-06-23 12:22:39.621,7.614736096774171e-05,-61.36728457829253
2025-06-23 12:22:39.629,0.00010054803355,-62.6325028189116
2025-06-23 12:22:39.637,0.0001246809138329,-63.83098534842513
2025-06-23 12:22:39.645,0.0001486589943521,-64.92766101227608
2025-06-23 12:22:39.652,0.0001725834194488,-65.88220524276394
2025-06-23 12:22:39.660,0.0001965332849528,-66.65023739893985
2025-06-23 12:22:39.668,0.0002205557434742,-67.18470031248991
2025-06-23 12:22:39.676,0.000244657124882,-67.43738222559344
2025-06-23 12:22:39.684,0.0002687957667173,-67.36053558313878
2025-06-23 12:22:39.692,0.000292877161837,-66.90854281793949
2025-06-23 12:22:39.699,0.0003167518941599,-66.03957660082169
2025-06-23 12:22:39.707,0.0003402166618667,-64.71720120822339
2025-06-23 12:22:39.715,0.0003630184893258,-62.91186279095759
2025-06-23 12:22:39.723,0.0003848620203996,-60.60221940852245
2025-06-23 12:22:39.731,0.0004054195945175,-57.77626661586922
2025-06-23 12:22:39.738,0.000424343652292,-54.43222094670548
2025-06-23 12:22:39.746,0.000441280883612,-50.57913153829094
2025-06-23 12:22:39.754,0.000455887388869,-46.23719903049008
2025-06-23 12:22:39.762,0.0004678439889384,-41.43779034554913
2025-06-23 12:22:39.770,0.0004768707566038,-36.22314759682603
2025-06-23 12:22:39.777,0.0004827398994692,-30.64579878003768
2025-06-23 12:22:39.785,0.0004852862893536,-24.767686705726582
2025-06-23 12:22:39.793,0.0004844151586259,-18.6590405348838
2025-06-23 12:22:39.801,0.0004801067307913,-12.397021056071742
2025-06-23 12:22:39.809,0.0004724177927753,-6.064176351369019
2025-06-23 12:22:39.817,0.0004614804124404,0.2532513171230897
2025-06-23 12:22:39.824,0.0004474981198172,6.46712369171842
2025-06-23 12:22:39.832,0.0004307399126272,12.489264421251857
2025-06-23 12:22:39.840,0.0004115324756492,18.233330798684214
2025-06-23 12:22:39.848,0.0003902510581367,23.616653904978257
2025-06-23 12:22:39.856,0.000367309499641,28.562003038907267
2025-06-23 12:22:39.863,0.0003431498767998,32.99923238198491
2025-06-23 12:22:39.871,0.0003182321571924,36.86677062212803
2025-06-23 12:22:39.879,0.000293024130946,40.11291771715282
2025-06-23 12:22:39.887,0.0002679917834511,42.69691711969916
2025-06-23 12:22:39.895,0.0002435901899782,44.58977661831474
2025-06-23 12:22:39.902,0.0002202549606427,45.77481648081066
2025-06-23 12:22:39.910,0.0001983942425792,46.24792980095548
2025-06-23 12:22:39.918,0.0001783812861634,46.01754680001008
2025-06-23 12:22:39.926,0.0001605475818071,45.10430223018212
2025-06-23 12:22:39.934,0.0001451765592102,43.54041282486658
2025-06-23 12:22:39.942,0.0001324978339208,41.36877973451349
2025-06-23 12:22:39.949,0.0001226820290823,38.64183880911405
2025-06-23 12:22:39.957,0.0001158363010318,35.420189127709506
2025-06-23 12:22:39.965,0.0001120008057931,31.77103700774637
2025-06-23 12:22:39.973,0.000111146395773,27.766498542838043
2025-06-23 12:22:39.981,0.0001131738174952,23.481808242467785
2025-06-23 12:22:39.988,0.0001179146335806,18.99348435864511
2025-06-23 12:22:39.996,0.0001251340579852,14.377502824416004
2025-06-23 12:22:40.004,0.0001345358707451,9.70753131571123
2025-06-23 12:22:40.012,0.0001457695305751,5.053272783875486
2025-06-23 12:22:40.020,0.0001584394983152,0.4789639794123448
2025-06-23 12:22:40.027,0.000172116620797,-3.9579308345334976
2025-06-23 12:22:40.035,0.0001863512295616,-8.20779736343373
2025-06-23 12:22:40.043,0.0002006874116216,-12.229693903203616
2025-06-23 12:22:40.051,0.0002146777371302,-15.991901276964477
2025-06-23 12:22:40.059,0.0002278976211188,-19.472190832824616
2025-06-23 12:22:40.067,0.0002399585026821,-22.657809839490024
2025-06-23 12:22:40.074,0.0002505191663735,-25.545191918373863
2025-06-23 12:22:40.082,0.000259294768541,-28.139407892392374
2025-06-23 12:22:40.090,0.0002660633803259,-30.45337939290463
2025-06-23 12:22:40.098,0.0002706700352823,-32.5068835851519
2025-06-23 12:22:40.106,0.0002730283446138,-34.32538234596865
2025-06-23 12:22:40.113,0.0002731197610154,-35.93871310894122
2025-06-23 12:22:40.121,0.0002709906040209,-37.37968138191541
2025-06-23 12:22:40.129,0.0002667470387105,-38.68259667006497
2025-06-23 12:22:40.137,0.0002605483048582,-39.88179424709395
2025-06-23 12:22:40.145,0.0002525985804163,-41.0101849502426
2025-06-23 12:22:40.152,0.0002431378988817,-42.09787397131407
2025-06-23 12:22:40.160,0.0002324325244106,-43.17088751779406
2025-06-23 12:22:40.168,0.0002207651474745,-44.25004327690928
2025-06-23 12:22:40.176,0.00020842522229,-45.3499968936072
2025-06-23 12:22:40.184,0.0001956997285967,-46.47849223655186
2025-06-23 12:22:40.192,0.0001828645879854,-47.635838135637385
2025-06-23 12:22:40.199,0.0001701768889062,-48.81462858938118
2025-06-23 12:22:40.207,0.0001578680010908,-49.99971722818651
2025-06-23 12:22:40.215,0.0001461376364611,-51.16845016551188
2025-06-23 12:22:40.223,0.0001351489519638,-52.2911543830975
2025-06-23 12:22:40.231,0.000125024844452,-53.33187161572116
2025-06-23 12:22:40.238,0.0001158455991383,-54.24932049435265
2025-06-23 12:22:40.246,0.000107648008639,-54.99806267644053
2025-06-23 12:22:40.254,0.00010042601412,-55.52984206811638
2025-06-23 12:22:40.262,9.413285774403052e-05,-55.79506027069823
2025-06-23 12:22:40.270,8.868466470296199e-05,-55.74434631506717
2025-06-23 12:22:40.277,8.396528376902244e-05,-55.33017483322287
2025-06-23 12:22:40.285,7.983212444162487e-05,-54.50848428867972
2025-06-23 12:22:40.293,7.612266006946305e-05,-53.24024593079268
2025-06-23 12:22:40.301,7.266123138281372e-05,-51.49293486420995
2025-06-23 12:22:40.309,6.926578610713786e-05,-49.2418570615171
2025-06-23 12:22:40.317,6.575422742135298e-05,-46.47129023845299
2025-06-23 12:22:40.324,6.195011556471452e-05,-43.17540211643323
2025-06-23 12:22:40.332,5.768757043271453e-05,-39.35891649365191
2025-06-23 12:22:40.340,5.281535347110607e-05,-35.037505437058655
2025-06-23 12:22:40.348,4.720024891449368e-05,-30.23789444078319
2025-06-23 12:22:40.356,4.072998032580565e-05,-24.99767619089305
2025-06-23 12:22:40.363,3.331593946852217e-05,-19.364837254158253
2025-06-23 12:22:40.371,2.489594750813603e-05,-13.397010229804524
2025-06-23 12:22:40.379,1.5437139494528333e-05,-7.160471392449515
2025-06-23 12:22:40.387,4.938913718439789e-06,-0.7289104127306962
2025-06-23 12:22:40.395,-6.564242620012426e-06,5.817995753780314
2025-06-23 12:22:40.402,-1.900033325165288e-05,12.396168326459108
2025-06-23 12:22:40.410,-3.2258169779876866e-05,18.91883174916419
2025-06-23 12:22:40.418,-4.6186760218160464e-05,25.29829637391697
2025-06-23 12:22:40.426,-6.059605798447649e-05,31.447775642270063
2025-06-23 12:22:40.434,-7.52592678155862e-05,37.28319438243226
2025-06-23 12:22:40.442,-8.991677922524962e-05,42.72494544794442
2025-06-23 12:22:40.449,-0.0001042816730306,47.699553314075416
2025-06-23 12:22:40.457,-0.0001180466612549,52.14120537515871
2025-06-23 12:22:40.465,-0.0001308922790166,55.99311453438424
2025-06-23 12:22:40.473,-0.0001424961136552,59.20868025646274
2025-06-23 12:22:40.481,-0.0001525428091477,61.75241958174845
2025-06-23 12:22:40.488,-0.0001607345373731,63.6006446873668
2025-06-23 12:22:40.496,-0.0001668015953013,64.7418694105317
2025-06-23 12:22:40.504,-0.0001705127575277,65.17693366588591
2025-06-23 12:22:40.512,-0.0001716849775764,64.91884178591468
2025-06-23 12:22:40.520,-0.0001701920049529,63.99231832753858
2025-06-23 12:22:40.527,-0.0001659714921816,62.4330925984384
2025-06-23 12:22:40.535,-0.0001590302091179,60.28693079534574
2025-06-23 12:22:40.543,-0.0001494470406305,57.608441914767965
2025-06-23 12:22:40.551,-0.0001373735060907,54.45969018837758
2025-06-23 12:22:40.559,-0.0001230316188912,50.90865242212618
2025-06-23 12:22:40.567,-0.0001067090229097,47.0275630304981
2025-06-23 12:22:40.574,-8.875149929128516e-05,42.89119255905194
2025-06-23 12:22:40.582,-6.955310561506715e-05,38.57510694678238
2025-06-23 12:22:40.590,-4.954436419543977e-05,34.153954635483906
2025-06-23 12:22:40.598,-2.9179043857349772e-05,29.69982690769208
2025-06-23 12:22:40.606,-8.920175620878262e-06,25.280733629552937
2025-06-23 12:22:40.613,1.0773996478544213e-05,20.95923206251133
2025-06-23 12:22:40.621,2.94634139733092e-05,16.791240817059368
2025-06-23 12:22:40.629,4.673829038399284e-05,12.825064622210402
2025-06-23 12:22:40.637,6.222935746103187e-05,9.100648666859191
2025-06-23 12:22:40.645,7.561592979330776e-05,5.649074127200851
2025-06-23 12:22:40.652,8.663163506144664e-05,2.49229940621293
2025-06-23 12:22:40.660,9.506781886329328e-05,-0.3568551738805324
2025-06-23 12:22:40.668,0.0001007747674671,-2.894487756395872
2025-06-23 12:22:40.676,0.0001036609970185,-5.125174533154969
2025-06-23 12:22:40.684,0.0001036909280309,-7.06132743949001
2025-06-23 12:22:40.692,0.0001008813131147,-8.722372805597336
2025-06-23 12:22:40.699,9.529682829403646e-05,-10.133776863130736
2025-06-23 12:22:40.707,8.704525274003291e-05,-11.32594621693882
2025-06-23 12:22:40.715,7.627261501884368e-05,-12.33303282912473
2025-06-23 12:22:40.723,6.315858225914797e-05,-13.191673821150848
2025-06-23 12:22:40.731,4.791225430438176e-05,-13.939696582627734
2025-06-23 12:22:40.738,3.07684339539602e-05,-14.6148193787433
2025-06-23 12:22:40.746,1.1984382435315223e-05,-15.253376953608106
2025-06-23 12:22:40.754,-8.162988733192078e-06,-15.889099598911882
2025-06-23 12:22:40.762,-2.9379622570336515e-05,-16.5519728422112
2025-06-23 12:22:40.770,-5.135674884419144e-05,-17.26720333188727
2025-06-23 12:22:40.778,-7.377352330646398e-05,-18.05431465906037
2025-06-23 12:22:40.785,-9.630011502039032e-05,-18.926394744487062
2025-06-23 12:22:40.793,-0.0001186013930478,-19.889514005591028
2025-06-23 12:22:40.801,-0.0001403412823063,-20.9423307794624
2025-06-23 12:22:40.809,-0.0001611877959977,-22.07589738535397
2025-06-23 12:22:40.817,-0.0001808186782023,-23.273676734318443
2025-06-23 12:22:40.824,-0.0001989274883358,-24.51177550176934
2025-06-23 12:22:40.832,-0.0002152298546081,-25.759395545610765
2025-06-23 12:22:40.840,-0.0002294695650751,-26.979500471521423
2025-06-23 12:22:40.848,-0.0002414241785298,-28.1296890412154
2025-06-23 12:22:40.856,-0.0002509099031847,-29.16326155144769
2025-06-23 12:22:40.863,-0.0002577855724879,-30.030459489492284
2025-06-23 12:22:40.871,-0.0002619556322105,-30.679852852727777
2025-06-23 12:22:40.879,-0.0002633721420806,-31.05984371235633
2025-06-23 12:22:40.887,-0.0002620358652954,-31.120249151683307
2025-06-23 12:22:40.895,-0.0002579965347162,-30.81392189445746
2025-06-23 12:22:40.903,-0.0002513523479177,-30.09836305209547
2025-06-23 12:22:40.910,-0.0002422486948617,-28.937278756324904
2025-06-23 12:22:40.918,-0.0002308760879518,-27.302031282060597
2025-06-23 12:22:40.926,-0.0002174672376409,-25.17293582936527
2025-06-23 12:22:40.934,-0.000202293190302,-22.540356566236465
2025-06-23 12:22:40.942,-0.0001856584357352,-19.40555987543059
2025-06-23 12:22:40.949,-0.0001678949237895,-15.781288927313833
2025-06-23 12:22:40.957,-0.0001493550045623,-11.692031538588846
2025-06-23 12:22:40.965,-0.0001304034012574,-7.17396250017951
2025-06-23 12:22:40.973,-0.0001114084147674,-2.274551814612713
2025-06-23 12:22:40.981,-9.273263298230658e-05,2.948158835483917
2025-06-23 12:22:40.988,-7.472347266577182e-05,8.426598003638384
2025-06-23 12:22:40.996,-5.770391637222376e-05,14.085000603821015
2025-06-23 12:22:41.004,-4.196382050212419e-05,19.84100397680824
2025-06-23 12:22:41.012,-2.7752162744539366e-05,25.607460638788872
2025-06-23 12:22:41.020,-1.527056771420794e-05,31.29441688662247
2025-06-23 12:22:41.028,-4.668398823327069e-06,36.81120056061201
2025-06-23 12:22:41.035,3.960366984376394e-06,42.068557276750205
2025-06-23 12:22:41.043,1.0578355931511211e-05,46.98077245822671
2025-06-23 12:22:41.051,1.5204088632579366e-05,51.46771657786784
2025-06-23 12:22:41.059,1.7909453465682235e-05,55.45675316885156
2025-06-23 12:22:41.067,1.8815605610986315e-05,58.884453314783
2025-06-23 12:22:41.074,1.808766795586819e-05,61.69806637679128
2025-06-23 12:22:41.082,1.5928703740339736e-05,63.85670447554611
2025-06-23 12:22:41.090,1.257343958572719e-05,65.33220747554577
2025-06-23 12:22:41.098,8.282129401239422e-06,66.10966560815956
2025-06-23 12:22:41.106,3.334812910686644e-06,66.18758804735532
2025-06-23 12:22:41.113,-1.9738983501082275e-06,65.57771729638918
2025-06-23 12:22:41.121,-7.3394650461381505e-06,64.3045007044816
2025-06-23 12:22:41.129,-1.2451540421104615e-05,62.40424135407784
2025-06-23 12:22:41.137,-1.6997709125257755e-05,59.92396050354508
2025-06-23 12:22:41.145,-2.066705193389002e-05,56.9200123390121
2025-06-23 12:22:41.153,-2.315374295458876e-05,53.45649864934639
2025-06-23 12:22:41.160,-2.416083299730012e-05,49.60353594473064
2025-06-23 12:22:41.168,-2.3404315017030742e-05,45.4354303498673
2025-06-23 12:22:41.176,-2.061753142604053e-05,41.02881628495763
2025-06-23 12:22:41.184,-1.555595868992852e-05,36.460813577021966
2025-06-23 12:22:41.192,-8.002373677214999e-06,31.807254395170325
2025-06-23 12:22:41.199,2.227637698255041e-06,27.14102653021521
2025-06-23 12:22:41.207,1.5279923459249733e-05,22.5305733516306
2025-06-23 12:22:41.215,3.125591432196805e-05,18.038583617188813
2025-06-23 12:22:41.223,5.020689315677535e-05,13.720896542294986
2025-06-23 12:22:41.231,7.212865589403372e-05,9.625639514746986
2025-06-23 12:22:41.238,9.695687988881206e-05,5.792607901685511
2025-06-23 12:22:41.246,0.0001245635450845,2.252888833166225
2025-06-23 12:22:41.254,0.0001547547616875,-0.9712760955421608
2025-06-23 12:22:41.262,0.0001872703411024,-3.8664003926692176
2025-06-23 12:22:41.270,0.0002217854010544,-6.42745088596419
2025-06-23 12:22:41.278,0.0002579142186649,-8.657355131243802
2025-06-23 12:22:41.285,0.0002952164371461,-10.566341701323244
2025-06-23 12:22:41.293,0.0003332056025776,-12.171139203237155
2025-06-23 12:22:41.301,0.0003713598792017,-13.494061127729283
2025-06-23 12:22:41.309,0.0004091346808618,-14.56200408920028
2025-06-23 12:22:41.317,0.0004459768524389,-15.40538678741931
2025-06-23 12:22:41.324,0.0004813399268667,-16.05705624607924
2025-06-23 12:22:41.332,0.0005146998955818,-16.551186688080524
2025-06-23 12:22:41.340,0.0005455709010596,-16.922194914343592
2025-06-23 12:22:41.348,0.0005735202884177,-17.203694372595624
2025-06-23 12:22:41.356,0.0005981825023329,-17.427508330600325
2025-06-23 12:22:41.363,0.0006192713539095,-17.622760773252413
2025-06-23 12:22:41.371,0.0006365901984917,-17.815061856652093
2025-06-23 12:22:41.379,0.0006500395614921,-18.02580297181733
2025-06-23 12:22:41.387,0.0006596217396187,-18.27157466847896
2025-06-23 12:22:41.395,0.0006654419258364,-18.56371882150045
2025-06-23 12:22:41.403,0.0006677055049681,-18.90802443340597
2025-06-23 12:22:41.410,0.0006667113563938,-19.30457429716797
2025-06-23 12:22:41.418,0.000662841233839,-19.747747344682452
2025-06-23 12:22:41.426,0.0006565455064313,-20.226378851444853
2025-06-23 12:22:41.434,0.0006483257259906,-20.72407775607141
2025-06-23 12:22:41.442,0.0006387146637037,-21.219697205052704
2025-06-23 12:22:41.449,0.0006282546521951,-21.687951083218053
2025-06-23 12:22:41.457,0.0006174752567275,-22.10016578505248
2025-06-23 12:22:41.465,0.0006068714450476,-22.42515288160355
2025-06-23 12:22:41.473,0.0005968834914406,-22.630184719432044
2025-06-23 12:22:41.481,0.0005878798075875,-22.68205144545498
2025-06-23 12:22:41.488,0.0005801437310124,-22.54817459259445
2025-06-23 12:22:41.496,0.0005738650264228,-22.197749307438908
2025-06-23 12:22:41.504,0.0005691364845951,-21.60288468909005
2025-06-23 12:22:41.512,0.0005659555900425,-20.73970969088596
2025-06-23 12:22:41.520,0.0005642308538421,-19.589410780654724
2025-06-23 12:22:41.528,0.0005637921268824,-18.13916723366077
2025-06-23 12:22:41.535,0.000564404016185,-16.382950713261245
2025-06-23 12:22:41.543,0.0005657813932833,-14.32215782463803
2025-06-23 12:22:41.551,0.0005676059101527,-11.966047713257664
2025-06-23 12:22:41.559,0.0005695424585175,-9.331961565624788
2025-06-23 12:22:41.567,0.0005712546402981,-6.445307014445623
2025-06-23 12:22:41.574,0.0005724185307502,-3.33929780682171
2025-06-23 12:22:41.582,0.0005727342565604,-0.0544473968886083
2025-06-23 12:22:41.590,0.0005719351364585,3.362176006334881
2025-06-23 12:22:41.598,0.0005697943217825,6.857916435342008
2025-06-23 12:22:41.606,0.0005661290204634,10.37569413816238
2025-06-23 12:22:41.613,0.0005608024853096,13.855333781885404
2025-06-23 12:22:41.621,0.000553723993646,17.23501773964923
2025-06-23 12:22:41.629,0.0005448470413971,20.452820480745224
2025-06-23 12:22:41.637,0.0005341659335113,23.448276966111944
2025-06-23 12:22:41.645,0.0005217109097137,26.163936592736714
2025-06-23 12:22:41.653,0.0005075419484922,28.54685458421251
2025-06-23 12:22:41.660,0.0004917414668673,30.549974682435533
2025-06-23 12:22:41.668,0.0004744062543282,32.13336041177231
2025-06-23 12:22:41.676,0.0004556390970686,33.26523690182089
2025-06-23 12:22:41.684,0.0004355406269231,33.922811107442904
2025-06-23 12:22:41.692,0.0004142019541996,34.09284509748297
2025-06-23 12:22:41.699,0.0003916986124185,33.77196473581111
2025-06-23 12:22:41.707,0.0003680862584138,32.966694373379504
2025-06-23 12:22:41.715,0.0003433984457966,31.69321690092384
2025-06-23 12:22:41.723,0.0003176466485839,29.976867430685196
2025-06-23 12:22:41.731,0.000290822573891,27.851377690364675
2025-06-23 12:22:41.738,0.0002629026607317,25.357896596690026
2025-06-23 12:22:41.746,0.0002338545073971,22.54382008683622
2025-06-23 12:22:41.754,0.0002036448301467,19.4614697905772
2025-06-23 12:22:41.762,0.0001722484711707,16.16666522589444
2025-06-23 12:22:41.770,0.000139657944751,12.71723764821749
2025-06-23 12:22:41.778,0.0001058930019992,9.171535290323783
2025-06-23 12:22:41.785,7.100967560265105e-05,5.586969374523527
2025-06-23 12:22:41.793,3.510822765622576e-05,2.0186479161120645
2025-06-23 12:22:41.801,-1.6606224855217257e-06,-1.4818599894541868
2025-06-23 12:22:41.809,-3.90918323211985e-05,-4.867592850296318
2025-06-23 12:22:41.817,-7.692511871284705e-05,-8.097069601304177
2025-06-23 12:22:41.824,-0.0001148474217582,-11.134946648605066
2025-06-23 12:22:41.832,-0.0001524989492483,-13.952448862301434
2025-06-23 12:22:41.840,-0.0001894827190664,-16.527574086477525
2025-06-23 12:22:41.848,-0.0002253772161857,-18.845080215323147
2025-06-23 12:22:41.856,-0.0002597515063809,-20.89627246487916
2025-06-23 12:22:41.863,-0.0002921819578226,-22.678615680854445
2025-06-23 12:22:41.871,-0.0003222696431977,-24.19520200053303
2025-06-23 12:22:41.879,-0.0003496575101362,-25.45410770466452
2025-06-23 12:22:41.887,-0.0003740464738087,-26.467674578252595
2025-06-23 12:22:41.895,-0.0003952096700816,-27.25175061803468
2025-06-23 12:22:41.903,-0.0004130042090252,-27.824922675903423
2025-06-23 12:22:41.910,-0.0004273799081442,-28.207769907156667
2025-06-23 12:22:41.918,-0.0004383846730265,-28.42216206410465
2025-06-23 12:22:41.926,-0.0004461664035517,-28.49062113704469
2025-06-23 12:22:41.934,-0.0004509714798619,-28.435758992073097
2025-06-23 12:22:41.942,-0.0004531399770678,-28.27979785298869
2025-06-23 12:22:41.949,-0.0004530977728935,-28.044175036689776
2025-06-23 12:22:41.957,-0.0004513456983819,-27.7492285349427
2025-06-23 12:22:41.965,-0.000448445899197,-27.413956040938263
2025-06-23 12:22:41.973,-0.0004450056619824,-27.05583699420429
2025-06-23 12:22:41.981,-0.0004416591270404,-26.69070525747437
2025-06-23 12:22:41.988,-0.0004390475423014,-26.332659183979576
2025-06-23 12:22:41.996,-0.0004377989733943,-25.993996062507875
2025-06-23 12:22:42.004,-0.0004385086050595,-25.685159155013523
2025-06-23 12:22:42.012,-0.0004417208851027,-25.414687619508737
2025-06-23 12:22:42.020,-0.0004479147341733,-25.189162339074983
2025-06-23 12:22:42.028,-0.0004574928623074,-25.013143821142325
2025-06-23 12:22:42.035,-0.0004707759102426,-24.889101641253568
2025-06-23 12:22:42.043,-0.0004880017127414,-24.81733814007337
2025-06-23 12:22:42.051,-0.0005093295310604,-24.79591202019282
2025-06-23 12:22:42.059,-0.0005348486914239,-24.820569940103493
2025-06-23 12:22:42.067,-0.000564590740425,-24.884696016449453
2025-06-23 12:22:42.074,-0.000598544005195,-24.979290222332157
2025-06-23 12:22:42.082,-0.0006366693308916,-25.092986964533587
2025-06-23 12:22:42.090,-0.0006789157584964,-25.212124642546723
2025-06-23 12:22:42.098,-0.0007252349866657,-25.32087578469175
2025-06-23 12:22:42.106,-0.0007755935930085,-25.40144550012583
2025-06-23 12:22:42.113,-0.0008299821188649,-25.43434358001426
2025-06-23 12:22:42.121,-0.0008884202187644,-25.39873273320404
2025-06-23 12:22:42.129,-0.0009509571680474,-25.272852252568907
2025-06-23 12:22:42.137,-0.0010176671712331,-25.03451297155004
2025-06-23 12:22:42.145,-0.0010886391582486,-24.661655780623335
2025-06-23 12:22:42.153,-0.0011639610738094,-24.132962333876662
2025-06-23 12:22:42.160,-0.0012436990016222,-23.42850300387426
2025-06-23 12:22:42.168,-0.0013278717926889,-22.5304037753646
2025-06-23 12:22:42.176,-0.0014164222044649,-21.42351077097252
2025-06-23 12:22:42.184,-0.0015091859146573,-20.09602867498088
2025-06-23 12:22:42.192,-0.0016058600997891,-18.54010768874657
2025-06-23 12:22:42.199,-0.0017059734901744,-16.75235303407957
2025-06-23 12:22:42.207,-0.0018088599058764,-14.73423160457616
2025-06-23 12:22:42.215,-0.0019136372604324,-12.492352274345544
2025-06-23 12:22:42.223,-0.0020191938843718,-10.038599657665928
2025-06-23 12:22:42.231,-0.0021241837438106,-7.390105736394629
2025-06-23 12:22:42.238,-0.0022270317282066,-4.5690496111798655
2025-06-23 12:22:42.246,-0.0023259497235955,-1.6022824769996695
2025-06-23 12:22:42.254,-0.0024189637388311,1.479217521378048
2025-06-23 12:22:42.262,-0.0025039519345444,4.641048003411315
2025-06-23 12:22:42.270,-0.0025786929990397,7.84622227984773
2025-06-23 12:22:42.278,-0.002640923891562,11.056118877614486
2025-06-23 12:22:42.285,-0.0026884055245721,14.231506785059665
2025-06-23 12:22:42.293,-0.0027189945216963,17.33360768032488
2025-06-23 12:22:42.301,-0.0027307188225077,20.325153283695798
2025-06-23 12:22:42.309,-0.0027218546211375,23.171394836416347
2025-06-23 12:22:42.317,-0.0026910018859448,25.841022695982343
2025-06-23 12:22:42.324,-0.0026371554895733,28.30695718012877
2025-06-23 12:22:42.332,-0.002559768811281,30.546977000937183
2025-06-23 12:22:42.340,-0.0024588066040262,32.54415870889548
2025-06-23 12:22:42.348,-0.0023347839827003,34.28710921533618
2025-06-23 12:22:42.356,-0.0021887886213179,35.76998328221694
2025-06-23 12:22:42.363,-0.0020224836870635,36.99228835956404
2025-06-23 12:22:42.371,-0.0018380897109494,37.95848971493062
2025-06-23 12:22:42.379,-0.0016383444791076,38.67743877090336
2025-06-23 12:22:42.387,-0.001426441074925,39.16165627136254
2025-06-23 12:22:42.395,-0.0012059453637818,39.42650872608554
2025-06-23 12:22:42.403,-0.0009806954570367,39.489321070928845
2025-06-23 12:22:42.410,-0.0007546869685857,39.368470363965486
2025-06-23 12:22:42.418,-0.0005319490718275,39.082504579087015
2025-06-23 12:22:42.426,-0.0003164172880092,38.649327332324816
2025-06-23 12:22:42.434,-0.000111809371594,38.08548403117788
2025-06-23 12:22:42.442,7.848952689632021e-05,37.40557794891245
2025-06-23 12:22:42.449,0.0002515269964081,36.62183664815891
2025-06-23 12:22:42.457,0.0004048645062867,35.74384059558795
2025-06-23 12:22:42.465,0.0005366365495815,34.77841728488828
2025-06-23 12:22:42.473,0.0006455860937126,33.72969620852612
2025-06-23 12:22:42.481,0.0007310759089995,32.599312967861536
2025-06-23 12:22:42.488,0.0007930765355433,31.38674493440128
2025-06-23 12:22:42.496,0.000832132715845,30.089756293301683
2025-06-23 12:22:42.504,0.0008493110093388,28.704927027412342
2025-06-23 12:22:42.512,0.0008461319819936,27.22823837372411
2025-06-23 12:22:42.520,0.0008244908236422,25.65568639638392
2025-06-23 12:22:42.528,0.0007865704981092,23.98389544056629
2025-06-23 12:22:42.535,0.0007347515920775,22.21070421927016
2025-06-23 12:22:42.543,0.0006715229077261,20.33569900360785
2025-06-23 12:22:42.551,0.000599396535042,18.360670717927245
2025-06-23 12:22:42.559,0.0005208306359651,16.28997559971979
2025-06-23 12:22:42.567,0.0004381625153146,14.130782428975284
2025-06-23 12:22:42.574,0.0003535538429366,11.893193160015818
2025-06-23 12:22:42.582,0.0002689492166571,9.590228123006511
2025-06-23 12:22:42.590,0.0001860486227444,7.237671825788185
2025-06-23 12:22:42.598,0.0001062937129111,4.853780773596761
2025-06-23 12:22:42.606,3.086716466866218e-05,2.4588605648513995
2025-06-23 12:22:42.613,-3.929622064463819e-05,0.0747256529276344
2025-06-23 12:22:42.621,-0.0001034885392187,-2.275938680910925
2025-06-23 12:22:42.629,-0.0001612001684335,-4.570286782378447
2025-06-23 12:22:42.637,-0.00021208600968,-6.786065094774583
2025-06-23 12:22:42.645,-0.0002559291913152,-8.902372382614587
2025-06-23 12:22:42.653,-0.000292604767839,-10.900391181205205
2025-06-23 12:22:42.660,-0.0003220457251355,-12.764053554217249
2025-06-23 12:22:42.668,-0.0003442132497579,-14.480605881666534
2025-06-23 12:22:42.676,-0.0003590727840164,-16.041041086301362
2025-06-23 12:22:42.684,-0.0003665769068509,-17.440372306614535
2025-06-23 12:22:42.692,-0.0003666555962167,-18.677729276685493
2025-06-23 12:22:42.699,-0.0003592139748854,-19.75626720389784
2025-06-23 12:22:42.707,-0.0003441372138524,-20.682887288901654
2025-06-23 12:22:42.715,-0.0003213018394893,-21.467777697233046
2025-06-23 12:22:42.723,-0.0002905922685551,-22.12379323632245
2025-06-23 12:22:42.731,-0.0002519210411291,-22.665700696338394
2025-06-23 12:22:42.738,-0.0002052510085244,-23.1093243054809
2025-06-23 12:22:42.746,-0.000150617684192,-23.470631626243076
2025-06-23 12:22:42.754,-8.815005090730652e-05,-23.764804157249745
2025-06-23 12:22:42.762,-1.808830486689006e-05,-24.00533867470203
2025-06-23 12:22:42.770,5.9202713978798894e-05,-24.20322481966504
2025-06-23 12:22:42.778,0.0001432253437017,-24.366241601095144
2025-06-23 12:22:42.785,0.0002333467987724,-24.498410456336927
2025-06-23 12:22:42.793,0.0003288030569934,-24.5996355356426
2025-06-23 12:22:42.801,0.0004287089043673,-24.665553315091056
2025-06-23 12:22:42.809,0.0005320737128814,-24.6876039428188
2025-06-23 12:22:42.817,0.0006378220999397,-24.65332639022346
2025-06-23 12:22:42.824,0.0007448182342214,-24.54686903002831
2025-06-23 12:22:42.832,0.0008518923125443,-24.349697193288804
2025-06-23 12:22:42.840,0.0009578676892368,-24.04147002137873
2025-06-23 12:22:42.848,0.0010615872580359,-23.60105092616715
2025-06-23 12:22:42.856,0.0011619378939733,-23.00760953746533
2025-06-23 12:22:42.863,0.0012578720123884,-22.24176841246408
2025-06-23 12:22:42.871,0.0013484255750891,-21.28674518596839
2025-06-23 12:22:42.879,0.0014327321611287,-20.129440345793675
2025-06-23 12:22:42.887,0.0015100330170903,-18.76142243331141
2025-06-23 12:22:42.895,0.0015796832939124,-17.179766122937636
2025-06-23 12:22:42.903,0.0016411549272332,-15.387704178499048
2025-06-23 12:22:42.910,0.0016940367816046,-13.395061499235029
2025-06-23 12:22:42.918,0.0017380327347093,-11.218448066807882
2025-06-23 12:22:42.926,0.0017729583451175,-8.881197239947184
2025-06-23 12:22:42.934,0.0017987366619437,-6.413046119327984
2025-06-23 12:22:42.942,0.0018153936186184,-3.849565193488685
2025-06-23 12:22:42.949,0.0018230533204976,-1.2313547340919615
2025-06-23 12:22:42.957,0.0018219334056076,1.396965005155767
2025-06-23 12:22:42.965,0.0018123405427721,3.987934240462979
2025-06-23 12:22:42.973,0.0017946660426144,6.492562208072688
2025-06-23 12:22:42.981,0.0017693814992931,8.861716070055769
2025-06-23 12:22:42.988,0.0017370343333159,11.047539314606889
2025-06-23 12:22:42.996,0.0016982430418619,13.004847893105834
2025-06-23 12:22:43.004,0.0016536918955961,14.69245369697609
2025-06-23 12:22:43.012,0.001604124795157,16.074368513525407
2025-06-23 12:22:43.020,0.0015503380448876,17.12084711907755
2025-06-23 12:22:43.028,0.0014931719006326,17.809235375891852
2025-06-23 12:22:43.035,0.001433500860165,18.124597710828688
2025-06-23 12:22:43.043,0.00137222275691,18.06010770698121
2025-06-23 12:22:43.051,0.0013102467824347,17.61719522664718
2025-06-23 12:22:43.059,0.00124848060305,16.805452990565392
2025-06-23 12:22:43.067,0.0011878167614256,15.642314384303958
2025-06-23 12:22:43.074,0.0011291185902477,14.152522037008705
2025-06-23 12:22:43.082,0.0010732059270217,12.367413103465246
2025-06-23 12:22:43.090,0.0010208409912464,10.324051971395576
2025-06-23 12:22:43.098,0.0009727148419163,8.064244224171409
2025-06-23 12:22:43.106,0.0009294348634543,5.633467140517507
2025-06-23 12:22:43.113,0.0008915137270539,3.079751929084668
2025-06-23 12:22:43.121,0.0008593602376465,0.4525514681395093
2025-06-23 12:22:43.129,0.0008332724036577,-2.198375217910492
2025-06-23 12:22:43.137,0.0008134329573787,-4.824033910563924
2025-06-23 12:22:43.145,0.0007999074170195,-7.377197743515945
2025-06-23 12:22:43.153,0.0007926446511493,-9.8133218635851
2025-06-23 12:22:43.160,0.000791479826798,-12.0913551992243
2025-06-23 12:22:43.168,0.0007961396119442,-14.174438699591104
2025-06-23 12:22:43.176,0.000806249534293,-16.03048347847224
2025-06-23 12:22:43.184,0.0008213434196397,-17.63262591129909
2025-06-23 12:22:43.192,0.0008408748132551,-18.95955978299681
2025-06-23 12:22:43.199,0.0008642302343588,-19.995748021331863
2025-06-23 12:22:43.207,0.0008907440460673,-20.731518383510178
2025-06-23 12:22:43.215,0.0009197146483761,-21.16304875251481
2025-06-23 12:22:43.223,0.0009504216293602,-21.29224854844855
2025-06-23 12:22:43.231,0.0009821434613841,-21.126543309881804
2025-06-23 12:22:43.238,0.0010141753161906,-20.678569911213785
2025-06-23 12:22:43.246,0.0010458465801622,-19.965790305896213
2025-06-23 12:22:43.254,0.0010765376555085,-19.01003223172776
2025-06-23 12:22:43.262,0.0011056956333928,-17.836966025579287
2025-06-23 12:22:43.270,0.0011328484418837,-16.47552753760817
2025-06-23 12:22:43.278,0.0011576171162508,-14.95729801109067
2025-06-23 12:22:43.285,0.0011797258881205,-13.315852565950015
2025-06-23 12:22:43.293,0.0011990098008919,-11.58608944899036
2025-06-23 12:22:43.301,0.0012154195204297,-9.80355237529885
2025-06-23 12:22:43.309,0.0012290229705262,-8.003758013229497
2025-06-23 12:22:43.317,0.0012400034451357,-6.221539942299599
2025-06-23 12:22:43.324,0.001248653946176,-4.490419271375734
2025-06-23 12:22:43.332,0.0012553676323261,-2.8420106199368864
2025-06-23 12:22:43.340,0.0012606244177424,-1.3054704524267715
2025-06-23 12:22:43.348,0.0012649739386751,0.0930070393772165
2025-06-23 12:22:43.356,0.0012690153163311,1.3306430209107882
2025-06-23 12:22:43.363,0.0012733743574624,2.388474029221725
2025-06-23 12:22:43.371,0.0012786789995887,3.251697895084537
2025-06-23 12:22:43.379,0.0012855338971578,3.9099649869927022
2025-06-23 12:22:43.387,0.0012944950775061,4.357613957629712
2025-06-23 12:22:43.395,0.0013060456143242,4.593850261909165
2025-06-23 12:22:43.403,0.0013205732993643,4.622864217449009
2025-06-23 12:22:43.410,0.0013383513356595,4.453883482187291
2025-06-23 12:22:43.418,0.0013595230905004,4.101152798087996
2025-06-23 12:22:43.426,0.0013840918805286,3.5838320124794087
2025-06-23 12:22:43.434,0.0014119165781213,2.925802072275468
2025-06-23 12:22:43.442,0.0014427135292747,2.1553682061270063
2025-06-23 12:22:43.449,0.0014760648931954,1.3048501334958889
2025-06-23 12:22:43.457,0.0015114331034297,0.4100510601989708
2025-06-23 12:22:43.465,0.0015481807435595,-0.490399473714032
2025-06-23 12:22:43.473,0.0015855947273109,-1.355829170566652
2025-06-23 12:22:43.481,0.0016229132902424,-2.144427411408369
2025-06-23 12:22:43.488,0.0016593540265941,-2.8142582549974744
2025-06-23 12:22:43.496,0.0016941411504043,-3.324362481459249
2025-06-23 12:22:43.504,0.0017265303542732,-3.635921936458218
2025-06-23 12:22:43.512,0.0017558300141491,-3.713452729013632
2025-06-23 12:22:43.520,0.0017814179428728,-3.525988192566365
2025-06-23 12:22:43.528,0.0018027533452467,-3.0482084339556264
2025-06-23 12:22:43.535,0.0018193840198856,-2.261471186921958
2025-06-23 12:22:43.543,0.0018309491638667,-1.1546988540226717
2025-06-23 12:22:43.551,0.0018371783561482,0.2749207859872257
2025-06-23 12:22:43.559,0.0018378874195829,2.0214577232618494
2025-06-23 12:22:43.567,0.0018329718974181,4.0700169990370405
2025-06-23 12:22:43.574,0.001822398854708,6.396791288930302
2025-06-23 12:22:43.582,0.001806197654884,8.969399413595415
2025-06-23 12:22:43.590,0.0017844502817185,11.747510003984504
2025-06-23 12:22:43.598,0.0017572816842606,14.683737883568474
2025-06-23 12:22:43.606,0.0017248505227144,17.72478938990839
2025-06-23 12:22:43.614,0.0016873405922901,20.81282239647398
2025-06-23 12:22:43.621,0.0016449531051027,23.88697770480977
2025-06-23 12:22:43.629,0.0015978999220781,26.88503116791604
2025-06-23 12:22:43.637,0.0015463977517475,29.74511069141933
2025-06-23 12:22:43.645,0.0014906632741959,32.40741934810975
2025-06-23 12:22:43.653,0.0014309091088208,34.81590533787631
2025-06-23 12:22:43.660,0.001367340525509,36.91982143193063
2025-06-23 12:22:43.668,0.0013001528009318,38.675120759981006
2025-06-23 12:22:43.676,0.0012295291427702,40.0456421351108
2025-06-23 12:22:43.684,0.0011556391336739,41.0040462754815
2025-06-23 12:22:43.692,0.001078637660568,41.532473909026415
2025-06-23 12:22:43.699,0.0009986642790541,41.622907408437314
2025-06-23 12:22:43.707,0.0009158429393478,41.27722882194238
2025-06-23 12:22:43.715,0.0008302820129446,40.506978436767554
2025-06-23 12:22:43.723,0.0007420746190019,39.332828838111816
2025-06-23 12:22:43.731,0.0006512993164884,37.78379934769594
2025-06-23 12:22:43.739,0.0005580212540716,35.89624434700217
2025-06-23 12:22:43.746,0.0004622938433122,33.71265599153165
2025-06-23 12:22:43.754,0.0003641609700966,31.280326966763948
2025-06-23 12:22:43.762,0.0002636597197486,28.64992207796305
2025-06-23 12:22:43.770,0.0001608235717098,25.874008557432585
2025-06-23 12:22:43.778,5.5685997083100194e-05,23.005594067150003
2025-06-23 12:22:43.785,-5.171565625220326e-05,20.096718615965177
2025-06-23 12:22:43.793,-0.0001613361719123,17.197142219473058
2025-06-23 12:22:43.801,-0.0002731185947799,14.35316438916096
2025-06-23 12:22:43.809,-0.0003869907090538,11.606604772906689
2025-06-23 12:22:43.817,-0.0005028620427205,8.99396683747526
2025-06-23 12:22:43.824,-0.0006206215080702,6.545798750731682
2025-06-23 12:22:43.832,-0.0007401357277094,4.286257940746525
2025-06-23 12:22:43.840,-0.0008612480586422,2.2328785054494857
2025-06-23 12:22:43.848,-0.0009837783177689,0.396534002052301
2025-06-23 12:22:43.856,-0.0011075232242251,-1.2184176114704297
2025-06-23 12:22:43.864,-0.0012322575873014,-2.613824813435714
2025-06-23 12:22:43.871,-0.0013577362617079,-3.797290612074444
2025-06-23 12:22:43.879,-0.0014836968587438,-4.781601729793718
2025-06-23 12:22:43.887,-0.0016098631476155,-5.584063905525695
2025-06-23 12:22:43.895,-0.0017359490118962,-6.225768461627911
2025-06-23 12:22:43.903,-0.0018616627587828,-6.730814461440688
2025-06-23 12:22:43.910,-0.0019867115434926,-7.125509188814274
2025-06-23 12:22:43.918,-0.0021108056857004,-7.437567492405422
2025-06-23 12:22:43.926,-0.0022336627014876,-7.695327940123401
2025-06-23 12:22:43.934,-0.0023550109130102,-7.927000900239204
2025-06-23 12:22:43.942,-0.0024745925093585,-8.15996076655859
2025-06-23 12:22:43.949,-0.0025921659334704,-8.420091717480506
2025-06-23 12:22:43.957,-0.0027075074814344,-8.731193765919512
2025-06-23 12:22:43.965,-0.0028204120160054,-9.114453523833433
2025-06-23 12:22:43.973,-0.0029306927097045,-9.587982155251536
2025-06-23 12:22:43.981,-0.0030381797649636,-10.166421483634757
2025-06-23 12:22:43.989,-0.0031427181293712,-10.86061818322476
2025-06-23 12:22:43.996,-0.0032441643242502,-11.677365421358449
2025-06-23 12:22:44.004,-0.0033423826148243,-12.619211203571144
2025-06-23 12:22:44.012,-0.0034372408549976,-13.684332951529145
2025-06-23 12:22:44.020,-0.0035286064097414,-14.866478430732718
2025-06-23 12:22:44.028,-0.0036163425520931,-16.154973926927706
2025-06-23 12:22:44.035,-0.0037003056375859,-17.53480141633574
2025-06-23 12:22:44.043,-0.0037803432116503,-18.986747253578447
2025-06-23 12:22:44.051,-0.0038562930634681,-20.48762548985708
2025-06-23 12:22:44.059,-0.003927983149676,-22.01057921790037
2025-06-23 12:22:44.067,-0.0039952322855212,-23.525463210676445
2025-06-23 12:22:44.074,-0.0040578515153341,-24.999310480671465
2025-06-23 12:22:44.082,-0.0041156460817638,-26.396884161419376
2025-06-23 12:22:44.090,-0.0041684178694929,-27.681314261349986
2025-06-23 12:22:44.098,-0.004215968100751,-28.814816359427667
2025-06-23 12:22:44.106,-0.0042580999645039,-29.7594862458568
2025-06-23 12:22:44.114,-0.0042946208395062,-30.478160954584027
2025-06-23 12:22:44.121,-0.0043253438347979,-30.935332734265668
2025-06-23 12:22:44.129,-0.0043500884711109,-31.0980984517051
2025-06-23 12:22:44.137,-0.0043686804246896,-30.937122941815023
2025-06-23 12:22:44.145,-0.0043809503603559,-30.42759116220644
2025-06-23 12:22:44.153,-0.0043867320104378,-29.5501209458238
2025-06-23 12:22:44.160,-0.0043858597926396,-28.291605938507104
2025-06-23 12:22:44.168,-0.0043781663638931,-26.64595720357364
2025-06-23 12:22:44.176,-0.0043634805538191,-24.61471216947231
2025-06-23 12:22:44.184,-0.0043416261090517,-22.207481222446223
2025-06-23 12:22:44.192,-0.0043124216187429,-19.44220536286423
2025-06-23 12:22:44.199,-0.0042756818958978,-16.345202928360255
2025-06-23 12:22:44.207,-0.0042312209738994,-12.950989327994296
2025-06-23 12:22:44.215,-0.0041788567585342,-9.301860830208115
2025-06-23 12:22:44.223,-0.0041184172690265,-5.447241426869148
2025-06-23 12:22:44.231,-0.0040497483210524,-1.4428003212541725
2025-06-23 12:22:44.239,-0.0039727224537386,2.650643712851782
2025-06-23 12:22:44.246,-0.0038872488624936,6.768406370534331
2025-06-23 12:22:44.254,-0.0037932840381306,10.843377643565818
2025-06-23 12:22:44.262,-0.0036908427203068,14.80757791534008
2025-06-23 12:22:44.270,-0.0035800086772159,18.59378518275716
2025-06-23 12:22:44.278,-0.0034609447531459,22.13718420911721
2025-06-23 12:22:44.285,-0.0033339015819489,25.376986129207545
2025-06-23 12:22:44.293,-0.003199224339729,28.257966662028004
2025-06-23 12:22:44.301,-0.0030573569102616,30.731872710579463
2025-06-23 12:22:44.309,-0.0029088428736246,32.75865073364517
2025-06-23 12:22:44.317,-0.0027543228126499,34.307455763750575
2025-06-23 12:22:44.324,-0.0025945275732344,35.35740712835679
2025-06-23 12:22:44.332,-0.0024302673112093,35.8980655306914
2025-06-23 12:22:44.340,-0.0022624163911252,35.92961580969892
2025-06-23 12:22:44.348,-0.0020918944514131,35.46275001306542
2025-06-23 12:22:44.356,-0.0019196442079633,34.51825593355681
2025-06-23 12:22:44.364,-0.0017466068314799,33.12632651873572
2025-06-23 12:22:44.371,-0.0015736959907527,31.32561512953349
2025-06-23 12:22:44.379,-0.0014017718681025,29.16207009890049
2025-06-23 12:22:44.387,-0.0012316165676208,26.687589089797797
2025-06-23 12:22:44.395,-0.0010639123064382,23.95853910291937
2025-06-23 12:22:44.403,-0.000899223607086,21.03419145182876
2025-06-23 12:22:44.410,-0.000737984439459,17.975122514610515
2025-06-23 12:22:44.418,-0.0005804909375009,14.841630593711304
2025-06-23 12:22:44.426,-0.0004268999618696,11.69221686966418
2025-06-23 12:22:44.434,-0.00027723341912,8.582174401931097
2025-06-23 12:22:44.442,-0.0001313879166472,5.562323660605317
2025-06-23 12:22:44.449,1.085093606855934e-05,2.677926466867472
2025-06-23 12:22:44.457,0.0001497904577947,-0.0321971860649228
2025-06-23 12:22:44.465,0.0002858100368404,-2.5363328117948085
2025-06-23 12:22:44.473,0.000419338476887,-4.810306935765407
2025-06-23 12:22:44.481,0.0005508304799973,-6.837693465405306
2025-06-23 12:22:44.489,0.0006807430989744,-8.6097971577298
2025-06-23 12:22:44.496,0.0008095129006497,-10.125426858236152
2025-06-23 12:22:44.504,0.0009375345264754,-11.39047670133712
2025-06-23 12:22:44.512,0.0010651412948611,-12.417337939758989
2025-06-23 12:22:44.520,0.0011925884165655,-13.224167446874151
2025-06-23 12:22:44.528,0.0013200392690557,-13.834041194163508
2025-06-23 12:22:44.535,0.0014475550208037,-14.274022164966068
2025-06-23 12:22:44.543,0.0015750877582484,-14.574172278746774
2025-06-23 12:22:44.551,0.0017024771707992,-14.766537055251712
2025-06-23 12:22:44.559,0.0018294507713408,-14.88413006629092
2025-06-23 12:22:44.567,0.0019556275360342,-14.95994185433812
2025-06-23 12:22:44.574,0.0020805247375338,-15.0259951131595
2025-06-23 12:22:44.582,0.0022035676549024,-15.112464709732429
2025-06-23 12:22:44.590,0.0023241017930635,-15.24687776263205
2025-06-23 12:22:44.598,0.0024414072129013,-15.45340565363363
2025-06-23 12:22:44.606,0.0025547145253983,-15.752256691762769
2025-06-23 12:22:44.614,0.0026632220420263,-16.15917530060655
2025-06-23 12:22:44.621,0.0027661135452372,-16.685051152966036
2025-06-23 12:22:44.629,0.0028625761916621,-17.335639683521773
2025-06-23 12:22:44.637,0.0029518181768313,-18.111393880472978
2025-06-23 12:22:44.645,0.003033085905646,-19.0074061640142
2025-06-23 12:22:44.653,0.0031056804586537,-20.013458443333864
2025-06-23 12:22:44.660,0.0031689731122338,-21.11417801510704
2025-06-23 12:22:44.668,0.0032224196040312,-22.289296708523807
2025-06-23 12:22:44.676,0.0032655727753954,-23.51401045905568
2025-06-23 12:22:44.684,0.0032980931997668,-24.759436166062475
2025-06-23 12:22:44.692,0.0033197574520883,-25.99316213034901
2025-06-23 12:22:44.699,0.0033304638001445,-27.179887471345005
2025-06-23 12:22:44.707,0.0033302352620248,-28.28214461564636
2025-06-23 12:22:44.715,0.0033192201103807,-29.2610971986754
2025-06-23 12:22:44.723,0.0032976899866248,-30.077403550891823
2025-06-23 12:22:44.731,0.0032660358340797,-30.692133421361003
2025-06-23 12:22:44.739,0.0032247618871657,-31.06772283753815
2025-06-23 12:22:44.746,0.0031744779508768,-31.16894915818597
2025-06-23 12:22:44.754,0.0031158901393563,-30.96390562651461
2025-06-23 12:22:44.762,0.0030497901140644,-30.42495227964714
2025-06-23 12:22:44.770,0.0029770427294936,-29.52961813540201
2025-06-23 12:22:44.778,0.0028985719290485,-28.261428364542343
2025-06-23 12:22:44.785,0.0028153447469296,-26.610629842931168
2025-06-23 12:22:44.793,0.002728353314519,-24.574789195717557
2025-06-23 12:22:44.801,0.0026385948023812,-22.15923927133157
2025-06-23 12:22:44.809,0.0025470492606405,-19.37735292994746
2025-06-23 12:22:44.817,0.0024546553775423,-16.25062704458163
2025-06-23 12:22:44.824,0.0023622842700795,-12.80856457125891
2025-06-23 12:22:44.832,0.0022707115546209,-9.088348267539
2025-06-23 12:22:44.840,0.0021805881200992,-5.134305903486694
2025-06-23 12:22:44.848,0.0020924102364055,-0.9971733668947635
2025-06-23 12:22:44.856,0.0020064898688608,3.2668313478980275
2025-06-23 12:22:44.864,0.0019229263201192,7.597103926843516
2025-06-23 12:22:44.871,0.0018415805517157,11.929894096429384
2025-06-23 12:22:44.879,0.0017620537231486,16.199660209143467
2025-06-23 12:22:44.887,0.0016836716217221,20.34050346207767
2025-06-23 12:22:44.895,0.001605476724355,24.28764395594831
2025-06-23 12:22:44.903,0.0015262295904828,27.978898736362463
2025-06-23 12:22:44.910,0.0014444211087972,31.35612107384433
2025-06-23 12:22:44.918,0.0013582968264175,34.366560544582875
2025-06-23 12:22:44.926,0.0012658941967923,36.96410496322893
2025-06-23 12:22:44.934,0.0011650930917331,39.1103678761904
2025-06-23 12:22:44.942,0.0010536793394366,40.77558911792951
2025-06-23 12:22:44.949,0.000929420409484,41.93932080685338
2025-06-23 12:22:44.957,0.0007901517168031,42.59087701979303
2025-06-23 12:22:44.965,0.0006338713982425,42.72953210362866
2025-06-23 12:22:44.973,0.0004588408582867,42.36445998582845
2025-06-23 12:22:44.981,0.000263687915729,41.51441471544504
2025-06-23 12:22:44.989,4.750903028995752e-05,40.20716054384733
2025-06-23 12:22:44.996,-0.0001900331587216,38.47866784598477
2025-06-23 12:22:45.004,-0.0004486209151517,36.37209876973199
2025-06-23 12:22:45.012,-0.0007272051442528,33.93661335722948
2025-06-23 12:22:45.020,-0.001023945830144,31.22603269701075
2025-06-23 12:22:45.028,-0.0013361730706178,28.2974001657648
2025-06-23 12:22:45.035,-0.0016603722614491,25.20948479196103
2025-06-23 12:22:45.043,-0.0019921964429337,22.021272089687685
2025-06-23 12:22:45.051,-0.0023265081222497,18.790487330687167
2025-06-23 12:22:45.059,-0.0026574520541113,15.572194197253053
2025-06-23 12:22:45.067,-0.0029785595060385,12.41750822392013
2025-06-23 12:22:45.074,-0.0032828834438301,9.372459601163392
2025-06-23 12:22:45.082,-0.0035631628538211,6.477034047641958
2025-06-23 12:22:45.090,-0.0038120131155486,3.764413863361361
2025-06-23 12:22:45.098,-0.0040221380056741,1.2604342707063751
2025-06-23 12:22:45.106,-0.0041865575883374,-1.016736959806492
2025-06-23 12:22:45.114,-0.004298844973784,-3.056695536475098
2025-06-23 12:22:45.121,-0.0043533637848079,-4.856677779724872
2025-06-23 12:22:45.129,-0.0043454972428481,-6.421230217900459
2025-06-23 12:22:45.137,-0.0042718591320615,-7.761688144885539
2025-06-23 12:22:45.145,-0.0041304765812569,-8.89548392963163
2025-06-23 12:22:45.153,-0.0039209347138512,-9.845309265259258
2025-06-23 12:22:45.160,-0.003644473860727,-10.63815805904649
2025-06-23 12:22:45.168,-0.0033040312802749,-11.304278343062183
2025-06-23 12:22:45.176,-0.0029042211948621,-11.87606249940977
2025-06-23 12:22:45.184,-0.0024512494020337,-12.3869053215607
2025-06-23 12:22:45.192,-0.0019527617191632,-12.870059051275362
2025-06-23 12:22:45.199,-0.0014176290526218,-13.357513615369612
2025-06-23 12:22:45.207,-0.0008556758928156,-13.878928912234564
2025-06-23 12:22:45.215,-0.0002773633339406,-14.46064423213695
2025-06-23 12:22:45.223,0.0003065581628234,-15.12478779304745
2025-06-23 12:22:45.231,0.0008854078922655,-15.888506975740423
2025-06-23 12:22:45.239,0.0014489262075967,-16.763337179240406
2025-06-23 12:22:45.246,0.0019875991631009,-17.75472431734991
2025-06-23 12:22:45.254,0.0024929404121983,-18.86171286049231
2025-06-23 12:22:45.262,0.0029577181821106,-20.076808005584237
2025-06-23 12:22:45.270,0.0033761194923232,-21.38601703215851
2025-06-23 12:22:45.278,0.0037438480856485,-22.76907117767192
2025-06-23 12:22:45.285,0.0040581565126107,-24.19982545204113
2025-06-23 12:22:45.293,0.0043178162761513,-25.64682974262468
2025-06-23 12:22:45.301,0.0045230327761398,-27.07406038984846
2025-06-23 12:22:45.309,0.0046753138970358,-28.441797217729047
2025-06-23 12:22:45.317,0.0047773024111739,-29.7076268844285
2025-06-23 12:22:45.324,0.0048325829492159,-30.827549501639805
2025-06-23 12:22:45.332,0.0048454742141252,-31.757161904657988
2025-06-23 12:22:45.340,0.0048208165113679,-32.45288789723541
2025-06-23 12:22:45.348,0.0047637636517718,-32.87322340960794
2025-06-23 12:22:45.356,0.0046795869634457,-32.979962949094514
2025-06-23 12:22:45.364,0.0045734976343215,-32.7393731252914
2025-06-23 12:22:45.371,0.0044504919908864,-32.12327949916003
2025-06-23 12:22:45.379,0.004315222686481,-31.1100345978144
2025-06-23 12:22:45.387,0.0041718972304176,-29.68533766546998
2025-06-23 12:22:45.395,0.0040242039532754,-27.84288054148531
2025-06-23 12:22:45.403,0.0038752644428998,-25.584798862431253
2025-06-23 12:22:45.410,0.0037276106871726,-22.9219134048539
2025-06-23 12:22:45.418,0.0035831845551738,-19.873752588978597
2025-06-23 12:22:45.426,0.0034433567792656,-16.468353682486523
2025-06-23 12:22:45.434,0.0033089622682396,-12.741846794617494
2025-06-23 12:22:45.442,0.0031803484284958,-8.737832059526532
2025-06-23 12:22:45.449,0.0030574332171417,-4.506566228266184
2025-06-23 12:22:45.457,0.0029397698675878,-0.1039800211057365
2025-06-23 12:22:45.465,0.0028266155493927,4.409448107113565
2025-06-23 12:22:45.473,0.0027170015783996,8.969932750124599
2025-06-23 12:22:45.481,0.0026098031305721,13.51170540250064
2025-06-23 12:22:45.489,0.0025038067116142,17.968388392177822
2025-06-23 12:22:45.496,0.0023977738856437,22.274385283293487
2025-06-23 12:22:45.504,0.002290499974402,26.36625434495569
2025-06-23 12:22:45.512,0.0021808666343591,30.184032639630523
2025-06-23 12:22:45.520,0.0020678874386075,33.67247991378709
2025-06-23 12:22:45.528,0.0019507458344421,36.7822136910544
2025-06-23 12:22:45.535,0.0018288250830675,39.4707096995368
2025-06-23 12:22:45.543,0.001701729994935,41.703144947705184
2025-06-23 12:22:45.551,0.0015693004689814,43.453064349408905
2025-06-23 12:22:45.559,0.0014316170438799,44.70285575353152
2025-06-23 12:22:45.567,0.0012889988561831,45.44402253004807
2025-06-23 12:22:45.574,0.001141994536917,45.67724746812547
2025-06-23 12:22:45.582,0.0009913666507528,45.41224660133143
2025-06-23 12:22:45.590,0.000838070312591,44.66741661357086
2025-06-23 12:22:45.598,0.0006832266398637,43.46928459551116
2025-06-23 12:22:45.606,0.000528091736164,41.85177398804519
2025-06-23 12:22:45.614,0.000374021962637,39.85530541573488
2025-06-23 12:22:45.621,0.0002224363454282,37.52575561075992
2025-06-23 12:22:45.629,7.477708387258599e-05,34.913301582286884
2025-06-23 12:22:45.637,-6.753076681054564e-05,32.07118042928622
2025-06-23 12:22:45.645,-0.0002031193057709,29.05439757704593
2025-06-23 12:22:45.653,-0.0003307163704075,25.918417620945565
2025-06-23 12:22:45.660,-0.0004491816365935,22.717872311197777
2025-06-23 12:22:45.668,-0.0005575392428073,19.50531948611372
2025-06-23 12:22:45.676,-0.0006550059999168,16.33008498874149
2025-06-23 12:22:45.684,-0.0007410143276767,13.23721686270824
2025-06-23 12:22:45.692,-0.0008152291997483,10.266577541375586
2025-06-23 12:22:45.699,-0.000877558569304,7.452095474000122
2025-06-23 12:22:45.707,-0.0009281569433421,4.821192843482358
2025-06-23 12:22:45.715,-0.0009674219537399,2.394400898486992
2025-06-23 12:22:45.723,-0.0009959839517428,0.1851691242027199
2025-06-23 12:22:45.731,-0.0010146888533508,-1.8001308192053147
2025-06-23 12:22:45.739,-0.0010245746952182,-3.562010595997513
2025-06-23 12:22:45.746,-0.00102684261398,-5.10748917297956
2025-06-23 12:22:45.754,-0.0010228232017045,-6.449548738212888
2025-06-23 12:22:45.762,-0.0010139393682658,-7.606439941500517
2025-06-23 12:22:45.770,-0.0010016669334401,-8.600857195965219
2025-06-23 12:22:45.778,-0.000987494200419,-9.459007539902313
2025-06-23 12:22:45.785,-0.0009728817729786,-10.209598697783695
2025-06-23 12:22:45.793,-0.0009592238916072,-10.88277349003085
2025-06-23 12:22:45.801,-0.0009478125560294,-11.509018629308551
2025-06-23 12:22:45.809,-0.0009398056253913,-12.118076225864964
2025-06-23 12:22:45.817,-0.000936199917464,-12.737886029498709
2025-06-23 12:22:45.824,-0.0009378100865488,-13.393585581826324
2025-06-23 12:22:45.832,-0.000945253792265,-14.106594057325315
2025-06-23 12:22:45.840,-0.000958943410647,-14.893803654559024
2025-06-23 12:22:45.848,-0.0009790842950074,-15.766899986642647
2025-06-23 12:22:45.856,-0.0010056793656621,-16.731830050338008
2025-06-23 12:22:45.864,-0.0010385395909185,-17.78843307647841
2025-06-23 12:22:45.871,-0.0010772997137384,-18.930245938267923
2025-06-23 12:22:45.879,-0.0011214383857647,-20.144490874108605
2025-06-23 12:22:45.887,-0.0011703017204316,-21.41224911662541
2025-06-23 12:22:45.895,-0.0012231292091323,-22.70881965398184
2025-06-23 12:22:45.903,-0.0012790809732293,-24.00425783287666
2025-06-23 12:22:45.910,-0.0013372654161279,-25.26408390919368
2025-06-23 12:22:45.918,-0.0013967664372865,-26.45014704692072
2025-06-23 12:22:45.926,-0.001456669441279,-27.521625762591803
2025-06-23 12:22:45.934,-0.0015160854317537,-28.43614152947628
2025-06-23 12:22:45.942,-0.0015741725588582,-29.150958322657655
2025-06-23 12:22:45.949,-0.0016301546067734,-29.624237444409804
2025-06-23 12:22:45.957,-0.0016833360466371,-29.81631417295296
2025-06-23 12:22:45.965,-0.0017331134191985,-29.690960789219016
2025-06-23 12:22:45.973,-0.0017789829578771,-29.21659951428909
2025-06-23 12:22:45.981,-0.001820544523893,-28.36742897135824
2025-06-23 12:22:45.989,-0.0018575020823007,-27.124429066384824
2025-06-23 12:22:45.996,-0.0018896610832883,-25.47621170123235
2025-06-23 12:22:46.004,-0.0019169232363975,-23.419688467400498
2025-06-23 12:22:46.012,-0.0019392792848425,-20.960531324855605
2025-06-23 12:22:46.020,-0.001956800475726,-18.113408092026127
2025-06-23 12:22:46.028,-0.0019696294341402,-14.90198114692706
2025-06-23 12:22:46.035,-0.0019779710649265,-11.358664810627214
2025-06-23 12:22:46.043,-0.0019820839510464,-7.524144174092519
2025-06-23 12:22:46.051,-0.0019822725431059,-3.446665355952692
2025-06-23 12:22:46.059,-0.0019788802725354,0.8188859242747987
2025-06-23 12:22:46.067,-0.0019722835666807,5.212094242244598
2025-06-23 12:22:46.074,-0.0019628865908611,9.668284053396649
2025-06-23 12:22:46.082,-0.0019511164109479,14.119915542362127
2025-06-23 12:22:46.090,-0.0019374181880202,18.49806970620444
2025-06-23 12:22:46.098,-0.0019222499952598,22.733983139161364
2025-06-23 12:22:46.106,-0.0019060768869842,26.760591622315115
2025-06-23 12:22:46.114,-0.001889363940446,30.514041395572917
2025-06-23 12:22:46.121,-0.0018725681058769,33.935127880556344
2025-06-23 12:22:46.129,-0.0018561288193353,36.970623592873125
2025-06-23 12:22:46.137,-0.0018404574635693,39.5744599749932
2025-06-23 12:22:46.145,-0.0018259259092827,41.70873182357478
2025-06-23 12:22:46.153,-0.0018128545026547,43.34449778780576
2025-06-23 12:22:46.160,-0.001801499943224,44.46235597095277
2025-06-23 12:22:46.168,-0.0017920435152576,45.05277985060623
2025-06-23 12:22:46.176,-0.0017845801371898,45.116206401218925
2025-06-23 12:22:46.184,-0.0017791087276805,44.66287529356214
2025-06-23 12:22:46.192,-0.001775524470714,43.7124251740819
2025-06-23 12:22:46.199,-0.0017736136654464,42.29326007989724
2025-06-23 12:22:46.207,-0.0017730519050384,40.44170578418451
2025-06-23 12:22:46.215,-0.0017734062797528,38.20098203816083
2025-06-23 12:22:46.223,-0.0017741421169336,35.620022027985094
2025-06-23 12:22:46.231,-0.001774634478575,32.75217467063408
2025-06-23 12:22:46.239,-0.0017741842974151,29.653828450370284
2025-06-23 12:22:46.246,-0.0017720387100319,26.382997221771397
2025-06-23 12:22:46.254,-0.0017674148825864,22.99790871401767
2025-06-23 12:22:46.262,-0.0017595264380126,19.555635369459186
2025-06-23 12:22:46.270,-0.0017476114790577,16.11080471099345
2025-06-23 12:22:46.278,-0.0017309611397989,12.714422790246042
2025-06-23 12:22:46.285,-0.0017089475667822,9.412839600159913
2025-06-23 12:22:46.293,-0.0016810502222338,6.246879856128987
2025-06-23 12:22:46.301,-0.0016468794184865,3.2511565053055067
2025-06-23 12:22:46.309,-0.0016061960377737,0.453577981867116
2025-06-23 12:22:46.317,-0.0015589264775971,-2.1249461393998024
2025-06-23 12:22:46.324,-0.0015051720141649,-4.470602566050895
2025-06-23 12:22:46.332,-0.0014452120070101,-6.576581918717928
2025-06-23 12:22:46.340,-0.001379500652365,-8.44280869687523
2025-06-23 12:22:46.348,-0.001308657283858,-10.075509903880434
2025-06-23 12:22:46.356,-0.0012334504886593,-11.486641968603887
2025-06-23 12:22:46.364,-0.0011547765637945,-12.693197998466356
2025-06-23 12:22:46.371,-0.0010736330894262,-13.716418899049772
2025-06-23 12:22:46.379,-0.0009910886172099,-14.58093255936838
2025-06-23 12:22:46.387,-0.0009082496248583,-15.313845220793494
2025-06-23 12:22:46.395,-0.0008262259708594,-15.943808432526566
2025-06-23 12:22:46.403,-0.0007460961294079,-16.500083770333088
2025-06-23 12:22:46.410,-0.0006688735154117,-17.01162588614029
2025-06-23 12:22:46.418,-0.0005954751984218,-17.506202589726318
2025-06-23 12:22:46.426,-0.0005266942068426,-18.009568656847865
2025-06-23 12:22:46.434,-0.0004631764187039,-18.544708015921906
2025-06-23 12:22:46.442,-0.0004054027482217,-19.131156979737533
2025-06-23 12:22:46.450,-0.000353677028375,-19.78441933329056
2025-06-23 12:22:46.457,-0.0003081197186896,-20.515482410877013
2025-06-23 12:22:46.465,-0.0002686673610764,-21.3304418092426
2025-06-23 12:22:46.473,-0.0002350775528741,-22.23024106758774
2025-06-23 12:22:46.481,-0.0002069390794893,-23.21053144348332
2025-06-23 12:22:46.489,-0.0001836867354785,-24.26165574090076
2025-06-23 12:22:46.496,-0.0001646202584085,-25.368758900904844
2025-06-23 12:22:46.504,-0.0001489267003218,-26.51202664664199
2025-06-23 12:22:46.512,-0.0001357054733739,-27.667051798525858
2025-06-23 12:22:46.520,-0.0001239952489142,-28.80532588515712
2025-06-23 12:22:46.528,-0.0001128018727206,-29.8948513403794
2025-06-23 12:22:46.535,-0.0001011264682607,-30.900866894199112
2025-06-23 12:22:46.543,-8.799291994478605e-05,-31.786675761394022
2025-06-23 12:22:46.551,-7.247397798888732e-05,-32.51456296625037
2025-06-23 12:22:46.559,-5.371533747156919e-05,-33.04678471362617
2025-06-23 12:22:46.567,-3.095720319548015e-05,-33.34660926633268
2025-06-23 12:22:46.575,-3.552996325784063e-06,-33.37938549640673
2025-06-23 12:22:46.582,2.901505794326228e-05,-33.11361235022889
2025-06-23 12:22:46.590,6.712368637988541e-05,-32.521980123174124
2025-06-23 12:22:46.598,0.0001109998573776,-31.58235289220074
2025-06-23 12:22:46.606,0.0001607157339387,-30.278660895993585
2025-06-23 12:22:46.614,0.0002161873410893,-28.60167223425833
2025-06-23 12:22:46.621,0.0002771769213299,-26.549615078582764
2025-06-23 12:22:46.629,0.0003432988811815,-24.128624677651004
2025-06-23 12:22:46.637,0.0004140291641207,-21.35299375248428
2025-06-23 12:22:46.645,0.0004887178176666,-18.24521028573931
2025-06-23 12:22:46.653,0.0005666044527885,-14.835773015961813
2025-06-23 12:22:46.660,0.0006468362268922,-11.16278190485924
2025-06-23 12:22:46.668,0.0007284879372557,-7.271308172363735
2025-06-23 12:22:46.676,0.0008105837998758,-3.2125558923262
2025-06-23 12:22:46.684,0.0008921204813626,0.957165690173106
2025-06-23 12:22:46.692,0.0009720909021683,5.177633309768567
2025-06-23 12:22:46.700,0.0010495082185373,9.386032622048496
2025-06-23 12:22:46.707,0.0011234292541606,13.518376395152249
2025-06-23 12:22:46.715,0.0011929765711284,17.51097773642213
2025-06-23 12:22:46.723,0.0012573584067391,21.30193578493101
2025-06-23 12:22:46.731,0.0013158858382751,24.832590356460127
2025-06-23 12:22:46.739,0.0013679866910431,28.048902534181376
2025-06-23 12:22:46.746,0.0014132158293552,30.902720152835787
2025-06-23 12:22:46.754,0.001451261591285,33.352890482724064
2025-06-23 12:22:46.762,0.0014819482805763,35.36618709634569
2025-06-23 12:22:46.770,0.0015052347998795,36.91802375943172
2025-06-23 12:22:46.778,0.0015212096574591,37.99293503864549
2025-06-23 12:22:46.785,0.0015300826842027,38.58481091910576
2025-06-23 12:22:46.793,0.0015321738745952,38.69688079724131
2025-06-23 12:22:46.801,0.0015278998404243,38.34145045392149
2025-06-23 12:22:46.809,0.0015177584440965,37.53940369749004
2025-06-23 12:22:46.817,0.0015023122409528,36.31948796800906
2025-06-23 12:22:46.825,0.0014821713882868,34.71740999693719
2025-06-23 12:22:46.832,0.0014579766679089,32.77477333892851
2025-06-23 12:22:46.840,0.0014303832229942,30.537894004396065
2025-06-23 12:22:46.848,0.0014000455346659,28.056533357390755
2025-06-23 12:22:46.856,0.0013676040656706,25.382588811215754
2025-06-23 12:22:46.864,0.0013336738839908,22.568782640488777
2025-06-23 12:22:46.871,0.0012988354545624,19.667387498940084
2025-06-23 12:22:46.879,0.0012636276582895,16.729024129059987
2025-06-23 12:22:46.887,0.0012285429696697,13.801562481247789
2025-06-23 12:22:46.895,0.0011940246023168,10.929152284526122
2025-06-23 12:22:46.903,0.0011604653195468,8.151403315421529
2025-06-23 12:22:46.910,0.0011282075099126,5.502729492904932
2025-06-23 12:22:46.918,0.0010975440573201,3.011864773870512
2025-06-23 12:22:46.926,0.0010687195161063,0.7015529007556318
2025-06-23 12:22:46.934,0.0010419311550486,-1.411592408205251
2025-06-23 12:22:46.942,0.0010173295568527,-3.31706504458788
2025-06-23 12:22:46.950,0.0009950186218618,-5.010294105310363
2025-06-23 12:22:46.957,0.0009750549955143,-6.492336871910916
2025-06-23 12:22:46.965,0.0009574471000134,-7.769454791635166
2025-06-23 12:22:46.973,0.0009421540900193,-8.852591462150624
2025-06-23 12:22:46.981,0.0009290851523715,-9.756772218257334
2025-06-23 12:22:46.989,0.0009180996032292,-10.500444823430277
2025-06-23 12:22:46.996,0.0009090081854773,-11.104780088621872
2025-06-23 12:22:47.004,0.0009015758565073,-11.5929500920744
2025-06-23 12:22:47.012,0.0008955262283645,-11.989400181987833
2025-06-23 12:22:47.020,0.0008905477033327,-12.31912923752063
2025-06-23 12:22:47.028,0.0008863012284597,-12.606990866920828
2025-06-23 12:22:47.035,0.0008824294626155,-12.877026446931602
2025-06-23 12:22:47.043,0.0008785670248237,-13.151839250580435
2025-06-23 12:22:47.051,0.0008743513981167,-13.452017443848456
2025-06-23 12:22:47.059,0.0008694340106266,-13.795612499358834
2025-06-23 12:22:47.067,0.0008634910057191,-14.197678591561392
2025-06-23 12:22:47.075,0.000856233245297,-14.669877793735369
2025-06-23 12:22:47.082,0.0008474151536602,-15.220155364462254
2025-06-23 12:22:47.090,0.0008368420785676,-15.852489043777432
2025-06-23 12:22:47.098,0.0008243759064744,-16.566716014896542
2025-06-23 12:22:47.106,0.000809938732187,-17.35844095730252
2025-06-23 12:22:47.114,0.0007935144696285,-18.21902835542503
2025-06-23 12:22:47.121,0.0007751483985108,-19.13568187398683
2025-06-23 12:22:47.129,0.000754944746485,-20.09161310619216
2025-06-23 12:22:47.137,0.0007330624830143,-21.06630128068621
2025-06-23 12:22:47.145,0.0007097095407185,-22.03584451515222
2025-06-23 12:22:47.153,0.0006851356908079,-22.97340187624032
2025-06-23 12:22:47.160,0.0006596243055526,-23.849723813369103
2025-06-23 12:22:47.168,0.0006334832665293,-24.633766468660884
2025-06-23 12:22:47.176,0.0006070353228068,-25.293382947185528
2025-06-23 12:22:47.184,0.0005806082445246,-25.79608191447421
2025-06-23 12:22:47.192,0.0005545251304791,-26.10984096185848
2025-06-23 12:22:47.200,0.0005290952046544,-26.203959170175104
2025-06-23 12:22:47.207,0.0005046053846453,-26.04993036407832
2025-06-23 12:22:47.215,0.0004813128484607,-25.62231585788249
2025-06-23 12:22:47.223,0.0004594387888174,-24.899593233095693
2025-06-23 12:22:47.231,0.0004391635253933,-23.86495603715337
2025-06-23 12:22:47.239,0.0004206231213867,-22.507038415921265
2025-06-23 12:22:47.246,0.0004039075968103,-20.82053872709883
2025-06-23 12:22:47.254,0.0003890607384704,-18.80671723286486
2025-06-23 12:22:47.262,0.0003760813860017,-16.47374510443551
2025-06-23 12:22:47.270,0.0003649259588733,-13.836885207212632
2025-06-23 12:22:47.278,0.0003555119279264,-10.918489432434106
2025-06-23 12:22:47.285,0.0003477219489567,-7.747802594396452
2025-06-23 12:22:47.293,0.0003414084389409,-4.360568954228761
2025-06-23 12:22:47.301,0.000336398438689,-0.7984440414412808
2025-06-23 12:22:47.309,0.0003324986412456,2.891778640192717
2025-06-23 12:22:47.317,0.0003295004809706,6.659109510166875
2025-06-23 12:22:47.325,0.0003271851939858,10.44945027574432
2025-06-23 12:22:47.332,0.0003253287838511,14.206797614597605
2025-06-23 12:22:47.340,0.0003237068543816,17.874528915444003
2025-06-23 12:22:47.348,0.0003220993018833,21.39673186039218
2025-06-23 12:22:47.356,0.0003202948795868,24.719537042217944
2025-06-23 12:22:47.364,0.0003180956330999,27.79241174496539
2025-06-23 12:22:47.371,0.0003153211456142,30.569373577540205
2025-06-23 12:22:47.379,0.0003118124499201,33.010084867327826
2025-06-23 12:22:47.387,0.0003074354077183,35.08079254537675
2025-06-23 12:22:47.395,0.0003020833517613,36.755083554805786
2025-06-23 12:22:47.403,0.0002956788202995,38.01443237671754
2025-06-23 12:22:47.410,0.0002881742624092,38.84852480453976
2025-06-23 12:22:47.418,0.0002795516475354,39.25535026005614
2025-06-23 12:22:47.426,0.0002698209699393,39.24106335026468
2025-06-23 12:22:47.434,0.0002590176956591,38.81962362576628
2025-06-23 12:22:47.442,0.0002471992563633,38.012230246606926
2025-06-23 12:22:47.450,0.000234440749759,36.84657515052952
2025-06-23 12:22:47.457,0.0002208300570633,35.355944061092266
2025-06-23 12:22:47.465,0.0002064626331717,33.57819904538281
2025-06-23 12:22:47.473,0.0001914362536097,31.5546791868352
2025-06-23 12:22:47.481,0.0001758459906316,29.32905721264199
2025-06-23 12:22:47.489,0.0001597796281998,26.9461896229562
2025-06-23 12:22:47.496,0.0001433136372297,24.45099610308065
2025-06-23 12:22:47.504,0.000126509765601,21.88740092039953
2025-06-23 12:22:47.512,0.0001094122770374,19.297364829116347
2025-06-23 12:22:47.520,9.204587824069186e-05,16.720030980955002
2025-06-23 12:22:47.528,7.441436971418503e-05,14.191002745841574
2025-06-23 12:22:47.535,5.650004042020256e-05,11.74176547032948
2025-06-23 12:22:47.543,3.826382408448542e-05,9.399258327488347
2025-06-23 12:22:47.551,1.964624498007113e-05,7.185596808089064
2025-06-23 12:22:47.559,5.691681372853e-07,5.117941304995801
2025-06-23 12:22:47.567,-1.9061680053497123e-05,3.208502837924662
2025-06-23 12:22:47.575,-3.935350291705168e-05,1.464673380907634
2025-06-23 12:22:47.582,-6.042262996175899e-05,-0.1107344456575444
2025-06-23 12:22:47.590,-8.239020235969315e-05,-1.5191553635537776
2025-06-23 12:22:47.598,-0.0001053774422346,-2.7658651012122606
2025-06-23 12:22:47.606,-0.0001295006538987,-3.8595178942947417
2025-06-23 12:22:47.614,-0.0001548661774709,-4.811645457887567
2025-06-23 12:22:47.621,-0.0001815655596293,-5.636133962234021
2025-06-23 12:22:47.629,-0.0002096711960547,-6.348693982096345
2025-06-23 12:22:47.637,-0.0002392326481915,-6.966336495398673
2025-06-23 12:22:47.645,-0.0002702737672519,-7.506865902963426
2025-06-23 12:22:47.653,-0.0003027906823874,-7.988398842270986
2025-06-23 12:22:47.660,-0.0003367506408668,-8.428915378236432
2025-06-23 12:22:47.668,-0.0003720916501696,-8.845847067159458
2025-06-23 12:22:47.676,-0.000408722878335,-9.255704488001832
2025-06-23 12:22:47.684,-0.0004465258051707,-9.67374518286649
2025-06-23 12:22:47.692,-0.0004853561575831,-10.113681593220624
2025-06-23 12:22:47.700,-0.0005250466931521,-10.587427552568435
2025-06-23 12:22:47.707,-0.0005654109050264,-11.104881220179324
2025-06-23 12:22:47.715,-0.0006062476840727,-11.673742022357604
2025-06-23 12:22:47.723,-0.0006473468784634,-12.299359202489589
2025-06-23 12:22:47.731,-0.0006884955638747,-12.98460994705697
2025-06-23 12:22:47.739,-0.000729484727457,-13.729805711382788
2025-06-23 12:22:47.746,-0.0007701160024886,-14.532626258861896
2025-06-23 12:22:47.754,-0.0008102080593273,-15.388081982639736
2025-06-23 12:22:47.762,-0.0008496022423792,-16.28850622424669
2025-06-23 12:22:47.770,-0.0008881670436792,-17.223580458763617
2025-06-23 12:22:47.778,-0.0009258010435574,-18.180396292941506
2025-06-23 12:22:47.785,-0.0009624340407011,-19.14355912515765
2025-06-23 12:22:47.793,-0.0009980262229285,-20.095338938770247
2025-06-23 12:22:47.801,-0.0010325653704302,-21.01587393283038
2025-06-23 12:22:47.809,-0.0010660622204553,-21.883432433082447
2025-06-23 12:22:47.817,-0.0010985442436132,-22.67473769259428
2025-06-23 12:22:47.825,-0.001130048161904,-23.36535874288621
2025-06-23 12:22:47.832,-0.0011606115633677,-23.930168392085044
2025-06-23 12:22:47.840,-0.0011902639633093,-24.34386682398217
2025-06-23 12:22:47.848,-0.0012190176733657,-24.581566103514906
2025-06-23 12:22:47.856,-0.0012468588895326,-24.619427350113
2025-06-23 12:22:47.864,-0.0012737394769253,-24.43533855418759
2025-06-23 12:22:47.871,-0.0012995699670846,-24.009617182732008
2025-06-23 12:22:47.879,-0.0013242142679978,-23.32571808426865
2025-06-23 12:22:47.887,-0.0013474865302351,-22.370924019738613
2025-06-23 12:22:47.895,-0.0013691505303039,-21.13699367397556
2025-06-23 12:22:47.903,-0.0013889218149133,-19.620740482575265
2025-06-23 12:22:47.910,-0.0014064726906802,-17.824515246548025
2025-06-23 12:22:47.918,-0.0014214399720733,-15.75656645861616
2025-06-23 12:22:47.926,-0.0014334352572909,-13.431254623372416
2025-06-23 12:22:47.934,-0.0014420573935034,-10.86910063298114
2025-06-23 12:22:47.942,-0.0014469066905622,-8.096653384328988
2025-06-23 12:22:47.950,-0.0014476003302302,-5.146168121694468
2025-06-23 12:22:47.957,-0.0014437883238097,-2.055094203328861
2025-06-23 12:22:47.965,-0.0014351693352513,1.1346212067276402
2025-06-23 12:22:47.973,-0.0014215057125526,4.377399006164186
2025-06-23 12:22:47.981,-0.001402637116614,7.625041250246845
2025-06-23 12:22:47.989,-0.0013784921626694,10.827861953053436
2025-06-23 12:22:47.996,-0.0013490974975913,13.93589992199502
2025-06-23 12:22:48.004,-0.0013145837664161,16.90017323141049
2025-06-23 12:22:48.012,-0.0012751880011995,19.673931961370293
2025-06-23 12:22:48.020,-0.0012312520868861,22.213864805251657
2025-06-23 12:22:48.028,-0.0011832171112853,24.48121617713413
2025-06-23 12:22:48.035,-0.0011316136033791,26.4427734952088
2025-06-23 12:22:48.043,-0.0010770479163773,28.071689232479105
2025-06-23 12:22:48.051,-0.0010201852912827,29.34810886349245
2025-06-23 12:22:48.059,-0.0009617303925316,30.25958366562802
2025-06-23 12:22:48.067,-0.0009024063020232,30.80125606225136
2025-06-23 12:22:48.075,-0.0008429330765732,30.97581438516287
2025-06-23 12:22:48.082,-0.0007840070132064,30.79322312262159
2025-06-23 12:22:48.090,-0.0007262817269265,30.270243444786125
2025-06-23 12:22:48.098,-0.0006703520287244,29.429766631640828
2025-06-23 12:22:48.106,-0.0006167414014377,28.299989604890385
2025-06-23 12:22:48.114,-0.000565893613236,26.913466807961424
2025-06-23 12:22:48.121,-0.0005181686918247,25.306076010708058
2025-06-23 12:22:48.129,-0.000473843127059,23.515937166398054
2025-06-23 12:22:48.137,-0.0004331138177458,21.58232324762387
2025-06-23 12:22:48.145,-0.0003961049863574,19.544600151334095
2025-06-23 12:22:48.153,-0.0003628770941525,17.441229475413266
2025-06-23 12:22:48.160,-0.0003334367115178,15.308863466047564
2025-06-23 12:22:48.168,-0.0003077463330689,13.181555993191802
2025-06-23 12:22:48.176,-0.0002857332608775,11.090107337791313
2025-06-23 12:22:48.184,-0.0002672968807886,9.06155419188882
2025-06-23 12:22:48.192,-0.0002523138991138,7.11880990250495
2025-06-23 12:22:48.200,-0.0002406413812714,5.280453933051249
2025-06-23 12:22:48.207,-0.0002321177174731,3.5606640337858475
2025-06-23 12:22:48.215,-0.0002265618827697,1.9692799120811844
2025-06-23 12:22:48.223,-0.000223771525403,0.5119834172064269
2025-06-23 12:22:48.231,-0.0002235205128924,-0.8094225172269547
2025-06-23 12:22:48.239,-0.0002255565966771,-1.996655675848278
2025-06-23 12:22:48.246,-0.0002295998166103,-3.054537362324346
2025-06-23 12:22:48.254,-0.0002353421665501,-3.990536279762291
2025-06-23 12:22:48.262,-0.0002424489187236,-4.814292585357339
2025-06-23 12:22:48.270,-0.0002505618806907,-5.537139546137282
2025-06-23 12:22:48.278,-0.0002593047155565,-6.171638023726419
2025-06-23 12:22:48.285,-0.0002682902624475,-6.731136437974828
2025-06-23 12:22:48.293,-0.0002771295569966,-7.229366046095416
2025-06-23 12:22:48.301,-0.0002854420235275,-7.680078460010654
2025-06-23 12:22:48.309,-0.000292866152878,-8.096729437162324
2025-06-23 12:22:48.317,-0.0002990699220497,-8.492210239165457
2025-06-23 12:22:48.325,-0.0003037602447988,-8.87862536764411
2025-06-23 12:22:48.332,-0.0003066908423217,-9.267113351681685
2025-06-23 12:22:48.340,-0.0003076680762365,-9.66770555309462
2025-06-23 12:22:48.348,-0.0003065544765123,-10.089216729355456
2025-06-23 12:22:48.356,-0.000303269887195,-10.539160378805995
2025-06-23 12:22:48.364,-0.0002977903021821,-11.023681691650111
2025-06-23 12:22:48.371,-0.0002901445689978,-11.547501224523716
2025-06-23 12:22:48.379,-0.0002804092335708,-12.11386317295971
2025-06-23 12:22:48.387,-0.0002687019038611,-12.7244832898635
2025-06-23 12:22:48.395,-0.000255173600857,-13.379493030885827
2025-06-23 12:22:48.403,-0.0002400005971915,-14.07737832483645
2025-06-23 12:22:48.410,-0.0002233761964192,-14.81491337841656
2025-06-23 12:22:48.418,-0.0002055028048997,-15.587092026262324
2025-06-23 12:22:48.426,-0.0001865845428156,-16.387061217633747
2025-06-23 12:22:48.434,-0.0001668205610161,-17.20606317226657
2025-06-23 12:22:48.442,-0.0001463991689321,-18.033394419267218
2025-06-23 12:22:48.450,-0.0001254928259451,-18.85639123617481
2025-06-23 12:22:48.457,-0.0001042540199431,-19.660451821486134
2025-06-23 12:22:48.465,-8.281206519971346e-05,-20.42910576881976
2025-06-23 12:22:48.473,-6.127087261150717e-05,-21.14414098819921
2025-06-23 12:22:48.481,-3.970773400523158e-05,-21.785797087058143
2025-06-23 12:22:48.489,-1.817309786803243e-05,-22.333032361381044
2025-06-23 12:22:48.496,3.308780090971109e-06,-22.763868977364545
2025-06-23 12:22:48.504,2.473850434049669e-05,-23.05581770806019
2025-06-23 12:22:48.512,4.613974900545796e-05,-23.186379827118643
2025-06-23 12:22:48.520,6.755723033032124e-05,-23.13361958945484
2025-06-23 12:22:48.528,8.905463851625143e-05,-22.876796319983512
2025-06-23 12:22:48.535,0.0001107126674347,-22.397040694316978
2025-06-23 12:22:48.543,0.0001326271802222,-21.67805556595957
2025-06-23 12:22:48.551,0.000154907433745,-20.70681793222529
2025-06-23 12:22:48.559,0.0001776742051046,-19.47425560793233
2025-06-23 12:22:48.567,0.0002010576523935,-17.975870158647204
2025-06-23 12:22:48.575,0.0002251947997948,-16.212276870014506
2025-06-23 12:22:48.582,0.0002502266302322,-14.189633176234896
2025-06-23 12:22:48.590,0.0002762948473738,-11.919929140500503
2025-06-23 12:22:48.598,0.0003035384063815,-9.421117281075386
2025-06-23 12:22:48.606,0.0003320899282537,-6.717064177050201
2025-06-23 12:22:48.614,0.0003620721384737,-3.837312680540455
2025-06-23 12:22:48.621,0.0003935945047847,-0.8166509357106895
2025-06-23 12:22:48.629,0.0004267502543766,2.305507583211985
2025-06-23 12:22:48.637,0.0004616139046413,5.485920550112386
2025-06-23 12:22:48.645,0.0004982393667081,8.678469251112848
2025-06-23 12:22:48.653,0.0005366586220576,11.835239056444834
2025-06-23 12:22:48.660,0.0005768809509771,14.907693496639588
2025-06-23 12:22:48.668,0.000618892686573,17.847902494906663
2025-06-23 12:22:48.676,0.0006626574432817,20.6097819346817
2025-06-23 12:22:48.684,0.0007081167213682,23.150300250522186
2025-06-23 12:22:48.692,0.0007551907541199,25.43060823992409
2025-06-23 12:22:48.700,0.0008037794642356,27.41705081872708
2025-06-23 12:22:48.707,0.0008537634151242,29.082023888373147
2025-06-23 12:22:48.715,0.0009050046672825,30.404645643154243
2025-06-23 12:22:48.723,0.0009573474913462,31.371219212405077
2025-06-23 12:22:48.731,0.0010106189638498,31.975472116713096
2025-06-23 12:22:48.739,0.001064629572891,32.21856717218372
2025-06-23 12:22:48.746,0.0011191740522418,32.10888872972793
2025-06-23 12:22:48.754,0.0011740326932362,31.661617019705822
2025-06-23 12:22:48.762,0.0012289733284426,30.898111452751976
2025-06-23 12:22:48.770,0.0012837540631055,29.84513062911359
2025-06-23 12:22:48.778,0.0013381266983213,28.533922229535712
2025-06-23 12:22:48.785,0.0013918406803065,26.99921968626587
2025-06-23 12:22:48.793,0.0014446473374996,25.278184447633457
2025-06-23 12:22:48.801,0.001496304135247,23.409332746956967
2025-06-23 12:22:48.809,0.0015465786855523,21.43148416988033
2025-06-23 12:22:48.817,0.0015952522865432,19.38276618378844
2025-06-23 12:22:48.825,0.0016421228104634,17.299704416354277
2025-06-23 12:22:48.832,0.001687006795844,15.216423150990032
2025-06-23 12:22:48.840,0.0017297406494613,13.163974560697708
2025-06-23 12:22:48.848,0.0017701809599146,11.169808942698811
2025-06-23 12:22:48.856,0.0018082040547743,9.25739194871143
2025-06-23 12:22:48.864,0.0018437050349049,7.445968815998582
2025-06-23 12:22:48.871,0.0018765965462092,5.750470147362721
2025-06-23 12:22:48.879,0.0019068075139678,4.181549071537588
2025-06-23 12:22:48.887,0.0019342820131365,2.745735783539258
2025-06-23 12:22:48.895,0.0019589784054527,1.4456925919142136
2025-06-23 12:22:48.903,0.0019808688325152,0.2805506952575405
2025-06-23 12:22:48.910,0.0019999390947805,-0.7536910682371336
2025-06-23 12:22:48.918,0.0020161888731558,-1.663725381327663
2025-06-23 12:22:48.926,0.0020296321876912,-2.4584727668178457
2025-06-23 12:22:48.934,0.0020402979533999,-3.148613013677389
2025-06-23 12:22:48.942,0.0020482304759948,-3.7461277933113264
2025-06-23 12:22:48.950,0.0020534897110997,-4.26386822374595
2025-06-23 12:22:48.957,0.0020561510913236,-4.715158466746142
2025-06-23 12:22:48.965,0.0020563047313171,-5.113443541446581
2025-06-23 12:22:48.973,0.0020540538738537,-5.471986530876581
2025-06-23 12:22:48.981,0.0020495125377475,-5.803617370460522
2025-06-23 12:22:48.989,0.0020428024376351,-6.120532564395102
2025-06-23 12:22:48.996,0.0020340493177486,-6.434142591532178
2025-06-23 12:22:49.004,0.0020233788522873,-6.7549615367691365
2025-06-23 12:22:49.012,0.0020109122371704,-7.092531701812461
2025-06-23 12:22:49.020,0.0019967615791482,-7.455374680947087
2025-06-23 12:22:49.028,0.0019810252106497,-7.850959684383076
2025-06-23 12:22:49.035,0.0019637831217362,-8.285679778630575
2025-06-23 12:22:49.043,0.0019450927708304,-8.764827184763918
2025-06-23 12:22:49.051,0.0019249855650099,-9.292559798472436
2025-06-23 12:22:49.059,0.0019034642642687,-9.87185261663079
2025-06-23 12:22:49.067,0.0018805014857882,-10.504429705204531
2025-06-23 12:22:49.075,0.0018560394100363,-11.19067464222078
2025-06-23 12:22:49.082,0.0018299907450721,-11.92951992379192
2025-06-23 12:22:49.090,0.0018022409780533,-12.718318520807935
2025-06-23 12:22:49.098,0.0017726519107303,-13.55270349043083
2025-06-23 12:22:49.106,0.0017410664289788,-14.42644413484934
2025-06-23 12:22:49.114,0.0017073143958463,-15.331309503924944
2025-06-23 12:22:49.121,0.001671219484504,-16.25695190075101
2025-06-23 12:22:49.129,0.0016326066936241,-17.19082432273981
2025-06-23 12:22:49.137,0.0015913102396405,-18.118146331115387
2025-06-23 12:22:49.145,0.0015471815206524,-19.02193259434869
2025-06-23 12:22:49.153,0.0015000968935486,-19.883097237022067
2025-06-23 12:22:49.160,0.0014499650665748,-20.68064512551283
2025-06-23 12:22:49.168,0.0013967339364175,-21.391958358972943
2025-06-23 12:22:49.176,0.0013403966686348,-21.99318257296946
2025-06-23 12:22:49.184,0.001280996757567,-22.459713307121675
2025-06-23 12:22:49.192,0.0012186317555917,-22.76677777987292
2025-06-23 12:22:49.200,0.0011534553671017,-22.890102139783767
2025-06-23 12:22:49.207,0.0010856776705594,-22.80664885526677
2025-06-23 12:22:49.215,0.001015563351187,-22.49540363420224
2025-06-23 12:22:49.223,0.000943427961255,-21.93818642929236
2025-06-23 12:22:49.231,0.0008696323247962,-21.120456995944675
2025-06-23 12:22:49.239,0.0007945752430739,-20.032082436324245
2025-06-23 12:22:49.246,0.0007186846580617,-18.66803247263671
2025-06-23 12:22:49.254,0.0006424074392311,-17.028968082837956
2025-06-23 12:22:49.262,0.0005661980044498,-15.121690764509305
2025-06-23 12:22:49.270,0.0004905060678844,-12.959423130273349
2025-06-23 12:22:49.278,0.0004157639008565,-10.56189673314262
2025-06-23 12:22:49.286,0.0003423735657333,-7.955229813191575
2025-06-23 12:22:49.293,0.0002706946229829,-5.171585782267774
2025-06-23 12:22:49.301,0.0002010328127984,-2.2486123616661704
2025-06-23 12:22:49.309,0.0001336301713432,0.7713290748163043
2025-06-23 12:22:49.317,6.865696466662933e-05,3.842124708075759
2025-06-23 12:22:49.325,6.205733092036953e-06,6.915031554080992
2025-06-23 12:22:49.332,-5.3712343777828826e-05,9.939926086222789
2025-06-23 12:22:49.340,-0.0001111686192759,12.8666346877011
2025-06-23 12:22:49.348,-0.0001663156021318,15.64629754698404
2025-06-23 12:22:49.356,-0.0002193829888428,18.232714971053497
2025-06-23 12:22:49.364,-0.000270671108359,20.58362489139855
2025-06-23 12:22:49.371,-0.0003205418267622,22.661862634678403
2025-06-23 12:22:49.379,-0.0003694070217885,24.436358732448216
2025-06-23 12:22:49.387,-0.0004177148409593,25.882937413849323
2025-06-23 12:22:49.395,-0.0004659341175183,26.984887089668256
2025-06-23 12:22:49.403,-0.0005145375116448,27.733284114594344
2025-06-23 12:22:49.411,-0.0005639841206128,28.12706184698938
2025-06-23 12:22:49.418,-0.0006147024237664,28.17282790987336
2025-06-23 12:22:49.426,-0.0006670744754258,27.88444299466863
2025-06-23 12:22:49.434,-0.0007214222074081,27.28238399550461
2025-06-23 12:22:49.442,-0.0007779965434451,26.392922265938267
2025-06-23 12:22:49.450,-0.0008369697919532,25.247154019757613
2025-06-23 12:22:49.457,-0.000898431526389,23.879924146890787
2025-06-23 12:22:49.465,-0.0009623879261279,22.328686899320328
2025-06-23 12:22:49.473,-0.0010287643554961,20.63234704787483
2025-06-23 12:22:49.481,-0.0010974108127775,18.830123349894688
2025-06-23 12:22:49.489,-0.0011681097880829,16.96047272043709
2025-06-23 12:22:49.496,-0.0012405860222294,15.060108653550422
2025-06-23 12:22:49.504,-0.0013145176370882,13.163141525392854
2025-06-23 12:22:49.512,-0.0013895480894706,11.300361778765511
2025-06-23 12:22:49.520,-0.0014652983869577,9.498679992995076
2025-06-23 12:22:49.528,-0.0015413790180395,7.780730823753689
2025-06-23 12:22:49.536,-0.0016174011048169,6.164641063326712
2025-06-23 12:22:49.543,-0.0016929863715695,4.663955888259171
2025-06-23 12:22:49.551,-0.0017677756152627,3.287711942179578
2025-06-23 12:22:49.559,-0.0018414354628968,2.040641406619116
2025-06-23 12:22:49.567,-0.0019136633170842,0.9234877470850772
2025-06-23 12:22:49.575,-0.0019841905156022,-0.0665885625123397
2025-06-23 12:22:49.582,-0.0020527838271734,-0.9355373363511736
2025-06-23 12:22:49.590,-0.0021192454546502,-1.691902261456428
2025-06-23 12:22:49.598,-0.0021834117427649,-2.3462833597570776
2025-06-23 12:22:49.606,-0.002245150829318,-2.910799409941808
2025-06-23 12:22:49.614,-0.0023043595385102,-3.3985692151847524
2025-06-23 12:22:49.621,-0.0023609598524793,-3.823227865796004
2025-06-23 12:22:49.629,-0.0024148952722778,-4.198491021042253
2025-06-23 12:22:49.637,-0.0024661272974673,-4.537776872794548
2025-06-23 12:22:49.645,-0.002514632158756,-4.853892000954305
2025-06-23 12:22:49.653,-0.0025603978707753,-5.15878392352449
2025-06-23 12:22:49.661,-0.0026034216402731,-5.463359905363992
2025-06-23 12:22:49.668,-0.0026437076542464,-5.777368621602969
2025-06-23 12:22:49.676,-0.0026812652659079,-6.1093386546823805
2025-06-23 12:22:49.684,-0.0027161075881512,-6.466565601296407
2025-06-23 12:22:49.692,-0.0027482504984447,-6.855137831534751
2025-06-23 12:22:49.700,-0.0027777120516742,-7.279989725570183
2025-06-23 12:22:49.707,-0.0028045122712709,-7.744970552411399
2025-06-23 12:22:49.715,-0.0028286732373883,-8.252917077424348
2025-06-23 12:22:49.723,-0.0028502193343266,-8.805718504800994
2025-06-23 12:22:49.731,-0.0028691774866011,-9.404363477539604
2025-06-23 12:22:49.739,-0.002885577210729,-10.048960550139263
2025-06-23 12:22:49.746,-0.0028994503224102,-10.738725771691715
2025-06-23 12:22:49.754,-0.0029108301583401,-11.471933694463106
2025-06-23 12:22:49.762,-0.002919750214596,-12.24583115159335
2025-06-23 12:22:49.770,-0.0029262421847071,-13.05651639627677
2025-06-23 12:22:49.778,-0.0029303334797745,-13.898789509948427
2025-06-23 12:22:49.786,-0.0029320443864929,-14.765983198682523
2025-06-23 12:22:49.793,-0.0029313850464479,-15.649786028104772
2025-06-23 12:22:49.801,-0.0029283524389035,-16.540072623158714
2025-06-23 12:22:49.809,-0.0029229275458419,-17.424757216640234
2025-06-23 12:22:49.817,-0.0029150728856181,-18.289688023412037
2025-06-23 12:22:49.825,-0.0029047306167325,-19.118600122972808
2025-06-23 12:22:49.832,-0.0028918214173322,-19.893143760376148
2025-06-23 12:22:49.840,-0.0028762443192418,-20.593003172613148
2025-06-23 12:22:49.848,-0.0028578776134467,-21.19611820667751
2025-06-23 12:22:49.856,-0.0028365808555712,-21.679017154238164
2025-06-23 12:22:49.864,-0.0028121979010969,-22.01726447298033
2025-06-23 12:22:49.871,-0.0027845608203983,-22.18602154055045
2025-06-23 12:22:49.879,-0.0027534945055318,-22.16071250197332
2025-06-23 12:22:49.887,-0.0027188217676079,-21.91778089543101
2025-06-23 12:22:49.895,-0.0026803687052414,-21.43551639561513
2025-06-23 12:22:49.903,-0.0026379701069164,-20.69492505647702
2025-06-23 12:22:49.911,-0.0025914746636429,-19.680611243060557
2025-06-23 12:22:49.918,-0.0025407498165222,-18.381635387352716
2025-06-23 12:22:49.926,-0.002485686116643,-16.792309123945444
2025-06-23 12:22:49.934,-0.0024262010133314,-14.912888533470989
2025-06-23 12:22:49.942,-0.0023622420272998,-12.750127336656782
2025-06-23 12:22:49.950,-0.0022937893237934,-10.317655032512343
2025-06-23 12:22:49.957,-0.0022208577571714,-7.636150145657796
2025-06-23 12:22:49.965,-0.0021434984727755,-4.733285809703567
2025-06-23 12:22:49.973,-0.0020618001091553,-1.6434336161738197
2025-06-23 12:22:49.981,-0.0019758895728855,1.592878364102144
2025-06-23 12:22:49.989,-0.0018859323122852,4.929746696882259
2025-06-23 12:22:49.996,-0.0017921320260604,8.316895107420617
2025-06-23 12:22:50.004,-0.0016947297911348,11.700869981507134
2025-06-23 12:22:50.012,-0.0015940026391784,15.026390666204234
2025-06-23 12:22:50.020,-0.001490261624979,18.237808164155204
2025-06-23 12:22:50.028,-0.0013838494053646,21.280619605639995
2025-06-23 12:22:50.036,-0.0012751372910322,24.102982077878767
2025-06-23 12:22:50.043,-0.0011645216638843,26.65716824622644
2025-06-23 12:22:50.051,-0.0010524196075502,28.900907822626905
2025-06-23 12:22:50.059,-0.000939263620536,30.798563268976704
2025-06-23 12:22:50.067,-0.0008254953746218,32.322094951709545
2025-06-23 12:22:50.075,-0.0007115586082726,33.451779924466265
2025-06-23 12:22:50.082,-0.0005978913715999,34.17665911953264
2025-06-23 12:22:50.090,-0.0004849179537527,34.494699397528855
2025-06-23 12:22:50.098,-0.0003730409101402,34.412669009903674
2025-06-23 12:22:50.106,-0.0002626336409401,33.945736932193874
2025-06-23 12:22:50.114,-0.0001540339420524,33.116817621556514
2025-06-23 12:22:50.121,-4.753886777767124e-05,31.955692502772838
2025-06-23 12:22:50.129,5.659886504194714e-05,30.497947455598936
2025-06-23 12:22:50.137,0.0001581728323371,28.783771446518266
2025-06-23 12:22:50.145,0.0002570232779706,26.85666503381794
2025-06-23 12:22:50.153,0.0003530361334821,24.76210872214256
2025-06-23 12:22:50.161,0.0004461410118592,22.54624012221915
2025-06-23 12:22:50.168,0.0005363085040513,20.25458576649457
2025-06-23 12:22:50.176,0.0006235470177712,17.930888519149192
2025-06-23 12:22:50.184,0.0007078992800022,15.616065151099106
2025-06-23 12:22:50.192,0.0007894385381889,13.34732123370317
2025-06-23 12:22:50.200,0.0008682644704708,11.1574424748639
2025-06-23 12:22:50.207,0.0009444988346853,9.074273411040531
2025-06-23 12:22:50.215,0.0010182809052801,7.120386377105956
2025-06-23 12:22:50.223,0.0010897627455356,5.312936246135898
2025-06-23 12:22:50.231,0.0011591043533144,3.6636898407036114
2025-06-23 12:22:50.239,0.0012264687159262,2.1792133734333525
2025-06-23 12:22:50.246,0.0012920168044766,0.8611969111269672
2025-06-23 12:22:50.254,0.001355902521191,-0.293108264916902
2025-06-23 12:22:50.262,0.0014182676084428,-1.2903654103517028
2025-06-23 12:22:50.270,0.0014792365718133,-2.1405678763251728
2025-06-23 12:22:50.278,0.0015389117517883,-2.8564207489297395
2025-06-23 12:22:50.286,0.0015973687395772,-3.4527134279333622
2025-06-23 12:22:50.293,0.0016546523273,-3.945705733128626
2025-06-23 12:22:50.301,0.0017107731260799,-4.3525471573776935
2025-06-23 12:22:50.309,0.0017657049248703,-4.690745381321753
2025-06-23 12:22:50.317,0.0018193828343101,-4.9776962949574886
2025-06-23 12:22:50.325,0.0018717022756436,-5.230283706244441
2025-06-23 12:22:50.332,0.0019225189256085,-5.464552823754234
2025-06-23 12:22:50.340,0.0019716497809081,-5.695457638878228
2025-06-23 12:22:50.348,0.0020188755141442,-5.936678653366495
2025-06-23 12:22:50.356,0.0020639442351733,-6.20050413904352
2025-06-23 12:22:50.364,0.0021065766742817,-6.497765403034233
2025-06-23 12:22:50.371,0.0021464727157462,-6.837814468497068
2025-06-23 12:22:50.379,0.002183319158703,-7.228531248557415
2025-06-23 12:22:50.387,0.0022167985498667,-7.676346744073829
2025-06-23 12:22:50.395,0.0022465988793879,-8.186269057559919
2025-06-23 12:22:50.403,0.0022724238392823,-8.761900074439625
2025-06-23 12:22:50.411,0.0022940032431354,-9.405432470893183
2025-06-23 12:22:50.418,0.0023111031479228,-10.117619182839276
2025-06-23 12:22:50.426,0.0023235352315767,-10.897710500300493
2025-06-23 12:22:50.434,0.0023311650466607,-11.743357394893266
2025-06-23 12:22:50.442,0.0023339188484465,-12.650483380423829
2025-06-23 12:22:50.450,0.0023317887534891,-13.613130963266691
2025-06-23 12:22:50.457,0.002324836016699,-14.623292364038209
2025-06-23 12:22:50.465,0.0023131922262522,-15.670737484857254
2025-06-23 12:22:50.473,0.0022970582226028,-16.74285486125025
2025-06-23 12:22:50.481,0.0022767005896154,-17.824523391019937
2025-06-23 12:22:50.489,0.0022524456820007,-18.89803381127997
2025-06-23 12:22:50.496,0.0022246713349142,-19.94307906452257
2025-06-23 12:22:50.504,0.0021937965818768,-20.93683175589272
2025-06-23 12:22:50.512,0.0021602698189967,-21.85412480242176
2025-06-23 12:22:50.520,0.0021245558970287,-22.66774810975527
2025-06-23 12:22:50.528,0.0020871226574222,-23.3488697405115
2025-06-23 12:22:50.536,0.002048427492103,-23.86758468089849
2025-06-23 12:22:50.543,0.0020089045671701,-24.19358815462669
2025-06-23 12:22:50.551,0.0019689533524832,-24.29696372673266
2025-06-23 12:22:50.559,0.001928929033888,-24.149069491957054
2025-06-23 12:22:50.567,0.0018891352819226,-23.723498800935285
2025-06-23 12:22:50.575,0.0018498197160192,-22.9970856163322
2025-06-23 12:22:50.582,0.001811172218582,-21.950919094836014
2025-06-23 12:22:50.590,0.0017733260382172,-20.57132773721177
2025-06-23 12:22:50.598,0.0017363614415989,-18.850790784019956
2025-06-23 12:22:50.606,0.0017003115704026,-16.788733747199593
2025-06-23 12:22:50.614,0.0016651701035324,-14.392166259559184
2025-06-23 12:22:50.621,0.0016309002627094,-11.676123888093512
2025-06-23 12:22:50.629,0.0015974446342701,-8.663881161276773
2025-06-23 12:22:50.637,0.0015647352702726,-5.38691064429795
2025-06-23 12:22:50.645,0.0015327036132355,-1.8845721749773847
2025-06-23 12:22:50.653,0.0015012899233658,1.7964730489694438
2025-06-23 12:22:50.661,0.0014704520045922,5.603117451195428
2025-06-23 12:22:50.668,0.001440173090808,9.476913398363562
2025-06-23 12:22:50.676,0.0014104687772832,13.355401813892492
2025-06-23 12:22:50.684,0.0013813928866401,17.173623628506622
2025-06-23 12:22:50.692,0.0013530421559802,20.865765666364712
2025-06-23 12:22:50.700,0.0013255596258326,24.366885558142496
2025-06-23 12:22:50.707,0.0012991366036119,27.614655585152672
2025-06-23 12:22:50.715,0.0012740130572456,30.551063261321424
2025-06-23 12:22:50.723,0.0012504762505793,33.12400709977253
2025-06-23 12:22:50.731,0.0012288573539046,35.288729401129366
2025-06-23 12:22:50.739,0.0012095256885503,37.0090339114005
2025-06-23 12:22:50.746,0.0011928802659156,38.258244554478935
2025-06-23 12:22:50.754,0.0011793383966989,39.019871741575386
2025-06-23 12:22:50.762,0.0011693213389466,39.28796448069359
2025-06-23 12:22:50.770,0.0011632371614801,39.06713905583394
2025-06-23 12:22:50.778,0.0011614612060958,38.37228777571834
2025-06-23 12:22:50.786,0.0011643147633553,37.227983562448095
2025-06-23 12:22:50.793,0.0011720428342527,35.66760736517002
2025-06-23 12:22:50.801,0.0011847920796226,33.73223503601369
2025-06-23 12:22:50.809,0.0012025901942625,31.46932800997246
2025-06-23 12:22:50.817,0.0012253279651915,28.931277636895857
2025-06-23 12:22:50.825,0.0012527452141957,26.17385620527625
2025-06-23 12:22:50.832,0.0012844217058208,23.254628578652724
2025-06-23 12:22:50.840,0.0013197739111955,20.23137704877592
2025-06-23 12:22:50.848,0.0013580582490491,17.16058870212077
2025-06-23 12:22:50.856,0.0013983811085499,14.096049583975402
2025-06-23 12:22:50.864,0.0014397156444614,11.08758357336905
2025-06-23 12:22:50.871,0.001480925053012,8.179966536076906
2025-06-23 12:22:50.879,0.0015207917635841,5.412038398073923
2025-06-23 12:22:50.887,0.0015580516584604,2.8160276637695643
2025-06-23 12:22:50.895,0.0015914320377753,0.4170949489999628
2025-06-23 12:22:50.903,0.0016196916425096,-1.766905377376621
2025-06-23 12:22:50.911,0.0016416607520753,-3.725453087379425
2025-06-23 12:22:50.918,0.0016562792785991,-5.455192972263115
2025-06-23 12:22:50.926,0.0016626309088364,-6.959586899417334
2025-06-23 12:22:50.934,0.0016599716545599,-8.248408863460586
2025-06-23 12:22:50.942,0.001647751594906,-9.337107335893586
2025-06-23 12:22:50.950,0.0016256290584825,-10.246060611394862
2025-06-23 12:22:50.957,0.0015934769376227,-10.999751225724731
2025-06-23 12:22:50.965,0.0015513812233328,-11.625884991264217
2025-06-23 12:22:50.973,0.0014996322085113,-12.154478897411655
2025-06-23 12:22:50.981,0.0014387091419309,-12.616940208033718
2025-06-23 12:22:50.989,0.0013692594043148,-13.045156723502773
2025-06-23 12:22:50.996,0.0012920734788048,-13.470615536748532
2025-06-23 12:22:51.004,0.0012080570750567,-13.92356488015169
2025-06-23 12:22:51.012,0.001118201737444,-14.432231002270903
2025-06-23 12:22:51.020,0.0010235551364198,-15.022099575188502
2025-06-23 12:22:51.028,0.0009251920350048,-15.715269022392954
2025-06-23 12:22:51.036,0.0008241866893306,-16.529881437246786
2025-06-23 12:22:51.043,0.000721587245494,-17.47963545431112
2025-06-23 12:22:51.051,0.0006183925713949,-18.573384526258657
2025-06-23 12:22:51.059,0.0005155318988044,-19.81482350794825
2025-06-23 12:22:51.067,0.000413847608324,-21.20226619771902
2025-06-23 12:22:51.075,0.0003140814399044,-22.728516459613765
2025-06-23 12:22:51.082,0.0002168643462857,-24.38083565709829
2025-06-23 12:22:51.090,0.0001227101276049,-26.141009257273577
2025-06-23 12:22:51.098,3.2012895286960755e-05,-27.98551548886771
2025-06-23 12:22:51.106,-5.495168530861133e-05,-29.88579873251677
2025-06-23 12:22:51.114,-0.000138021528943,-31.80864977967146
2025-06-23 12:22:51.121,-0.0002171399058973,-33.716694134329124
2025-06-23 12:22:51.129,-0.000292344234892,-35.56898809527899
2025-06-23 12:22:51.137,-0.0003637523817198,-37.32172041823328
2025-06-23 12:22:51.145,-0.0004315470607397,-38.92901491532644
2025-06-23 12:22:51.153,-0.0004959590305352,-40.34382642959618
2025-06-23 12:22:51.161,-0.0005572498315543,-41.51891928256325
2025-06-23 12:22:51.168,-0.0006156948187486,-42.40791363265773
2025-06-23 12:22:51.176,-0.0006715672180925,-42.966381347377656
2025-06-23 12:22:51.184,-0.0007251239179397,-43.15296917804066
2025-06-23 12:22:51.192,-0.0007765936852663,-42.93052346799124
2025-06-23 12:22:51.200,-0.0008261684145144,-42.267187581207615
2025-06-23 12:22:51.207,-0.0008739978310085,-41.13744096981922
2025-06-23 12:22:51.215,-0.0009201878003055,-39.52304755041043
2025-06-23 12:22:51.223,-0.0009648020933685,-37.413881035191714
2025-06-23 12:22:51.231,-0.0010078671785579,-34.80859620818729
2025-06-23 12:22:51.239,-0.0010493794059712,-31.71511790934728
2025-06-23 12:22:51.246,-0.0010893138592608,-28.150923656738104
2025-06-23 12:22:51.254,-0.0011276341665447,-24.14310126833712
2025-06-23 12:22:51.262,-0.00116430261649,-19.72816932455805
2025-06-23 12:22:51.270,-0.0011992899578619,-14.951655558057574
2025-06-23 12:22:51.278,-0.0012325842898872,-9.867435943857489
2025-06-23 12:22:51.286,-0.0012641985434642,-4.536845048701038
2025-06-23 12:22:51.293,-0.0012941762270335,0.9724242521823152
2025-06-23 12:22:51.301,-0.0013225953023594,6.587606582091355
2025-06-23 12:22:51.309,-0.0013495701908428,12.232304104775537
2025-06-23 12:22:51.317,-0.0013752519757919,17.8280443718113
2025-06-23 12:22:51.325,-0.0013998268924946,23.29591560390855
2025-06-23 12:22:51.332,-0.0014235132163369,28.558236390487554
2025-06-23 12:22:51.340,-0.0014465566806363,33.54021548999232
2025-06-23 12:22:51.348,-0.0014692245812961,38.17155744978584
2025-06-23 12:22:51.356,-0.001491798753806,42.3879710960284
2025-06-23 12:22:51.364,-0.0015145676381006,46.13254049994041
2025-06-23 12:22:51.371,-0.0015378176765807,49.35692171898998
2025-06-23 12:22:51.379,-0.0015618243180881,52.02233333885628
2025-06-23 12:22:51.387,-0.0015868429234569,54.100314490442976
2025-06-23 12:22:51.395,-0.0016130998838694,55.57323045456805
2025-06-23 12:22:51.403,-0.001640784268986,56.43451304000672
2025-06-23 12:22:51.411,-0.001670040315026,56.68863044121634
2025-06-23 12:22:51.418,-0.0017009610427748,56.35078902842508
2025-06-23 12:22:51.426,-0.0017335832692922,55.44637724410896
2025-06-23 12:22:51.434,-0.0017678842636359,54.01016920914595
2025-06-23 12:22:51.442,-0.0018037803060382,52.0853125107391
2025-06-23 12:22:51.450,-0.0018411274146438,49.72213069935395
2025-06-23 12:22:51.457,-0.0018797244560073,46.97677604189773
2025-06-23 12:22:51.465,-0.0019193187414065,43.90977188714629
2025-06-23 12:22:51.473,-0.0019596140748859,40.584486475922034
2025-06-23 12:22:51.481,-0.0020002811173703,37.06558110990343
2025-06-23 12:22:51.489,-0.0020409698659152,33.41747527140978
2025-06-23 12:22:51.496,-0.0020813239618931,29.70286960363616
2025-06-23 12:22:51.504,-0.002120996401034,25.981364704219374
2025-06-23 12:22:51.512,-0.0021596660603163,22.308209587902816
2025-06-23 12:22:51.520,-0.0021970543426966,18.733208614868083
2025-06-23 12:22:51.528,-0.0022329411816439,15.299809880780131
2025-06-23 12:22:51.536,-0.0022671796123768,12.044391778904908
2025-06-23 12:22:51.543,-0.002299708085689,8.995757952318131
2025-06-23 12:22:51.551,-0.002330559686469,6.174844436505594
2025-06-23 12:22:51.559,-0.0023598674470274,3.594636711455426
2025-06-23 12:22:51.567,-0.0023878650256664,1.2602888616380736
2025-06-23 12:22:51.575,-0.0024148821528205,-0.830567744381519
2025-06-23 12:22:51.582,-0.0024413344297929,-2.6873427812541366
2025-06-23 12:22:51.590,-0.0024677072945103,-4.32585186856104
2025-06-23 12:22:51.598,-0.0024945342372842,-5.767549772573654
2025-06-23 12:22:51.606,-0.0025223696497508,-7.038654974346
2025-06-23 12:22:51.614,-0.0025517570030343,-8.169189290310207
2025-06-23 12:22:51.621,-0.0025831933437713,-9.191956242703048
2025-06-23 12:22:51.629,-0.0026170913457342,-10.14148139737462
2025-06-23 12:22:51.637,-0.0026537403639958,-11.052937033472544
2025-06-23 12:22:51.645,-0.0026932681200875,-11.961072395055496
2025-06-23 12:22:51.653,-0.0027356047914195,-12.899169499981628
2025-06-23 12:22:51.661,-0.0027804513548716,-13.898043133775063
2025-06-23 12:22:51.668,-0.0028272540145528,-14.98510230733472
2025-06-23 12:22:51.676,-0.0028751864228391,-16.183489161378095
2025-06-23 12:22:51.684,-0.002923141201685,-17.511310091402066
2025-06-23 12:22:51.692,-0.0029697320134852,-18.980972755470788
2025-06-23 12:22:51.700,-0.0030133071302728,-20.59864159737573
2025-06-23 12:22:51.707,-0.0030519751099831,-22.363823526565625
2025-06-23 12:22:51.715,-0.0030836428059482,-24.26909437767758
2025-06-23 12:22:51.723,-0.0031060654892017,-26.299975643290963
2025-06-23 12:22:51.731,-0.0031169083283993,-28.434969638945123
2025-06-23 12:22:51.739,-0.0031138178676728,-30.645759621111075
2025-06-23 12:22:51.746,-0.0030945015277931,-32.89757934464979
2025-06-23 12:22:51.754,-0.0030568125783297,-35.14975403925692
2025-06-23 12:22:51.762,-0.0029988375033024,-37.35641174768197
2025-06-23 12:22:51.770,-0.0029189822202038,-39.46736036984837
2025-06-23 12:22:51.778,-0.0028160532446998,-41.42912159514513
2025-06-23 12:22:51.786,-0.0026893296825771,-43.18610821981637
2025-06-23 12:22:51.793,-0.0025386219506617,-44.68192623007371
2025-06-23 12:22:51.801,-0.0023643134253077,-45.860777639895424
2025-06-23 12:22:51.809,-0.0021673817833111,-46.668934628670016
2025-06-23 12:22:51.817,-0.0019493975977082,-47.05625031432201
2025-06-23 12:22:51.825,-0.0017124987476638,-46.97766685630511
2025-06-23 12:22:51.832,-0.0014593403796171,-46.39467786523915
2025-06-23 12:22:51.840,-0.0011930215006033,-45.2766996477273
2025-06-23 12:22:51.848,-0.0009169907677465,-43.6023049425064
2025-06-23 12:22:51.856,-0.0006349355916005,-41.3602737491076
2025-06-23 12:22:51.864,-0.0003506601257248,-38.550418766850136
2025-06-23 12:22:51.871,-6.795878606370243e-05,-35.18414789778716
2025-06-23 12:22:51.879,0.000209507645692,-31.28473314875751
2025-06-23 12:22:51.887,0.0004783266192128,-26.887263895923628
2025-06-23 12:22:51.895,0.0007354333467328,-22.03827253287991
2025-06-23 12:22:51.903,0.0009781908293726,-16.79503159252524
2025-06-23 12:22:51.911,0.0012044474514828,-11.22453301960074
2025-06-23 12:22:51.918,0.0014125707768365,-5.402171839981389
2025-06-23 12:22:51.926,0.0016014576802463,0.5898325114043257
2025-06-23 12:22:51.934,0.0017705222950346,6.664233980463693
2025-06-23 12:22:51.942,0.0019196643897154,12.730725112281576
2025-06-23 12:22:51.950,0.0020492216672864,18.69801140792235
2025-06-23 12:22:51.957,0.0021599100668758,24.47593208014648
2025-06-23 12:22:51.965,0.0022527563981661,29.977562360945576
2025-06-23 12:22:51.973,0.0023290275459292,35.12123283558282
2025-06-23 12:22:51.981,0.0023901600935137,39.83240401277717
2025-06-23 12:22:51.989,0.00243769361172,44.045339375785176
2025-06-23 12:22:51.996,0.002473210126887,47.704527291146135
2025-06-23 12:22:52.004,0.0024982815051649,50.76581109284504
2025-06-23 12:22:52.012,0.0025144257572053,53.197197045849
2025-06-23 12:22:52.020,0.0025230726387656,54.97932129784412
2025-06-23 12:22:52.028,0.0025255384063585,56.10556887798184
2025-06-23 12:22:52.036,0.0025230091626791,56.58184979513828
2025-06-23 12:22:52.043,0.0025165318818664,56.4260488209264
2025-06-23 12:22:52.051,0.0025070119445843,55.66717613555917
2025-06-23 12:22:52.059,0.0024952158481236,54.34425524242822
2025-06-23 12:22:52.067,0.0024817776954404,52.50499206867936
2025-06-23 12:22:52.075,0.0024672081132374,50.20427469934364
2025-06-23 12:22:52.082,0.0024519044009417,47.50255657454931
2025-06-23 12:22:52.090,0.0024361609539753,44.464177155286535
2025-06-23 12:22:52.098,0.0024201792956907,41.1556730911508
2025-06-23 12:22:52.106,0.0024040773375009,37.64412997073078
2025-06-23 12:22:52.114,0.0023878977321827,33.9956200587809
2025-06-23 12:22:52.122,0.0023716153944525,30.273765346018045
2025-06-23 12:22:52.129,0.0023551444403804,26.538458123327786
2025-06-23 12:22:52.137,0.0023383449146221,22.84476353451661
2025-06-23 12:22:52.145,0.0023210296941921,19.242020557553897
2025-06-23 12:22:52.153,0.0023029718797413,15.773149991078856
2025-06-23 12:22:52.161,0.0022839128496568,12.474170618915334
2025-06-23 12:22:52.168,0.0022635709973437,9.37391807611583
2025-06-23 12:22:52.176,0.0022416510160146,6.493955267961654
2025-06-23 12:22:52.184,0.0022178534566215,3.848658647088521
2025-06-23 12:22:52.192,0.0021918841942183,1.4454613049445617
2025-06-23 12:22:52.200,0.0021634634222338,-0.7147683174750632
2025-06-23 12:22:52.207,0.0021323338537661,-2.6372343079397296
2025-06-23 12:22:52.215,0.0020982679131649,-4.332629944316579
2025-06-23 12:22:52.223,0.0020610738029591,-5.816484444299739
2025-06-23 12:22:52.231,0.0020206004053099,-7.108459532403982
2025-06-23 12:22:52.239,0.0019767410354606,-8.231613493360584
2025-06-23 12:22:52.247,0.0019294361214304,-9.211648044157078
2025-06-23 12:22:52.254,0.0018786749279763,-10.076150936116576
2025-06-23 12:22:52.262,0.0018244964627338,-10.85384486434877
2025-06-23 12:22:52.270,0.0017669897145226,-11.57385115506972
2025-06-23 12:22:52.278,0.0017062933927828,-12.264974924595249
2025-06-23 12:22:52.286,0.001642595341589,-12.955017019664949
2025-06-23 12:22:52.293,0.0015761317511868,-13.670117083726664
2025-06-23 12:22:52.301,0.0015071861688115,-14.43413154879887
2025-06-23 12:22:52.309,0.0014360881494933,-15.268050212745598
2025-06-23 12:22:52.317,0.0013632112497552,-16.189455302448017
2025-06-23 12:22:52.325,0.0012889700065345,-17.212027509075014
2025-06-23 12:22:52.332,0.0012138155672108,-18.345104360465783
2025-06-23 12:22:52.340,0.0011382297120196,-19.59329739175592
2025-06-23 12:22:52.348,0.0010627171142584,-20.95617578601357
2025-06-23 12:22:52.356,0.0009877958262234,-22.428025354777542
2025-06-23 12:22:52.364,0.0009139861675851,-23.997692770270096
2025-06-23 12:22:52.372,0.0008417983977446,-25.64852569649613
2025-06-23 12:22:52.379,0.0007717197221246,-27.3584197500854
2025-06-23 12:22:52.387,0.00070420127563,-29.09998292395318
2025-06-23 12:22:52.395,0.000639645730968,-30.84082712269573
2025-06-23 12:22:52.403,0.0005783961036815,-32.54399471455087
2025-06-23 12:22:52.411,0.0005207262033361,-34.16852546337521
2025-06-23 12:22:52.418,0.0004668330591572,-35.67016586664178
2025-06-23 12:22:52.426,0.0004168315546012,-37.002218831790536
2025-06-23 12:22:52.434,0.0003707514275638,-38.11652685174654
2025-06-23 12:22:52.442,0.0003285367172472,-38.9645765107852
2025-06-23 12:22:52.450,0.000290047676846,-39.49870643098292
2025-06-23 12:22:52.457,0.0002550651341768,-39.67339487486709
2025-06-23 12:22:52.465,0.0002232972525206,-39.44659741717108
2025-06-23 12:22:52.473,0.0001943885952613,-38.78109969358965
2025-06-23 12:22:52.481,0.0001679313198843,-37.64584556366721
2025-06-23 12:22:52.489,0.0001434782186157,-36.017197442384735
2025-06-23 12:22:52.497,0.0001205571947788,-33.88008340922702
2025-06-23 12:22:52.504,9.868665022071372e-05,-31.22898530590861
2025-06-23 12:22:52.512,7.739119752347223e-05,-28.06872362498275
2025-06-23 12:22:52.520,5.621710165066784e-05,-24.414998712309
2025-06-23 12:22:52.528,3.474686414011965e-05,-20.29465367858153
2025-06-23 12:22:52.536,1.2612366982160152e-05,-15.74563233123626
2025-06-23 12:22:52.543,-1.0493984253105436e-05,-10.816615161007457
2025-06-23 12:22:52.551,-3.481059369199241e-05,-5.566327589373344
2025-06-23 12:22:52.559,-6.0500793962092245e-05,-0.0625268418034778
2025-06-23 12:22:52.567,-8.764983856986501e-05,5.619313586763641
2025-06-23 12:22:52.575,-0.0001162646417077,11.397590460970424
2025-06-23 12:22:52.582,-0.0001462759929758,17.186385242912856
2025-06-23 12:22:52.590,-0.0001775429215833,22.897453061053284
2025-06-23 12:22:52.598,-0.000209858901591,28.44232447483544
2025-06-23 12:22:52.606,-0.0002429596196489,33.734452343274576
2025-06-23 12:22:52.614,-0.0002765320219231,38.69133290169919
2025-06-23 12:22:52.622,-0.0003102243236436,43.236529916036815
2025-06-23 12:22:52.629,-0.0003436566593344,47.30153359098281
2025-06-23 12:22:52.637,-0.0003764321169824,50.82739167923457
2025-06-23 12:22:52.645,-0.0004081480088267,53.766058743378565
2025-06-23 12:22:52.653,-0.0004384073135351,56.08142038075335
2025-06-23 12:22:52.661,-0.0004668302303467,57.749961920243024
2025-06-23 12:22:52.668,-0.0004930657185348,58.761065015704965
2025-06-23 12:22:52.676,-0.0005168027894524,59.1169300019144
2025-06-23 12:22:52.684,-0.0005377812112285,58.83213613167255
2025-06-23 12:22:52.692,-0.000555801208006,57.93286518803236
2025-06-23 12:22:52.700,-0.0005707317029007,56.45582584089159
2025-06-23 12:22:52.707,-0.0005825166703819,54.446925970249495
2025-06-23 12:22:52.715,-0.0005911792301518,51.959747613016695
2025-06-23 12:22:52.723,-0.0005968232234115,49.053883954129695
2025-06-23 12:22:52.731,-0.0005996321385789,45.79319977682256
2025-06-23 12:22:52.739,-0.0005998653715216,42.2440760652127
2025-06-23 12:22:52.747,-0.0005978519062841,38.47369621216088
2025-06-23 12:22:52.754,-0.0005939815843302,34.54842584885095
2025-06-23 12:22:52.762,-0.0005886941938901,30.532331099941988
2025-06-23 12:22:52.770,-0.0005824666682942,26.485871563387622
2025-06-23 12:22:52.778,-0.0005757987549921,22.464795025331743
2025-06-23 12:22:52.786,-0.0005691976162146,18.51925134288799
2025-06-23 12:22:52.793,-0.0005631619247247,14.693133515565783
2025-06-23 12:22:52.801,-0.0005581660754032,11.023645118312006
2025-06-23 12:22:52.809,-0.0005546451193359,7.541085319239695
2025-06-23 12:22:52.817,-0.0005529809564781,4.268835912913606
2025-06-23 12:22:52.825,-0.0005534902203695,1.2235293438969046
2025-06-23 12:22:52.832,-0.0005564141739771,-1.584627330321866
2025-06-23 12:22:52.840,-0.0005619108361099,-4.151400166648794
2025-06-23 12:22:52.848,-0.0005700494887075,-6.47797656595764
2025-06-23 12:22:52.856,-0.0005808076631405,-8.570342707678742
2025-06-23 12:22:52.864,-0.0005940706540001,-10.438617640276352
2025-06-23 12:22:52.872,-0.0006096335729489,-12.096369267526423
2025-06-23 12:22:52.879,-0.0006272059420543,-13.559934506688348
2025-06-23 12:22:52.887,-0.0006464188095983,-14.84776239347063
2025-06-23 12:22:52.895,-0.0006668343145041,-15.979795082150885
2025-06-23 12:22:52.903,-0.0006879575270082,-16.976897735228683
2025-06-23 12:22:52.911,-0.0007092502879199,-17.860344392356602
2025-06-23 12:22:52.918,-0.0007301466809373,-18.65136320543789
2025-06-23 12:22:52.926,-0.0007500696919251,-19.37074105313815
2025-06-23 12:22:52.934,-0.0007684485244292,-20.03848460829614
2025-06-23 12:22:52.942,-0.0007847359691328,-20.673532512165075
2025-06-23 12:22:52.950,-0.0007984251919887,-21.293511480679925
2025-06-23 12:22:52.957,-0.0008090653215943,-21.91452798221801
2025-06-23 12:22:52.965,-0.0008162752820038,-22.550986611455123
2025-06-23 12:22:52.973,-0.000819755422658,-23.215426439268725
2025-06-23 12:22:52.981,-0.0008192966089423,-23.91836741480736
2025-06-23 12:22:52.989,-0.0008147865186861,-24.6681602775475
2025-06-23 12:22:52.997,-0.0008062129428144,-25.4708353276704
2025-06-23 12:22:53.004,-0.0007936639491791,-26.32994770836814
2025-06-23 12:22:53.012,-0.0007773248627759,-27.2464194642458
2025-06-23 12:22:53.020,-0.0007574721316167,-28.218381430413093
2025-06-23 12:22:53.028,-0.0007344642634286,-29.241020835473357
2025-06-23 12:22:53.036,-0.0007087301265684,-30.306443212833784
2025-06-23 12:22:53.043,-0.0006807550081,-31.40355964462292
2025-06-23 12:22:53.051,-0.0006510649118817,-32.51801234695887
2025-06-23 12:22:53.059,-0.00062020966021,-33.63215299046013
2025-06-23 12:22:53.067,-0.0005887454261651,-34.72508880163953
2025-06-23 12:22:53.075,-0.0005572173558209,-35.772811301529174
2025-06-23 12:22:53.082,-0.0005261429405526,-36.74842142989957
2025-06-23 12:22:53.090,-0.0004959967838058,-37.62246273100197
2025-06-23 12:22:53.098,-0.0004671973731067,-38.36337122783609
2025-06-23 12:22:53.106,-0.0004400963963682,-38.93804661238732
2025-06-23 12:22:53.114,-0.000414971020137,-39.312544501361806
2025-06-23 12:22:53.122,-0.0003920193920466,-39.45288387979098
2025-06-23 12:22:53.129,-0.0003713594650151,-39.32595767073813
2025-06-23 12:22:53.137,-0.0003530310716837,-38.90052788203659
2025-06-23 12:22:53.145,-0.0003370009961516,-38.14828029803053
2025-06-23 12:22:53.153,-0.0003231706096604,-37.044907556734245
2025-06-23 12:22:53.161,-0.0003113854969332,-35.571184063605415
2025-06-23 12:22:53.168,-0.0003014464254547,-33.713991939460286
2025-06-23 12:22:53.176,-0.0002931209897154,-31.467254466876515
2025-06-23 12:22:53.184,-0.0002861552816998,-28.832732627733407
2025-06-23 12:22:53.192,-0.000280285007932,-25.820641581625228
2025-06-23 12:22:53.200,-0.0002752455994406,-22.450047489463145
2025-06-23 12:22:53.207,-0.000270781013771,-18.749010987286248
2025-06-23 12:22:53.215,-0.0002666510572979,-14.754451771308013
2025-06-23 12:22:53.223,-0.000262637135307,-10.511718921928654
2025-06-23 12:22:53.231,-0.0002585463849517,-6.073863370682545
2025-06-23 12:22:53.239,-0.0002542142048733,-1.5006217556168608
2025-06-23 12:22:53.247,-0.0002495052862743,3.142865841656634
2025-06-23 12:22:53.254,-0.0002443133498422,7.787568864892327
2025-06-23 12:22:53.262,-0.0002385598625377,12.362262717446892
2025-06-23 12:22:53.270,-0.0002321920348928,16.795351417097624
2025-06-23 12:22:53.278,-0.0002251803864518,21.01675169599703
2025-06-23 12:22:53.286,-0.000217516102891,24.959769229250423
2025-06-23 12:22:53.293,-0.0002092082853793,28.56289646964803
2025-06-23 12:22:53.301,-0.0002002810508475,31.77146384094101
2025-06-23 12:22:53.309,-0.0001907703558876,34.53908172594266
2025-06-23 12:22:53.317,-0.0001807204352875,36.828819488369255
2025-06-23 12:22:53.325,-0.000170179856026,38.61407919863644
2025-06-23 12:22:53.332,-0.0001591973319753,39.87913513941398
2025-06-23 12:22:53.340,-0.0001478175620003,40.61932477480827
2025-06-23 12:22:53.348,-0.000136077406752,40.840891842953226
2025-06-23 12:22:53.356,-0.0001240026961941,40.56049673830432
2025-06-23 12:22:53.364,-0.0001116058720609,39.80442260958142
2025-06-23 12:22:53.372,-9.888455349399158e-05,38.60751695119431
2025-06-23 12:22:53.379,-8.58210204557416e-05,37.01191740795864
2025-06-23 12:22:53.387,-7.238256493363888e-05,35.06561672534908
2025-06-23 12:22:53.395,-5.8522645275936586e-05,32.82092512981843
2025-06-23 12:22:53.403,-4.418276098764759e-05,30.33288896431679
2025-06-23 12:22:53.411,-2.9294944996380767e-05,27.65772233567793
2025-06-23 12:22:53.418,-1.378478151172879e-05,24.851304175495617
2025-06-23 12:22:53.426,2.4250884054195164e-06,21.967786881953785
2025-06-23 12:22:53.434,1.941095999864137e-05,19.058355058584613
2025-06-23 12:22:53.442,3.7243554093276696e-05,16.170164285620736
2025-06-23 12:22:53.450,5.5983081810472e-05,13.34548083692266
2025-06-23 12:22:53.457,7.56740770344758e-05,10.621034243927504
2025-06-23 12:22:53.465,9.634029504527084e-05,8.027586001199637
2025-06-23 12:22:53.473,0.0001179800500328,5.589709823656827
2025-06-23 12:22:53.481,0.0001405623780095,3.3257719417492364
2025-06-23 12:22:53.489,0.0001640243497671,1.2480941195947477
2025-06-23 12:22:53.497,0.0001882697459832,-0.6367225075227154
2025-06-23 12:22:53.504,0.0002131691913404,-2.327338028761149
2025-06-23 12:22:53.512,0.000238561759911,-3.827106172125838
2025-06-23 12:22:53.520,0.0002642580113192,-5.143426905809438
2025-06-23 12:22:53.528,0.0002900443670639,-6.287047525445908
2025-06-23 12:22:53.536,0.0003156886547867,-7.271339532187273
2025-06-23 12:22:53.543,0.000340946544822,-8.111576831611202
2025-06-23 12:22:53.551,0.0003655685375848,-8.824238377238123
2025-06-23 12:22:53.559,0.0003893071694522,-9.426355488610556
2025-06-23 12:22:53.567,0.0004119241518895,-9.934920822000928
2025-06-23 12:22:53.575,0.0004331971844972,-10.366372474140777
2025-06-23 12:22:53.582,0.0004529261782578,-10.736163054440905
2025-06-23 12:22:53.590,0.0004709386252073,-11.058419861076205
2025-06-23 12:22:53.598,0.0004870938866552,-11.345698632628055
2025-06-23 12:22:53.606,0.0005012862532963,-11.608829812323895
2025-06-23 12:22:53.614,0.0005134467454456,-11.856852947457398
2025-06-23 12:22:53.622,0.0005235437346513,-12.097031837725927
2025-06-23 12:22:53.629,0.0005315825307541,-12.334940418761091
2025-06-23 12:22:53.637,0.0005376040675601,-12.57460718634676
2025-06-23 12:22:53.645,0.0005416827605572,-12.818704289612128
2025-06-23 12:22:53.653,0.0005439235511262,-13.068766296831235
2025-06-23 12:22:53.661,0.0005444581299376,-13.325423102895758
2025-06-23 12:22:53.668,0.0005434403598846,-13.588631524959098
2025-06-23 12:22:53.676,0.0005410409882297,-13.857890826560126
2025-06-23 12:22:53.684,0.0005374418245041,-14.132428707439017
2025-06-23 12:22:53.692,0.000532829638446,-14.411346165513224
2025-06-23 12:22:53.700,0.0005273900873839,-14.69371203032946
2025-06-23 12:22:53.707,0.0005213020036869,-14.978600815153706
2025-06-23 12:22:53.715,0.000514732338584,-15.265070747801254
2025-06-23 12:22:53.723,0.0005078319652703,-15.552082307351045
2025-06-23 12:22:53.731,0.0005007324325719,-15.83836118386836
2025-06-23 12:22:53.739,0.0004935436798555,-16.122213141612367
2025-06-23 12:22:53.747,0.0004863526848993,-16.40130164001965
