Timestamp,GSR_Filtered,PPG_Filtered,FMS,Condition
2025-06-23 12:29:28.552,0.0002663481641679,-7.949984837613293,6,NB
2025-06-23 12:29:28.560,0.0002307584044871,-8.401502410265648,6,NB
2025-06-23 12:29:28.568,0.0001940030142493,-8.85329805404171,6,NB
2025-06-23 12:29:28.576,0.0001562725334292,-9.312620955056165,6,NB
2025-06-23 12:29:28.583,0.0001177795094856,-9.786417407262563,6,NB
2025-06-23 12:29:28.591,7.875872968295644e-05,-10.28131350383219,6,NB
2025-06-23 12:29:28.599,3.946463918216552e-05,-10.803602855078964,6,NB
2025-06-23 12:29:28.607,1.6592107013366456e-07,-11.359230724955196,6,NB
2025-06-23 12:29:28.615,-3.886231919711769e-05,-11.953765768466244,6,NB
2025-06-23 12:29:28.622,-7.734803296225538e-05,-12.592350887332463,6,NB
2025-06-23 12:29:28.630,-0.0001150326082995,-13.279625638301528,6,NB
2025-06-23 12:29:28.638,-0.0001516815375651,-14.01961412733058,6,NB
2025-06-23 12:29:28.646,-0.0001870949300137,-14.815574363523709,6,NB
2025-06-23 12:29:28.654,-0.0002211175014532,-15.669807554942368,6,NB
2025-06-23 12:29:28.662,-0.0002536476138523,-16.583428703418388,6,NB
2025-06-23 12:29:28.669,-0.0002846447778873,-17.55610297798776,6,NB
2025-06-23 12:29:28.677,-0.0003141348828931,-18.585755583913937,6,NB
2025-06-23 12:29:28.685,-0.00034221243686,-19.668266050235435,6,NB
2025-06-23 12:29:28.693,-0.0003690393580081,-20.797160870544577,6,NB
2025-06-23 12:29:28.701,-0.0003948402737777,-21.96332107164545,6,NB
2025-06-23 12:29:28.708,-0.0004198946864382,-23.15472337008428,6,NB
2025-06-23 12:29:28.716,-0.0004445266338861,-24.356234933321048,6,NB
2025-06-23 12:29:28.724,-0.0004690925667156,-25.549482237542293,6,NB
2025-06-23 12:29:28.732,-0.000493968100962,-26.71281398380744,6,NB
2025-06-23 12:29:28.740,-0.0005195341665898,-27.821376409270087,6,NB
2025-06-23 12:29:28.747,-0.0005461629391717,-28.847316562908517,6,NB
2025-06-23 12:29:28.755,-0.0005742038515581,-29.76012520649286,6,NB
2025-06-23 12:29:28.763,-0.0006039699399168,-30.52712600875875,6,NB
2025-06-23 12:29:28.771,-0.0006357248149964,-31.114111746196706,6,NB
2025-06-23 12:29:28.779,-0.0006696706972834,-31.486121501653184,6,NB
2025-06-23 12:29:28.787,-0.0007059381663344,-31.60834562866156,6,NB
2025-06-23 12:29:28.794,-0.0007445783921143,-31.447137856387275,6,NB
2025-06-23 12:29:28.802,-0.000785558485041,-30.971106729861948,6,NB
2025-06-23 12:29:28.810,-0.0008287602480106,-30.152252028214104,6,NB
2025-06-23 12:29:28.818,-0.0008739822444794,-28.96710630331482,6,NB
2025-06-23 12:29:28.826,-0.0009209448972187,-27.397837634664,6,NB
2025-06-23 12:29:28.833,-0.0009692983312878,-25.43326745450124,6,NB
2025-06-23 12:29:28.841,-0.0010186327696973,-23.06975713344349,6,NB
2025-06-23 12:29:28.849,-0.0010684913270311,-20.31191910342473,6,NB
2025-06-23 12:29:28.857,-0.0011183849379036,-17.17311268130574,6,NB
2025-06-23 12:29:28.865,-0.0011678089729276,-13.67569135752494,6,NB
2025-06-23 12:29:28.872,-0.0012162609560764,-9.850976905602687,6,NB
2025-06-23 12:29:28.880,-0.0012632587060532,-5.738945896605211,6,NB
2025-06-23 12:29:28.888,-0.0013083581010624,-1.3876256035942995,6,NB
2025-06-23 12:29:28.896,-0.0013511695197219,3.147791691952309,6,NB
2025-06-23 12:29:28.904,-0.0013913719584109,7.806094922662464,6,NB
2025-06-23 12:29:28.912,-0.0014287239390869,12.52142844313557,6,NB
2025-06-23 12:29:28.919,-0.0014630705284204,17.22485138566786,6,NB
2025-06-23 12:29:28.927,-0.0014943459701319,21.84603076193506,6,NB
2025-06-23 12:29:28.935,-0.0015225715832312,26.31501053575877,6,NB
2025-06-23 12:29:28.943,-0.0015478488094029,30.563995052387824,6,NB
2025-06-23 12:29:28.951,-0.0015703476672984,34.52908410453656,6,NB
2025-06-23 12:29:28.958,-0.001590291309179,38.15189859763102,6,NB
2025-06-23 12:29:28.966,-0.0016079377444673,41.38104015087438,6,NB
2025-06-23 12:29:28.974,-0.0016235600463131,44.17333480023729,6,NB
2025-06-23 12:29:28.982,-0.0016374264945214,46.494819893203314,6,NB
2025-06-23 12:29:28.990,-0.0016497820844182,48.32144382120997,6,NB
2025-06-23 12:29:28.997,-0.0016608326051491,49.63945988742071,6,NB
2025-06-23 12:29:29.005,-0.001670732146315,50.445507770781305,6,NB
2025-06-23 12:29:29.013,-0.0016795745592685,50.7463881245345,6,NB
2025-06-23 12:29:29.021,-0.001687389090242,50.558547265971775,6,NB
2025-06-23 12:29:29.029,-0.0016941400463079,49.90729916503148,6,NB
2025-06-23 12:29:29.037,-0.0016997299690735,48.82582060544201,6,NB
2025-06-23 12:29:29.044,-0.0017040055005772,47.353962164327214,6,NB
2025-06-23 12:29:29.052,-0.0017067650156799,45.53692233907624,6,NB
2025-06-23 12:29:29.060,-0.0017077671306242,43.42383466326917,6,NB
2025-06-23 12:29:29.068,-0.0017067393331722,41.06631802717845,6,NB
2025-06-23 12:29:29.076,-0.0017033862477491,38.51703878203264,6,NB
2025-06-23 12:29:29.083,-0.0016973974444092,35.82832976901376,6,NB
2025-06-23 12:29:29.091,-0.0016884550581877,33.050906442918055,6,NB
2025-06-23 12:29:29.099,-0.0016762416047908,30.232714073781395,6,NB
2025-06-23 12:29:29.107,-0.0016604482562616,27.417932960316943,6,NB
2025-06-23 12:29:29.115,-0.001640783665042,24.646161045776594,6,NB
2025-06-23 12:29:29.122,-0.0016169833233819,21.95178565050024,6,NB
2025-06-23 12:29:29.130,-0.0015888193428326,19.363548556562407,6,NB
2025-06-23 12:29:29.138,-0.0015561103292207,16.904301686079556,6,NB
2025-06-23 12:29:29.146,-0.0015187307658397,14.590944343840096,6,NB
2025-06-23 12:29:29.154,-0.0014766191330689,12.43452763094372,6,NB
2025-06-23 12:29:29.162,-0.0014297839293736,10.44050730672612,6,NB
2025-06-23 12:29:29.169,-0.0013783068126137,8.609123154385573,6,NB
2025-06-23 12:29:29.177,-0.0013223423027369,6.935880814732243,6,NB
2025-06-23 12:29:29.185,-0.0012621139112145,5.412111071237137,6,NB
2025-06-23 12:29:29.193,-0.0011979070972409,4.025581637812349,6,NB
2025-06-23 12:29:29.201,-0.0011300599298585,2.7611375263760083,6,NB
2025-06-23 12:29:29.208,-0.0010589526376602,1.6013479379548392,6,NB
2025-06-23 12:29:29.216,-0.0009849973085613,0.5271401928312183,6,NB
2025-06-23 12:29:29.224,-0.0009086288617852,-0.481595661635335,6,NB
2025-06-23 12:29:29.232,-0.0008302980931807,-1.4454444200805825,6,NB
2025-06-23 12:29:29.240,-0.0007504671829368,-2.384954605597444,6,NB
2025-06-23 12:29:29.247,-0.0006696076495111,-3.320184072368696,6,NB
2025-06-23 12:29:29.255,-0.0005882003838298,-4.270304129288667,6,NB
2025-06-23 12:29:29.263,-0.0005067371174542,-5.253260704350859,6,NB
2025-06-23 12:29:29.271,-0.0004257224837509,-6.285488231670133,6,NB
2025-06-23 12:29:29.279,-0.0003456757350379,-7.381669662911377,6,NB
2025-06-23 12:29:29.287,-0.0002671312063229,-8.554534363689605,6,NB
2025-06-23 12:29:29.294,-0.000190636809375,-9.814684703415203,6,NB
2025-06-23 12:29:29.302,-0.0001167501650157,-11.170441906086491,6,NB
2025-06-23 12:29:29.310,-4.6032300408953466e-05,-12.627702201601409,6,NB
2025-06-23 12:29:29.318,2.096093619898285e-05,-14.18979549064874,6,NB
2025-06-23 12:29:29.326,8.368942506684878e-05,-15.8573405829374,6,NB
2025-06-23 12:29:29.333,0.0001416408349415,-17.628093532721408,6,NB
2025-06-23 12:29:29.341,0.0001943436839339,-19.496788583269883,6,NB
2025-06-23 12:29:29.349,0.0002413809531984,-21.45497460583069,6,NB
2025-06-23 12:29:29.357,0.0002824039093699,-23.490853500383896,6,NB
2025-06-23 12:29:29.365,0.000317145793277,-25.589130603564332,6,NB
2025-06-23 12:29:29.372,0.0003454348608656,-27.730890489905743,6,NB
2025-06-23 12:29:29.380,0.0003672060045373,-29.893514412482336,6,NB
2025-06-23 12:29:29.388,0.0003825100053609,-32.05065776677602,6,NB
2025-06-23 12:29:29.396,0.000391519484188,-34.17230714830882,6,NB
2025-06-23 12:29:29.404,0.0003945308388466,-36.22493660431343,6,NB
2025-06-23 12:29:29.412,0.0003919617721732,-38.17178138735426,6,NB
2025-06-23 12:29:29.419,0.000384344276662,-39.97324480608237,6,NB
2025-06-23 12:29:29.427,0.00037231306842,-41.58744962538605,6,NB
2025-06-23 12:29:29.435,0.0003565895337464,-42.97093997830312,6,NB
2025-06-23 12:29:29.443,0.0003379614154581,-44.079533082021456,6,NB
2025-06-23 12:29:29.451,0.0003172587931967,-44.86931244210831,6,NB
2025-06-23 12:29:29.458,0.0002953273257969,-45.297746001149534,6,NB
2025-06-23 12:29:29.466,0.0002730000682716,-45.32490423820104,6,NB
2025-06-23 12:29:29.474,0.000251069360844,-44.91474502218948,6,NB
2025-06-23 12:29:29.482,0.0002302603453859,-44.03642457708647,6,NB
2025-06-23 12:29:29.490,0.0002112076370803,-42.66558774618686,6,NB
2025-06-23 12:29:29.497,0.000194436523552,-40.78558633263808,6,NB
2025-06-23 12:29:29.505,0.0001803497464132,-38.388572065211335,6,NB
2025-06-23 12:29:29.513,0.0001692205251182,-35.47641101966376,6,NB
2025-06-23 12:29:29.521,0.0001611921336184,-32.061369321987804,6,NB
2025-06-23 12:29:29.529,0.0001562840446296,-28.166525729985388,6,NB
2025-06-23 12:29:29.537,0.0001544043070854,-23.82587513174638,6,NB
2025-06-23 12:29:29.544,0.0001553673570606,-19.084097842163736,6,NB
2025-06-23 12:29:29.552,0.0001589159681322,-13.995982385169487,6,NB
2025-06-23 12:29:29.560,0.000164745687526,-8.625503636797099,6,NB
2025-06-23 12:29:29.568,0.0001725299903402,-3.04457307243289,6,NB
2025-06-23 12:29:29.576,0.0001819445158802,2.6685073671704926,6,NB
2025-06-23 12:29:29.583,0.0001926890173653,8.430842411607573,6,NB
2025-06-23 12:29:29.591,0.000204505896214,14.156934048568704,6,NB
2025-06-23 12:29:29.599,0.0002171943192528,19.76079825170176,6,NB
2025-06-23 12:29:29.607,0.0002306190016719,25.158133768073757,6,NB
2025-06-23 12:29:29.615,0.0002447129281669,30.26846552416379,6,NB
2025-06-23 12:29:29.622,0.000259473675521,35.017185470961614,6,NB
2025-06-23 12:29:29.630,0.0002749535785768,39.33741757481143,6,NB
2025-06-23 12:29:29.638,0.000291244625652,43.17164096286853,6,NB
2025-06-23 12:29:29.646,0.0003084595054994,46.47301554352953,6,NB
2025-06-23 12:29:29.654,0.0003267105559791,49.206367163143376,6,NB
2025-06-23 12:29:29.662,0.0003460885101809,51.34880381931509,6,NB
2025-06-23 12:29:29.669,0.0003666429358913,52.88994983720796,6,NB
2025-06-23 12:29:29.677,0.0003883660748817,53.83180041337712,6,NB
2025-06-23 12:29:29.685,0.0004111813770993,54.18821375505165,6,NB
2025-06-23 12:29:29.693,0.0004349374848743,53.98407147810171,6,NB
2025-06-23 12:29:29.701,0.0004594079211608,53.25414937254988,6,NB
2025-06-23 12:29:29.708,0.0004842963908048,52.041749643902165,6,NB
2025-06-23 12:29:29.716,0.0005092474237839,50.39715200686748,6,NB
2025-06-23 12:29:29.724,0.0005338619748626,48.37594444348824,6,NB
2025-06-23 12:29:29.732,0.0005577173951751,46.03729511266952,6,NB
2025-06-23 12:29:29.740,0.0005803908368677,43.44222503194069,6,NB
2025-06-23 12:29:29.748,0.0006014847281768,40.65193707378976,6,NB
2025-06-23 12:29:29.755,0.0006206526280235,37.726250924458746,6,NB
2025-06-23 12:29:29.763,0.0006376236502982,34.72218636788986,6,NB
2025-06-23 12:29:29.771,0.0006522237488097,31.692729007365724,6,NB
2025-06-23 12:29:29.779,0.0006643924022426,28.68580373224492,6,NB
2025-06-23 12:29:29.787,0.0006741935468871,25.74347226055237,6,NB
2025-06-23 12:29:29.794,0.0006818199328682,22.90136228740334,6,NB
2025-06-23 12:29:29.802,0.0006875904188023,20.188327447464303,6,NB
2025-06-23 12:29:29.810,0.0006919400620854,17.6263297108946,6,NB
2025-06-23 12:29:29.818,0.0006954032261085,15.230529178116845,6,NB
2025-06-23 12:29:29.826,0.0006985903455214,13.009560665637505,6,NB
2025-06-23 12:29:29.833,0.0007021594223809,10.96597207302302,6,NB
2025-06-23 12:29:29.841,0.0007067836388089,9.096796327671528,6,NB
2025-06-23 12:29:29.849,0.0007131165867568,7.394226712728867,6,NB
2025-06-23 12:29:29.857,0.0007217566052148,5.846364553590299,6,NB
2025-06-23 12:29:29.865,0.0007332117255939,4.438008503592124,6,NB
2025-06-23 12:29:29.873,0.0007478668255994,3.151455944128624,6,NB
2025-06-23 12:29:29.880,0.0007659547047921,1.9672891970484168,6,NB
2025-06-23 12:29:29.888,0.0007875327682335,0.8651222217504254,6,NB
2025-06-23 12:29:29.896,0.0008124667590759,-0.1757128950335149,6,NB
2025-06-23 12:29:29.904,0.0008404225952876,-1.175556198537615,6,NB
2025-06-23 12:29:29.912,0.0008708669928066,-2.1538989099180923,6,NB
2025-06-23 12:29:29.919,0.0009030772739297,-3.128958592578202,6,NB
2025-06-23 12:29:29.927,0.0009361604990001,-4.117353053860064,6,NB
2025-06-23 12:29:29.935,0.0009690816787941,-5.133871010240416,6,NB
2025-06-23 12:29:29.943,0.001000700256722,-6.1913332704769655,6,NB
2025-06-23 12:29:29.951,0.0010298133847701,-7.30053439924033,6,NB
2025-06-23 12:29:29.958,0.0010552039259917,-8.470251668782083,6,NB
2025-06-23 12:29:29.966,0.0010756907261516,-9.707305712924532,6,NB
2025-06-23 12:29:29.974,0.0010901785537119,-11.016655755327765,6,NB
2025-06-23 12:29:29.982,0.0010977051901806,-12.401511650459687,6,NB
2025-06-23 12:29:29.990,0.0010974833865999,-13.863445281573526,6,NB
2025-06-23 12:29:29.998,0.0010889357023995,-15.402485104972278,6,NB
2025-06-23 12:29:30.005,0.0010717205736213,-17.01717977388154,6,NB
2025-06-23 12:29:30.013,0.0010457483152688,-18.704619733515617,6,NB
2025-06-23 12:29:30.021,0.0010111861444545,-20.46040932540303,6,NB
2025-06-23 12:29:30.029,0.0009684517467924,-22.27858611610589,6,NB
2025-06-23 12:29:30.037,0.0009181954694003,-24.151488694052222,6,NB
2025-06-23 12:29:30.044,0.0008612719389765,-26.06957886649424,6,NB
2025-06-23 12:29:30.052,0.0007987026827744,-28.02122883743888,6,NB
2025-06-23 12:29:30.060,0.0007316320054304,-29.992488349405445,6,NB
2025-06-23 12:29:30.068,0.0006612788173145,-31.966850707153608,6,NB
2025-06-23 12:29:30.076,0.0005888872798187,-33.92503983891213,6,NB
2025-06-23 12:29:30.083,0.0005156790299551,-35.844842859154795,6,NB
2025-06-23 12:29:30.091,0.0004428094060147,-37.70101376284016,6,NB
2025-06-23 12:29:30.099,0.000371329613582,-39.46527372335476,6,NB
2025-06-23 12:29:30.107,0.0003021562458043,-41.10643184912091,6,NB
2025-06-23 12:29:30.115,0.0002360490483006,-42.59064709542624,6,NB
2025-06-23 12:29:30.123,0.0001735973189141,-43.88184731210647,6,NB
2025-06-23 12:29:30.130,0.0001152148747808,-44.94231519604108,6,NB
2025-06-23 12:29:30.138,6.114311493315323e-05,-45.733443362574775,6,NB
2025-06-23 12:29:30.146,1.1461391010735592e-05,-46.216652101978845,6,NB
2025-06-23 12:29:30.154,-3.389628098025714e-05,-46.35445399118885,6,NB
2025-06-23 12:29:30.162,-7.511921153192872e-05,-46.11163981976112,6,NB
2025-06-23 12:29:30.169,-0.0001124938709907,-45.45655077201568,6,NB
2025-06-23 12:29:30.177,-0.0001463748940399,-44.362393057053616,6,NB
2025-06-23 12:29:30.185,-0.0001771547890357,-42.8085438024896,6,NB
2025-06-23 12:29:30.193,-0.0002052339597922,-40.78179162582699,6,NB
2025-06-23 12:29:30.201,-0.0002309925217265,-38.277452407057964,6,NB
2025-06-23 12:29:30.208,-0.0002547651469615,-35.300300832523334,6,NB
2025-06-23 12:29:30.216,-0.0002768199607402,-31.86526153819848,6,NB
2025-06-23 12:29:30.224,-0.0002973424188448,-27.99781024820903,6,NB
2025-06-23 12:29:30.232,-0.0003164250512628,-23.7340450801218,6,NB
2025-06-23 12:29:30.240,-0.0003340638118698,-19.12040085360012,6,NB
2025-06-23 12:29:30.248,-0.0003501614297559,-14.212994251628134,6,NB
2025-06-23 12:29:30.255,-0.0003645376266415,-9.076604296800303,6,NB
2025-06-23 12:29:30.263,-0.0003769454673757,-3.78330991135402,6,NB
2025-06-23 12:29:30.271,-0.0003870926185328,1.5891766755739871,6,NB
2025-06-23 12:29:30.279,-0.000394666001941,6.959426253197201,6,NB
2025-06-23 12:29:30.287,-0.0003993582186015,12.244390921472394,6,NB
2025-06-23 12:29:30.294,-0.0004008941401547,17.361606402482824,6,NB
2025-06-23 12:29:30.302,-0.0003990562309363,22.23141406878912,6,NB
2025-06-23 12:29:30.310,-0.0003937074373468,26.779116293597163,6,NB
2025-06-23 12:29:30.318,-0.0003848107319434,30.93698105474635,6,NB
2025-06-23 12:29:30.326,-0.0003724445466249,34.64601834447779,6,NB
2025-06-23 12:29:30.333,-0.0003568134146636,37.85746144916159,6,NB
2025-06-23 12:29:30.341,-0.0003382532102893,40.5338999299097,6,NB
2025-06-23 12:29:30.349,-0.0003172304196407,42.65002732765544,6,NB
2025-06-23 12:29:30.357,-0.0002943349402637,44.19298427015132,6,NB
2025-06-23 12:29:30.365,-0.0002702661098936,45.16229574033787,6,NB
2025-06-23 12:29:30.373,-0.0002458120770648,45.56941875074895,6,NB
2025-06-23 12:29:30.380,-0.0002218231607799,45.4369326132359,6,NB
2025-06-23 12:29:30.388,-0.0001991803381061,44.797417595865056,6,NB
2025-06-23 12:29:30.396,-0.0001787603248565,43.69207840853867,6,NB
2025-06-23 12:29:30.404,-0.0001613988335757,42.16917626754341,6,NB
2025-06-23 12:29:30.412,-0.0001478535340925,40.28233710213076,6,NB
2025-06-23 12:29:30.419,-0.000138768114742,38.08880385205578,6,NB
2025-06-23 12:29:30.427,-0.0001346388007671,35.64769803050063,6,NB
2025-06-23 12:29:30.435,-0.0001357848041471,33.018350221292195,6,NB
2025-06-23 12:29:30.443,-0.0001423243718804,30.258751491909823,6,NB
2025-06-23 12:29:30.451,-0.0001541582037692,27.42416845531741,6,NB
2025-06-23 12:29:30.458,-0.0001709619072698,24.56595454565529,6,NB
2025-06-23 12:29:30.466,-0.0001921888039419,21.73057959971619,6,NB
2025-06-23 12:29:30.474,-0.0002170838039069,18.958889607997456,6,NB
2025-06-23 12:29:30.482,-0.0002447082726107,16.285598976224538,6,NB
2025-06-23 12:29:30.490,-0.000273974956547,13.73900917296047,6,NB
2025-06-23 12:29:30.498,-0.0003036912859171,11.34094046257524,6,NB
2025-06-23 12:29:30.505,-0.0003326088340495,9.106857641949553,6,NB
2025-06-23 12:29:30.513,-0.0003594763626808,7.046166309565291,6,NB
2025-06-23 12:29:30.521,-0.0003830936851822,5.162653114695556,6,NB
2025-06-23 12:29:30.529,-0.0004023635849118,3.455041540770313,6,NB
2025-06-23 12:29:30.537,-0.0004163392707632,1.91763393989995,6,NB
2025-06-23 12:29:30.544,-0.0004242652493847,0.5410106303697174,6,NB
2025-06-23 12:29:30.552,-0.0004256098882513,-0.6872422154562264,6,NB
2025-06-23 12:29:30.560,-0.0004200882579373,-1.7818025221956888,6,NB
2025-06-23 12:29:30.568,-0.0004076741422315,-2.758904436868333,6,NB
2025-06-23 12:29:30.576,-0.0003886005349595,-3.6356740901464257,6,NB
2025-06-23 12:29:30.583,-0.0003633485724644,-4.429527081166082,6,NB
2025-06-23 12:29:30.591,-0.0003326255930555,-5.157641999596011,6,NB
2025-06-23 12:29:30.599,-0.0002973337021655,-5.836520242724179,6,NB
2025-06-23 12:29:30.607,-0.0002585307318024,-6.481638176907086,6,NB
2025-06-23 12:29:30.615,-0.0002173857734264,-7.107193464729387,6,NB
2025-06-23 12:29:30.623,-0.0001751315590172,-7.725943263743416,6,NB
2025-06-23 12:29:30.630,-0.0001330159388696,-8.349128127477643,6,NB
2025-06-23 12:29:30.638,-9.225461080327305e-05,-8.986471923907239,6,NB
2025-06-23 12:29:30.646,-5.398706281229567e-05,-9.64624504013727,6,NB
2025-06-23 12:29:30.654,-1.9237364819354477e-05,-10.335375666113952,6,NB
2025-06-23 12:29:30.662,1.1118928617241997e-05,-11.05959213967622,6,NB
2025-06-23 12:29:30.669,3.63807949888659e-05,-11.823578274130712,6,NB
2025-06-23 12:29:30.677,5.6039920099997376e-05,-12.631123341569522,6,NB
2025-06-23 12:29:30.685,6.979051820221346e-05,-13.485248987382016,6,NB
2025-06-23 12:29:30.693,7.753065363989153e-05,-14.388296814708486,6,NB
2025-06-23 12:29:30.701,7.935541836009197e-05,-15.341962689359086,6,NB
2025-06-23 12:29:30.708,7.554282747024342e-05,-16.347266936725923,6,NB
2025-06-23 12:29:30.716,6.653365305470299e-05,-17.404453457581592,6,NB
2025-06-23 12:29:30.724,5.290654443200987e-05,-18.512815261238085,6,NB
2025-06-23 12:29:30.732,3.534975929731713e-05,-19.67044883997273,6,NB
2025-06-23 12:29:30.740,1.4630807871946852e-05,-20.873944987782984,6,NB
2025-06-23 12:29:30.748,-8.434631913301441e-06,-22.118028872444903,6,NB
2025-06-23 12:29:30.755,-3.301310308909287e-05,-23.395167159645524,6,NB
2025-06-23 12:29:30.763,-5.828170276840087e-05,-24.69516451081348,6,NB
2025-06-23 12:29:30.771,-8.345326922338911e-05,-26.004775579413103,6,NB
2025-06-23 12:29:30.779,-0.0001077977234667,-27.30736146666373,6,NB
2025-06-23 12:29:30.787,-0.0001306592461516,-28.58262123637296,6,NB
2025-06-23 12:29:30.794,-0.0001514692891603,-29.80642932935021,6,NB
2025-06-23 12:29:30.802,-0.0001697556787453,-30.950808402720966,6,NB
2025-06-23 12:29:30.810,-0.0001851482136111,-31.984064143174862,6,NB
2025-06-23 12:29:30.818,-0.000197381151796,-32.871103921568704,6,NB
2025-06-23 12:29:30.826,-0.0002062928940636,-33.57395479399436,6,NB
2025-06-23 12:29:30.833,-0.0002118231342881,-34.052488416131574,6,NB
2025-06-23 12:29:30.841,-0.0002140077647446,-34.26535112471966,6,NB
2025-06-23 12:29:30.849,-0.0002129718194625,-34.171087064315834,6,NB
2025-06-23 12:29:30.857,-0.0002089207163142,-33.729431222948854,6,NB
2025-06-23 12:29:30.865,-0.0002021301038258,-32.90273810830114,6,NB
2025-06-23 12:29:30.873,-0.0001929347339828,-31.65750114301095,6,NB
2025-06-23 12:29:30.880,-0.0001817168486705,-29.96590832753636,6,NB
2025-06-23 12:29:30.888,-0.000168894510417,-27.807371970465752,6,NB
2025-06-23 12:29:30.896,-0.0001549101758076,-25.16996495284041,6,NB
2025-06-23 12:29:30.904,-0.0001402196528495,-22.051693638387928,6,NB
2025-06-23 12:29:30.912,-0.0001252813991041,-18.461538611186544,6,NB
2025-06-23 12:29:30.919,-0.0001105459519682,-14.420199197302972,6,NB
2025-06-23 12:29:30.927,-9.644526181100142e-05,-9.960486281561238,6,NB
2025-06-23 12:29:30.935,-8.338189417362011e-05,-5.127320100113284,6,NB
2025-06-23 12:29:30.943,-7.171839661647513e-05,0.0226949446473827,6,NB
2025-06-23 12:29:30.951,-6.176742591688685e-05,5.422128505104903,6,NB
2025-06-23 12:29:30.958,-5.378338260535682e-05,10.994006067462864,6,NB
2025-06-23 12:29:30.966,-4.795625770651706e-05,16.65348469301287,6,NB
2025-06-23 12:29:30.974,-4.4408161018936376e-05,22.309873585529196,6,NB
2025-06-23 12:29:30.982,-4.319261595682042e-05,27.868932560806808,6,NB
2025-06-23 12:29:30.990,-4.429629272430568e-05,33.23536656264893,6,NB
2025-06-23 12:29:30.998,-4.764257309595375e-05,38.31542324799411,6,NB
2025-06-23 12:29:31.005,-5.309628499386765e-05,43.01949408950912,6,NB
2025-06-23 12:29:31.013,-6.046907003731769e-05,47.2646178814099,6,NB
2025-06-23 12:29:31.021,-6.95250699479991e-05,50.97678913210939,6,NB
2025-06-23 12:29:31.029,-7.998689514307632e-05,54.0929823956258,6,NB
2025-06-23 12:29:31.037,-9.154211543780862e-05,56.56281661400804,6,NB
2025-06-23 12:29:31.044,-0.0001038506687685,58.349800213110655,6,NB
2025-06-23 12:29:31.052,-0.0001165534990343,59.43211699651206,6,NB
2025-06-23 12:29:31.060,-0.0001292824106396,59.8029336641764,6,NB
2025-06-23 12:29:31.068,-0.0001416707216809,59.47023083918777,6,NB
2025-06-23 12:29:31.076,-0.0001533639808568,58.456179646013815,6,NB
2025-06-23 12:29:31.083,-0.0001640298350158,56.79610408563785,6,NB
2025-06-23 12:29:31.091,-0.0001733660916359,54.53708480897728,6,NB
2025-06-23 12:29:31.099,-0.0001811061647241,51.73627173523901,6,NB
2025-06-23 12:29:31.107,-0.0001870214575741,48.45898088338695,6,NB
2025-06-23 12:29:31.115,-0.0001909207294021,44.776654631508826,6,NB
2025-06-23 12:29:31.123,-0.0001926469486248,40.76476449266908,6,NB
2025-06-23 12:29:31.130,-0.0001920724316378,36.50073172811168,6,NB
2025-06-23 12:29:31.138,-0.0001890931566129,32.06193422949251,6,NB
2025-06-23 12:29:31.146,-0.0001836230268074,27.523858746159203,6,NB
2025-06-23 12:29:31.154,-0.0001755885823095,22.95844644364466,6,NB
2025-06-23 12:29:31.162,-0.0001649243440469,18.43266771114307,6,NB
2025-06-23 12:29:31.169,-0.0001515687845327,14.007349816818127,6,NB
2025-06-23 12:29:31.177,-0.0001354609413569,9.736269092659432,6,NB
2025-06-23 12:29:31.185,-0.0001165378484146,5.665508354886194,6,NB
2025-06-23 12:29:31.193,-9.473310767811488e-05,1.8330706411403657,6,NB
2025-06-23 12:29:31.201,-6.997698248754496e-05,-1.7312676493327808,6,NB
2025-06-23 12:29:31.208,-4.219839409682278e-05,-5.0058873376781605,6,NB
2025-06-23 12:29:31.216,-1.1329186316626772e-05,-7.977068284589094,6,NB
2025-06-23 12:29:31.224,2.268907844396513e-05,-10.638572594052066,6,NB
2025-06-23 12:29:31.232,5.989582127230008e-05,-12.991100370532518,6,NB
2025-06-23 12:29:31.240,0.0001003001149213,-15.041648815889705,6,NB
2025-06-23 12:29:31.248,0.0001438681574257,-16.802803911056245,6,NB
2025-06-23 12:29:31.255,0.0001905105331133,-18.29199148831862,6,NB
2025-06-23 12:29:31.263,0.000240070191174,-19.530711417404916,6,NB
2025-06-23 12:29:31.271,0.0002923119694297,-20.54377513241406,6,NB
2025-06-23 12:29:31.279,0.000346914439937,-21.358563008995308,6,NB
2025-06-23 12:29:31.287,0.0004034648567756,-22.004314312291577,6,NB
2025-06-23 12:29:31.294,0.0004614579704213,-22.51145869164725,6,NB
2025-06-23 12:29:31.302,0.0005202993528756,-22.910994594263848,6,NB
2025-06-23 12:29:31.310,0.000579313620896,-23.233916598801805,6,NB
2025-06-23 12:29:31.318,0.0006377575619271,-23.51069062656776,6,NB
2025-06-23 12:29:31.326,0.0006948377014381,-23.77077337005435,6,NB
2025-06-23 12:29:31.333,0.0007497314176789,-24.04217018225826,6,NB
2025-06-23 12:29:31.341,0.0008016104476921,-24.35102418641548,6,NB
2025-06-23 12:29:31.349,0.0008496655450561,-24.721228576078325,6,NB
2025-06-23 12:29:31.357,0.0008931310298011,-25.17405404407545,6,NB
2025-06-23 12:29:31.365,0.0009313079459207,-25.727784043153743,6,NB
2025-06-23 12:29:31.373,0.000963584557895,-26.39735214211656,6,NB
2025-06-23 12:29:31.380,0.0009894530473155,-27.193978056443346,6,NB
2025-06-23 12:29:31.388,0.0010085215460054,-28.12480191085904,6,NB
2025-06-23 12:29:31.396,0.0010205210582099,-29.192519795066964,6,NB
2025-06-23 12:29:31.404,0.0010253073345256,-30.395027524733823,6,NB
2025-06-23 12:29:31.412,0.001022858244506,-31.72508350901845,6,NB
2025-06-23 12:29:31.419,0.0010132674919969,-33.17000552236586,6,NB
2025-06-23 12:29:31.427,0.0009967355483877,-34.71141973668366,6,NB
2025-06-23 12:29:31.435,0.0009735585257597,-36.325083339992425,6,NB
2025-06-23 12:29:31.443,0.0009441155379746,-37.98080420289955,6,NB
2025-06-23 12:29:31.451,0.0009088550241022,-39.64248212179831,6,NB
2025-06-23 12:29:31.458,0.0008682805765991,-41.26829595841815,6,NB
2025-06-23 12:29:31.466,0.0008229369970981,-42.81105933698744,6,NB
2025-06-23 12:29:31.474,0.0007733974860209,-44.218764332161136,6,NB
2025-06-23 12:29:31.482,0.0007202529051167,-45.43532772827436,6,NB
2025-06-23 12:29:31.490,0.0006641038558523,-46.40154797670581,6,NB
2025-06-23 12:29:31.498,0.0006055559442316,-47.056273035133,6,NB
2025-06-23 12:29:31.505,0.0005452181453126,-47.33777005246144,6,NB
2025-06-23 12:29:31.513,0.0004837036893819,-47.18527768980834,6,NB
2025-06-23 12:29:31.521,0.0004216324290265,-46.540711178411215,6,NB
2025-06-23 12:29:31.529,0.0003596333378159,-45.35047954596367,6,NB
2025-06-23 12:29:31.537,0.000298345761843,-43.56736439790573,6,NB
2025-06-23 12:29:31.544,0.000238418296274,-41.15240085352747,6,NB
2025-06-23 12:29:31.552,0.0001805045358722,-38.076694332765584,6,NB
2025-06-23 12:29:31.560,0.0001252552864283,-34.32310244225427,6,NB
2025-06-23 12:29:31.568,7.330710470951449e-05,-29.88770969925511,6,NB
2025-06-23 12:29:31.576,2.5267332618083173e-05,-24.78102460739313,6,NB
2025-06-23 12:29:31.583,-1.8303878708750796e-05,-19.02883384123273,6,NB
2025-06-23 12:29:31.591,-5.69137542632692e-05,-12.672656999925728,6,NB
2025-06-23 12:29:31.599,-9.015825056810964e-05,-5.769757340540152,6,NB
2025-06-23 12:29:31.607,-0.0001177433813022,1.607321317465923,6,NB
2025-06-23 12:29:31.615,-0.000139505241756,9.371704313082873,6,NB
2025-06-23 12:29:31.623,-0.0001554274536903,17.423616787102922,6,NB
2025-06-23 12:29:31.630,-0.0001656547410819,25.652270400915043,6,NB
2025-06-23 12:29:31.638,-0.0001705013021955,33.93816238698648,6,NB
2025-06-23 12:29:31.646,-0.0001704526494802,42.15572543690066,6,NB
2025-06-23 12:29:31.654,-0.000166159799493,50.17625119087565,6,NB
2025-06-23 12:29:31.662,-0.000158425186692,57.870997141445926,6,NB
2025-06-23 12:29:31.669,-0.0001481803627798,65.11437726559384,6,NB
2025-06-23 12:29:31.677,-0.0001364562595668,71.78713116409664,6,NB
2025-06-23 12:29:31.685,-0.0001243474115064,77.77936524791996,6,NB
2025-06-23 12:29:31.693,-0.0001129720000938,82.9933627060591,6,NB
2025-06-23 12:29:31.701,-0.0001034298788448,87.34606654067188,6,NB
2025-06-23 12:29:31.708,-9.676085738998712e-05,90.7711515660455,6,NB
2025-06-23 12:29:31.716,-9.390546400495936e-05,93.22061642830415,6,NB
2025-06-23 12:29:31.724,-9.56701701938276e-05,94.66584471849984,6,NB
2025-06-23 12:29:31.732,-0.0001026986614669,95.09810428365128,6,NB
2025-06-23 12:29:31.740,-0.0001154502192682,94.5284749508344,6,NB
2025-06-23 12:29:31.748,-0.0001341857301225,92.9872160851756,6,NB
2025-06-23 12:29:31.755,-0.0001589613547705,90.52260573135314,6,NB
2025-06-23 12:29:31.763,-0.0001896295158606,87.1993016336708,6,NB
2025-06-23 12:29:31.771,-0.0002258466042537,83.09629039735661,6,NB
2025-06-23 12:29:31.779,-0.0002670866631003,78.30450379660698,6,NB
2025-06-23 12:29:31.787,-0.0003126602509264,72.92419028263538,6,NB
2025-06-23 12:29:31.794,-0.0003617376297271,67.06213482574431,6,NB
2025-06-23 12:29:31.802,-0.0004133753240861,60.828821278906624,6,NB
2025-06-23 12:29:31.810,-0.0004665449937594,54.33562862730473,6,NB
2025-06-23 12:29:31.818,-0.0005201635296212,47.69214613408273,6,NB
2025-06-23 12:29:31.826,-0.000573123351564,41.00368301657093,6,NB
2025-06-23 12:29:31.833,-0.000624322052283,34.369036523239885,6,NB
2025-06-23 12:29:31.841,-0.0006726907858172,27.878568842261192,6,NB
2025-06-23 12:29:31.849,-0.00071722110286,21.61262890060932,6,NB
2025-06-23 12:29:31.857,-0.0007569901958284,15.64034053522846,6,NB
2025-06-23 12:29:31.865,-0.0007911846532665,10.018764407503497,6,NB
2025-06-23 12:29:31.873,-0.0008191228018991,4.79242797537678,6,NB
2025-06-23 12:29:31.880,-0.0008402755360097,-0.0067936917832784,6,NB
2025-06-23 12:29:31.888,-0.0008542852159966,-4.359473126227117,6,NB
2025-06-23 12:29:31.896,-0.0008609818176543,-8.258136141427556,6,NB
2025-06-23 12:29:31.904,-0.0008603951614796,-11.706517805477311,6,NB
2025-06-23 12:29:31.912,-0.0008527619195315,-14.718611763022205,6,NB
2025-06-23 12:29:31.919,-0.0008385262755763,-17.317557143206,6,NB
2025-06-23 12:29:31.927,-0.0008183335301976,-19.53440663045866,6,NB
2025-06-23 12:29:31.935,-0.0007930164400411,-21.406817040262258,6,NB
2025-06-23 12:29:31.943,-0.0007635745430575,-22.977700249925256,6,NB
2025-06-23 12:29:31.951,-0.0007311471040324,-24.293867926822195,6,NB
2025-06-23 12:29:31.958,-0.0006969806061165,-25.40469851814149,6,NB
2025-06-23 12:29:31.966,-0.0006623919116851,-26.360849743165133,6,NB
2025-06-23 12:29:31.974,-0.0006287283246042,-27.213034652590668,6,NB
2025-06-23 12:29:31.982,-0.0005973258395497,-28.01087443406725,6,NB
2025-06-23 12:29:31.990,-0.0005694669340605,-28.801836742577017,6,NB
2025-06-23 12:29:31.998,-0.000546339387797,-29.630264565237784,6,NB
2025-06-23 12:29:32.005,-0.000528997720994,-30.536497601751968,6,NB
2025-06-23 12:29:32.013,-0.0005183287794434,-31.55608593045037,6,NB
2025-06-23 12:29:32.021,-0.000515022712409,-32.71909437375829,6,NB
2025-06-23 12:29:32.029,-0.0005195502108583,-34.04949546893587,6,NB
2025-06-23 12:29:32.037,-0.0005321465221782,-35.56464924010953,6,NB
2025-06-23 12:29:32.044,-0.0005528024343004,-37.27486897108778,6,NB
2025-06-23 12:29:32.052,-0.0005812620928791,-39.18307378117802,6,NB
2025-06-23 12:29:32.060,-0.0006170272582083,-41.2845308663052,6,NB
2025-06-23 12:29:32.068,-0.0006593675422075,-43.56669261648943,6,NB
2025-06-23 12:29:32.076,-0.0007073362775429,-46.00913626452361,6,NB
2025-06-23 12:29:32.083,-0.0007597918290201,-48.58361604201261,6,NB
2025-06-23 12:29:32.091,-0.0008154242448603,-51.25423977803576,6,NB
2025-06-23 12:29:32.099,-0.0008727871133324,-53.97778321812234,6,NB
2025-06-23 12:29:32.107,-0.0009303343273,-56.70415581436535,6,NB
2025-06-23 12:29:32.115,-0.0009864611659921,-59.3770311107962,6,NB
2025-06-23 12:29:32.123,-0.0010395486920678,-61.93465293042673,6,NB
2025-06-23 12:29:32.130,-0.001088009983601,-64.31082522549224,6,NB
2025-06-23 12:29:32.138,-0.0011303363000837,-66.43608861846286,6,NB
2025-06-23 12:29:32.146,-0.001165141086857,-68.23908037224759,6,NB
2025-06-23 12:29:32.154,-0.0011911998397693,-69.64806693000641,6,NB
2025-06-23 12:29:32.162,-0.0012074842074824,-70.59262952227647,6,NB
2025-06-23 12:29:32.169,-0.00121318914663,-71.00547402825589,6,NB
2025-06-23 12:29:32.177,-0.0012077523506561,-70.8243267741929,6,NB
2025-06-23 12:29:32.185,-0.0011908655050963,-69.99386880706383,6,NB
2025-06-23 12:29:32.193,-0.0011624771805937,-68.46765299539403,6,NB
2025-06-23 12:29:32.201,-0.001122787396462,-66.2099416906819,6,NB
2025-06-23 12:29:32.208,-0.0010722341481187,-63.19739821142694,6,NB
2025-06-23 12:29:32.216,-0.0010114725390596,-59.420563594879134,6,NB
2025-06-23 12:29:32.224,-0.0009413475238367,-54.8850512968365,6,NB
2025-06-23 12:29:32.232,-0.0008628615347729,-49.612397058539344,6,NB
2025-06-23 12:29:32.240,-0.0007771384295809,-43.640509075228486,6,NB
2025-06-23 12:29:32.248,-0.0006853853512731,-37.02367476503646,6,NB
2025-06-23 12:29:32.255,-0.0005888542350391,-29.83209451299436,6,NB
2025-06-23 12:29:32.263,-0.0004888047143944,-22.15092922181681,6,NB
2025-06-23 12:29:32.271,-0.0003864700074715,-14.078866642307766,6,NB
2025-06-23 12:29:32.279,-0.0002830270585386,-5.726230457717199,6,NB
2025-06-23 12:29:32.287,-0.0001795718546113,2.7873249499858974,6,NB
2025-06-23 12:29:32.294,-7.710047987135803e-05,11.335473161232835,6,NB
2025-06-23 12:29:32.302,2.3503869337742565e-05,19.788150869780523,6,NB
2025-06-23 12:29:32.310,0.0001214779971788,28.01467930846333,6,NB
2025-06-23 12:29:32.318,0.0002161803095015,35.88697195843927,6,NB
2025-06-23 12:29:32.326,0.0003070874914838,43.282722838609686,6,NB
2025-06-23 12:29:32.333,0.000393787026572,50.08846838308675,6,NB
2025-06-23 12:29:32.341,0.0004759664458704,56.20241918111656,6,NB
2025-06-23 12:29:32.349,0.0005534002687546,61.53696557422944,6,NB
2025-06-23 12:29:32.357,0.0006259356163741,66.02077295067816,6,NB
2025-06-23 12:29:32.365,0.0006934774536863,69.60039800671889,6,NB
2025-06-23 12:29:32.373,0.0007559743481568,72.24137552901911,6,NB
2025-06-23 12:29:32.380,0.0008134055310467,73.92874551160148,6,NB
2025-06-23 12:29:32.388,0.0008657699180992,74.66701167467582,6,NB
2025-06-23 12:29:32.396,0.0009130775989933,74.47954368759234,6,NB
2025-06-23 12:29:32.404,0.0009553441481496,73.40745562983078,6,NB
2025-06-23 12:29:32.412,0.0009925879524702,71.50801155299244,6,NB
2025-06-23 12:29:32.419,0.0010248306033399,68.85262466291175,6,NB
2025-06-23 12:29:32.427,0.0010521002638463,65.5245290196639,6,NB
2025-06-23 12:29:32.435,0.0010744377735446,61.61621134455081,6,NB
2025-06-23 12:29:32.443,0.0010919050310433,57.22669532739759,6,NB
2025-06-23 12:29:32.451,0.0011045948679991,52.458771750403855,6,NB
2025-06-23 12:29:32.458,0.0011126412880245,47.4162649753338,6,NB
2025-06-23 12:29:32.466,0.0011162287578572,42.20142022137604,6,NB
2025-06-23 12:29:32.474,0.0011155992926144,36.91248705638418,6,NB
2025-06-23 12:29:32.482,0.0011110563318296,31.64156319053417,6,NB
2025-06-23 12:29:32.490,0.0011029647837853,26.472749614624774,6,NB
2025-06-23 12:29:32.498,0.0010917470755288,21.480654009876467,6,NB
2025-06-23 12:29:32.505,0.0010778755296377,16.729264814866312,6,NB
2025-06-23 12:29:32.513,0.0010618617755452,12.271203979996372,6,NB
2025-06-23 12:29:32.521,0.0010442440381672,8.147352826873776,6,NB
2025-06-23 12:29:32.529,0.0010255729914133,4.386833041922649,6,NB
2025-06-23 12:29:32.537,0.0010063966058993,1.0073140678685335,6,NB
2025-06-23 12:29:32.544,0.000987244334902,-1.984390682434286,6,NB
2025-06-23 12:29:32.552,0.0009686111510092,-4.591483073067088,6,NB
2025-06-23 12:29:32.560,0.0009509421750448,-6.826143710774118,6,NB
2025-06-23 12:29:32.568,0.0009346187003417,-8.708350629885244,6,NB
2025-06-23 12:29:32.576,0.0009199462744844,-10.264604304595624,6,NB
2025-06-23 12:29:32.584,0.0009071452745152,-11.526608246154954,6,NB
2025-06-23 12:29:32.591,0.0008963442094992,-12.5299508744972,6,NB
2025-06-23 12:29:32.599,0.0008875758495821,-13.312829359494076,6,NB
2025-06-23 12:29:32.607,0.0008807762212909,-13.914850032956531,6,NB
2025-06-23 12:29:32.615,0.0008757865188612,-14.375933121288888,6,NB
2025-06-23 12:29:32.623,0.0008723580251335,-14.73534227883994,6,NB
2025-06-23 12:29:32.630,0.0008701601330469,-15.030852034030058,6,NB
2025-06-23 12:29:32.638,0.0008687914318388,-15.298059087998675,6,NB
2025-06-23 12:29:32.646,0.0008677935727766,-15.569836687729014,6,NB
2025-06-23 12:29:32.654,0.0008666673398854,-15.87592524985671,6,NB
2025-06-23 12:29:32.662,0.0008648901114169,-16.242647213302078,6,NB
2025-06-23 12:29:32.669,0.0008619337747002,-16.692729889492515,6,NB
2025-06-23 12:29:32.677,0.000857282202948,-17.245216973627297,6,NB
2025-06-23 12:29:32.685,0.000850447615931,-17.915447470539544,6,NB
2025-06-23 12:29:32.693,0.0008409854393257,-18.715080132194203,6,NB
2025-06-23 12:29:32.701,0.0008285075329978,-19.652142111617547,6,NB
2025-06-23 12:29:32.709,0.000812693793842,-20.731082366705696,6,NB
2025-06-23 12:29:32.716,0.0007933021196388,-21.952813301390435,6,NB
2025-06-23 12:29:32.724,0.0007701765778562,-23.314728068319518,6,NB
2025-06-23 12:29:32.732,0.0007432534474984,-24.810685689921613,6,NB
2025-06-23 12:29:32.740,0.0007125646793975,-26.430961457294806,6,NB
2025-06-23 12:29:32.748,0.0006782382925568,-28.16216568078393,6,NB
2025-06-23 12:29:32.755,0.0006404953028512,-29.98713951302192,6,NB
2025-06-23 12:29:32.763,0.0005996429678719,-31.884841955611613,6,NB
2025-06-23 12:29:32.771,0.000556064420756,-33.83024700634906,6,NB
2025-06-23 12:29:32.779,0.0005102051183956,-35.79427392378805,6,NB
2025-06-23 12:29:32.787,0.0004625568617463,-37.7437765091591,6,NB
2025-06-23 12:29:32.794,0.000413640369249,-39.64161887830941,6,NB
2025-06-23 12:29:32.802,0.0003639874617452,-41.44686519698792,6,NB
2025-06-23 12:29:32.810,0.0003141238488715,-43.11510911317403,6,NB
2025-06-23 12:29:32.818,0.000264553297766,-44.59896504205015,6,NB
2025-06-23 12:29:32.826,0.0002157436568183,-45.84873802522806,6,NB
2025-06-23 12:29:32.834,0.00016811489329,-46.81328166852342,6,NB
2025-06-23 12:29:32.841,0.0001220290712418,-47.44104483530447,6,NB
2025-06-23 12:29:32.849,7.778208594933419e-05,-47.6812976205924,6,NB
2025-06-23 12:29:32.857,3.559699145525166e-05,-47.4855160597602,6,NB
2025-06-23 12:29:32.865,-4.381098542277172e-06,-46.80889355730229,6,NB
2025-06-23 12:29:32.873,-4.208832920625572e-05,-45.61193577717042,6,NB
2025-06-23 12:29:32.880,-7.754321073457673e-05,-43.862085404155735,6,NB
2025-06-23 12:29:32.888,-0.000110844950166,-41.53531448061519,6,NB
2025-06-23 12:29:32.896,-0.0001421684507131,-38.61761564880776,6,NB
2025-06-23 12:29:32.904,-0.0001717555614521,-35.10632024062297,6,NB
2025-06-23 12:29:32.912,-0.0001999024358063,-31.01117130804617,6,NB
2025-06-23 12:29:32.919,-0.0002269432277937,-26.355083771065345,6,NB
2025-06-23 12:29:32.927,-0.0002532307286246,-21.174532041481008,6,NB
2025-06-23 12:29:32.935,-0.0002791148413575,-15.51951765915278,6,NB
2025-06-23 12:29:32.943,-0.0003049199986917,-9.45308526428366,6,NB
2025-06-23 12:29:32.951,-0.0003309228063888,-3.050373960718953,6,NB
2025-06-23 12:29:32.959,-0.0003573313788776,3.602788112112918,6,NB
2025-06-23 12:29:32.966,-0.0003842679415766,10.411716498788714,6,NB
2025-06-23 12:29:32.974,-0.0004117561504636,17.27507957977139,6,NB
2025-06-23 12:29:32.982,-0.0004397141561074,24.08741355215604,6,NB
2025-06-23 12:29:32.990,-0.000467953810589,30.741855760960696,6,NB
2025-06-23 12:29:32.998,-0.0004961857793994,37.13299601902892,6,NB
2025-06-23 12:29:33.005,-0.0005240298798292,43.15973755908082,6,NB
2025-06-23 12:29:33.013,-0.0005510298163267,48.72805675168152,6,NB
2025-06-23 12:29:33.021,-0.0005766715489554,53.75355393823724,6,NB
2025-06-23 12:29:33.029,-0.0006004046575142,58.163696530044966,6,NB
2025-06-23 12:29:33.037,-0.000621666136427,61.899669402934414,6,NB
2025-06-23 12:29:33.044,-0.0006399060321204,64.91776572857096,6,NB
2025-06-23 12:29:33.052,-0.0006546142100389,67.19027261613611,6,NB
2025-06-23 12:29:33.060,-0.0006653473176744,68.70582899862359,6,NB
2025-06-23 12:29:33.068,-0.0006717547080919,69.46925671173413,6,NB
2025-06-23 12:29:33.076,-0.0006736017569411,69.50088832623095,6,NB
2025-06-23 12:29:33.084,-0.0006707887684548,68.83543576753131,6,NB
2025-06-23 12:29:33.091,-0.0006633636864816,67.5204610468104,6,NB
2025-06-23 12:29:33.099,-0.0006515271851285,65.61452375591627,6,NB
2025-06-23 12:29:33.107,-0.0006356293275769,63.1850888702704,6,NB
2025-06-23 12:29:33.115,-0.0006161576841574,60.30628270652788,6,NB
2025-06-23 12:29:33.123,-0.0005937174646889,57.0565847447485,6,NB
2025-06-23 12:29:33.130,-0.0005690047894686,53.51653885913554,6,NB
2025-06-23 12:29:33.138,-0.0005427746775484,49.76655992425485,6,NB
2025-06-23 12:29:33.146,-0.0005158056583702,45.88490153597888,6,NB
2025-06-23 12:29:33.154,-0.0004888631054,41.94583854578181,6,NB
2025-06-23 12:29:33.162,-0.0004626634437269,38.01810509836722,6,NB
2025-06-23 12:29:33.169,-0.000437841296982,34.163615671845434,6,NB
2025-06-23 12:29:33.177,-0.0004149214153566,30.43648392044492,6,NB
2025-06-23 12:29:33.185,-0.0003942968779073,26.882342441945053,6,NB
2025-06-23 12:29:33.193,-0.0003762146307838,23.53795631221245,6,NB
2025-06-23 12:29:33.201,-0.0003607689900176,20.431114576735723,6,NB
2025-06-23 12:29:33.209,-0.0003479033567076,17.580776960962744,6,NB
2025-06-23 12:29:33.216,-0.0003374200020596,14.997447841334289,6,NB
2025-06-23 12:29:33.224,-0.0003289972751164,12.683745899104226,6,NB
2025-06-23 12:29:33.232,-0.0003222130119171,10.635135685347956,6,NB
2025-06-23 12:29:33.240,-0.0003165724901102,8.840786349580707,6,NB
2025-06-23 12:29:33.248,-0.0003115391336215,7.284522815701205,6,NB
2025-06-23 12:29:33.255,-0.0003065662854232,5.945835539682228,6,NB
2025-06-23 12:29:33.263,-0.0003011285796949,4.800916499613064,6,NB
2025-06-23 12:29:33.271,-0.00029475163958,3.823691130255297,6,NB
2025-06-23 12:29:33.279,-0.0002870389569648,2.9868184292192264,6,NB
2025-06-23 12:29:33.287,-0.0002776948712404,2.2626343596920604,6,NB
2025-06-23 12:29:33.294,-0.0002665425912977,1.6240168996568938,6,NB
2025-06-23 12:29:33.302,-0.0002535363022304,1.045154590306029,6,NB
2025-06-23 12:29:33.310,-0.0002387666773985,0.5022041640053908,6,NB
2025-06-23 12:29:33.318,-0.0002224595437157,-0.0261732774200584,6,NB
2025-06-23 12:29:33.326,-0.0002049678230417,-0.5584040815269856,6,NB
2025-06-23 12:29:33.334,-0.000186757067181,-1.1097244142093343,6,NB
2025-06-23 12:29:33.341,-0.0001683850330683,-1.6920318096074145,6,NB
2025-06-23 12:29:33.349,-0.0001504759951349,-2.313860772149689,6,NB
2025-06-23 12:29:33.357,-0.0001336908841109,-2.980473797432605,6,NB
2025-06-23 12:29:33.365,-0.0001186947502301,-3.6940560202965016,6,NB
2025-06-23 12:29:33.373,-0.0001061233574959,-4.45399897069705,6,NB
2025-06-23 12:29:33.380,-9.655087483020362e-05,-5.257256695210064,6,NB
2025-06-23 12:29:33.388,-9.046062662471174e-05,-6.098755847190931,6,NB
2025-06-23 12:29:33.396,-8.822069665670141e-05,-6.971840312572202,6,NB
2025-06-23 12:29:33.404,-9.006585302683416e-05,-7.868730557474809,6,NB
2025-06-23 12:29:33.412,-9.60868168443928e-05,-8.78097817727215,6,NB
2025-06-23 12:29:33.419,-0.0001062274139424,-9.699897095036883,6,NB
2025-06-23 12:29:33.427,-0.000120289686259,-10.6169544823382,6,NB
2025-06-23 12:29:33.435,-0.0001379465698093,-11.524106717122544,6,NB
2025-06-23 12:29:33.443,-0.0001587612363465,-12.414068483303698,6,NB
2025-06-23 12:29:33.451,-0.0001822117327152,-13.280506353973898,6,NB
2025-06-23 12:29:33.459,-0.0002077192641323,-14.11815175733462,6,NB
2025-06-23 12:29:33.466,-0.0002346783544981,-14.92283195908714,6,NB
2025-06-23 12:29:33.474,-0.0002624870647638,-15.69142146055911,6,NB
2025-06-23 12:29:33.482,-0.0002905753931096,-16.42171986443683,6,NB
2025-06-23 12:29:33.490,-0.0003184299878815,-17.11226566321996,6,NB
2025-06-23 12:29:33.498,-0.0003456135196988,-17.76209843257309,6,NB
2025-06-23 12:29:33.505,-0.0003717775502494,-18.3704844430232,6,NB
2025-06-23 12:29:33.513,-0.0003966684096619,-18.936622624515422,6,NB
2025-06-23 12:29:33.521,-0.0004201262782691,-19.45934902598825,6,NB
2025-06-23 12:29:33.529,-0.0004420782315704,-19.936858328173127,6,NB
2025-06-23 12:29:33.537,-0.0004625263935174,-20.366460551543906,6,NB
2025-06-23 12:29:33.544,-0.0004815325361892,-20.74438985301192,6,NB
2025-06-23 12:29:33.552,-0.0004992004647795,-21.06568026102367,6,NB
2025-06-23 12:29:33.560,-0.0005156573760029,-21.324120425022887,6,NB
2025-06-23 12:29:33.568,-0.0005310351856523,-21.51229604321943,6,NB
2025-06-23 12:29:33.576,-0.0005454527142065,-21.62172469699749,6,NB
2025-06-23 12:29:33.584,-0.0005589996084757,-21.64308349471037,6,NB
2025-06-23 12:29:33.591,-0.0005717228448405,-21.56652535978365,6,NB
2025-06-23 12:29:33.599,-0.0005836165314233,-21.382075151093453,6,NB
2025-06-23 12:29:33.607,-0.0005946155495059,-21.080092263193706,6,NB
2025-06-23 12:29:33.615,-0.0006045933918151,-20.651782132190128,6,NB
2025-06-23 12:29:33.623,-0.0006133643294963,-20.089735400227227,6,NB
2025-06-23 12:29:33.630,-0.0006206897402043,-19.38847059709762,6,NB
2025-06-23 12:29:33.638,-0.0006262881096545,-18.544954288429857,6,NB
2025-06-23 12:29:33.646,-0.000629847964367,-17.55907188640695,6,NB
2025-06-23 12:29:33.654,-0.0006310428452908,-16.43402284807845,6,NB
2025-06-23 12:29:33.662,-0.0006295473958323,-15.176615876626094,6,NB
2025-06-23 12:29:33.669,-0.0006250537151224,-13.79744301125038,6,NB
2025-06-23 12:29:33.677,-0.0006172872838239,-12.31091608464831,6,NB
2025-06-23 12:29:33.685,-0.0006060219204464,-10.73515479487888,6,NB
2025-06-23 12:29:33.693,-0.00059109329231,-9.091722332061469,6,NB
2025-06-23 12:29:33.701,-0.0005724104605736,-7.405211776241827,6,NB
2025-06-23 12:29:33.709,-0.0005499648206754,-5.702693924893133,6,NB
2025-06-23 12:29:33.716,-0.0005238357188524,-4.013044362640911,6,NB
2025-06-23 12:29:33.724,-0.0004941921079771,-2.366173997253863,6,NB
2025-06-23 12:29:33.732,-0.0004612898589378,-0.7921925368583971,6,NB
2025-06-23 12:29:33.740,-0.0004254646445882,0.6794618731308918,6,NB
2025-06-23 12:29:33.748,-0.0003871205804355,2.020891645611389,6,NB
2025-06-23 12:29:33.755,-0.0003467150775381,3.206572062505788,6,NB
2025-06-23 12:29:33.763,-0.0003047406705081,4.214113345333596,6,NB
2025-06-23 12:29:33.771,-0.0002617048712271,5.024922425813911,6,NB
2025-06-23 12:29:33.779,-0.0002181092896033,5.624739332302722,6,NB
2025-06-23 12:29:33.787,-0.0001744293195573,6.004029220935366,6,NB
2025-06-23 12:29:33.794,-0.0001310956056212,6.158217926596936,6,NB
2025-06-23 12:29:33.802,-8.847828702630373e-05,6.087766054052392,6,NB
2025-06-23 12:29:33.810,-4.687467559392636e-05,5.798083644792867,6,NB
2025-06-23 12:29:33.818,-6.500610878887316e-06,5.2992939511565655,6,NB
2025-06-23 12:29:33.826,3.25146328627303e-05,4.605860503072059,6,NB
2025-06-23 12:29:33.834,7.013020803522416e-05,3.7360962245939833,6,NB
2025-06-23 12:29:33.841,0.0001063926537172,2.7115767015664267,6,NB
2025-06-23 12:29:33.849,0.0001414322305912,1.5564817708419505,6,NB
2025-06-23 12:29:33.857,0.0001754568686485,0.2968904395611565,6,NB
2025-06-23 12:29:33.865,0.0002087439038972,-1.0399461315067384,6,NB
2025-06-23 12:29:33.873,0.0002416296626519,-2.426330062366445,6,NB
2025-06-23 12:29:33.880,0.0002744968333669,-3.834819042619777,6,NB
2025-06-23 12:29:33.888,0.0003077595227366,-5.2388863930647,6,NB
2025-06-23 12:29:33.896,0.0003418459605054,-6.613522623570915,6,NB
2025-06-23 12:29:33.904,0.0003771790002334,-7.935765160964068,6,NB
2025-06-23 12:29:33.912,0.0004141548549754,-9.185145874357213,6,NB
2025-06-23 12:29:33.919,0.0004531208911376,-10.344048884282474,6,NB
2025-06-23 12:29:33.927,0.0004943537278319,-11.397973853045777,6,NB
2025-06-23 12:29:33.935,0.0005380392278363,-12.335702506030104,6,NB
2025-06-23 12:29:33.943,0.0005842560542176,-13.14936854740187,6,NB
2025-06-23 12:29:33.951,0.0006329642221032,-13.834433441157625,6,NB
2025-06-23 12:29:33.959,0.0006839995786319,-14.389572754317392,6,NB
2025-06-23 12:29:33.966,0.0007370745605395,-14.816479907902648,6,NB
2025-06-23 12:29:33.974,0.0007917850329148,-15.11959623510518,6,NB
2025-06-23 12:29:33.982,0.0008476225577125,-15.305778167477596,6,NB
2025-06-23 12:29:33.990,0.0009039910943771,-15.383914105779914,6,NB
2025-06-23 12:29:33.998,0.0009602269060687,-15.364505013528298,6,NB
2025-06-23 12:29:34.005,0.0010156203383697,-15.2592239149232,6,NB
2025-06-23 12:29:34.013,0.0010694381541463,-15.080470193163343,6,NB
2025-06-23 12:29:34.021,0.0011209452459406,-14.840934782938852,6,NB
2025-06-23 12:29:34.029,0.0011694247998975,-14.553191962199442,6,NB
2025-06-23 12:29:34.037,0.001214196338094,-14.229332430192065,6,NB
2025-06-23 12:29:34.044,0.0012546314695267,-13.880650701623471,6,NB
2025-06-23 12:29:34.052,0.0012901675187375,-13.517397576758697,6,NB
2025-06-23 12:29:34.060,0.0013203193471486,-13.148605624626514,6,NB
2025-06-23 12:29:34.068,0.00134468962844,-12.78199233216378,6,NB
2025-06-23 12:29:34.076,0.0013629777102482,-12.423941944400934,6,NB
2025-06-23 12:29:34.084,0.0013749870749869,-12.079563193602672,6,NB
2025-06-23 12:29:34.091,0.0013806312695207,-11.752816257395532,6,NB
2025-06-23 12:29:34.099,0.0013799379801791,-11.446698588056044,6,NB
2025-06-23 12:29:34.107,0.0013730507477567,-11.163475919908866,6,NB
2025-06-23 12:29:34.115,0.0013602277296081,-10.904941986089977,6,NB
2025-06-23 12:29:34.123,0.0013418369646679,-10.672688432975546,6,NB
2025-06-23 12:29:34.130,0.0013183477921934,-10.46836524776853,6,NB
2025-06-23 12:29:34.138,0.0012903184098315,-10.293911806375574,6,NB
2025-06-23 12:29:34.146,0.0012583799870096,-10.151739450608153,6,NB
2025-06-23 12:29:34.154,0.0012232181575464,-10.044848310496617,6,NB
2025-06-23 12:29:34.162,0.0011855529400069,-9.97686384496615,6,NB
2025-06-23 12:29:34.169,0.0011461180963941,-9.951982186430426,6,NB
2025-06-23 12:29:34.177,0.0011056407195425,-9.974817711403766,6,NB
2025-06-23 12:29:34.185,0.0010648215985145,-10.050151158737195,6,NB
2025-06-23 12:29:34.193,0.0010243167623398,-10.182581891707631,6,NB
2025-06-23 12:29:34.201,0.0009847205573113,-10.376093342962164,6,NB
2025-06-23 12:29:34.209,0.000946550608723,-10.63354607483131,6,NB
2025-06-23 12:29:34.216,0.0009102350050018,-10.956118009999932,6,NB
2025-06-23 12:29:34.224,0.0008761020566302,-11.34271601695846,6,NB
2025-06-23 12:29:34.232,0.0008443730635894,-11.789386954085836,6,NB
2025-06-23 12:29:34.240,0.0008151585914559,-12.288759279896588,6,NB
2025-06-23 12:29:34.248,0.0007884586829825,-12.82954823596831,6,NB
2025-06-23 12:29:34.255,0.0007641672225777,-13.396158237278271,6,NB
2025-06-23 12:29:34.263,0.0007420804414056,-13.968415326399075,6,NB
2025-06-23 12:29:34.271,0.0007219093743542,-14.521460265310555,6,NB
2025-06-23 12:29:34.279,0.0007032959209214,-15.025828999124895,6,NB
2025-06-23 12:29:34.287,0.0006858319461331,-15.447741832504873,6,NB
2025-06-23 12:29:34.294,0.0006690805618082,-15.74961577769074,6,NB
2025-06-23 12:29:34.302,0.0006525983924847,-15.890806294536732,6,NB
2025-06-23 12:29:34.310,0.0006359573390857,-15.828575247036458,6,NB
2025-06-23 12:29:34.318,0.0006187642287199,-15.51927161815735,6,NB
2025-06-23 12:29:34.326,0.000600676891849,-14.919700701048466,6,NB
2025-06-23 12:29:34.334,0.0005814156698438,-13.988646540064387,6,NB
2025-06-23 12:29:34.341,0.0005607700343025,-12.68850181908605,6,NB
2025-06-23 12:29:34.349,0.0005386006923322,-10.986949735047013,6,NB
2025-06-23 12:29:34.357,0.0005148380731841,-8.85863423921615,6,NB
2025-06-23 12:29:34.365,0.0004894783906465,-6.28674897909654,6,NB
2025-06-23 12:29:34.373,0.0004625785855367,-3.2644719084592424,6,NB
2025-06-23 12:29:34.380,0.0004342513920567,0.2038276376650169,6,NB
2025-06-23 12:29:34.388,0.0004046615492665,4.101679190188476,6,NB
2025-06-23 12:29:34.396,0.0003740238087455,8.399961273677103,6,NB
2025-06-23 12:29:34.404,0.0003426028858058,13.056762912883393,6,NB
2025-06-23 12:29:34.412,0.0003107149209206,18.017693347139723,6,NB
2025-06-23 12:29:34.419,0.0002787294948163,23.216658983360716,6,NB
2025-06-23 12:29:34.427,0.0002470709393686,28.57710642896585,6,NB
2025-06-23 12:29:34.435,0.0002162176931689,34.01370883890866,6,NB
2025-06-23 12:29:34.443,0.0001866986948602,39.43445095016973,6,NB
2025-06-23 12:29:34.451,0.0001590861289972,44.74304734809484,6,NB
2025-06-23 12:29:34.459,0.0001339841504559,49.84161002853929,6,NB
2025-06-23 12:29:34.466,0.000112013544919,54.633466430070776,6,NB
2025-06-23 12:29:34.474,9.379268575784877e-05,59.026018869797625,6,NB
2025-06-23 12:29:34.482,7.991560512619025e-05,62.93353150321296,6,NB
2025-06-23 12:29:34.490,7.092842000939537e-05,66.27973197196758,6,NB
2025-06-23 12:29:34.498,6.730564274171375e-05,69.00012184368596,6,NB
2025-06-23 12:29:34.505,6.942801287582928e-05,71.04390242612408,6,NB
2025-06-23 12:29:34.513,7.756340407662733e-05,72.37543982291336,6,NB
2025-06-23 12:29:34.521,9.185208293410288e-05,72.9752141481204,6,NB
2025-06-23 12:29:34.529,0.0001122971618868,72.84022136623057,6,NB
2025-06-23 12:29:34.537,0.0001387605849845,71.98382088028262,6,NB
2025-06-23 12:29:34.544,0.0001709645042063,70.43504633376905,6,NB
2025-06-23 12:29:34.552,0.0002084975194079,68.23741977368813,6,NB
2025-06-23 12:29:34.560,0.0002508250475654,65.44732916027436,6,NB
2025-06-23 12:29:34.568,0.0002973030988514,62.13204526276613,6,NB
2025-06-23 12:29:34.576,0.0003471948841395,58.3674656008807,6,NB
2025-06-23 12:29:34.584,0.0003996897970199,54.23567994137274,6,NB
2025-06-23 12:29:34.591,0.0004539243165984,49.82245391085703,6,NB
2025-06-23 12:29:34.599,0.0005090043019948,45.21472480113874,6,NB
2025-06-23 12:29:34.607,0.0005640280631891,40.49819712881104,6,NB
2025-06-23 12:29:34.615,0.0006181095272435,35.755115657244644,6,NB
2025-06-23 12:29:34.623,0.0006704007789671,31.062281197541,6,NB
2025-06-23 12:29:34.630,0.0007201132406012,26.489360420855483,6,NB
2025-06-23 12:29:34.638,0.0007665367660487,22.097525973440625,6,NB
2025-06-23 12:29:34.646,0.000809055961755,17.938448169659797,6,NB
2025-06-23 12:29:34.654,0.0008471631088667,14.05364513513884,6,NB
2025-06-23 12:29:34.662,0.0008804671501548,10.474185044108149,6,NB
2025-06-23 12:29:34.669,0.0009086983207284,7.220722460529652,6,NB
2025-06-23 12:29:34.677,0.0009317081439448,4.303841026801332,6,NB
2025-06-23 12:29:34.685,0.0009494646829414,1.72466698825778,6,NB
2025-06-23 12:29:34.693,0.0009620431331742,-0.5242876789620616,6,NB
2025-06-23 12:29:34.701,0.0009696120608234,-2.4580975229967525,6,NB
2025-06-23 12:29:34.709,0.0009724158283044,-4.098258159222436,6,NB
2025-06-23 12:29:34.716,0.0009707539661824,-5.471430258671907,6,NB
2025-06-23 12:29:34.724,0.0009649583781882,-6.608138919120389,6,NB
2025-06-23 12:29:34.732,0.0009553692603695,-7.541471871314969,6,NB
2025-06-23 12:29:34.740,0.0009423105569422,-8.305816437460026,6,NB
2025-06-23 12:29:34.748,0.0009260658155327,-8.935670779113444,6,NB
2025-06-23 12:29:34.755,0.0009068554880264,-9.464559938612611,6,NB
2025-06-23 12:29:34.763,0.000884816927595,-9.924081670461716,6,NB
2025-06-23 12:29:34.771,0.0008599884065579,-10.34310124664488,6,NB
2025-06-23 12:29:34.779,0.0008322983893897,-10.747108466306251,6,NB
2025-06-23 12:29:34.787,0.0008015611084301,-11.157744163046972,6,NB
2025-06-23 12:29:34.794,0.0007674792563269,-11.592497733155753,6,NB
2025-06-23 12:29:34.802,0.0007296542939819,-12.064571750304438,6,NB
2025-06-23 12:29:34.810,0.0006876044168885,-12.582904722682724,6,NB
2025-06-23 12:29:34.818,0.0006407896425759,-13.152338606133016,6,NB
2025-06-23 12:29:34.826,0.0005886428740672,-13.773913904838478,6,NB
2025-06-23 12:29:34.834,0.0005306052572375,-14.445272137108686,6,NB
2025-06-23 12:29:34.841,0.0004661637375231,-15.161143167602072,6,NB
2025-06-23 12:29:34.849,0.0003948884570133,-15.913893446411706,6,NB
2025-06-23 12:29:34.857,0.0003164675304652,-16.694110571491805,6,NB
2025-06-23 12:29:34.865,0.000230736807503,-17.491199801605894,6,NB
2025-06-23 12:29:34.873,0.0001377024725763,-18.29396916123743,6,NB
2025-06-23 12:29:34.880,3.755475330236529e-05,-19.091181537384543,6,NB
2025-06-23 12:29:34.888,-6.932840468182428e-05,-19.87205458566464,6,NB
2025-06-23 12:29:34.896,-0.0001823880994989,-20.62669223170795,6,NB
2025-06-23 12:29:34.904,-0.0003009012393813,-21.346434948733364,6,NB
2025-06-23 12:29:34.912,-0.0004240060781387,-22.024119680954467,6,NB
2025-06-23 12:29:34.919,-0.0005507346831637,-22.65424413316288,6,NB
2025-06-23 12:29:34.927,-0.0006800501889866,-23.23303403385965,6,NB
2025-06-23 12:29:34.935,-0.0008108865980009,-23.758415786203148,6,NB
2025-06-23 12:29:34.943,-0.0009421888694143,-24.22990054150737,6,NB
2025-06-23 12:29:34.951,-0.0010729510139244,-24.648389066835325,6,NB
2025-06-23 12:29:34.959,-0.0012022499530961,-25.015909739999287,6,NB
2025-06-23 12:29:34.966,-0.0013292731516539,-25.335304502759808,6,NB
2025-06-23 12:29:34.974,-0.0014533385548139,-25.609879548547084,6,NB
2025-06-23 12:29:34.982,-0.0015739060690809,-25.843038833896635,6,NB
2025-06-23 12:29:34.990,-0.0016905805405794,-26.037919119969477,6,NB
2025-06-23 12:29:34.998,-0.001803106785924,-26.1970451379143,6,NB
2025-06-23 12:29:35.005,-0.0019113576945479,-26.32202262884396,6,NB
2025-06-23 12:29:35.013,-0.002015316801288,-26.41328546373611,6,NB
2025-06-23 12:29:35.021,-0.00211505705847,-26.46991084834489,6,NB
2025-06-23 12:29:35.029,-0.0022107177356582,-26.48951382671932,6,NB
2025-06-23 12:29:35.037,-0.0023024812951673,-26.468228994136783,6,NB
2025-06-23 12:29:35.044,-0.0023905517021717,-26.40078361281668,6,NB
2025-06-23 12:29:35.052,-0.0024751350985668,-26.280662303777664,6,NB
2025-06-23 12:29:35.060,-0.0025564233427395,-26.100359294279237,6,NB
2025-06-23 12:29:35.068,-0.0026345807187127,-25.851709981301628,6,NB
2025-06-23 12:29:35.076,-0.0027097340867253,-25.526289498139956,6,NB
2025-06-23 12:29:35.084,-0.0027819667346161,-25.115862231630345,6,NB
2025-06-23 12:29:35.091,-0.0028513160886443,-24.612863027332345,6,NB
2025-06-23 12:29:35.099,-0.0029177752198153,-24.010888327621245,6,NB
2025-06-23 12:29:35.107,-0.0029812977458118,-23.305173878642144,6,NB
2025-06-23 12:29:35.115,-0.0030418053297749,-22.49303504545933,6,NB
2025-06-23 12:29:35.123,-0.0030991966383838,-21.57424627598945,6,NB
2025-06-23 12:29:35.130,-0.0031533565068511,-20.5513378964332,6,NB
2025-06-23 12:29:35.138,-0.0032041642481019,-19.429791206771327,6,NB
2025-06-23 12:29:35.146,-0.0032515004564482,-18.218116731640155,6,NB
2025-06-23 12:29:35.154,-0.0032952521280083,-16.927805367711525,6,NB
2025-06-23 12:29:35.162,-0.0033353163274715,-15.573147880346507,6,NB
2025-06-23 12:29:35.169,-0.0033716029225216,-14.17092449118997,6,NB
2025-06-23 12:29:35.177,-0.0034040370690147,-12.739972846993004,6,NB
2025-06-23 12:29:35.185,-0.0034325621578182,-11.300649097919122,6,NB
2025-06-23 12:29:35.193,-0.0034571438290307,-9.874202742460133,6,NB
2025-06-23 12:29:35.201,-0.0034777754269459,-8.482090921235558,6,NB
2025-06-23 12:29:35.209,-0.0034944849201966,-7.14526160912029,6,NB
2025-06-23 12:29:35.216,-0.0035073428663707,-5.883437386793319,6,NB
2025-06-23 12:29:35.224,-0.0035164705154239,-4.714431996809805,6,NB
2025-06-23 12:29:35.232,-0.0035220467493126,-3.653530654079455,6,NB
2025-06-23 12:29:35.240,-0.0035243124142077,-2.712962156251093,6,NB
2025-06-23 12:29:35.248,-0.0035235707994931,-1.9014864087137695,6,NB
2025-06-23 12:29:35.255,-0.0035201834745458,-1.22411532082839,6,NB
2025-06-23 12:29:35.263,-0.0035145612451522,-0.6819784966069596,6,NB
2025-06-23 12:29:35.271,-0.0035071505108363,-0.2723381303099416,6,NB
2025-06-23 12:29:35.279,-0.003498415737707,0.0112495655948362,6,NB
2025-06-23 12:29:35.287,-0.0034888190891733,0.1786358325817559,6,NB
2025-06-23 12:29:35.294,-0.0034787984683073,0.2426592538162549,6,NB
2025-06-23 12:29:35.302,-0.003468745313702,0.2186246834678786,6,NB
2025-06-23 12:29:35.310,-0.0034589834574275,0.1237057569738169,6,NB
2025-06-23 12:29:35.318,-0.0034497502316615,-0.023701909655233,6,NB
2025-06-23 12:29:35.326,-0.0034411808721993,-0.2046485712598996,6,NB
2025-06-23 12:29:35.334,-0.0034332971575173,-0.4002912577011375,6,NB
2025-06-23 12:29:35.341,-0.0034260010718551,-0.592521332114647,6,NB
2025-06-23 12:29:35.349,-0.0034190739783059,-0.7645350901715159,6,NB
2025-06-23 12:29:35.357,-0.0034121813665263,-0.9013275457386334,6,NB
2025-06-23 12:29:35.365,-0.0034048828712897,-0.990094023787139,6,NB
2025-06-23 12:29:35.373,-0.0033966470266856,-1.0205290981707114,6,NB
2025-06-23 12:29:35.380,-0.0033868700442371,-0.9850174938322572,6,NB
2025-06-23 12:29:35.388,-0.0033748977139819,-0.8787165565595475,6,NB
2025-06-23 12:29:35.396,-0.0033600493719366,-0.6995345380011031,6,NB
2025-06-23 12:29:35.404,-0.0033416428012968,-0.4480130428198251,6,NB
2025-06-23 12:29:35.412,-0.0033190189231023,-0.1271253764947982,6,NB
2025-06-23 12:29:35.420,-0.0032915651845026,0.2579948946320021,6,NB
2025-06-23 12:29:35.427,-0.0032587366835775,0.700379161042385,6,NB
2025-06-23 12:29:35.435,-0.0032200742269362,1.19158593341497,6,NB
2025-06-23 12:29:35.443,-0.0031752186213769,1.7220831288854783,6,NB
2025-06-23 12:29:35.451,-0.0031239205585671,2.281634417949788,6,NB
2025-06-23 12:29:35.459,-0.0030660455393649,2.859674976984249,6,NB
2025-06-23 12:29:35.466,-0.0030015734735984,3.445663921478714,6,NB
2025-06-23 12:29:35.474,-0.0029305929124154,4.02940300877626,6,NB
2025-06-23 12:29:35.482,-0.0028532902904064,4.6013137463729485,6,NB
2025-06-23 12:29:35.490,-0.0027699349828094,5.152667669359736,6,NB
2025-06-23 12:29:35.498,-0.002680861333283,5.675767111599093,6,NB
2025-06-23 12:29:35.505,-0.0025864490395179,6.164076160121337,6,NB
2025-06-23 12:29:35.513,-0.0024871033875873,6.612303547244282,6,NB
2025-06-23 12:29:35.521,-0.002383236801117,7.0164409264817085,6,NB
2025-06-23 12:29:35.529,-0.0022752530217346,7.373761254032465,6,NB
2025-06-23 12:29:35.537,-0.0021635349703127,7.682782846009128,6,NB
2025-06-23 12:29:35.545,-0.002048436965274,7.943205118888352,6,NB
2025-06-23 12:29:35.552,-0.0019302815090057,8.155822084396325,6,NB
2025-06-23 12:29:35.560,-0.0018093603188863,8.322419412269351,6,NB
2025-06-23 12:29:35.568,-0.0016859387327226,8.445660359572557,6,NB
2025-06-23 12:29:35.576,-0.0015602621868578,8.528965170291265,6,NB
2025-06-23 12:29:35.584,-0.0014325633093218,8.5763877579274,6,NB
2025-06-23 12:29:35.591,-0.001303068338257,8.592492676870174,6,NB
2025-06-23 12:29:35.599,-0.0011720019155078,8.582234629662691,6,NB
2025-06-23 12:29:35.607,-0.001039589610212,8.550842091565656,6,NB
2025-06-23 12:29:35.615,-0.0009060577536622,8.503706089007228,6,NB
2025-06-23 12:29:35.623,-0.000771630419005,8.44627475998066,6,NB
2025-06-23 12:29:35.630,-0.0006365237180489,8.383954056269085,6,NB
2025-06-23 12:29:35.638,-0.0005009379569192,8.32201481156746,6,NB
2025-06-23 12:29:35.646,-0.0003650485085605,8.26550637604011,6,NB
2025-06-23 12:29:35.654,-0.0002289964783339,8.219177076313873,6,NB
2025-06-23 12:29:35.662,-9.288034443721556e-05,8.187401862889821,6,NB
2025-06-23 12:29:35.670,4.325025806355469e-05,8.174117612994234,6,NB
2025-06-23 12:29:35.677,0.0001793975739442,8.182766625689636,6,NB
2025-06-23 12:29:35.685,0.0003156148007147,8.216248846525852,6,NB
2025-06-23 12:29:35.693,0.0004520007758922,8.276883275629487,6,NB
2025-06-23 12:29:35.701,0.0005886903210049,8.366378846440405,6,NB
2025-06-23 12:29:35.709,0.0007258408307367,8.485814825883836,6,NB
2025-06-23 12:29:35.716,0.0008636162685047,8.635630506193301,6,NB
2025-06-23 12:29:35.724,0.0010021702031002,8.815623671550673,6,NB
2025-06-23 12:29:35.732,0.0011416297286604,9.024957073893216,6,NB
2025-06-23 12:29:35.740,0.0012820819705841,9.262171981411392,6,NB
2025-06-23 12:29:35.748,0.0014235644742783,9.525207794163334,6,NB
2025-06-23 12:29:35.755,0.0015660602675759,9.811426759691658,6,NB
2025-06-23 12:29:35.763,0.0017094979018285,10.117642960907332,6,NB
2025-06-23 12:29:35.771,0.0018537563336142,10.440154974567363,6,NB
2025-06-23 12:29:35.779,0.0019986740595222,10.774781891572196,6,NB
2025-06-23 12:29:35.787,0.0021440614331475,11.116902726558624,6,NB
2025-06-23 12:29:35.795,0.0022897146685243,11.461499598038577,6,NB
2025-06-23 12:29:35.802,0.0024354298334508,11.803205401393177,6,NB
2025-06-23 12:29:35.810,0.0025810152421037,12.136356987520951,6,NB
2025-06-23 12:29:35.818,0.0027263010224273,12.455055055190744,6,NB
2025-06-23 12:29:35.826,0.0028711451718214,12.753232019844395,6,NB
2025-06-23 12:29:35.834,0.0030154360357722,13.024728997621278,6,NB
2025-06-23 12:29:35.841,0.0031590917136096,13.263382715946772,6,NB
2025-06-23 12:29:35.849,0.0033020572435121,13.463122625164957,6,NB
2025-06-23 12:29:35.857,0.0034443004588864,13.618077759030385,6,NB
2025-06-23 12:29:35.865,0.0035858072160156,13.722692025009652,6,NB
2025-06-23 12:29:35.873,0.003726576427908,13.771845672837152,6,NB
2025-06-23 12:29:35.880,0.0038666151206523,13.760979775802396,6,NB
2025-06-23 12:29:35.888,0.0040059336033817,13.686219740842256,6,NB
2025-06-23 12:29:35.896,0.0041445408221215,13.544493202811797,6,NB
2025-06-23 12:29:35.904,0.0042824400471759,13.333637205848916,6,NB
2025-06-23 12:29:35.912,0.0044196251827697,13.052489376124308,6,NB
2025-06-23 12:29:35.920,0.0045560780735568,12.700957886720044,6,NB
2025-06-23 12:29:35.927,0.0046917670667826,12.280065436643667,6,NB
2025-06-23 12:29:35.935,0.0048266467378667,11.791963222338888,6,NB
2025-06-23 12:29:35.943,0.0049606582911716,11.23991195862826,6,NB
2025-06-23 12:29:35.951,0.0050937299845759,10.628228368848475,6,NB
2025-06-23 12:29:35.959,0.0052257770771142,9.96219714518857,6,NB
2025-06-23 12:29:35.966,0.0053567010692759,9.247950086233711,6,NB
2025-06-23 12:29:35.974,0.0054863881646737,8.492315835404355,6,NB
2025-06-23 12:29:35.982,0.0056147068911263,7.702645250459104,6,NB
2025-06-23 12:29:35.990,0.0057415047909764,6.886618815969496,6,NB
2025-06-23 12:29:35.998,0.0058666041277479,6.052043569394559,6,NB
2025-06-23 12:29:36.005,0.0059897966951332,5.206647672867231,6,NB
2025-06-23 12:29:36.013,0.0061108380492835,4.357880982194109,6,NB
2025-06-23 12:29:36.021,0.0062294417748603,3.5127297271756377,6,NB
2025-06-23 12:29:36.029,0.006345274652405,2.6775527365781517,6,NB
2025-06-23 12:29:36.037,0.0064579537280504,1.8579455564487957,6,NB
2025-06-23 12:29:36.045,0.0065670462579173,1.0586373860187552,6,NB
2025-06-23 12:29:36.052,0.0066720733084133,0.2834240775839123,6,NB
2025-06-23 12:29:36.060,0.0067725174458405,-0.4648613802360956,6,NB
2025-06-23 12:29:36.068,0.0068678344881468,-1.1843413391774789,6,NB
2025-06-23 12:29:36.076,0.0069574688150096,-1.8740511588752224,6,NB
2025-06-23 12:29:36.084,0.0070408713319409,-2.533865909286927,6,NB
2025-06-23 12:29:36.091,0.0071175189065987,-3.1644013047036004,6,NB
2025-06-23 12:29:36.099,0.0071869339569214,-3.766895084229834,6,NB
2025-06-23 12:29:36.107,0.0072487028770962,-4.343075676910622,6,NB
2025-06-23 12:29:36.115,0.007302492140038,-4.89502518015693,6,NB
2025-06-23 12:29:36.123,0.0073480612051271,-5.425043432153691,6,NB
2025-06-23 12:29:36.130,0.0073852717418178,-5.935519303306551,6,NB
2025-06-23 12:29:36.138,0.0074140930350571,-6.428814332232573,6,NB
2025-06-23 12:29:36.146,0.0074346036128501,-6.907162576220088,6,NB
2025-06-23 12:29:36.154,0.007446989084681,-7.372589136015522,6,NB
2025-06-23 12:29:36.162,0.0074515360534568,-7.826848356670217,6,NB
2025-06-23 12:29:36.170,0.0074486219659242,-8.271381305686342,6,NB
2025-06-23 12:29:36.177,0.007438700933636,-8.707290887587824,6,NB
2025-06-23 12:29:36.185,0.0074222857733896,-9.13533196024752,6,NB
2025-06-23 12:29:36.193,0.0073999267079437,-9.555913143276731,6,NB
2025-06-23 12:29:36.201,0.007372187373094,-9.969106693740263,6,NB
2025-06-23 12:29:36.209,0.0073396190542958,-10.374662874044326,6,NB
2025-06-23 12:29:36.216,0.0073027344098179,-10.77202561895996,6,NB
2025-06-23 12:29:36.224,0.007261982212741,-11.160346963709603,6,NB
2025-06-23 12:29:36.232,0.0072177246985115,-11.538498548828995,6,NB
2025-06-23 12:29:36.240,0.007170218858159,-11.905079490318393,6,NB
2025-06-23 12:29:36.248,0.0071196025503403,-12.258420912310564,6,NB
2025-06-23 12:29:36.255,0.0070658857813202,-12.596588401888363,6,NB
2025-06-23 12:29:36.263,0.0070089470424979,-12.917384489924473,6,NB
2025-06-23 12:29:36.271,0.0069485342488649,-13.218353932959367,6,NB
2025-06-23 12:29:36.279,0.0068842696006658,-13.49679502827577,6,NB
2025-06-23 12:29:36.287,0.0068156575960486,-13.749780404786325,6,NB
2025-06-23 12:29:36.295,0.0067420954514709,-13.974190672280477,6,NB
2025-06-23 12:29:36.302,0.0066628853314529,-14.166763971571866,6,NB
2025-06-23 12:29:36.310,0.0065772480329216,-14.324163855784352,6,NB
2025-06-23 12:29:36.318,0.0064843380593318,-14.443067069736513,6,NB
2025-06-23 12:29:36.326,0.0063832602377477,-14.52027170949613,6,NB
2025-06-23 12:29:36.334,0.0062730880525391,-14.552824972173743,6,NB
2025-06-23 12:29:36.341,0.006152883714449,-14.538168288858516,6,NB
2025-06-23 12:29:36.349,0.0060217198440368,-14.474296126014249,6,NB
2025-06-23 12:29:36.357,0.0058787026446118,-14.359923213452424,6,NB
2025-06-23 12:29:36.365,0.0057229964516754,-14.194653495282711,6,NB
2025-06-23 12:29:36.373,0.0055538493837999,-13.979142797421035,6,NB
2025-06-23 12:29:36.380,0.0053706194625522,-13.715246155161449,6,NB
2025-06-23 12:29:36.388,0.0051728001486479,-13.40614003335499,6,NB
2025-06-23 12:29:36.396,0.0049600439096475,-13.05640937310934,6,NB
2025-06-23 12:29:36.404,0.0047321823135532,-12.672089571900957,6,NB
2025-06-23 12:29:36.412,0.0044892412886907,-12.260654195650396,6,NB
2025-06-23 12:29:36.420,0.0042314505264033,-11.83094046375981,6,NB
2025-06-23 12:29:36.427,0.0039592463706923,-11.393006348765736,6,NB
2025-06-23 12:29:36.435,0.0036732678537524,-10.957915463981813,6,NB
2025-06-23 12:29:36.443,0.0033743458344159,-10.537448711756667,6,NB
2025-06-23 12:29:36.451,0.0030634855358619,-10.143744837404778,6,NB
2025-06-23 12:29:36.459,0.0027418431510246,-9.788875460007636,6,NB
2025-06-23 12:29:36.466,0.0024106975138294,-9.484363689987426,6,NB
2025-06-23 12:29:36.474,0.0020714180630967,-9.240658938082133,6,NB
2025-06-23 12:29:36.482,0.0017254304886262,-9.06658381067262,6,NB
2025-06-23 12:29:36.490,0.0013741816135083,-8.968771920299192,6,NB
2025-06-23 12:29:36.498,0.0010191052183289,-8.9511178814203,6,NB
2025-06-23 12:29:36.505,0.0006615905653746,-9.014262590492558,6,NB
2025-06-23 12:29:36.513,0.0003029552548431,-9.155138000413388,6,NB
2025-06-23 12:29:36.521,-5.5576296731497024e-05,-9.366595896728718,6,NB
2025-06-23 12:29:36.529,-0.000412887994976,-9.6371445814262,6,NB
2025-06-23 12:29:36.537,-0.0007679806866455,-9.950815798761097,6,NB
2025-06-23 12:29:36.545,-0.0011199747260523,-10.287181646390597,6,NB
2025-06-23 12:29:36.552,-0.0014681074299431,-10.621537580468248,6,NB
2025-06-23 12:29:36.560,-0.0018117266521689,-10.925262953759498,6,NB
2025-06-23 12:29:36.568,-0.0021502818610436,-11.166364869636146,6,NB
2025-06-23 12:29:36.576,-0.0024833141709682,-11.310204587565378,6,NB
2025-06-23 12:29:36.584,-0.0028104467069466,-11.320398425430056,6,NB
2025-06-23 12:29:36.591,-0.0031313763699324,-11.159877275985052,6,NB
2025-06-23 12:29:36.599,-0.0034458675590963,-10.792080755689009,6,NB
2025-06-23 12:29:36.607,-0.0037537478513139,-10.182253961308474,6,NB
2025-06-23 12:29:36.615,-0.0040549051815077,-9.298807202055816,6,NB
2025-06-23 12:29:36.623,-0.0043492857850797,-8.114692318917307,6,NB
2025-06-23 12:29:36.630,-0.0046368920868187,-6.6087437374589335,6,NB
2025-06-23 12:29:36.638,-0.00491777983557,-4.766928673774812,6,NB
2025-06-23 12:29:36.646,-0.0051920540001938,-2.58344935957811,6,NB
2025-06-23 12:29:36.654,-0.0054598631231351,-0.0616411536006897,6,NB
2025-06-23 12:29:36.662,-0.0057213919134976,2.7853857564004456,6,NB
2025-06-23 12:29:36.670,-0.0059768519409836,5.934406547393751,6,NB
2025-06-23 12:29:36.677,-0.0062264704925393,9.352079595608014,6,NB
2025-06-23 12:29:36.685,-0.0064704779579241,12.995305260464528,6,NB
2025-06-23 12:29:36.693,-0.0067090943418092,16.811954239862292,6,NB
2025-06-23 12:29:36.701,-0.0069425155217267,20.741957831733245,6,NB
2025-06-23 12:29:36.709,-0.0071708997475939,24.71873537888897,6,NB
2025-06-23 12:29:36.716,-0.007394354781288,28.670917305274024,6,NB
2025-06-23 12:29:36.724,-0.007612926098975,32.52430649610187,6,NB
2025-06-23 12:29:36.732,-0.0078265867018915,36.204007346091856,6,NB
2025-06-23 12:29:36.740,-0.0080352292170854,39.636641523192125,6,NB
2025-06-23 12:29:36.748,-0.008238661020668,42.75256312328906,6,NB
2025-06-23 12:29:36.755,-0.0084366030200834,45.487983937020005,6,NB
2025-06-23 12:29:36.763,-0.0086286924856063,47.78692223537316,6,NB
2025-06-23 12:29:36.771,-0.0088144899810492,49.60289571665943,6,NB
2025-06-23 12:29:36.779,-0.0089934901124403,50.9002906464007,6,NB
2025-06-23 12:29:36.787,-0.0091651355672923,51.65535408767622,6,NB
2025-06-23 12:29:36.795,-0.0093288337165254,51.85677356231768,6,NB
2025-06-23 12:29:36.802,-0.0094839748073359,51.50582745583008,6,NB
2025-06-23 12:29:36.810,-0.0096299505201234,50.61610887237456,6,NB
2025-06-23 12:29:36.818,-0.009766171547408,49.21284436876291,6,NB
2025-06-23 12:29:36.826,-0.0098920829709006,47.33184603992781,6,NB
2025-06-23 12:29:36.834,-0.0100071765105327,45.01814992708228,6,NB
2025-06-23 12:29:36.841,-0.0101109990666351,42.32440500151057,6,NB
2025-06-23 12:29:36.849,-0.0102031572752352,39.30908459874495,6,NB
2025-06-23 12:29:36.857,-0.0102833180261278,36.03459594235948,6,NB
2025-06-23 12:29:36.865,-0.0103512050744873,32.565363348452166,6,NB
2025-06-23 12:29:36.873,-0.0104065920268483,28.965957107521817,6,NB
2025-06-23 12:29:36.880,-0.010449292125748,25.29933335388068,6,NB
2025-06-23 12:29:36.888,-0.0104791454243922,21.625241051012992,6,NB
2025-06-23 12:29:36.896,-0.0104960041465663,17.9988412324844,6,NB
2025-06-23 12:29:36.904,-0.0104997172523861,14.469571566070044,6,NB
2025-06-23 12:29:36.912,-0.0104901153965904,11.08027686198961,6,NB
2025-06-23 12:29:36.920,-0.0104669974457857,7.866613974470376,6,NB
2025-06-23 12:29:36.927,-0.0104301194960428,4.8567282066383095,6,NB
2025-06-23 12:29:36.935,-0.0103791870581378,2.0711882602107217,6,NB
2025-06-23 12:29:36.943,-0.0103138509116687,-0.4768417211897817,6,NB
2025-06-23 12:29:36.951,-0.0102337070897622,-2.7812212071721656,6,NB
2025-06-23 12:29:36.959,-0.0101383015027577,-4.842276550195917,6,NB
2025-06-23 12:29:36.966,-0.010027139830372,-6.666104716186953,6,NB
2025-06-23 12:29:36.974,-0.0098997034550502,-8.263775154376505,6,NB
2025-06-23 12:29:36.982,-0.0097554722084829,-9.650467369694024,6,NB
2025-06-23 12:29:36.990,-0.0095939543660092,-10.844580295605445,6,NB
2025-06-23 12:29:36.998,-0.0094147236153681,-11.866846974676102,6,NB
2025-06-23 12:29:37.005,-0.0092174618420172,-12.739484576349192,6,NB
2025-06-23 12:29:37.013,-0.0090020057691422,-13.485405649341017,6,NB
2025-06-23 12:29:37.021,-0.0087683948595134,-14.127511932589552,6,NB
2025-06-23 12:29:37.029,-0.0085169173764385,-14.688087216768462,6,NB
2025-06-23 12:29:37.037,-0.0082481511266913,-15.188300804733233,6,NB
2025-06-23 12:29:37.045,-0.007962995330468,-15.647828174079256,6,NB
2025-06-23 12:29:37.052,-0.0076626904331638,-16.084590580807074,6,NB
2025-06-23 12:29:37.060,-0.0073488234649205,-16.514610630068834,6,NB
2025-06-23 12:29:37.068,-0.0070233175905903,-16.95197634945259,6,NB
2025-06-23 12:29:37.076,-0.0066884055897186,-17.40890211393229,6,NB
2025-06-23 12:29:37.084,-0.0063465880450174,-17.895870988818206,6,NB
2025-06-23 12:29:37.091,-0.0060005779508661,-18.421839798474267,6,NB
2025-06-23 12:29:37.099,-0.0056532342724559,-18.99448563079296,6,NB
2025-06-23 12:29:37.107,-0.0053074876576964,-19.620470688815573,6,NB
2025-06-23 12:29:37.115,-0.0049662619481621,-20.30570152699643,6,NB
2025-06-23 12:29:37.123,-0.0046323952824172,-21.05555886349298,6,NB
2025-06-23 12:29:37.130,-0.0043085644206634,-21.87507541436087,6,NB
2025-06-23 12:29:37.138,-0.0039972154905822,-22.7690415818263,6,NB
2025-06-23 12:29:37.146,-0.0037005037559509,-23.742022323428547,6,NB
2025-06-23 12:29:37.154,-0.0034202443183738,-24.798273048212227,6,NB
2025-06-23 12:29:37.162,-0.0031578748738135,-25.941547791980906,6,NB
2025-06-23 12:29:37.170,-0.0029144307770622,-27.17479903124432,6,NB
2025-06-23 12:29:37.177,-0.0026905318978021,-28.499775077923704,6,NB
2025-06-23 12:29:37.185,-0.0024863802974959,-29.9165277856758,6,NB
2025-06-23 12:29:37.193,-0.0023017676208975,-31.42284998842,6,NB
2025-06-23 12:29:37.201,-0.0021360910877233,-33.013668353136644,6,NB
2025-06-23 12:29:37.209,-0.0019883769350293,-34.68042282904873,6,NB
2025-06-23 12:29:37.216,-0.0018573100966996,-36.41046829484164,6,NB
2025-06-23 12:29:37.224,-0.0017412688770472,-38.18653705275215,6,NB
2025-06-23 12:29:37.232,-0.001638363412211,-39.98630224075156,6,NB
2025-06-23 12:29:37.240,-0.0015464768405369,-41.78208183364857,6,NB
2025-06-23 12:29:37.248,-0.0014633083817133,-43.54072055111392,6,NB
2025-06-23 12:29:37.255,-0.0013864179510844,-45.2236826318395,6,NB
2025-06-23 12:29:37.263,-0.0013132723422967,-46.78738209361005,6,NB
2025-06-23 12:29:37.271,-0.0012412931899359,-48.18376888627692,6,NB
2025-06-23 12:29:37.279,-0.0011679068375323,-49.36117945201302,6,NB
2025-06-23 12:29:37.287,-0.0010905960058339,-50.26544891708874,6,NB
2025-06-23 12:29:37.295,-0.0010069528668707,-50.84126982355131,6,NB
2025-06-23 12:29:37.302,-0.0009147327634693,-51.03376943003384,6,NB
2025-06-23 12:29:37.310,-0.0008119073645321,-50.79026471972781,6,NB
2025-06-23 12:29:37.318,-0.0006967156195503,-50.06214197778162,6,NB
2025-06-23 12:29:37.326,-0.0005677106487945,-48.80679681694578,6,NB
2025-06-23 12:29:37.334,-0.0004238007806361,-46.989561530069125,6,NB
2025-06-23 12:29:37.341,-0.0002642832616401,-44.58554029822107,6,NB
2025-06-23 12:29:37.349,-8.886954638191892e-05,-41.58126968726319,6,NB
2025-06-23 12:29:37.357,0.0001022986451319,-37.97612251745041,6,NB
2025-06-23 12:29:37.365,0.0003086431996108,-33.783377922716404,6,NB
2025-06-23 12:29:37.373,0.0005291540736808,-29.03088935091707,6,NB
2025-06-23 12:29:37.380,0.0007624049092404,-23.761295269375186,6,NB
2025-06-23 12:29:37.388,0.0010065801682153,-18.03173404527345,6,NB
2025-06-23 12:29:37.396,0.0012595139331963,-11.91304422335585,6,NB
2025-06-23 12:29:37.404,0.0015187402554524,-5.48845334258091,6,NB
2025-06-23 12:29:37.412,0.0017815545226294,1.1482185616284823,6,NB
2025-06-23 12:29:37.420,0.0020450847638625,7.894791753842348,6,NB
2025-06-23 12:29:37.427,0.0023063712297095,14.643325430854166,6,NB
2025-06-23 12:29:37.435,0.0025624520589889,21.28299296256957,6,NB
2025-06-23 12:29:37.443,0.0028104523758614,27.70312958061939,6,NB
2025-06-23 12:29:37.451,0.003047673794536,33.79633819981691,6,NB
2025-06-23 12:29:37.459,0.0032716811726038,39.46153436076893,6,NB
2025-06-23 12:29:37.466,0.0034803836210865,44.60681239116766,6,NB
2025-06-23 12:29:37.474,0.0036721071712162,49.15202179185266,6,NB
2025-06-23 12:29:37.482,0.0038456569563187,53.03095520336368,6,NB
2025-06-23 12:29:37.490,0.0040003671775671,56.19306641703042,6,NB
2025-06-23 12:29:37.498,0.0041361374453568,58.6046577995018,6,NB
2025-06-23 12:29:37.505,0.0042534543225063,60.24950002170456,6,NB
2025-06-23 12:29:37.513,0.0043533970513054,61.12887180808368,6,NB
2025-06-23 12:29:37.521,0.0044376265435181,61.261032192672346,6,NB
2025-06-23 12:29:37.529,0.0045083568061813,60.68016117619209,6,NB
2025-06-23 12:29:37.537,0.0045683081920803,59.43482554338536,6,NB
2025-06-23 12:29:37.545,0.0046206423602429,57.58604394194576,6,NB
2025-06-23 12:29:37.552,0.004668879652914,55.205038419616365,6,NB
2025-06-23 12:29:37.560,0.004716800577841,52.37076803317622,6,NB
2025-06-23 12:29:37.568,0.004768333980971,49.16734375451578,6,NB
2025-06-23 12:29:37.576,0.0048274351755967,45.68142286226911,6,NB
2025-06-23 12:29:37.584,0.0048979577796084,41.999675723752006,6,NB
2025-06-23 12:29:37.591,0.0049835233581162,38.206408934260494,6,NB
2025-06-23 12:29:37.599,0.0050873931924297,34.38141692018651,6,NB
2025-06-23 12:29:37.607,0.0052123465890327,30.59812014324793,6,NB
2025-06-23 12:29:37.615,0.0053605700836053,26.922032807358523,6,NB
2025-06-23 12:29:37.623,0.00553356164447,23.409587285919237,6,NB
2025-06-23 12:29:37.630,0.005732053488217,20.10732710856247,6,NB
2025-06-23 12:29:37.638,0.0059559564138198,17.051465924181727,6,NB
2025-06-23 12:29:37.646,0.0062043277894103,14.267796913035784,6,NB
2025-06-23 12:29:37.654,0.0064753646371477,11.771926031798351,6,NB
2025-06-23 12:29:37.662,0.0067664226503802,9.569793477185028,6,NB
2025-06-23 12:29:37.670,0.0070740613160802,7.658440956457187,6,NB
2025-06-23 12:29:37.677,0.0073941144956389,6.02697776067578,6,NB
2025-06-23 12:29:37.685,0.0077217848076825,4.6576961636489855,6,NB
2025-06-23 12:29:37.693,0.0080517590071132,3.5272861575719023,6,NB
2025-06-23 12:29:37.701,0.0083783404263598,2.6081007721683624,6,NB
2025-06-23 12:29:37.709,0.0086955936895972,1.869425960526383,6,NB
2025-06-23 12:29:37.716,0.0089974965009496,1.278713013004795,6,NB
2025-06-23 12:29:37.724,0.0092780932857776,0.802736430714734,6,NB
2025-06-23 12:29:37.732,0.0095316456471321,0.4086459233245781,6,NB
2025-06-23 12:29:37.740,0.0097527749118976,0.0648874849801168,6,NB
2025-06-23 12:29:37.748,0.0099365925395307,-0.2580248469297916,6,NB
2025-06-23 12:29:37.755,0.0100788148542237,-0.5868981228500242,6,NB
2025-06-23 12:29:37.763,0.010175859329789,-0.9454152715241706,6,NB
2025-06-23 12:29:37.771,0.0102249204432112,-1.3538537235401298,6,NB
2025-06-23 12:29:37.779,0.0102240239732324,-1.828959829665687,6,NB
2025-06-23 12:29:37.787,0.0101720595746361,-2.383965369572789,6,NB
2025-06-23 12:29:37.795,0.0100687923718529,-3.0287274772186894,6,NB
2025-06-23 12:29:37.802,0.0099148549918661,-3.769969180106723,6,NB
2025-06-23 12:29:37.810,0.0097117218244859,-4.611594595299669,6,NB
2025-06-23 12:29:37.818,0.0094616674705046,-5.555050765468397,6,NB
2025-06-23 12:29:37.826,0.0091677114831117,-6.599707254759794,6,NB
2025-06-23 12:29:37.834,0.0088335516749064,-7.743225035103372,6,NB
2025-06-23 12:29:37.841,0.0084634883535034,-8.981887924226907,6,NB
2025-06-23 12:29:37.849,0.0080623417378656,-10.310872882845947,6,NB
2025-06-23 12:29:37.857,0.0076353644706816,-11.724439767698136,6,NB
2025-06-23 12:29:37.865,0.0071881506777175,-13.216026518824036,6,NB
2025-06-23 12:29:37.873,0.0067265425695011,-14.778242010266611,6,NB
2025-06-23 12:29:37.880,0.0062565352223359,-16.402755632990747,6,NB
2025-06-23 12:29:37.888,0.0057841799618892,-18.08008979152812,6,NB
2025-06-23 12:29:37.896,0.0053154867401187,-19.79932855125602,6,NB
2025-06-23 12:29:37.904,0.0048563260372249,-21.54776234260057,6,NB
2025-06-23 12:29:37.912,0.0044123310664212,-23.31049459363112,6,NB
2025-06-23 12:29:37.920,0.0039888013382102,-25.07004112050492,6,NB
2025-06-23 12:29:37.927,0.0035906089163357,-26.80595677436452,6,NB
2025-06-23 12:29:37.935,0.003222108954953,-28.494525972955977,6,NB
2025-06-23 12:29:37.943,0.0028870563317585,-30.108554127586093,6,NB
2025-06-23 12:29:37.951,0.0025885303667973,-31.617295457742465,6,NB
2025-06-23 12:29:37.959,0.002328869720272,-32.98654917869993,6,NB
2025-06-23 12:29:37.966,0.0021096195718963,-34.17895053946228,6,NB
2025-06-23 12:29:37.974,0.0019314930756232,-35.15447575457874,6,NB
2025-06-23 12:29:37.982,0.0017943488397606,-35.8711706874041,6,NB
2025-06-23 12:29:37.990,0.0016971858209544,-36.28610248306784,6,NB
2025-06-23 12:29:37.998,0.0016381566255352,-36.35652160089897,6,NB
2025-06-23 12:29:38.005,0.0016145998836539,-36.041209341877455,6,NB
2025-06-23 12:29:38.013,0.0016230920852129,-35.30197357868782,6,NB
2025-06-23 12:29:38.021,0.0016595189016937,-34.10524361719514,6,NB
2025-06-23 12:29:38.029,0.0017191654723809,-32.423704638348845,6,NB
2025-06-23 12:29:38.037,0.0017968244426001,-30.23790369238575,6,NB
2025-06-23 12:29:38.045,0.0018869197500174,-27.53775342053104,6,NB
2025-06-23 12:29:38.052,0.0019836432621539,-24.323857167844977,6,NB
2025-06-23 12:29:38.060,0.0020811004311046,-20.60858040384436,6,NB
2025-06-23 12:29:38.068,0.0021734603009538,-16.416798687827935,6,NB
2025-06-23 12:29:38.076,0.0022551046173083,-11.78626188490442,6,NB
2025-06-23 12:29:38.084,0.002320770507504,-6.767527783356129,6,NB
2025-06-23 12:29:38.091,0.0023656812543906,-1.4234352391231757,6,NB
2025-06-23 12:29:38.099,0.0023856601012116,4.171893235416059,6,NB
2025-06-23 12:29:38.107,0.0023772228080591,9.934507872885227,6,NB
2025-06-23 12:29:38.115,0.0023376458273419,15.772513129399888,6,NB
2025-06-23 12:29:38.123,0.0022650084055072,21.588318566676055,6,NB
2025-06-23 12:29:38.130,0.0021582084234303,27.28118362042418,6,NB
2025-06-23 12:29:38.138,0.0020169530467041,32.74996408257055,6,NB
2025-06-23 12:29:38.146,0.0018417260936564,37.89595577293466,6,NB
2025-06-23 12:29:38.154,0.0016337345054841,42.6257236898789,6,NB
2025-06-23 12:29:38.162,0.0013948366033076,46.85380344522221,6,NB
2025-06-23 12:29:38.170,0.0011274550883108,50.505166170909824,6,NB
2025-06-23 12:29:38.177,0.000834478027948,53.517348115912576,6,NB
2025-06-23 12:29:38.185,0.0005191513128696,55.84216125165789,6,NB
2025-06-23 12:29:38.193,0.0001849661553711,57.446920473649726,6,NB
2025-06-23 12:29:38.201,-0.0001644549021597,58.31514527003685,6,NB
2025-06-23 12:29:38.209,-0.0005254701760938,58.4467176971968,6,NB
2025-06-23 12:29:38.216,-0.0008945260279652,57.857502761522085,6,NB
2025-06-23 12:29:38.224,-0.0012682558286347,56.57846049599431,6,NB
2025-06-23 12:29:38.232,-0.0016435674713695,54.65429990892074,6,NB
2025-06-23 12:29:38.240,-0.0020177163675733,52.141742541012974,6,NB
2025-06-23 12:29:38.248,-0.0023883612819767,49.10747682342375,6,NB
2025-06-23 12:29:38.256,-0.0027536010502401,45.62589330259711,6,NB
2025-06-23 12:29:38.263,-0.0031119911083098,41.77669490779266,6,NB
2025-06-23 12:29:38.271,-0.0034625397338356,37.64247589162111,6,NB
2025-06-23 12:29:38.279,-0.003804684833765,33.30635823957826,6,NB
2025-06-23 12:29:38.287,-0.0041382529385753,28.849765805539217,6,NB
2025-06-23 12:29:38.295,-0.0044634027495161,24.350404935258965,6,NB
2025-06-23 12:29:38.302,-0.0047805561033108,19.88050674200978,6,NB
2025-06-23 12:29:38.310,-0.0050903195797053,15.505371389584257,6,NB
2025-06-23 12:29:38.318,-0.0053934002395272,11.28223958367348,6,NB
2025-06-23 12:29:38.326,-0.005690519172868,7.259501754405903,6,NB
2025-06-23 12:29:38.334,-0.0059823266016585,3.476241784785437,6,NB
2025-06-23 12:29:38.341,-0.0062693221370737,-0.0378998967072664,6,NB
2025-06-23 12:29:38.349,-0.0065517834341008,-3.2625691478706464,6,NB
2025-06-23 12:29:38.357,-0.006829705988552,-6.186280155184193,6,NB
2025-06-23 12:29:38.365,-0.0071027562644121,-8.80577582153569,6,NB
2025-06-23 12:29:38.373,-0.0073702397579104,-11.125209401543705,6,NB
2025-06-23 12:29:38.381,-0.0076310850081042,-13.155192119905184,6,NB
2025-06-23 12:29:38.388,-0.0078838439555319,-14.911751604157528,6,NB
2025-06-23 12:29:38.396,-0.0081267084344077,-16.41524454811085,6,NB
2025-06-23 12:29:38.404,-0.0083575419644759,-17.68926433332752,6,NB
2025-06-23 12:29:38.412,-0.0085739253972939,-18.75958060699893,6,NB
2025-06-23 12:29:38.420,-0.0087732144079901,-19.65314326222001,6,NB
2025-06-23 12:29:38.427,-0.0089526063905795,-20.39717808385794,6,NB
2025-06-23 12:29:38.435,-0.0091092140936953,-21.018395681266085,6,NB
2025-06-23 12:29:38.443,-0.0092401433251203,-21.542329386988055,6,NB
2025-06-23 12:29:38.451,-0.0093425721790215,-21.992811714572397,6,NB
2025-06-23 12:29:38.459,-0.0094138294192284,-22.391592897576416,6,NB
2025-06-23 12:29:38.466,-0.0094514698498972,-22.75809913691796,6,NB
2025-06-23 12:29:38.474,-0.0094533447160903,-23.109322623391385,6,NB
2025-06-23 12:29:38.482,-0.0094176654096932,-23.459830326487985,6,NB
2025-06-23 12:29:38.490,-0.0093430590432148,-23.82187408884936,6,NB
2025-06-23 12:29:38.498,-0.0092286148395148,-24.20558086855872,6,NB
2025-06-23 12:29:38.506,-0.0090739207424941,-24.61919915624414,6,NB
2025-06-23 12:29:38.513,-0.0088790900366286,-25.069375783885924,6,NB
2025-06-23 12:29:38.521,-0.0086447779307288,-25.56143664582481,6,NB
2025-06-23 12:29:38.529,-0.0083721880319617,-26.099645346255897,6,NB
2025-06-23 12:29:38.537,-0.008063068554689,-26.687415502443915,6,NB
2025-06-23 12:29:38.545,-0.0077196981003307,-27.32745534980373,6,NB
2025-06-23 12:29:38.552,-0.0073448609399035,-28.021827343875277,6,NB
2025-06-23 12:29:38.560,-0.0069418118805516,-28.771910513472243,6,NB
2025-06-23 12:29:38.568,-0.0065142309427156,-29.578259216559516,6,NB
2025-06-23 12:29:38.576,-0.0060661682302752,-30.440358466968146,6,NB
2025-06-23 12:29:38.584,-0.0056019796235436,-31.356282877019435,6,NB
2025-06-23 12:29:38.591,-0.005126254307022,-32.322273207756886,6,NB
2025-06-23 12:29:38.599,-0.0046437355814228,-33.33225122276061,6,NB
2025-06-23 12:29:38.607,-0.0041592367477534,-34.37729968032282,6,NB
2025-06-23 12:29:38.615,-0.0036775539990764,-35.44513954599554,6,NB
2025-06-23 12:29:38.623,-0.0032033782478899,-36.51964054441503,6,NB
2025-06-23 12:29:38.631,-0.002741207727438,-37.58040370231444,6,NB
2025-06-23 12:29:38.638,-0.0022952630892458,-38.60245531893234,6,NB
2025-06-23 12:29:38.646,-0.0018694066711249,-39.55609065944682,6,NB
2025-06-23 12:29:38.654,-0.0014670677325634,-40.40690250420752,6,NB
2025-06-23 12:29:38.662,-0.0010911757155234,-41.11602448497693,6,NB
2025-06-23 12:29:38.670,-0.0007441038223881,-41.640611962048126,6,NB
2025-06-23 12:29:38.677,-0.0004276252613789,-41.93457418347314,6,NB
2025-06-23 12:29:38.685,-0.0001428843179299,-41.94956084191008,6,NB
2025-06-23 12:29:38.693,0.0001096160739955,-41.63619422153217,6,NB
2025-06-23 12:29:38.701,0.0003300093546803,-40.945525327355966,6,NB
2025-06-23 12:29:38.709,0.0005190430026063,-39.83067923647261,6,NB
2025-06-23 12:29:38.716,0.0006780398505459,-38.24864201880471,6,NB
2025-06-23 12:29:38.724,0.000808844838379,-36.16212962455733,6,NB
2025-06-23 12:29:38.732,0.0009137594353647,-33.54146884509611,6,NB
2025-06-23 12:29:38.740,0.0009954661135288,-30.36641254478964,6,NB
2025-06-23 12:29:38.748,0.0010569452572788,-26.627806513784385,6,NB
2025-06-23 12:29:38.756,0.0011013868713041,-22.32902409721596,6,NB
2025-06-23 12:29:38.763,0.0011320994032047,-17.48708766713735,6,NB
2025-06-23 12:29:38.771,0.001152417924828,-12.133403280273024,6,NB
2025-06-23 12:29:38.779,0.0011656138955645,-6.314046527754049,6,NB
2025-06-23 12:29:38.787,0.0011748088288586,-0.08955337484805,6,NB
2025-06-23 12:29:38.795,0.001182894339915,6.465810839495848,6,NB
2025-06-23 12:29:38.802,0.0011924611315893,13.26530894858853,6,NB
2025-06-23 12:29:38.810,0.0012057393819275,20.211496944411373,6,NB
2025-06-23 12:29:38.818,0.0012245527082598,27.198453056340348,6,NB
2025-06-23 12:29:38.826,0.001250287412569,34.11440426298798,6,NB
2025-06-23 12:29:38.834,0.0012838780887621,40.84466258636028,6,NB
2025-06-23 12:29:38.841,0.0013258099520778,47.274766153490944,6,NB
2025-06-23 12:29:38.849,0.0013761375360781,53.29370740334804,6,NB
2025-06-23 12:29:38.857,0.001434518798921,58.79712383077183,6,NB
2025-06-23 12:29:38.865,0.0015002632343425,63.69032582817506,6,NB
2025-06-23 12:29:38.873,0.0015723922696177,67.89104166548088,6,NB
2025-06-23 12:29:38.881,0.001649709959146,71.33177119537609,6,NB
2025-06-23 12:29:38.888,0.0017308816111191,73.9616568523876,6,NB
2025-06-23 12:29:38.896,0.0018145174808438,75.74780195661172,6,NB
2025-06-23 12:29:38.904,0.0018992581982146,76.67599099385436,6,NB
2025-06-23 12:29:38.912,0.0019838583828917,76.75079300434467,6,NB
2025-06-23 12:29:38.920,0.00206726497964,75.99505597786064,6,NB
2025-06-23 12:29:38.927,0.0021486871105,74.44882576020241,6,NB
2025-06-23 12:29:38.935,0.0022276545886498,72.16774609200723,6,NB
2025-06-23 12:29:38.943,0.0023040626332629,69.22101591062228,6,NB
2025-06-23 12:29:38.951,0.0023782007603144,65.68899511172025,6,NB
2025-06-23 12:29:38.959,0.0024507643016294,61.66056006345245,6,NB
2025-06-23 12:29:38.966,0.0025228475236962,57.23031508785839,6,NB
2025-06-23 12:29:38.974,0.0025959178781575,52.49576597978332,6,NB
2025-06-23 12:29:38.982,0.0026717715152426,47.55455681099979,6,NB
2025-06-23 12:29:38.990,0.0027524708254403,42.50186238138494,6,NB
2025-06-23 12:29:38.998,0.0028402654366401,37.428016502750125,6,NB
2025-06-23 12:29:39.006,0.0029374987740176,32.41644169705748,6,NB
2025-06-23 12:29:39.013,0.0030465029751726,27.54192975459976,6,NB
2025-06-23 12:29:39.021,0.0031694856271982,22.869305808627068,6,NB
2025-06-23 12:29:39.029,0.0033084124360335,18.452491959101845,6,NB
2025-06-23 12:29:39.037,0.0034648905293166,14.333970736884664,6,NB
2025-06-23 12:29:39.045,0.0036400576019593,10.544634428807328,6,NB
2025-06-23 12:29:39.052,0.0038344824751603,7.103993928802188,6,NB
2025-06-23 12:29:39.060,0.0040480827222405,4.02071063724155,6,NB
2025-06-23 12:29:39.068,0.0042800646496986,1.2934071487399483,6,NB
2025-06-23 12:29:39.076,0.0045288900290994,-1.0882929418363394,6,NB
2025-06-23 12:29:39.084,0.0047922726476225,-3.1425489311678336,6,NB
2025-06-23 12:29:39.091,0.0050672061918726,-4.893964485723234,6,NB
2025-06-23 12:29:39.099,0.0053500234127941,-6.372179835169627,6,NB
2025-06-23 12:29:39.107,0.0056364850554586,-7.6104454751426385,6,NB
2025-06-23 12:29:39.115,0.0059218956451835,-8.644224518260499,6,NB
2025-06-23 12:29:39.123,0.0062012418221482,-9.509866095215749,6,NB
2025-06-23 12:29:39.131,0.006469347581462,-10.243386609454422,6,NB
2025-06-23 12:29:39.138,0.0067210397452466,-10.879389391758602,6,NB
2025-06-23 12:29:39.146,0.0069513164873725,-11.450146572075882,6,NB
2025-06-23 12:29:39.154,0.0071555118332764,-11.98485995953464,6,NB
2025-06-23 12:29:39.162,0.0073294497429425,-12.509110561266777,6,NB
2025-06-23 12:29:39.170,0.0074695825084414,-13.04449923395144,6,NB
2025-06-23 12:29:39.177,0.0075731094737031,-13.60847400971868,6,NB
2025-06-23 12:29:39.185,0.0076380732294356,-14.214333042228356,6,NB
2025-06-23 12:29:39.193,0.007663431305907,-14.871386062969211,6,NB
2025-06-23 12:29:39.201,0.0076491019536632,-15.58525191233029,6,NB
2025-06-23 12:29:39.209,0.0075959829199264,-16.358265305785324,6,NB
2025-06-23 12:29:39.216,0.0075059423472227,-17.189962695622174,6,NB
2025-06-23 12:29:39.224,0.0073817812396727,-18.077615051744043,6,NB
2025-06-23 12:29:39.232,0.0072271675029913,-19.01677472361196,6,NB
2025-06-23 12:29:39.240,0.0070465423959548,-20.001804308185363,6,NB
2025-06-23 12:29:39.248,0.0068450012487023,-21.026357617319835,6,NB
2025-06-23 12:29:39.256,0.0066281513574144,-22.08378633439241,6,NB
2025-06-23 12:29:39.263,0.0064019509433903,-23.167450643743745,6,NB
2025-06-23 12:29:39.271,0.0061725339275789,-24.270917829224185,6,NB
2025-06-23 12:29:39.279,0.0059460259773373,-25.38803934713759,6,NB
2025-06-23 12:29:39.287,0.0057283577498077,-26.512903924388347,6,NB
2025-06-23 12:29:39.295,0.0055250814383795,-27.639671523883557,6,NB
2025-06-23 12:29:39.302,0.0053411966662194,-28.762300241635607,6,NB
2025-06-23 12:29:39.310,0.0051809915325104,-29.874185026922408,6,NB
2025-06-23 12:29:39.318,0.0050479042054907,-30.9677332256918,6,NB
2025-06-23 12:29:39.326,0.0049444098300726,-32.03390703639213,6,NB
2025-06-23 12:29:39.334,0.0048719367059492,-33.061766770023,6,NB
2025-06-23 12:29:39.341,0.0048308148105497,-34.038051100681706,6,NB
2025-06-23 12:29:39.349,0.0048202588549475,-34.94683110760503,6,NB
2025-06-23 12:29:39.357,0.004838387091536,-35.76927372866808,6,NB
2025-06-23 12:29:39.365,0.0048822759193446,-36.48354721667764,6,NB
2025-06-23 12:29:39.373,0.004948048960683,-37.06489633401797,6,NB
2025-06-23 12:29:39.381,0.0050309978690207,-37.485908434060526,6,NB
2025-06-23 12:29:39.388,0.0051257308609729,-37.716983429717374,6,NB
2025-06-23 12:29:39.396,0.0052263439294002,-37.72701118594248,6,NB
2025-06-23 12:29:39.404,0.0053266088257613,-37.48424941587503,6,NB
2025-06-23 12:29:39.412,0.0054201710641525,-36.95738410751094,6,NB
2025-06-23 12:29:39.420,0.0055007503716096,-36.11674332627698,6,NB
2025-06-23 12:29:39.427,0.0055623353923591,-34.93562445375389,6,NB
2025-06-23 12:29:39.435,0.0055993643700688,-33.39168510285115,6,NB
2025-06-23 12:29:39.443,0.0056068841748036,-31.46833968759316,6,NB
2025-06-23 12:29:39.451,0.0055806813590463,-29.156097510537688,6,NB
2025-06-23 12:29:39.459,0.0055173807114964,-26.45377481360272,6,NB
2025-06-23 12:29:39.466,0.0054145087775399,-23.369512988615373,6,NB
2025-06-23 12:29:39.474,0.0052705218000083,-19.92153840365747,6,NB
2025-06-23 12:29:39.482,0.005084799352503,-16.138606238716708,6,NB
2025-06-23 12:29:39.490,0.0048576065297533,-12.060081300025905,6,NB
2025-06-23 12:29:39.498,0.0045900288750941,-7.735622727725857,6,NB
2025-06-23 12:29:39.506,0.0042838851817812,-3.224456318236784,6,NB
2025-06-23 12:29:39.513,0.0039416238377721,1.4057628901015915,6,NB
2025-06-23 12:29:39.521,0.003566208489957,6.080475023325655,6,NB
2025-06-23 12:29:39.529,0.0031609985471383,10.720083879201814,6,NB
2025-06-23 12:29:39.537,0.0027296295426272,15.24210767160415,6,NB
2025-06-23 12:29:39.545,0.0022758977627168,19.5635335861007,6,NB
2025-06-23 12:29:39.552,0.0018036528660569,23.60328471870603,6,NB
2025-06-23 12:29:39.560,0.0013167014481004,27.284699477517723,6,NB
2025-06-23 12:29:39.568,0.0008187236463571,30.537920208533865,6,NB
2025-06-23 12:29:39.576,0.0003132040225402,33.30208998161664,6,NB
2025-06-23 12:29:39.584,-0.0001966227945279,35.52726408880399,6,NB
2025-06-23 12:29:39.591,-0.0007078118355746,37.17595544540431,6,NB
2025-06-23 12:29:39.599,-0.0012177335417504,38.22424998917742,6,NB
2025-06-23 12:29:39.607,-0.0017240866567535,38.662448314214,6,NB
2025-06-23 12:29:39.615,-0.0022248997247503,38.49521193174032,6,NB
2025-06-23 12:29:39.623,-0.0027185228181057,37.74121540077789,6,NB
2025-06-23 12:29:39.631,-0.0032036110959941,36.43232779732348,6,NB
2025-06-23 12:29:39.638,-0.0036791016788033,34.61236735990799,6,NB
2025-06-23 12:29:39.646,-0.0041441852077498,32.33549059742118,6,NB
2025-06-23 12:29:39.654,-0.0045982733906022,29.66429083803654,6,NB
2025-06-23 12:29:39.662,-0.0050409638041942,26.66769057556948,6,NB
2025-06-23 12:29:39.670,-0.0054720031744176,23.41871676440518,6,NB
2025-06-23 12:29:39.677,-0.0058912502274856,19.9922484520706,6,NB
2025-06-23 12:29:39.685,-0.0062986390235434,16.46282211995387,6,NB
2025-06-23 12:29:39.693,-0.006694143543522,12.902572361554348,6,NB
2025-06-23 12:29:39.701,-0.0070777442936652,9.379374770994074,6,NB
2025-06-23 12:29:39.709,-0.0074493978300235,5.955244955565308,6,NB
2025-06-23 12:29:39.716,-0.0078090102954627,2.6850332827213226,6,NB
2025-06-23 12:29:39.724,-0.0081564161563711,-0.3845598283878621,6,NB
2025-06-23 12:29:39.732,-0.0084913632235296,-3.215637772929502,6,NB
2025-06-23 12:29:39.740,-0.008813504727642,-5.779434034853028,6,NB
2025-06-23 12:29:39.748,-0.0091223987211473,-8.056326175757162,6,NB
2025-06-23 12:29:39.756,-0.0094175144598948,-10.035563036146131,6,NB
2025-06-23 12:29:39.763,-0.0096982448321848,-11.714738764660652,6,NB
2025-06-23 12:29:39.771,-0.0099639235365273,-13.09905326288243,6,NB
2025-06-23 12:29:39.779,-0.0102138456629308,-14.200402503296218,6,NB
2025-06-23 12:29:39.787,-0.0104472905488966,-15.03634407518816,6,NB
2025-06-23 12:29:39.795,-0.0106635460874065,-15.628983424494988,6,NB
2025-06-23 12:29:39.802,-0.0108619338791556,-16.00382480053219,6,NB
2025-06-23 12:29:39.810,-0.0110418346494552,-16.188628144986673,6,NB
2025-06-23 12:29:39.818,-0.0112027132063175,-16.212309301893036,6,NB
2025-06-23 12:29:39.826,-0.0113441419979091,-16.103916232225473,6,NB
2025-06-23 12:29:39.834,-0.0114658221471782,-15.891708613128053,6,NB
2025-06-23 12:29:39.841,-0.0115676007626719,-15.602362506456544,6,NB
2025-06-23 12:29:39.849,-0.0116494833758155,-15.260315896324498,6,NB
2025-06-23 12:29:39.857,-0.0117116405605377,-14.887265003658516,6,NB
2025-06-23 12:29:39.865,-0.0117544081379048,-14.501815543563955,6,NB
2025-06-23 12:29:39.873,-0.0117782807899389,-14.119287623922691,6,NB
2025-06-23 12:29:39.881,-0.011783899333901,-13.75166789154582,6,NB
2025-06-23 12:29:39.888,-0.0117720322876979,-13.40769790270474,6,NB
2025-06-23 12:29:39.896,-0.0117435526261027,-13.093083608247234,6,NB
2025-06-23 12:29:39.904,-0.0116994107593505,-12.810807370852226,6,NB
2025-06-23 12:29:39.912,-0.0116406048505555,-12.561521132975413,6,NB
2025-06-23 12:29:39.920,-0.011568149759953,-12.343997280483327,6,NB
2025-06-23 12:29:39.927,-0.0114830461460872,-12.155612447761465,6,NB
2025-06-23 12:29:39.935,-0.0113862513852632,-11.992839031407414,6,NB
2025-06-23 12:29:39.943,-0.0112786538549146,-11.851719560455145,6,NB
2025-06-23 12:29:39.951,-0.0111610517969477,-11.728300336747925,6,NB
2025-06-23 12:29:39.959,-0.0110341375376666,-11.61900291322203,6,NB
2025-06-23 12:29:39.966,-0.0108984873823527,-11.520914993679284,6,NB
2025-06-23 12:29:39.974,-0.0107545571312971,-11.431986151001125,6,NB
2025-06-23 12:29:39.982,-0.0106026829551347,-11.351118265754566,6,NB
2025-06-23 12:29:39.990,-0.0104430872652561,-11.278145634195113,6,NB
2025-06-23 12:29:39.998,-0.0102758891114464,-11.2137050946285,6,NB
2025-06-23 12:29:40.006,-0.0101011185162607,-11.159002056256844,6,NB
2025-06-23 12:29:40.013,-0.009918734040108,-11.115483752761785,6,NB
2025-06-23 12:29:40.021,-0.0097286427294742,-11.08443614977645,6,NB
2025-06-23 12:29:40.029,-0.0095307214120672,-11.066525485504458,6,NB
2025-06-23 12:29:40.037,-0.0093248381606824,-11.06130920964834,6,NB
2025-06-23 12:29:40.045,-0.0091108727822384,-11.066743925919088,6,NB
2025-06-23 12:29:40.052,-0.0088887354106356,-11.078719685654605,6,NB
2025-06-23 12:29:40.060,-0.0086583825778676,-11.090650503575926,6,NB
2025-06-23 12:29:40.068,-0.0084198304015145,-11.093150187645708,6,NB
2025-06-23 12:29:40.076,-0.0081731647293938,-11.07382045806592,6,NB
2025-06-23 12:29:40.084,-0.007918548224213,-11.017174897389454,6,NB
2025-06-23 12:29:40.091,-0.0076562244554411,-10.904717601786029,6,NB
2025-06-23 12:29:40.099,-0.0073865191080778,-10.715189617325034,6,NB
2025-06-23 12:29:40.107,-0.0071098384303965,-10.42498951050839,6,NB
2025-06-23 12:29:40.115,-0.0068266650324125,-10.008766944800088,6,NB
2025-06-23 12:29:40.123,-0.0065375511323571,-9.440180158235966,6,NB
2025-06-23 12:29:40.131,-0.0062431093427085,-8.692800037498303,6,NB
2025-06-23 12:29:40.138,-0.0059440010970226,-7.741135364393274,6,NB
2025-06-23 12:29:40.146,-0.0056409228600907,-6.5617461012351805,6,NB
2025-06-23 12:29:40.154,-0.0053345903457535,-5.134404638998847,6,NB
2025-06-23 12:29:40.162,-0.005025721090231,-3.443259134297091,6,NB
2025-06-23 12:29:40.170,-0.0047150158981751,-1.477948792772226,6,NB
2025-06-23 12:29:40.177,-0.0044031398629834,0.7653814115373194,6,NB
2025-06-23 12:29:40.185,-0.0040907037868619,3.2832192226866668,6,NB
2025-06-23 12:29:40.193,-0.0037782468477854,6.06402705711487,6,NB
2025-06-23 12:29:40.201,-0.0034662213266977,9.08783262026716,6,NB
2025-06-23 12:29:40.209,-0.0031549801936746,12.326105589999074,6,NB
2025-06-23 12:29:40.216,-0.0028447683593788,15.741947398258462,6,NB
2025-06-23 12:29:40.224,-0.0025357183539499,19.29060851487192,6,NB
2025-06-23 12:29:40.232,-0.0022278510265517,22.92033326640807,6,NB
2025-06-23 12:29:40.240,-0.0019210815445847,26.573516788101266,6,NB
2025-06-23 12:29:40.248,-0.0016152305502768,30.188143027504584,6,NB
2025-06-23 12:29:40.256,-0.0013100398943595,33.69945771136875,6,NB
2025-06-23 12:29:40.263,-0.0010051920081458,37.04181680256042,6,NB
2025-06-23 12:29:40.271,-0.0007003317417051,40.150640122318926,6,NB
2025-06-23 12:29:40.279,-0.0003950893954945,42.96439229111866,6,NB
2025-06-23 12:29:40.287,-8.910370973256385e-05,45.42650955946358,6,NB
2025-06-23 12:29:40.295,0.0002179562828755,47.4871918179692,6,NB
2025-06-23 12:29:40.302,0.0005263714687368,49.10498415456492,6,NB
2025-06-23 12:29:40.310,0.0008363557119251,50.24808150963767,6,NB
2025-06-23 12:29:40.318,0.0011480423785659,50.89530271675916,6,NB
2025-06-23 12:29:40.326,0.0014614746964361,51.03669571488924,6,NB
2025-06-23 12:29:40.334,0.0017765999896172,50.67375301457335,6,NB
2025-06-23 12:29:40.341,0.0020932675021753,49.81923454088739,6,NB
2025-06-23 12:29:40.349,0.0024112292862835,48.49661269416739,6,NB
2025-06-23 12:29:40.357,0.0027301435164462,46.739170867198965,6,NB
2025-06-23 12:29:40.365,0.0030495796087369,44.58880086947755,6,NB
2025-06-23 12:29:40.373,0.0033690246630815,42.09455605344597,6,NB
2025-06-23 12:29:40.381,0.003687890967499,39.31102494732112,6,NB
2025-06-23 12:29:40.388,0.0040055245202848,36.29659463894489,6,NB
2025-06-23 12:29:40.396,0.0043212146492595,33.111674021256384,6,NB
2025-06-23 12:29:40.404,0.0046342047989432,29.81694451084353,6,NB
2025-06-23 12:29:40.412,0.0049437044227737,26.471700372705136,6,NB
2025-06-23 12:29:40.420,0.0052489016967241,23.132332849881998,6,NB
2025-06-23 12:29:40.427,0.005548976575313,19.85100252397901,6,NB
2025-06-23 12:29:40.435,0.0058431136748397,16.674533391240534,6,NB
2025-06-23 12:29:40.443,0.0061305145968543,13.643550702136965,6,NB
2025-06-23 12:29:40.451,0.0064104094736944,10.791873308449963,6,NB
2025-06-23 12:29:40.459,0.0066820676245593,8.14616063223659,6,NB
2025-06-23 12:29:40.466,0.0069448072254146,5.725804846646664,6,NB
2025-06-23 12:29:40.474,0.0071980038207751,3.543050751313153,6,NB
2025-06-23 12:29:40.482,0.0074410973838663,1.6033193296962722,6,NB
2025-06-23 12:29:40.490,0.0076735975532124,-0.094293823946114,6,NB
2025-06-23 12:29:40.498,0.0078950866947127,-1.5563771425072273,6,NB
2025-06-23 12:29:40.506,0.008105220526224,-2.7944522740099247,6,NB
2025-06-23 12:29:40.513,0.0083037261353389,-3.824147456511288,6,NB
2025-06-23 12:29:40.521,0.0084903973294576,-4.664327685364637,6,NB
2025-06-23 12:29:40.529,0.0086650874591079,-5.336212298548271,6,NB
2025-06-23 12:29:40.537,0.0088277001940294,-5.862507911935924,6,NB
2025-06-23 12:29:40.545,0.0089781791268423,-6.266581443618994,6,NB
2025-06-23 12:29:40.552,0.0091164973523898,-6.571694456635942,6,NB
2025-06-23 12:29:40.560,0.0092426481747255,-6.8003163648454255,6,NB
2025-06-23 12:29:40.568,0.0093566378359926,-6.973530292199935,6,NB
2025-06-23 12:29:40.576,0.0094584807832232,-7.110541627955074,6,NB
2025-06-23 12:29:40.584,0.0095481976251589,-7.228295637974821,6,NB
2025-06-23 12:29:40.591,0.0096258156405023,-7.341206926711206,6,NB
2025-06-23 12:29:40.599,0.0096913715106972,-7.4610001499677265,6,NB
2025-06-23 12:29:40.607,0.0097449158842208,-7.596658215078492,6,NB
2025-06-23 12:29:40.615,0.0097865194077238,-7.754471329190092,6,NB
2025-06-23 12:29:40.623,0.0098162798865607,-7.93817770790439,6,NB
2025-06-23 12:29:40.631,0.0098343301304813,-8.149184554262801,6,NB
2025-06-23 12:29:40.638,0.0098408457420262,-8.38685606716123,6,NB
2025-06-23 12:29:40.646,0.0098360517483316,-8.648853744624093,6,NB
2025-06-23 12:29:40.654,0.0098202268152298,-8.931513128392659,6,NB
2025-06-23 12:29:40.662,0.0097937039816994,-9.230240424290452,6,NB
2025-06-23 12:29:40.670,0.0097568673772715,-9.539912170997663,6,NB
2025-06-23 12:29:40.677,0.0097101450526846,-9.855261364216226,6,NB
2025-06-23 12:29:40.685,0.0096539986662778,-10.171234211351493,6,NB
2025-06-23 12:29:40.693,0.0095889112037042,-10.48330300917024,6,NB
2025-06-23 12:29:40.701,0.0095153741263395,-10.78772248663147,6,NB
2025-06-23 12:29:40.709,0.0094338753439454,-11.08171928995018,6,NB
2025-06-23 12:29:40.716,0.0093448892076271,-11.363607039750832,6,NB
2025-06-23 12:29:40.724,0.0092488693713943,-11.632822480937348,6,NB
2025-06-23 12:29:40.732,0.009146244968548,-11.889881579828709,6,NB
2025-06-23 12:29:40.740,0.0090374201662993,-12.1362578868113,6,NB
2025-06-23 12:29:40.748,0.0089227767848643,-12.374188947409175,6,NB
2025-06-23 12:29:40.756,0.0088026792761547,-12.60641987402375,6,NB
2025-06-23 12:29:40.763,0.0086774810508358,-12.835896247906458,6,NB
2025-06-23 12:29:40.771,0.0085475310593121,-13.065421173427389,6,NB
2025-06-23 12:29:40.779,0.0084131796784433,-13.297293431180815,6,NB
2025-06-23 12:29:40.787,0.0082747832163141,-13.532945168258705,6,NB
2025-06-23 12:29:40.795,0.0081327066187973,-13.772598345280262,6,NB
2025-06-23 12:29:40.802,0.0079873242045766,-14.014959181086835,6,NB
2025-06-23 12:29:40.810,0.0078390184636594,-14.256969072526829,6,NB
2025-06-23 12:29:40.818,0.0076881771286384,-14.493628915872,6,NB
2025-06-23 12:29:40.826,0.0075351888695282,-14.717911440084515,6,NB
2025-06-23 12:29:40.834,0.0073804380741881,-14.920773129303134,6,NB
2025-06-23 12:29:40.841,0.0072242992600913,-15.091273637036675,6,NB
2025-06-23 12:29:40.849,0.0070671317175181,-15.216806373780466,6,NB
2025-06-23 12:29:40.857,0.0069092749808335,-15.28343929793185,6,NB
2025-06-23 12:29:40.865,0.006751045599065,-15.27635999135714,6,NB
2025-06-23 12:29:40.873,0.0065927353962739,-15.18041401393284,6,NB
2025-06-23 12:29:40.881,0.0064346110665398,-14.980720491010556,6,NB
2025-06-23 12:29:40.888,0.0062769147053482,-14.663344104395946,6,NB
2025-06-23 12:29:40.896,0.0061198648269679,-14.215998361415147,6,NB
2025-06-23 12:29:40.904,0.0059636575131203,-13.628751453287572,6,NB
2025-06-23 12:29:40.912,0.0058084674794398,-12.89470343730465,6,NB
2025-06-23 12:29:40.920,0.0056544489285802,-12.01060213725273,6,NB
2025-06-23 12:29:40.927,0.0055017360339578,-10.977365279499734,6,NB
2025-06-23 12:29:40.935,0.0053504428398339,-9.800478146643854,6,NB
2025-06-23 12:29:40.943,0.0052006623950465,-8.490239540190817,6,NB
2025-06-23 12:29:40.951,0.0050524650608904,-7.061834099658946,6,NB
2025-06-23 12:29:40.959,0.0049058960283968,-5.535215902614802,6,NB
2025-06-23 12:29:40.967,0.0047609720812423,-3.934796502897535,6,NB
2025-06-23 12:29:40.974,0.0046176776200899,-2.2889397516401804,6,NB
2025-06-23 12:29:40.982,0.0044759600383767,-0.629275376512118,6,NB
2025-06-23 12:29:40.990,0.0043357247400959,1.0101472127668816,6,NB
2025-06-23 12:29:40.998,0.0041968303362228,2.5938346767804785,6,NB
2025-06-23 12:29:41.006,0.0040590847331408,4.085917422208764,6,NB
2025-06-23 12:29:41.013,0.0039222428533854,5.451265993090555,6,NB
2025-06-23 12:29:41.021,0.003786006574461,6.656609645325927,6,NB
2025-06-23 12:29:41.029,0.0036500271695185,7.671609754183039,6,NB
2025-06-23 12:29:41.037,0.0035139101777601,8.469842477381363,6,NB
2025-06-23 12:29:41.045,0.0033772223128288,9.029649360704529,6,NB
2025-06-23 12:29:41.052,0.0032394997802857,9.334821051255124,6,NB
2025-06-23 12:29:41.060,0.0031002572371143,9.375087542936337,6,NB
2025-06-23 12:29:41.068,0.002958996594882,9.146397873576378,6,NB
2025-06-23 12:29:41.076,0.0028152149481272,8.650982315880315,6,NB
2025-06-23 12:29:41.084,0.0026684111014842,7.89720023871813,6,NB
2025-06-23 12:29:41.092,0.0025180904647414,6.899186379775926,6,NB
2025-06-23 12:29:41.099,0.0023637684458694,5.676316752432546,6,NB
2025-06-23 12:29:41.107,0.0022049728145099,4.252522390777875,6,NB
2025-06-23 12:29:41.115,0.0020412457445726,2.6554843143166824,6,NB
2025-06-23 12:29:41.123,0.0018721463391655,0.91574629403213,6,NB
2025-06-23 12:29:41.131,0.0016972543965823,-0.934216817542187,6,NB
2025-06-23 12:29:41.138,0.001516176000402,-2.860938182246698,6,NB
2025-06-23 12:29:41.146,0.0013285512551543,-4.830870975198442,6,NB
2025-06-23 12:29:41.154,0.00113406423295,-6.811242693644815,6,NB
2025-06-23 12:29:41.162,0.0009324550051586,-8.770826201989587,6,NB
2025-06-23 12:29:41.170,0.0007235334775502,-10.68060766371456,6,NB
2025-06-23 12:29:41.177,0.0005071945649462,-12.514337555490725,6,NB
2025-06-23 12:29:41.185,0.0002834340142452,-14.248956962632754,6,NB
2025-06-23 12:29:41.193,5.236392903547587e-05,-15.864897005343767,6,NB
2025-06-23 12:29:41.201,-0.0001857732171886,-17.346254296016074,6,NB
2025-06-23 12:29:41.209,-0.0004305935177989,-18.68084961121429,6,NB
2025-06-23 12:29:41.217,-0.0006815650450008,-19.860180388583032,6,NB
2025-06-23 12:29:41.224,-0.0009380071270393,-20.8792802077936,6,NB
2025-06-23 12:29:41.232,-0.0011990965189619,-21.7365001153396,6,NB
2025-06-23 12:29:41.240,-0.0014638809805822,-22.43322756955208,6,NB
2025-06-23 12:29:41.248,-0.0017313001980579,-22.97355900304533,6,NB
2025-06-23 12:29:41.256,-0.0020002133907112,-23.36394162996332,6,NB
2025-06-23 12:29:41.263,-0.0022694323520845,-23.612799278491345,6,NB
2025-06-23 12:29:41.271,-0.0025377581368483,-23.730155819731017,6,NB
2025-06-23 12:29:41.279,-0.002804019213253,-23.727268299079665,6,NB
2025-06-23 12:29:41.287,-0.0030671087354785,-23.616280243832207,6,NB
2025-06-23 12:29:41.295,-0.0033260186616053,-23.409903882342533,6,NB
2025-06-23 12:29:41.302,-0.0035798686790871,-23.121138201752384,6,NB
2025-06-23 12:29:41.310,-0.0038279282459552,-22.76302791102772,6,NB
2025-06-23 12:29:41.318,-0.0040696305469549,-22.348466471012607,6,NB
2025-06-23 12:29:41.326,-0.0043045778246734,-21.8900444055503,6,NB
2025-06-23 12:29:41.334,-0.0045325382784724,-21.399942123071245,6,NB
2025-06-23 12:29:41.342,-0.0047534353591703,-20.88986447845652,6,NB
2025-06-23 12:29:41.349,-0.0049673307026684,-20.37101233975482,6,NB
2025-06-23 12:29:41.357,-0.0051744021027367,-19.854084569616703,6,NB
2025-06-23 12:29:41.365,-0.0053749178578853,-19.349302178314492,6,NB
2025-06-23 12:29:41.373,-0.0055692086589456,-18.86644504620262,6,NB
2025-06-23 12:29:41.381,-0.0057576380782635,-18.41489063237613,6,NB
2025-06-23 12:29:41.388,-0.0059405727655248,-18.003643554801734,6,NB
2025-06-23 12:29:41.396,-0.0061183535795062,-17.641344905119826,6,NB
2025-06-23 12:29:41.404,-0.006291268940684,-17.336250697776247,6,NB
2025-06-23 12:29:41.412,-0.0064595315779426,-17.096169984662257,6,NB
2025-06-23 12:29:41.420,-0.0066232595726059,-16.928354911335806,6,NB
2025-06-23 12:29:41.427,-0.0067824622857045,-16.839337341505903,6,NB
2025-06-23 12:29:41.435,-0.0069370315235218,-16.83470958933413,6,NB
2025-06-23 12:29:41.443,-0.0070867381692436,-16.918850185865804,6,NB
2025-06-23 12:29:41.451,-0.0072312343744687,-17.094599332270448,6,NB
2025-06-23 12:29:41.459,-0.0073700611960532,-17.362892589419108,6,NB
2025-06-23 12:29:41.467,-0.0075026613349957,-17.722365234351802,6,NB
2025-06-23 12:29:41.474,-0.0076283964343846,-18.168943390964618,6,NB
2025-06-23 12:29:41.482,-0.0077465681913437,-18.69544133076698,6,NB
2025-06-23 12:29:41.490,-0.0078564423135819,-19.291187059668008,6,NB
2025-06-23 12:29:41.498,-0.0079572741885024,-19.94170028140596,6,NB
2025-06-23 12:29:41.506,-0.0080483351520157,-20.628447887836884,6,NB
2025-06-23 12:29:41.513,-0.0081289384253447,-21.328702118075235,6,NB
2025-06-23 12:29:41.521,-0.0081984639398757,-22.01552532883025,6,NB
2025-06-23 12:29:41.529,-0.0082563812465055,-22.657902845495624,6,NB
2025-06-23 12:29:41.537,-0.0083022695675779,-23.2210415875118,6,NB
2025-06-23 12:29:41.545,-0.008335833959277,-23.66684710870999,6,NB
2025-06-23 12:29:41.552,-0.0083569166240669,-23.95458544903171,6,NB
2025-06-23 12:29:41.560,-0.0083655026636904,-24.041728904535542,6,NB
2025-06-23 12:29:41.568,-0.0083617199024718,-23.88497669850009,6,NB
2025-06-23 12:29:41.576,-0.0083458327177136,-23.441432855065536,6,NB
2025-06-23 12:29:41.584,-0.0083182300933466,-22.669914681544025,6,NB
2025-06-23 12:29:41.592,-0.0082794084830694,-21.53235655874228,6,NB
2025-06-23 12:29:41.599,-0.0082299505640548,-19.995265669542405,6,NB
2025-06-23 12:29:41.607,-0.008170501428066,-18.031179343390537,6,NB
2025-06-23 12:29:41.615,-0.0081017439701635,-15.620068342985592,6,NB
2025-06-23 12:29:41.623,-0.0080243750941893,-12.750627127637308,6,NB
2025-06-23 12:29:41.631,-0.0079390839466734,-9.42139129069621,6,NB
2025-06-23 12:29:41.638,-0.0078465328941925,-5.641624285269079,6,NB
2025-06-23 12:29:41.646,-0.0077473415103717,-1.431920398606107,6,NB
2025-06-23 12:29:41.654,-0.0076420735018939,3.1755212628514777,6,NB
2025-06-23 12:29:41.662,-0.0075312263049037,8.136986405618483,6,NB
2025-06-23 12:29:41.670,-0.0074152230394619,13.397720340679443,6,NB
2025-06-23 12:29:41.677,-0.0072944066237449,18.892794429194705,6,NB
2025-06-23 12:29:41.685,-0.0071690360862082,24.54835433826321,6,NB
2025-06-23 12:29:41.693,-0.0070392853627477,30.283223420277967,6,NB
2025-06-23 12:29:41.701,-0.0069052449730154,36.01081804550064,6,NB
2025-06-23 12:29:41.709,-0.0067669268618155,41.64131647929765,6,NB
2025-06-23 12:29:41.717,-0.0066242724526185,47.084009765062525,6,NB
2025-06-23 12:29:41.724,-0.0064771637499764,52.24975283473334,6,NB
2025-06-23 12:29:41.732,-0.0063254372289489,57.05342737234968,6,NB
2025-06-23 12:29:41.740,-0.0061689002015659,61.416325271059584,6,NB
2025-06-23 12:29:41.748,-0.0060073492149525,65.268363095067,6,NB
2025-06-23 12:29:41.756,-0.0058405897485494,68.55004378011292,6,NB
2025-06-23 12:29:41.763,-0.0056684561310588,71.2140916194774,6,NB
2025-06-23 12:29:41.771,-0.0054908303615566,73.22669988924179,6,NB
2025-06-23 12:29:41.779,-0.0053076585119091,74.56834656583638,6,NB
2025-06-23 12:29:41.787,-0.0051189636173257,75.23415162722546,6,NB
2025-06-23 12:29:41.795,-0.0049248543261193,75.23376845942597,6,NB
2025-06-23 12:29:41.802,-0.0047255289231406,74.59082093285598,6,NB
2025-06-23 12:29:41.810,-0.0045212745848701,73.34191581435086,6,NB
2025-06-23 12:29:41.818,-0.0043124619377579,71.53527646656582,6,NB
2025-06-23 12:29:41.826,-0.0040995352891057,69.2290575108208,6,NB
2025-06-23 12:29:41.834,-0.0038829992793247,66.48941071159784,6,NB
2025-06-23 12:29:41.842,-0.0036634030417097,63.38837939219418,6,NB
2025-06-23 12:29:41.849,-0.0034413231384572,60.00170203185472,6,NB
2025-06-23 12:29:41.857,-0.0032173465372368,56.40660535862204,6,NB
2025-06-23 12:29:41.865,-0.0029920547073678,52.679663471707215,6,NB
2025-06-23 12:29:41.873,-0.0027660095928689,48.89479270388028,6,NB
2025-06-23 12:29:41.881,-0.0025397418850182,45.12144260072601,6,NB
2025-06-23 12:29:41.888,-0.0023137418034928,41.42303217150113,6,NB
2025-06-23 12:29:41.896,-0.0020884525128679,37.85566812209746,6,NB
2025-06-23 12:29:41.904,-0.0018642662419105,34.467168780961146,6,NB
2025-06-23 12:29:41.912,-0.0016415230643875,31.296404503079533,6,NB
2025-06-23 12:29:41.920,-0.001420512183776,28.372953047279506,6,NB
2025-06-23 12:29:41.927,-0.0012014754873413,25.717057239707948,6,NB
2025-06-23 12:29:41.935,-0.0009846130568398,23.339862528136067,6,NB
2025-06-23 12:29:41.943,-0.0007700902027396,21.243904053052365,6,NB
2025-06-23 12:29:41.951,-0.0005580454781909,19.42380675694781,6,NB
2025-06-23 12:29:41.959,-0.000348599106257,17.867157863728167,6,NB
2025-06-23 12:29:41.967,-0.0001418613456272,16.555508738187577,6,NB
2025-06-23 12:29:41.974,6.205947864692262e-05,15.46546256371143,6,NB
2025-06-23 12:29:41.982,0.0002630492833196,14.569805285554052,6,NB
2025-06-23 12:29:41.990,0.0004609806594554,13.838639651586714,6,NB
2025-06-23 12:29:41.998,0.0006557051754225,13.240485717472422,6,NB
2025-06-23 12:29:42.006,0.0008470454397906,12.743315640899365,6,NB
2025-06-23 12:29:42.013,0.0010347870231128,12.315495747605372,6,NB
2025-06-23 12:29:42.021,0.0012186705323934,11.926614494118033,6,NB
2025-06-23 12:29:42.029,0.0013983843444965,11.548180867101005,6,NB
2025-06-23 12:29:42.037,0.0015735587665909,11.154183744326271,6,NB
2025-06-23 12:29:42.045,0.0017437626147587,10.72150860956254,6,NB
2025-06-23 12:29:42.052,0.0019085032349631,10.23021359332704,6,NB
2025-06-23 12:29:42.060,0.0020672307650473,9.66367195165704,6,NB
2025-06-23 12:29:42.068,0.0022193470332859,9.00859265889286,6,NB
2025-06-23 12:29:42.076,0.0023642190714455,8.25493465430206,6,NB
2025-06-23 12:29:42.084,0.00250119688263,7.39573333858447,6,NB
2025-06-23 12:29:42.092,0.0026296347932836,6.426860078449251,6,NB
2025-06-23 12:29:42.099,0.0027489153383191,5.3467366850245615,6,NB
2025-06-23 12:29:42.107,0.0028584741986226,4.1560270540301865,6,NB
2025-06-23 12:29:42.115,0.0029578243726462,2.857327394431189,6,NB
2025-06-23 12:29:42.123,0.0030465776470451,1.4548747641151212,6,NB
2025-06-23 12:29:42.131,0.0031244615817553,-0.0457089537819436,6,NB
2025-06-23 12:29:42.138,0.003191330647813,-1.6376238597174688,6,NB
2025-06-23 12:29:42.146,0.0032471708153035,-3.3130398573736524,6,NB
2025-06-23 12:29:42.154,0.0032920976591784,-5.063180181289091,6,NB
2025-06-23 12:29:42.162,0.0033263487607212,-6.8783400714747085,6,NB
2025-06-23 12:29:42.170,0.0033502717114889,-8.747844823046261,6,NB
2025-06-23 12:29:42.177,0.0033643093305549,-10.659956048812129,6,NB
2025-06-23 12:29:42.185,0.0033689837811475,-12.601739206558388,6,NB
2025-06-23 12:29:42.193,0.0033648811291433,-14.558909057052595,6,NB
2025-06-23 12:29:42.201,0.0033526375406586,-16.515672544932468,6,NB
2025-06-23 12:29:42.209,0.003332927798779,-18.454590464095556,6,NB
2025-06-23 12:29:42.217,0.0033064561978711,-20.35648004337728,6,NB
2025-06-23 12:29:42.224,0.0032739492886183,-22.20038017060488,6,NB
2025-06-23 12:29:42.232,0.0032361495796015,-23.963599319681904,6,NB
2025-06-23 12:29:42.240,0.0031938092495799,-25.621863370448928,6,NB
2025-06-23 12:29:42.248,0.0031476831235003,-27.14957648545878,6,NB
2025-06-23 12:29:42.256,0.0030985204644953,-28.520203153086765,6,NB
2025-06-23 12:29:42.263,0.0030470554223229,-29.70677358992517,6,NB
2025-06-23 12:29:42.271,0.0029939962144033,-30.68250812833724,6,NB
2025-06-23 12:29:42.279,0.0029400132912122,-31.421549251430903,6,NB
2025-06-23 12:29:42.287,0.0028857268529094,-31.899782871375628,6,NB
2025-06-23 12:29:42.295,0.0028316941400731,-32.09572360498101,6,NB
2025-06-23 12:29:42.302,0.0027783969213012,-31.991432534414923,6,NB
2025-06-23 12:29:42.310,0.002726229554148,-31.573430618033782,6,NB
2025-06-23 12:29:42.318,0.0026754879412856,-30.833566909366287,6,NB
2025-06-23 12:29:42.326,0.0026263597161197,-29.769798414511257,6,NB
2025-06-23 12:29:42.334,0.0025789161164945,-28.38683809704707,6,NB
2025-06-23 12:29:42.342,0.0025331061638633,-26.69662948057796,6,NB
2025-06-23 12:29:42.349,0.0024887538037175,-24.718610647600396,6,NB
2025-06-23 12:29:42.357,0.0024455585113925,-22.47973719374922,6,NB
2025-06-23 12:29:42.365,0.0024030996079092,-20.01424271304449,6,NB
2025-06-23 12:29:42.373,0.0023608443141181,-17.363126338461306,6,NB
2025-06-23 12:29:42.381,0.0023181594829574,-14.573369251702363,6,NB
2025-06-23 12:29:42.388,0.002274326929706,-11.696895264122524,6,NB
2025-06-23 12:29:42.396,0.002228562213437,-8.789303800524694,6,NB
2025-06-23 12:29:42.404,0.0021800366092263,-5.908416072015242,6,NB
2025-06-23 12:29:42.412,0.0021279019436143,-3.112686089922405,6,NB
2025-06-23 12:29:42.420,0.0020713179467025,-0.4595367062092645,6,NB
