Timestamp,GSR_Filtered,PPG_Filtered
2025-03-08 13:53:03.990,7.198004140556542e-07,-38.77572971786637
2025-03-08 13:53:04.010,0.000102370024637,-38.16136535460241
2025-03-08 13:53:04.029,0.0001954493085851,-37.13262635858912
2025-03-08 13:53:04.049,0.0002721863047984,-36.10054903892036
2025-03-08 13:53:04.068,0.0003269945295048,-35.31650183141483
2025-03-08 13:53:04.088,0.0003569829406419,-34.799972229997
2025-03-08 13:53:04.107,0.0003620242718636,-34.33906213084578
2025-03-08 13:53:04.127,0.0003444723689848,-33.56460295134755
2025-03-08 13:53:04.146,0.0003086262350896,-32.07452054042206
2025-03-08 13:53:04.166,0.0002600335481009,-29.568399406182237
2025-03-08 13:53:04.185,0.0002047265599623,-25.949852094163536
2025-03-08 13:53:04.205,0.0001484851096411,-21.36713358224865
2025-03-08 13:53:04.224,9.621924997408438e-05,-16.18458177569534
2025-03-08 13:53:04.244,5.153816692743037e-05,-10.899429260772733
2025-03-08 13:53:04.264,1.6512878626717285e-05,-6.032292850357011
2025-03-08 13:53:04.283,-8.415902504966092e-06,-2.0222066073210567
2025-03-08 13:53:04.303,-2.443815216375349e-05,0.8495022457599047
2025-03-08 13:53:04.322,-3.42863101409879e-05,2.493380287701129
2025-03-08 13:53:04.342,-4.198474015244034e-05,3.002658292016469
2025-03-08 13:53:04.361,-5.23066036573019e-05,2.609068231965901
2025-03-08 13:53:04.381,-6.985247173572833e-05,1.618572522773253
2025-03-08 13:53:04.400,-9.785746000480646e-05,0.3444777568414387
2025-03-08 13:53:04.420,-0.0001370780756778,-0.9463265221791072
2025-03-08 13:53:04.439,-0.0001852116499577,-2.063759044810632
2025-03-08 13:53:04.459,-0.0002371518433755,-2.8989678443015925
2025-03-08 13:53:04.478,-0.0002860710078885,-3.407687595914507
2025-03-08 13:53:04.498,-0.0003250430265809,-3.5826746987020583
2025-03-08 13:53:04.517,-0.0003488106680524,-3.4270668974897367
2025-03-08 13:53:04.537,-0.0003553344094973,-2.9385848081445696
2025-03-08 13:53:04.557,-0.0003468161243927,-2.109807737737997
2025-03-08 13:53:04.576,-0.0003298952323561,-0.9437914185361184
2025-03-08 13:53:04.596,-0.0003147164647388,0.5212690999066294
2025-03-08 13:53:04.615,-0.0003126982210969,2.188263502923097
2025-03-08 13:53:04.635,-0.0003331855312522,3.8888982117646935
2025-03-08 13:53:04.654,-0.000379713559104,5.391071041356486
2025-03-08 13:53:04.674,-0.0004470971649343,6.428956752887361
2025-03-08 13:53:04.693,-0.0005206256584308,6.752431041411648
2025-03-08 13:53:04.713,-0.000578065186758,6.1861735772311945
2025-03-08 13:53:04.732,-0.0005941776252409,4.684277527051024
2025-03-08 13:53:04.752,-0.0005466022201881,2.364946966555586
2025-03-08 13:53:04.771,-0.0004216386919332,-0.4871086852775357
2025-03-08 13:53:04.791,-0.0002186926622414,-3.455720646660763
2025-03-08 13:53:04.810,4.747157132632824e-05,-6.061027368732595
2025-03-08 13:53:04.830,0.0003472854589829,-7.845842704711309
2025-03-08 13:53:04.850,0.0006401958282404,-8.460921504041655
2025-03-08 13:53:04.869,0.0008817933253935,-7.729717145206774
2025-03-08 13:53:04.889,0.0010333958710124,-5.679234491765588
2025-03-08 13:53:04.908,0.0010720628247152,-2.533009630413797
2025-03-08 13:53:04.928,0.0009981437265235,1.328350092074552
2025-03-08 13:53:04.947,0.0008375015016604,5.427437558284365
2025-03-08 13:53:04.967,0.0006368412168911,9.258082698086309
2025-03-08 13:53:04.986,0.0004528893518358,12.245576740252517
2025-03-08 13:53:05.006,0.0003384727326152,14.163115077018178
2025-03-08 13:53:05.025,0.000329540731095,14.732546450429084
2025-03-08 13:53:05.045,0.0004364703767154,13.84494004929964
2025-03-08 13:53:05.064,0.000641444396005,11.589847512341777
2025-03-08 13:53:05.084,0.0009022639109748,8.265381151340808
2025-03-08 13:53:05.103,0.0011617514806646,4.361326491635621
2025-03-08 13:53:05.123,0.0013606176302616,0.5089663660794218
2025-03-08 13:53:05.142,0.0014505429269355,-2.603095820166892
2025-03-08 13:53:05.162,0.0014040018357868,-4.339234820096468
2025-03-08 13:53:05.182,0.0012184169763742,-4.236580595487818
2025-03-08 13:53:05.201,0.0009141481149337,-2.111850692576616
2025-03-08 13:53:05.221,0.0005276820523221,1.867832889075656
2025-03-08 13:53:05.240,0.0001025021840234,7.168318570331257
2025-03-08 13:53:05.260,-0.0003197009154523,12.93495664192211
2025-03-08 13:53:05.279,-0.0007053959040742,18.099937718070045
2025-03-08 13:53:05.299,-0.001032135139843,21.537041475337443
2025-03-08 13:53:05.318,-0.0012882573831033,22.24148364890064
2025-03-08 13:53:05.338,-0.0014706343729723,19.506928597096724
2025-03-08 13:53:05.357,-0.0015821453706673,13.07011707370566
2025-03-08 13:53:05.377,-0.0016300723981015,3.196437237886337
2025-03-08 13:53:05.396,-0.0016254537368091,-9.312752555150688
2025-03-08 13:53:05.416,-0.0015824435152033,-23.198815097296865
2025-03-08 13:53:05.435,-0.0015166789022118,-36.90438972853514
2025-03-08 13:53:05.455,-0.0014424962195595,-48.79115044846129
2025-03-08 13:53:05.475,-0.0013697329502229,-57.38313623934602
2025-03-08 13:53:05.494,-0.0013011068384397,-61.59321883211197
2025-03-08 13:53:05.514,-0.0012308359856354,-60.88886432210742
2025-03-08 13:53:05.533,-0.0011447763348202,-55.3622184849855
2025-03-08 13:53:05.553,-0.0010222353340083,-45.688999937071
2025-03-08 13:53:05.572,-0.0008396552774052,-32.98643811837064
2025-03-08 13:53:05.592,-0.0005762094201332,-18.60445267500932
2025-03-08 13:53:05.611,-0.0002207983212564,-3.8984293957853127
2025-03-08 13:53:05.631,0.0002209676725726,9.967668562897709
2025-03-08 13:53:05.650,0.000722106599286,22.151397600924792
2025-03-08 13:53:05.670,0.0012345214027265,32.17888887528878
2025-03-08 13:53:05.689,0.0016958690478143,39.91435037847932
2025-03-08 13:53:05.709,0.0020425057310513,45.4745721060539
2025-03-08 13:53:05.728,0.0022251570285844,49.11921957803812
2025-03-08 13:53:05.748,0.0022220813285426,51.14621759123716
2025-03-08 13:53:05.767,0.0020449040604348,51.812602667020826
2025-03-08 13:53:05.787,0.0017350099551873,51.28894180144915
2025-03-08 13:53:05.807,0.0013519330761099,49.64419252121152
2025-03-08 13:53:05.826,0.0009578205801925,46.85138572852684
2025-03-08 13:53:05.846,0.0006028595022346,42.804596556699
2025-03-08 13:53:05.865,0.0003156668268283,37.34319414681708
2025-03-08 13:53:05.885,0.0001007185345387,30.28612645362944
2025-03-08 13:53:05.904,-5.732984753975745e-05,21.481761758337207
2025-03-08 13:53:05.924,-0.0001844974987751,10.87453427321751
2025-03-08 13:53:05.943,-0.0003067333311867,-1.4203143438078951
2025-03-08 13:53:05.963,-0.0004409186531559,-15.052893478371535
2025-03-08 13:53:05.982,-0.0005900464354004,-29.409001023735254
2025-03-08 13:53:06.002,-0.0007433907050685,-43.63277268239945
2025-03-08 13:53:06.021,-0.0008807772396107,-56.706702809832656
2025-03-08 13:53:06.041,-0.0009789467389005,-67.5781720902378
2025-03-08 13:53:06.060,-0.0010178522214197,-75.30839737855257
2025-03-08 13:53:06.080,-0.0009853869320448,-79.21310143138297
2025-03-08 13:53:06.100,-0.0008799258949656,-78.9659387612017
2025-03-08 13:53:06.119,-0.0007107101103995,-74.6454034844522
2025-03-08 13:53:06.139,-0.000496424201288,-66.72060929164886
2025-03-08 13:53:06.158,-0.0002624649482001,-55.98552188916105
2025-03-08 13:53:06.178,-3.747706416023823e-05,-43.45935556702561
2025-03-08 13:53:06.197,0.0001502726003339,-30.270965768328963
2025-03-08 13:53:06.217,0.00027623924533,-17.540218030997238
2025-03-08 13:53:06.236,0.0003224111369317,-6.264623944904406
2025-03-08 13:53:06.256,0.000279450078177,2.7818607140224025
2025-03-08 13:53:06.275,0.0001479822841006,9.129455628581216
2025-03-08 13:53:06.295,-6.124354851436756e-05,12.662276290901032
2025-03-08 13:53:06.314,-0.000328560621979,13.627185365071892
2025-03-08 13:53:06.334,-0.0006278115272465,12.595676064632816
2025-03-08 13:53:06.353,-0.0009293060125857,10.379657099829014
2025-03-08 13:53:06.373,-0.0012023368936224,7.910413169224864
2025-03-08 13:53:06.393,-0.0014167068778959,6.097750708521464
2025-03-08 13:53:06.412,-0.0015437054812156,5.691534789981232
2025-03-08 13:53:06.432,-0.0015577284096694,7.169280628026429
2025-03-08 13:53:06.451,-0.001439488497981,10.67076077345792
2025-03-08 13:53:06.471,-0.0011805762450151,15.993783469075108
2025-03-08 13:53:06.490,-0.0007878426768364,22.65463526140096
2025-03-08 13:53:06.510,-0.0002855999716933,30.00300226080228
2025-03-08 13:53:06.529,0.0002857729566421,37.36691040623573
2025-03-08 13:53:06.549,0.0008749946577103,44.19269545168797
2025-03-08 13:53:06.568,0.0014277486741678,50.14309036666884
2025-03-08 13:53:06.588,0.0018954019664808,55.12593785937686
2025-03-08 13:53:06.607,0.0022425860640121,59.24528056891352
2025-03-08 13:53:06.627,0.0024521058000993,62.68980813864524
2025-03-08 13:53:06.646,0.0025263694779127,65.59294097652429
2025-03-08 13:53:06.666,0.0024851886995254,67.90768200795617
2025-03-08 13:53:06.685,0.0023602645281832,69.33529154602111
2025-03-08 13:53:06.705,0.002187083705035,69.33185455753681
2025-03-08 13:53:06.725,0.001995453499162,67.19596134569227
2025-03-08 13:53:06.744,0.0018005359866916,62.22005385520228
2025-03-08 13:53:06.764,0.0015967941743413,53.87274353127045
2025-03-08 13:53:06.783,0.0013572907151702,41.97253857766378
2025-03-08 13:53:06.803,0.0010398371698263,26.814967077847943
2025-03-08 13:53:06.822,0.0005995160701662,9.223203544898013
2025-03-08 13:53:06.842,4.697440435870279e-06,-9.494890162237516
2025-03-08 13:53:06.861,-0.0007480505873006,-27.6842443717736
2025-03-08 13:53:06.881,-0.0016248810917934,-43.55771947175535
2025-03-08 13:53:06.900,-0.0025545523484231,-55.45553252589944
2025-03-08 13:53:06.920,-0.0034377797994053,-62.10428407666261
2025-03-08 13:53:06.939,-0.0041638423090629,-62.82856521190398
2025-03-08 13:53:06.959,-0.0046302467434952,-57.67681294354894
2025-03-08 13:53:06.978,-0.0047605463941621,-47.44103004852633
2025-03-08 13:53:06.998,-0.0045162093138781,-33.571113683876845
2025-03-08 13:53:07.018,-0.0039005848912444,-18.00141951768527
2025-03-08 13:53:07.037,-0.0029557758350588,-2.915765094268913
2025-03-08 13:53:07.057,-0.0017553023960949,9.52137950951036
2025-03-08 13:53:07.076,-0.0003957362799024,17.440815115877502
2025-03-08 13:53:07.096,0.0010109835072118,19.52457673640601
2025-03-08 13:53:07.115,0.0023448082415256,15.211959522249634
2025-03-08 13:53:07.135,0.0034857469405766,4.822758273689231
2025-03-08 13:53:07.154,0.004324013921777,-10.43301324600277
2025-03-08 13:53:07.174,0.0047720803034595,-28.5782519203152
2025-03-08 13:53:07.193,0.0047772253386035,-47.12287057806232
2025-03-08 13:53:07.213,0.0043321529439096,-63.42025552953484
2025-03-08 13:53:07.232,0.003480804636294,-75.07236730995984
2025-03-08 13:53:07.252,0.0023169067227682,-80.31366216126544
2025-03-08 13:53:07.271,0.0009741455001812,-78.30206747123158
2025-03-08 13:53:07.291,-0.0003910780934965,-69.25922326794654
2025-03-08 13:53:07.311,-0.0016213067716652,-54.42976137161212
2025-03-08 13:53:07.330,-0.0025798935624224,-35.86453819524636
2025-03-08 13:53:07.350,-0.0031689684168604,-16.067508678262776
2025-03-08 13:53:07.369,-0.0033405678115188,2.427328142836383
2025-03-08 13:53:07.389,-0.0030997233210857,17.46916475533753
2025-03-08 13:53:07.408,-0.0025001203609427,27.616321889594296
2025-03-08 13:53:07.428,-0.0016342870177167,32.31445952302228
2025-03-08 13:53:07.447,-0.0006205773210311,31.89577620850167
2025-03-08 13:53:07.467,0.0004114948689414,27.40504502258664
2025-03-08 13:53:07.486,0.0013367751851834,20.297090101185766
2025-03-08 13:53:07.506,0.0020498682860783,12.08115058460278
2025-03-08 13:53:07.525,0.0024784624010155,3.999883646391477
2025-03-08 13:53:07.545,0.0025919833829737,-3.181610510015796
2025-03-08 13:53:07.564,0.002403648337818,-9.23525454323878
2025-03-08 13:53:07.584,0.0019657788668597,-14.380398549586998
2025-03-08 13:53:07.603,0.0013599921355258,-19.08764384247887
2025-03-08 13:53:07.623,0.000684560711931,-23.84369952717936
2025-03-08 13:53:07.643,4.078996438685532e-05,-28.94912312553833
2025-03-08 13:53:07.662,-0.0004804262067896,-34.403696947421786
2025-03-08 13:53:07.682,-0.0008108503447142,-39.9014566262747
2025-03-08 13:53:07.701,-0.0009145291194978,-44.92007953758986
2025-03-08 13:53:07.721,-0.0007930623625554,-48.86035107156136
2025-03-08 13:53:07.740,-0.0004850539571478,-51.18045540461083
2025-03-08 13:53:07.760,-5.924248333366947e-05,-51.47961261628733
2025-03-08 13:53:07.779,0.0003978805245696,-49.51117320092637
2025-03-08 13:53:07.799,0.0007979048583559,-45.13637893058163
2025-03-08 13:53:07.818,0.0010667786563744,-38.254765037683526
2025-03-08 13:53:07.838,0.0011580528837541,-28.756277713751388
2025-03-08 13:53:07.857,0.0010600082130657,-16.53014340661991
2025-03-08 13:53:07.877,0.0007951199840357,-1.5403276807254125
2025-03-08 13:53:07.896,0.000412589341739,16.05279627344079
2025-03-08 13:53:07.916,-2.3427914709819476e-05,35.76792320229522
2025-03-08 13:53:07.936,-0.0004466188433093,56.72541292547138
2025-03-08 13:53:07.955,-0.0007996875014754,77.6553268749675
2025-03-08 13:53:07.975,-0.0010424862848572,97.00481844794894
2025-03-08 13:53:07.994,-0.001156749723292,113.13096779036454
2025-03-08 13:53:08.014,-0.0011475298000322,124.54227616911592
2025-03-08 13:53:08.033,-0.0010413705583429,130.1391346387139
2025-03-08 13:53:08.053,-0.0008811935855491,129.4027472841697
2025-03-08 13:53:08.072,-0.000718200404915,122.49330274772105
2025-03-08 13:53:08.092,-0.0006017633978839,110.23917531125836
2025-03-08 13:53:08.111,-0.0005689508003534,94.0235042248341
2025-03-08 13:53:08.131,-0.000635788034499,75.59445574991713
2025-03-08 13:53:08.150,-0.0007924226409779,56.835070347246166
2025-03-08 13:53:08.170,-0.0010038154544752,39.527891205822186
2025-03-08 13:53:08.189,-0.0012164161365959,25.143131484266064
2025-03-08 13:53:08.209,-0.0013698559835137,14.671937831218992
2025-03-08 13:53:08.228,-0.001411428747089,8.520713247460758
2025-03-08 13:53:08.248,-0.0013102246553191,6.477892984462784
2025-03-08 13:53:08.268,-0.00106733669966,7.758971983554877
2025-03-08 13:53:08.287,-0.0007188235243498,11.127395999180798
2025-03-08 13:53:08.307,-0.0003294501402244,15.078369584591895
2025-03-08 13:53:08.326,2.221453541843258e-05,18.06171503328969
2025-03-08 13:53:08.346,0.0002635570378338,18.71147009248136
2025-03-08 13:53:08.365,0.0003464301575531,16.046441434969736
2025-03-08 13:53:08.385,0.0002585138592714,9.608798408863874
2025-03-08 13:53:08.404,2.450642077147965e-05,-0.4830658440545881
2025-03-08 13:53:08.424,-0.0003019592508123,-13.57700091732379
2025-03-08 13:53:08.443,-0.0006518479084639,-28.61725444337614
2025-03-08 13:53:08.463,-0.0009550395550521,-44.33705345466452
2025-03-08 13:53:08.482,-0.0011520252362786,-59.47401123955489
2025-03-08 13:53:08.502,-0.0012019399088039,-72.96217050561529
2025-03-08 13:53:08.521,-0.0010878104010054,-84.05933253326941
2025-03-08 13:53:08.541,-0.0008202158872397,-92.38513951953828
2025-03-08 13:53:08.561,-0.0004393217785505,-97.87016619091996
2025-03-08 13:53:08.580,-1.3579386793227843e-05,-100.64126187616525
2025-03-08 13:53:08.600,0.0003673494453799,-100.88500617829423
2025-03-08 13:53:08.619,0.0006070013920489,-98.7338267375256
2025-03-08 13:53:08.639,0.0006232019855797,-94.20793579464024
2025-03-08 13:53:08.658,0.0003723600509509,-87.22580984668888
2025-03-08 13:53:08.678,-0.0001292490121428,-77.67417095526332
2025-03-08 13:53:08.697,-0.0007950847547115,-65.51254603413597
2025-03-08 13:53:08.717,-0.0014757447436523,-50.88158393824919
2025-03-08 13:53:08.736,-0.0019864230452072,-34.18794889116915
2025-03-08 13:53:08.756,-0.0021493863527448,-16.14745511230927
2025-03-08 13:53:08.775,-0.001839947416285,2.222959173382051
2025-03-08 13:53:08.795,-0.0010222045835424,19.66728240211718
2025-03-08 13:53:08.814,0.0002361985770997,34.804197321673634
2025-03-08 13:53:08.834,0.0017745961435732,46.28394855923161
2025-03-08 13:53:08.854,0.0033721203727549,52.97102060156115
2025-03-08 13:53:08.873,0.0047938371242513,54.12585723197314
2025-03-08 13:53:08.893,0.0058380199804064,49.552588629678965
2025-03-08 13:53:08.912,0.0063729179142577,39.68107435100384
2025-03-08 13:53:08.932,0.0063553712229588,25.562120158948872
2025-03-08 13:53:08.951,0.0058293498823712,8.771425971657223
2025-03-08 13:53:08.971,0.004907660654837,-8.765279000227197
2025-03-08 13:53:08.990,0.0037433012658135,-25.001187851188643
2025-03-08 13:53:09.010,0.0024979894123094,-38.02054593563936
2025-03-08 13:53:09.029,0.0013145853129038,-46.28182340117382
2025-03-08 13:53:09.049,0.000298027002784,-48.821521860770055
2025-03-08 13:53:09.068,-0.0004932344298067,-45.39133776839918
2025-03-08 13:53:09.088,-0.0010457834761759,-36.50587433094219
2025-03-08 13:53:09.107,-0.0013821519591836,-23.385569167825143
2025-03-08 13:53:09.127,-0.0015475479331007,-7.792009265476822
2025-03-08 13:53:09.146,-0.001595954385302,8.229557973467848
2025-03-08 13:53:09.166,-0.0015783854032192,22.66591511503156
2025-03-08 13:53:09.186,-0.0015348980794366,33.858381403415734
2025-03-08 13:53:09.205,-0.0014908273753314,40.77244941897289
2025-03-08 13:53:09.225,-0.0014568742376979,43.15910659567473
2025-03-08 13:53:09.244,-0.0014321214687355,41.57032354759127
2025-03-08 13:53:09.264,-0.0014087076220067,37.21993717275959
2025-03-08 13:53:09.283,-0.0013767782424643,31.714208299120465
2025-03-08 13:53:09.303,-0.0013285298234821,26.705608183195864
2025-03-08 13:53:09.322,-0.0012606309690959,23.541801178216915
2025-03-08 13:53:09.342,-0.0011748556974694,22.984991873462963
2025-03-08 13:53:09.361,-0.0010771930375792,25.063740268139817
2025-03-08 13:53:09.381,-0.0009759402521465,29.09203058795021
2025-03-08 13:53:09.400,-0.0008793949325631,33.85342489722595
2025-03-08 13:53:09.420,-0.0007937827072478,37.90860674175383
2025-03-08 13:53:09.439,-0.0007219730707719,39.95204590227373
2025-03-08 13:53:09.459,-0.000663293454513,39.12846174785327
2025-03-08 13:53:09.479,-0.0006143692166616,35.22955939773616
2025-03-08 13:53:09.498,-0.000570547416552,28.72508006600881
2025-03-08 13:53:09.518,-0.0005273108743761,20.6288241710454
2025-03-08 13:53:09.537,-0.000481239922434,12.244409776527196
2025-03-08 13:53:09.557,-0.0004304077378404,4.863870449630638
2025-03-08 13:53:09.576,-0.0003743696212535,-0.501825293749999
2025-03-08 13:53:09.596,-0.0003139779443291,-3.2972488878637503
2025-03-08 13:53:09.615,-0.0002511527816741,-3.4708608189080694
2025-03-08 13:53:09.635,-0.0001886092185784,-1.404024940024143
2025-03-08 13:53:09.654,-0.0001295032753964,2.240274124733656
2025-03-08 13:53:09.674,-7.700622481556044e-05,6.6931003482422815
2025-03-08 13:53:09.693,-3.3870141192062564e-05,11.226623204588888
2025-03-08 13:53:09.713,-2.0553693119501e-06,15.239639771234394
2025-03-08 13:53:09.732,1.7530214843537488e-05,18.277140384661667
2025-03-08 13:53:09.752,2.514772695875588e-05,20.00500285811618
2025-03-08 13:53:09.772,2.2174061260089217e-05,20.1739581743744
2025-03-08 13:53:09.791,1.0862335685329757e-05,18.60376461389172
2025-03-08 13:53:09.811,-6.073129445135881e-06,15.202022453084355
2025-03-08 13:53:09.830,-2.598119324028945e-05,10.010402323286147
2025-03-08 13:53:09.850,-4.677216525016855e-05,3.254029211846733
2025-03-08 13:53:09.869,-6.721467544861575e-05,-4.63537972219524
2025-03-08 13:53:09.889,-8.689117156889804e-05,-13.04362430344186
2025-03-08 13:53:09.908,-0.0001057890459378,-21.248827350295414
2025-03-08 13:53:09.928,-0.000123664737722,-28.53164384407121
2025-03-08 13:53:09.947,-0.0001394531969373,-34.29318346072898
2025-03-08 13:53:09.967,-0.0001510240901123,-38.15084316530968
2025-03-08 13:53:09.986,-0.0001554662935237,-39.98982065226522
2025-03-08 13:53:10.006,-0.0001498578131741,-39.96143702288967
2025-03-08 13:53:10.025,-0.0001322618570769,-38.43351067459883
2025-03-08 13:53:10.045,-0.0001025873577875,-35.90867681104736
2025-03-08 13:53:10.064,-6.300053099388124e-05,-32.93140625568343
2025-03-08 13:53:10.084,-1.773889286131865e-05,-30.003300794289046
2025-03-08 13:53:10.104,2.7610679526633437e-05,-27.52046544317693
2025-03-08 13:53:10.123,6.714362946966292e-05,-25.738759687491925
2025-03-08 13:53:10.143,9.571229492046838e-05,-24.76504851754921
2025-03-08 13:53:10.162,0.0001098541864347,-24.56728225539104
2025-03-08 13:53:10.182,0.0001084808614237,-24.994524000176867
2025-03-08 13:53:10.201,9.32587033118668e-05,-25.799953222132384
2025-03-08 13:53:10.221,6.857682547032864e-05,-26.664169987698923
2025-03-08 13:53:10.240,4.099099464977e-05,-27.220587409797822
2025-03-08 13:53:10.260,1.813392793744433e-05,-27.087000995173742
2025-03-08 13:53:10.279,7.276272887788925e-06,-25.906268242552024
2025-03-08 13:53:10.299,1.389036269980679e-05,-23.394857264321917
2025-03-08 13:53:10.318,4.058053284727279e-05,-19.392771170546588
2025-03-08 13:53:10.338,8.658839693934362e-05,-13.904491729661611
2025-03-08 13:53:10.357,0.0001478865980748,-7.119966665797886
2025-03-08 13:53:10.377,0.0002177692572398,0.5921952472068525
2025-03-08 13:53:10.397,0.0002878352412144,8.721168906290535
2025-03-08 13:53:10.416,0.0003492529957704,16.674892184033496
2025-03-08 13:53:10.436,0.0003941333006607,23.85471303536872
2025-03-08 13:53:10.455,0.000416753560249,29.72999495584147
2025-03-08 13:53:10.475,0.0004143675565427,33.899787213716515
2025-03-08 13:53:10.494,0.0003874514760206,36.132622357696384
2025-03-08 13:53:10.514,0.0003394270466933,36.38103412280039
2025-03-08 13:53:10.533,0.000276043942745,34.77257822272597
2025-03-08 13:53:10.553,0.0002046116371317,31.582553984379487
2025-03-08 13:53:10.572,0.0001331675940776,27.194811809316946
2025-03-08 13:53:10.592,6.95620121409271e-05,22.05647104186523
2025-03-08 13:53:10.611,2.043703224040368e-05,16.631062636894686
2025-03-08 13:53:10.631,-9.805214273465702e-06,11.353550666633328
2025-03-08 13:53:10.650,-1.981629821118747e-05,6.590458721015079
2025-03-08 13:53:10.670,-1.1633731991719104e-05,2.608859839187371
2025-03-08 13:53:10.690,9.633440928107417e-06,-0.4414426372752838
2025-03-08 13:53:10.709,3.675593280149712e-05,-2.5286751716395863
2025-03-08 13:53:10.729,6.178488010446523e-05,-3.7212033146411887
2025-03-08 13:53:10.748,7.75977070034864e-05,-4.15336070359198
2025-03-08 13:53:10.768,7.926059638746812e-05,-3.9817822715759297
2025-03-08 13:53:10.787,6.492362713693833e-05,-3.3421198486525947
2025-03-08 13:53:10.807,3.604943720888036e-05,-2.316469403373609
2025-03-08 13:53:10.826,-3.0781616444713355e-06,-0.9194312713963028
2025-03-08 13:53:10.846,-4.641065984148264e-05,0.8937582792552231
2025-03-08 13:53:10.865,-8.742578383289828e-05,3.1989168479934325
2025-03-08 13:53:10.885,-0.000120291465712,6.061252298088002
2025-03-08 13:53:10.904,-0.0001406578031237,9.490575583364686
2025-03-08 13:53:10.924,-0.0001460043207026,13.40462527321358
2025-03-08 13:53:10.943,-0.0001356121864078,17.610047941909436
2025-03-08 13:53:10.963,-0.000110307351569,21.80670081825818
2025-03-08 13:53:10.982,-7.213237078174261e-05,25.616005135552847
2025-03-08 13:53:11.002,-2.4069966089349333e-05,28.629277775064786
2025-03-08 13:53:11.022,3.0126165112704677e-05,30.468114499900103
2025-03-08 13:53:11.041,8.603937942472717e-05,30.84635873252039
2025-03-08 13:53:11.061,0.0001387984539299,29.622152101876704
2025-03-08 13:53:11.080,0.0001835843139762,26.82928563511803
2025-03-08 13:53:11.100,0.0002164805443487,22.679884420482736
2025-03-08 13:53:11.119,0.0002354126857327,17.535457643966147
2025-03-08 13:53:11.139,0.0002407176470328,11.849942176348447
2025-03-08 13:53:11.158,0.0002349960120114,6.095088292473827
2025-03-08 13:53:11.178,0.0002222622087164,0.6833847899322345
2025-03-08 13:53:11.197,0.0002067483985089,-4.094993344869994
2025-03-08 13:53:11.217,0.0001918394958783,-8.10763325676783
2025-03-08 13:53:11.236,0.0001795007420291,-11.380564185478804
2025-03-08 13:53:11.256,0.000170292575074,-14.065265158039432
2025-03-08 13:53:11.275,0.0001637975100921,-16.381057961222794
2025-03-08 13:53:11.295,0.0001591686090751,-18.54756294486164
2025-03-08 13:53:11.315,0.0001555888967929,-20.723780120724
2025-03-08 13:53:11.334,0.0001525800793951,-22.96814935178475
2025-03-08 13:53:11.354,0.0001501675191882,-25.228346252020792
2025-03-08 13:53:11.373,0.0001488797755786,-27.362029058766428
2025-03-08 13:53:11.393,0.0001495372590134,-29.18201109615734
2025-03-08 13:53:11.412,0.0001528478875268,-30.513100693783983
2025-03-08 13:53:11.432,0.0001589450578045,-31.244574655521028
2025-03-08 13:53:11.451,0.0001670716935883,-31.36291834468592
2025-03-08 13:53:11.471,0.0001755749882737,-30.95433209541113
2025-03-08 13:53:11.490,0.0001822538180128,-30.174821237272667
2025-03-08 13:53:11.510,0.0001849526488981,-29.195599589651938
2025-03-08 13:53:11.529,0.0001821809752447,-28.14033420240271
2025-03-08 13:53:11.549,0.0001735162845382,-27.035470568172432
2025-03-08 13:53:11.568,0.0001596489538674,-25.79306431537956
2025-03-08 13:53:11.588,0.0001420934619822,-24.23630377438276
2025-03-08 13:53:11.607,0.000122715539578,-22.163013611935938
2025-03-08 13:53:11.627,0.0001032519508829,-19.426880412618534
2025-03-08 13:53:11.647,8.495244269302595e-05,-16.006827914433632
2025-03-08 13:53:11.666,6.84026241369337e-05,-12.037246260408825
2025-03-08 13:53:11.686,5.352409325785304e-05,-7.785893996401213
2025-03-08 13:53:11.705,3.970650420958144e-05,-3.586523482662937
2025-03-08 13:53:11.725,2.6008420833300857e-05,0.2492611639126465
2025-03-08 13:53:11.744,1.136686298595242e-05,3.509207561655801
2025-03-08 13:53:11.764,-5.227343365670741e-06,6.120660459418887
2025-03-08 13:53:11.783,-2.4608316723292235e-05,8.14342336049139
2025-03-08 13:53:11.803,-4.736690751005932e-05,9.723478706142355
2025-03-08 13:53:11.822,-7.382108285156474e-05,11.0298323318082
2025-03-08 13:53:11.842,-0.0001040071217883,12.200582087667035
2025-03-08 13:53:11.861,-0.0001376796766305,13.31686928123874
2025-03-08 13:53:11.881,-0.0001743202487124,14.408572359746344
2025-03-08 13:53:11.900,-0.0002131656326488,15.480551350630051
2025-03-08 13:53:11.920,-0.0002532750724648,16.53981353688134
2025-03-08 13:53:11.940,-0.000293653161581,17.60561533715618
2025-03-08 13:53:11.959,-0.0003334332754907,18.69499825186431
2025-03-08 13:53:11.979,-0.0003721051012923,19.790462997406568
2025-03-08 13:53:11.998,-0.0004097444057165,20.807821386725376
2025-03-08 13:53:12.018,-0.000447180846723,21.585501863303577
2025-03-08 13:53:12.037,-0.0004860286677663,21.90993052152629
2025-03-08 13:53:12.057,-0.0005285127230742,21.577268523017395
2025-03-08 13:53:12.076,-0.0005770522915343,20.475089139118165
2025-03-08 13:53:12.096,-0.0006336159905984,18.655125926589204
2025-03-08 13:53:12.115,-0.0006989247650138,16.36549578031205
2025-03-08 13:53:12.135,-0.0007716422499038,14.019998365383405
2025-03-08 13:53:12.154,-0.0008477347339944,12.101221812024573
2025-03-08 13:53:12.174,-0.0009201885560537,11.017582155592288
2025-03-08 13:53:12.193,-0.0009792287055519,10.954233114003824
2025-03-08 13:53:12.213,-0.0010130904747204,11.766219972501611
2025-03-08 13:53:12.233,-0.0010092873300201,12.954647673567342
2025-03-08 13:53:12.252,-0.0009562538608769,13.744033178521786
2025-03-08 13:53:12.272,-0.0008452570454436,13.248479554601133
2025-03-08 13:53:12.291,-0.0006724952047867,10.686408791057
2025-03-08 13:53:12.311,-0.0004412152682086,5.588224456191917
2025-03-08 13:53:12.330,-0.0001634483471415,-2.056442096296945
2025-03-08 13:53:12.350,0.0001392545556861,-11.747270366038588
2025-03-08 13:53:12.369,0.0004366906344077,-22.526978425837356
2025-03-08 13:53:12.389,0.000692747536993,-33.12471529199777
2025-03-08 13:53:12.408,0.0008697642755487,-42.15594624745156
2025-03-08 13:53:12.428,0.0009337769482947,-48.337803635036565
2025-03-08 13:53:12.447,0.0008596775933171,-50.68073172791353
2025-03-08 13:53:12.467,0.0006353849572199,-48.62694437300505
2025-03-08 13:53:12.486,0.000264489197142,-42.1201325566431
2025-03-08 13:53:12.506,-0.0002325754261283,-31.604473559682354
2025-03-08 13:53:12.525,-0.0008182388514006,-17.960884064889598
2025-03-08 13:53:12.545,-0.001437887003692,-2.3940042838327327
2025-03-08 13:53:12.565,-0.0020208463494325,13.71365424405714
2025-03-08 13:53:12.584,-0.0024840384021064,28.961673232619358
2025-03-08 13:53:12.604,-0.0027404091502338,42.08511940866333
2025-03-08 13:53:12.623,-0.0027128690009367,52.08043255536852
2025-03-08 13:53:12.643,-0.0023517163586467,58.28637683716551
2025-03-08 13:53:12.662,-0.0016508242058242,60.41134199029456
2025-03-08 13:53:12.682,-0.0006570985192804,58.51173016901457
2025-03-08 13:53:12.701,0.0005305109553683,52.940302354577625
2025-03-08 13:53:12.721,0.0017731502604418,44.29090393733633
2025-03-08 13:53:12.740,0.0029135286153993,33.360522008013284
2025-03-08 13:53:12.760,0.0038032323216573,21.13142312845509
2025-03-08 13:53:12.779,0.0043308495148659,8.75428866651516
2025-03-08 13:53:12.799,0.0044443630621846,-2.4991768338981024
2025-03-08 13:53:12.818,0.0041612940225857,-11.340499100892634
2025-03-08 13:53:12.838,0.0035630411294796,-16.630535516941354
2025-03-08 13:53:12.858,0.0027749740021767,-17.583953667858673
2025-03-08 13:53:12.877,0.0019383685307909,-13.964454256156932
2025-03-08 13:53:12.897,0.0011818920822855,-6.213027415427596
2025-03-08 13:53:12.916,0.0005989152342813,4.539250899734417
2025-03-08 13:53:12.936,0.0002342092185237,16.595831725157172
2025-03-08 13:53:12.955,8.140677123147312e-05,27.94369036878488
2025-03-08 13:53:12.975,9.11867013687837e-05,36.581674192654525
2025-03-08 13:53:12.994,0.0001884036981027,40.86297214625488
2025-03-08 13:53:13.014,0.0002938607923754,39.78254627667874
2025-03-08 13:53:13.033,0.0003444094892727,33.153012908377306
2025-03-08 13:53:13.053,0.0003054695659757,21.63764047752924
2025-03-08 13:53:13.072,0.0001733143219794,6.63881810698924
2025-03-08 13:53:13.092,-3.1202973522010785e-05,-9.934080449603671
2025-03-08 13:53:13.111,-0.0002730201190748,-25.976759752437676
2025-03-08 13:53:13.131,-0.0005130041559205,-39.53286603918316
2025-03-08 13:53:13.151,-0.0007156914239064,-49.11540210927907
2025-03-08 13:53:13.170,-0.00085451430345,-53.95483125138964
2025-03-08 13:53:13.190,-0.0009149853097354,-54.12707431423427
2025-03-08 13:53:13.209,-0.0008958380558641,-50.52798046285757
2025-03-08 13:53:13.229,-0.0008078108914425,-44.68577523340669
2025-03-08 13:53:13.248,-0.0006702484730759,-38.43795625478782
2025-03-08 13:53:13.268,-0.0005065813823779,-33.535426642075585
2025-03-08 13:53:13.287,-0.0003400985775411,-31.261394133594287
2025-03-08 13:53:13.307,-0.0001908844817393,-32.15505131505271
2025-03-08 13:53:13.326,-7.396732441793604e-05,-35.90681104681742
2025-03-08 13:53:13.346,1.6388030237815185e-06,-41.44830931374792
2025-03-08 13:53:13.365,3.321232189096297e-05,-47.20985711367199
2025-03-08 13:53:13.385,2.3990117328148068e-05,-51.47718693981148
2025-03-08 13:53:13.404,-1.774553500213564e-05,-52.76080529446026
2025-03-08 13:53:13.424,-8.015288681288242e-05,-50.09819558402177
2025-03-08 13:53:13.443,-0.0001498945748307,-43.23494487978215
2025-03-08 13:53:13.463,-0.000214649950149,-32.66350444621926
2025-03-08 13:53:13.483,-0.0002656597361928,-19.526576718618223
2025-03-08 13:53:13.502,-0.0002996163907789,-5.410916653008265
2025-03-08 13:53:13.522,-0.0003191963995149,7.931875891279214
2025-03-08 13:53:13.541,-0.0003319075490685,18.8937328286716
2025-03-08 13:53:13.561,-0.0003475283770289,26.29731889687248
2025-03-08 13:53:13.580,-0.0003748516022203,29.607764405273
2025-03-08 13:53:13.600,-0.0004185208417325,29.019053966856244
2025-03-08 13:53:13.619,-0.000476656995036,25.38404609303477
2025-03-08 13:53:13.639,-0.0005398874652997,19.99181506585656
2025-03-08 13:53:13.658,-0.0005922169513344,14.2399393126381
2025-03-08 13:53:13.678,-0.0006137791670352,9.287760657479318
2025-03-08 13:53:13.697,-0.0005850041782429,5.791578207211183
2025-03-08 13:53:13.717,-0.0004913673092226,3.802469683035032
2025-03-08 13:53:13.736,-0.0003277489741023,2.855024066807394
2025-03-08 13:53:13.756,-0.0001014803611608,2.209576029914636
2025-03-08 13:53:13.776,0.0001666658077575,1.1578491071216603
2025-03-08 13:53:13.795,0.0004439636686885,-0.7162623661577365
2025-03-08 13:53:13.815,0.0006897195885081,-3.405513579002138
2025-03-08 13:53:13.834,0.0008613498887668,-6.5076704834612205
2025-03-08 13:53:13.854,0.000921733945712,-9.381220284827265
2025-03-08 13:53:13.873,0.0008466328623204,-11.353274296592703
2025-03-08 13:53:13.893,0.0006307068886588,-11.897011234781164
2025-03-08 13:53:13.912,0.0002907279195132,-10.72303815368447
2025-03-08 13:53:13.932,-0.0001349874964134,-7.7745647136099505
2025-03-08 13:53:13.951,-0.0005912629956863,-3.158329448152766
2025-03-08 13:53:13.971,-0.0010145290179603,2.935435934025579
2025-03-08 13:53:13.990,-0.0013440095070754,10.275949547762728
2025-03-08 13:53:14.010,-0.0015337092199305,18.5758830797742
2025-03-08 13:53:14.029,-0.0015624659269306,27.429009953119422
2025-03-08 13:53:14.049,-0.0014390868815027,36.24228761788034
2025-03-08 13:53:14.068,-0.0012004689977217,44.2138364937812
2025-03-08 13:53:14.088,-0.0009026474992131,50.39685591251563
2025-03-08 13:53:14.108,-0.0006071928994156,53.859608504685866
2025-03-08 13:53:14.127,-0.000367107827668,53.913513072025495
2025-03-08 13:53:14.147,-0.0002164258537097,50.34856475243467
2025-03-08 13:53:14.166,-0.0001659543142605,43.60012871746263
2025-03-08 13:53:14.186,-0.0002049863687556,34.78080443404884
2025-03-08 13:53:14.205,-0.0003069041417376,25.544428720224303
2025-03-08 13:53:14.225,-0.0004363209558769,17.79659955728788
2025-03-08 13:53:14.244,-0.0005562561189109,13.311979128030575
2025-03-08 13:53:14.264,-0.0006346089390365,13.34764407360704
2025-03-08 13:53:14.283,-0.0006493327662801,18.344418636487497
2025-03-08 13:53:14.303,-0.0005915823878513,27.78483860088864
2025-03-08 13:53:14.322,-0.0004662949766282,40.23669324533495
2025-03-08 13:53:14.342,-0.0002902505257289,53.56843109608884
2025-03-08 13:53:14.361,-8.826492861923498e-05,65.28848088406123
2025-03-08 13:53:14.381,0.000111590646364,72.9410840281826
2025-03-08 13:53:14.401,0.0002830039454906,74.48794502127363
2025-03-08 13:53:14.420,0.0004061452710567,68.61548268775734
2025-03-08 13:53:14.440,0.0004715540675707,54.926908128103605
2025-03-08 13:53:14.459,0.0004824295785697,34.00109821221158
2025-03-08 13:53:14.479,0.0004544323090135,7.3211874061784945
2025-03-08 13:53:14.498,0.0004123115416622,-22.908341668449875
2025-03-08 13:53:14.518,0.0003834505335933,-54.02721209295335
2025-03-08 13:53:14.537,0.0003897162980707,-83.23279401406003
2025-03-08 13:53:14.557,0.0004401871593271,-107.90290416609552
2025-03-08 13:53:14.576,0.0005275608671528,-125.88730784705608
2025-03-08 13:53:14.596,0.0006300109338012,-135.72865801629283
2025-03-08 13:53:14.615,0.0007183768931936,-136.78208092614798
2025-03-08 13:53:14.635,0.0007666056441069,-129.22098142527798
2025-03-08 13:53:14.654,0.000762053319522,-113.94272058824691
2025-03-08 13:53:14.674,0.0007120977941527,-92.411947428131
2025-03-08 13:53:14.694,0.000644554632636,-66.48859272206778
2025-03-08 13:53:14.713,0.0006012869625383,-38.27547234511319
2025-03-08 13:53:14.733,0.0006265420081647,-9.993762189042313
2025-03-08 13:53:14.752,0.0007532096630669,16.131010179979413
2025-03-08 13:53:14.772,0.0009908493901864,38.00038173257762
2025-03-08 13:53:14.791,0.0013189428392797,53.81055938317375
2025-03-08 13:53:14.811,0.0016877518382761,62.2509778950601
2025-03-08 13:53:14.830,0.0020276053057165,62.7005227522418
2025-03-08 13:53:14.850,0.0022652318080992,55.3691888346478
2025-03-08 13:53:14.869,0.0023429369071083,41.33372975281996
2025-03-08 13:53:14.889,0.0022342134120159,22.438537293587128
2025-03-08 13:53:14.908,0.0019498317637198,1.0688809850566747
2025-03-08 13:53:14.928,0.0015322859689991,-20.1622266146305
2025-03-08 13:53:14.947,0.0010415673638743,-38.75281925629511
2025-03-08 13:53:14.967,0.0005384310376885,-52.61621581378209
2025-03-08 13:53:14.986,7.115141813701775e-05,-60.3078183681791
2025-03-08 13:53:15.006,-0.0003308755326724,-61.15621281901784
2025-03-08 13:53:15.026,-0.0006565216051247,-55.30071842722743
2025-03-08 13:53:15.045,-0.000907362031472,-43.64605759978671
2025-03-08 13:53:15.065,-0.0010899703675737,-27.742152699708704
2025-03-08 13:53:15.084,-0.001208649250915,-9.59145490109896
2025-03-08 13:53:15.104,-0.0012606291090693,8.612073380266823
2025-03-08 13:53:15.123,-0.0012351060290631,24.793765786645327
2025-03-08 13:53:15.143,-0.0011164408246924,37.31706452218437
2025-03-08 13:53:15.162,-0.000890377331442,45.24871698728313
2025-03-08 13:53:15.182,-0.000550910055899,48.505634713140495
2025-03-08 13:53:15.201,-0.0001052973474411,47.838231925811954
2025-03-08 13:53:15.221,0.0004240703796584,44.64230213836975
2025-03-08 13:53:15.240,0.0010003648166912,40.63457891308547
2025-03-08 13:53:15.260,0.0015738124444485,37.46341890872957
2025-03-08 13:53:15.279,0.0020828555834393,36.34510657857005
2025-03-08 13:53:15.299,0.002455957148408,37.81144202859443
2025-03-08 13:53:15.319,0.002616622228632,41.62570345611415
2025-03-08 13:53:15.338,0.0024934499747212,46.88017333283005
2025-03-08 13:53:15.358,0.0020341143848265,52.24257376770529
2025-03-08 13:53:15.377,0.0012192607160533,56.2842254163865
2025-03-08 13:53:15.397,7.166919180065535e-05,57.80831534791937
2025-03-08 13:53:15.416,-0.0013418641790576,56.103809065550415
2025-03-08 13:53:15.436,-0.0029154571667832,51.07403418838685
2025-03-08 13:53:15.455,-0.0045137409533625,43.220893606918
2025-03-08 13:53:15.475,-0.0059841829601757,33.49872322609543
2025-03-08 13:53:15.494,-0.0071710588712563,23.079527445431367
2025-03-08 13:53:15.514,-0.0079305747827949,13.088085359763175
2025-03-08 13:53:15.533,-0.0081469844296732,4.368302079085878
2025-03-08 13:53:15.553,-0.0077498356712118,-2.667625472149646
2025-03-08 13:53:15.572,-0.0067320498743644,-8.074644291637783
2025-03-08 13:53:15.592,-0.0051664050288723,-12.28796527060101
2025-03-08 13:53:15.612,-0.0032144866483038,-15.93774215338044
2025-03-08 13:53:15.631,-0.0011197039421623,-19.619865625453038
2025-03-08 13:53:15.651,0.0008224415364505,-23.696188886135605
2025-03-08 13:53:15.670,0.0023169587033055,-28.19130520695733
2025-03-08 13:53:15.690,0.0031353634251084,-32.818319812473604
2025-03-08 13:53:15.709,0.0031774492960161,-37.11518909868923
2025-03-08 13:53:15.729,0.0025086779220175,-40.62971500503037
2025-03-08 13:53:15.748,0.0013579525078353,-43.07682943151183
2025-03-08 13:53:15.768,7.17472514418474e-05,-44.41282703323992
2025-03-08 13:53:15.787,-0.0009656412506004,-44.81467924348807
2025-03-08 13:53:15.807,-0.0014245627304996,-44.594071083614125
2025-03-08 13:53:15.826,-0.0011095200972385,-44.09486552431852
2025-03-08 13:53:15.846,-4.337558282916705e-06,-43.6145810786584
2025-03-08 13:53:15.865,0.0017271328806973,-43.36625573766726
2025-03-08 13:53:15.885,0.0037816795291659,-43.473642012094736
2025-03-08 13:53:15.904,0.005785653526907,-43.98146590750061
2025-03-08 13:53:15.924,0.0073745806212127,-44.86460529906107
2025-03-08 13:53:15.944,0.0082663093600726,-46.02903241738931
2025-03-08 13:53:15.963,0.0083137133270414,-47.30567201424212
2025-03-08 13:53:15.983,0.0075273829650814,-48.442547048767466
2025-03-08 13:53:16.002,0.0060641712219462,-49.102033458292674
2025-03-08 13:53:16.022,0.0041843144831726,-48.87107635712411
2025-03-08 13:53:16.041,0.002187758469436,-47.29263446379742
2025-03-08 13:53:16.061,0.0003469127120597,-43.92397577792764
2025-03-08 13:53:16.080,-0.0011452784813255,-38.42004020591036
2025-03-08 13:53:16.100,-0.0021985107543781,-30.62904704070962
2025-03-08 13:53:16.119,-0.002817048478858,-20.676809151295757
2025-03-08 13:53:16.139,-0.0030692314794945,-9.01109875049828
2025-03-08 13:53:16.158,-0.0030496727889565,3.617944848281201
2025-03-08 13:53:16.178,-0.0028483337820208,16.25043340688821
2025-03-08 13:53:16.197,-0.0025342708867552,27.87032252638608
2025-03-08 13:53:16.217,-0.0021539444726925,37.5880034267645
2025-03-08 13:53:16.237,-0.0017384466923243,44.80866434442471
2025-03-08 13:53:16.256,-0.0013127320150611,49.34494414906135
2025-03-08 13:53:16.276,-0.0009020261685189,51.44658410220121
2025-03-08 13:53:16.295,-0.0005335674049199,51.74137068585054
2025-03-08 13:53:16.315,-0.0002339282822185,51.1034998975676
2025-03-08 13:53:16.334,-2.33542339276966e-05,50.48122507504786
2025-03-08 13:53:16.354,9.048732826000477e-05,50.721761159870496
2025-03-08 13:53:16.373,0.0001163334332309,52.42760119786563
2025-03-08 13:53:16.393,7.831449427169823e-05,55.86671908041664
2025-03-08 13:53:16.412,9.817988071241416e-06,60.94333137486251
2025-03-08 13:53:16.432,-5.5519101397956886e-05,67.22118270409955
2025-03-08 13:53:16.451,-9.214764003025644e-05,73.98300085301656
2025-03-08 13:53:16.471,-8.743111783185728e-05,80.31007336422134
2025-03-08 13:53:16.490,-4.207886271046887e-05,85.17207592009636
2025-03-08 13:53:16.510,3.283889262223784e-05,87.52366660578662
2025-03-08 13:53:16.529,0.0001204622363474,86.40650478049625
2025-03-08 13:53:16.549,0.0002026063372508,81.05249962897615
2025-03-08 13:53:16.569,0.0002631071539253,70.9790051543136
2025-03-08 13:53:16.588,0.000289766513972,56.06380354043845
2025-03-08 13:53:16.608,0.0002750714496028,36.5901713923249
2025-03-08 13:53:16.627,0.0002160766000906,13.259008586065084
2025-03-08 13:53:16.647,0.0001140601194295,-12.829109968491576
2025-03-08 13:53:16.666,-2.5295647016626255e-05,-40.21877421218331
2025-03-08 13:53:16.686,-0.0001908864102961,-67.1737005572765
2025-03-08 13:53:16.705,-0.0003651133898501,-91.7885125576042
2025-03-08 13:53:16.725,-0.0005243919279333,-112.1480824414264
2025-03-08 13:53:16.744,-0.0006424652974154,-126.53518535952487
2025-03-08 13:53:16.764,-0.0006961767984624,-133.66820353495515
2025-03-08 13:53:16.783,-0.0006718181063652,-132.92756259949982
2025-03-08 13:53:16.803,-0.0005697577237721,-124.51343692730538
2025-03-08 13:53:16.822,-0.0004058569410428,-109.47956793275848
2025-03-08 13:53:16.842,-0.000209445208282,-89.61387572239536
2025-03-08 13:53:16.862,-1.851985823452248e-05,-67.17904934882483
2025-03-08 13:53:16.881,0.0001268756156875,-44.56850391446339
2025-03-08 13:53:16.901,0.0001920926827084,-23.95711603544169
2025-03-08 13:53:16.920,0.0001549491032834,-7.022729999579818
2025-03-08 13:53:16.940,1.0976965103174752e-05,5.213301460311445
2025-03-08 13:53:16.959,-0.0002245519004875,12.41717677302109
2025-03-08 13:53:16.979,-0.0005185817190994,14.869670966833883
2025-03-08 13:53:16.998,-0.0008258955278579,13.330789721462963
2025-03-08 13:53:17.018,-0.0010970632466507,8.883071958654591
2025-03-08 13:53:17.037,-0.0012868382487615,2.7825362097474584
2025-03-08 13:53:17.057,-0.0013611957928118,-3.668135937287273
2025-03-08 13:53:17.076,-0.0013017243655226,-9.2204969754757
2025-03-08 13:53:17.096,-0.0011069129596184,-12.75873856781252
2025-03-08 13:53:17.115,-0.0007908791051092,-13.364715692910137
2025-03-08 13:53:17.135,-0.0003808247931388,-10.382498580683077
2025-03-08 13:53:17.155,8.551175472431007e-05,-3.49285022123632
2025-03-08 13:53:17.174,0.0005619683480423,7.204020643046688
2025-03-08 13:53:17.194,0.0009963578522043,21.1175260999273
2025-03-08 13:53:17.213,0.0013346649722997,37.14309212262397
2025-03-08 13:53:17.233,0.0015282474004663,53.72284170003371
2025-03-08 13:53:17.252,0.0015435804904665,69.00936482993731
2025-03-08 13:53:17.272,0.0013718585812634,81.11830266478445
2025-03-08 13:53:17.291,0.0010346049562548,88.42180518200763
2025-03-08 13:53:17.311,0.0005823994154516,89.81664167705479
2025-03-08 13:53:17.330,8.642454392004493e-05,84.90595299813181
2025-03-08 13:53:17.350,-0.0003747767347234,74.05892780888415
2025-03-08 13:53:17.369,-0.0007296134934536,58.34675944366258
2025-03-08 13:53:17.389,-0.0009256141868899,39.38279028050521
2025-03-08 13:53:17.408,-0.0009377221469327,19.109541382082732
2025-03-08 13:53:17.428,-0.0007721175478341,-0.4274896721834852
2025-03-08 13:53:17.447,-0.0004651873981846,-17.29366598526851
2025-03-08 13:53:17.467,-7.719789963241988e-05,-29.855670387597694
2025-03-08 13:53:17.487,0.0003191927690947,-36.94375318863207
2025-03-08 13:53:17.506,0.0006539064289383,-37.9776748480108
2025-03-08 13:53:17.526,0.0008744081470234,-33.041240900000304
2025-03-08 13:53:17.545,0.0009563015858418,-22.886653058132072
2025-03-08 13:53:17.565,0.0009062228069421,-8.85347519510652
2025-03-08 13:53:17.584,0.0007564206968615,7.301973163097907
2025-03-08 13:53:17.604,0.0005533945796532,23.654260976885727
2025-03-08 13:53:17.623,0.0003446101074587,38.4012610036431
2025-03-08 13:53:17.643,0.0001672109750413,50.15052468012949
2025-03-08 13:53:17.662,4.149742651788412e-05,58.13794967975416
2025-03-08 13:53:17.682,-2.957850644443086e-05,62.32190550918213
2025-03-08 13:53:17.701,-5.54677719252394e-05,63.32149863706017
2025-03-08 13:53:17.721,-5.015745170132528e-05,62.20951766617679
2025-03-08 13:53:17.740,-2.5125246409860263e-05,60.21368016205462
2025-03-08 13:53:17.760,1.3792568554583633e-05,58.40561995346937
2025-03-08 13:53:17.780,6.503277965952861e-05,57.4551738095768
2025-03-08 13:53:17.799,0.0001275510529574,57.50156473736117
2025-03-08 13:53:17.819,0.0001977016943443,58.15662945983811
2025-03-08 13:53:17.838,0.0002684538558277,58.622315815989296
2025-03-08 13:53:17.858,0.0003305968470931,57.88304754784424
2025-03-08 13:53:17.877,0.0003746053359595,54.92439223871981
2025-03-08 13:53:17.897,0.0003923021704866,48.9307300623509
2025-03-08 13:53:17.916,0.0003783132794232,39.424367336047865
2025-03-08 13:53:17.936,0.0003314695501542,26.32570091395878
2025-03-08 13:53:17.955,0.000255757270386,9.9360969236116
2025-03-08 13:53:17.975,0.0001599907321263,-9.134289738872273
2025-03-08 13:53:17.994,5.578448822737085e-05,-30.06094823106292
2025-03-08 13:53:18.014,-4.552307848368996e-05,-51.89313729658457
2025-03-08 13:53:18.033,-0.0001355256387268,-73.62304855280594
2025-03-08 13:53:18.053,-0.0002097893182728,-94.24116817616492
2025-03-08 13:53:18.073,-0.0002673089933447,-112.79264600856082
2025-03-08 13:53:18.092,-0.0003095039437602,-128.44654251829937
2025-03-08 13:53:18.112,-0.000339852624821,-140.57716184160716
2025-03-08 13:53:18.131,-0.0003642236661981,-148.8418761865866
2025-03-08 13:53:18.151,-0.0003909349426816,-153.23113699548682
2025-03-08 13:53:18.170,-0.0004295245534851,-154.06875530905276
2025-03-08 13:53:18.190,-0.0004881637599636,-151.953189089654
2025-03-08 13:53:18.209,-0.0005706919626675,-147.64749420310025
2025-03-08 13:53:18.229,-0.0006744913347947,-141.93970829594713
2025-03-08 13:53:18.248,-0.0007897805799112,-135.5026144201544
2025-03-08 13:53:18.268,-0.000900179563489,-128.7816030771536
2025-03-08 13:53:18.287,-0.0009843389875989,-121.93318292528082
2025-03-08 13:53:18.307,-0.0010189214272372,-114.82636367127532
2025-03-08 13:53:18.326,-0.0009833568276193,-107.10625692692702
2025-03-08 13:53:18.346,-0.0008659255166411,-98.30557718218304
2025-03-08 13:53:18.365,-0.0006693109574995,-87.97784646199348
2025-03-08 13:53:18.385,-0.0004130673013562,-75.81964592472946
2025-03-08 13:53:18.405,-0.0001312983052469,-61.751715299868046
2025-03-08 13:53:18.424,0.0001341745618204,-45.94072268846109
2025-03-08 13:53:18.444,0.0003430598456433,-28.76114320632165
2025-03-08 13:53:18.463,0.0004655109437364,-10.71319000404972
2025-03-08 13:53:18.483,0.0004884760463548,7.677199429209653
2025-03-08 13:53:18.502,0.0004183070739303,25.94838071525551
2025-03-08 13:53:18.522,0.000279450712036,43.760037827366176
2025-03-08 13:53:18.541,0.0001097087059769,60.90372468624973
2025-03-08 13:53:18.561,-4.704498458661099e-05,77.2650025950834
2025-03-08 13:53:18.580,-0.0001493810362415,92.74701030004104
2025-03-08 13:53:18.600,-0.000166273068399,107.17563829966156
2025-03-08 13:53:18.619,-8.263138485517873e-05,120.21390676610442
2025-03-08 13:53:18.639,9.86627443345948e-05,131.31578181140694
2025-03-08 13:53:18.658,0.0003579734426227,139.74533595221877
2025-03-08 13:53:18.678,0.0006622686605306,144.67447049479344
2025-03-08 13:53:18.698,0.0009697258031206,145.35223337838215
2025-03-08 13:53:18.717,0.0012354559905732,141.31505537021891
2025-03-08 13:53:18.737,0.0014184157218978,132.5867227084909
2025-03-08 13:53:18.756,0.001488740258068,119.8076118562813
2025-03-08 13:53:18.776,0.0014336207967576,104.2412028652388
2025-03-08 13:53:18.795,0.0012596628573161,87.63349117087826
2025-03-08 13:53:18.815,0.0009908408998011,71.94096479843044
2025-03-08 13:53:18.834,0.0006629413860565,58.98227123436635
2025-03-08 13:53:18.854,0.0003165096483332,50.093976405043286
2025-03-08 13:53:18.873,-9.821957137018497e-06,45.873385396571685
2025-03-08 13:53:18.893,-0.0002846242952109,46.07042047421289
2025-03-08 13:53:18.912,-0.0004872237668019,49.65299988171482
2025-03-08 13:53:18.932,-0.000609224636123,55.02831442924324
2025-03-08 13:53:18.951,-0.0006537079366097,60.36770481485068
2025-03-08 13:53:18.971,-0.0006323313101891,63.962550350332506
2025-03-08 13:53:18.990,-0.000561430157028,64.53451844402326
2025-03-08 13:53:19.010,-0.0004586392079845,61.43481154292155
2025-03-08 13:53:19.030,-0.0003409524783744,54.69206732455192
2025-03-08 13:53:19.049,-0.000223933178261,44.904492398974256
2025-03-08 13:53:19.069,-0.0001210459713198,33.01222109048824
2025-03-08 13:53:19.088,-4.245453682318812e-05,20.01963147150161
2025-03-08 13:53:19.108,6.356731238332638e-06,6.75188487939104
2025-03-08 13:53:19.127,2.518798344195429e-05,-6.282259439573018
2025-03-08 13:53:19.147,1.840469185293272e-05,-18.88641933133188
2025-03-08 13:53:19.166,-6.726445329823294e-06,-31.04683912046033
2025-03-08 13:53:19.186,-4.172955211789541e-05,-42.7377375140598
2025-03-08 13:53:19.205,-7.804871958932241e-05,-53.74448357218612
2025-03-08 13:53:19.225,-0.0001077896727383,-63.57684386075161
2025-03-08 13:53:19.244,-0.0001245976986124,-71.50745790424673
2025-03-08 13:53:19.264,-0.0001247645532497,-76.72377361652904
2025-03-08 13:53:19.283,-0.0001079842001053,-78.54327391340158
2025-03-08 13:53:19.303,-7.709074213242116e-05,-76.62430314493282
2025-03-08 13:53:19.323,-3.680162369928823e-05,-71.11119404912762
2025-03-08 13:53:19.342,7.717081575903702e-06,-62.67651831905303
2025-03-08 13:53:19.362,5.157686266504311e-05,-52.45345632209975
2025-03-08 13:53:19.381,9.005772836496049e-05,-41.87666149524264
2025-03-08 13:53:19.401,0.0001183782378751,-32.46518810476621
2025-03-08 13:53:19.420,0.0001321308369885,-25.58624246009965
2025-03-08 13:53:19.440,0.0001283951430772,-22.23689655787108
2025-03-08 13:53:19.459,0.0001067264442054,-22.876046366075915
2025-03-08 13:53:19.479,6.921874766999016e-05,-27.33291564369709
2025-03-08 13:53:19.498,1.9662880054186232e-05,-34.81105642677394
2025-03-08 13:53:19.518,-3.739804384919945e-05,-43.99609932378839
2025-03-08 13:53:19.537,-9.698067402601164e-05,-53.25986394525287
2025-03-08 13:53:19.557,-0.0001534410047762,-60.93401299587537
2025-03-08 13:53:19.576,-0.0002005430393669,-65.60785282480737
2025-03-08 13:53:19.596,-0.0002324718998137,-66.39337830990509
2025-03-08 13:53:19.616,-0.000245519930999,-63.10103911146332
2025-03-08 13:53:19.635,-0.0002394075489743,-56.28353833040846
2025-03-08 13:53:19.655,-0.0002173857844787,-47.13047967692024
2025-03-08 13:53:19.674,-0.0001852260081904,-37.22908160485056
2025-03-08 13:53:19.694,-0.0001499502688643,-28.238102451432734
2025-03-08 13:53:19.713,-0.0001189703078743,-21.54493425319142
2025-03-08 13:53:19.733,-9.949032291154405e-05,-17.982378157259514
2025-03-08 13:53:19.752,-9.754147762606663e-05,-17.669034396613515
2025-03-08 13:53:19.772,-0.0001164188891652,-20.007940201332257
2025-03-08 13:53:19.791,-0.0001551730621463,-23.83910252144213
2025-03-08 13:53:19.811,-0.0002082137284536,-27.70312162683539
2025-03-08 13:53:19.830,-0.0002665186953912,-30.146203211757378
2025-03-08 13:53:19.850,-0.0003198886979944,-29.989934228508687
2025-03-08 13:53:19.869,-0.0003591230340795,-26.50509355915738
2025-03-08 13:53:19.889,-0.0003773856904147,-19.46301337020999
2025-03-08 13:53:19.908,-0.0003708936335381,-9.07876750181246
2025-03-08 13:53:19.928,-0.0003394507399376,4.108058567190998
2025-03-08 13:53:19.948,-0.0002869023329462,19.359618700115785
2025-03-08 13:53:19.967,-0.000220907198118,35.83226257191395
2025-03-08 13:53:19.987,-0.0001514453070434,52.62388266450948
2025-03-08 13:53:20.006,-8.838815759097451e-05,68.79338667856881
2025-03-08 13:53:20.026,-3.939087082945085e-05,83.38343348996432
2025-03-08 13:53:20.045,-9.2623750637504e-06,95.4722128237621
2025-03-08 13:53:20.065,-7.57285604072793e-07,104.26082443873916
2025-03-08 13:53:20.084,-1.5517681693523527e-05,109.18069026764746
2025-03-08 13:53:20.104,-5.3870709139866136e-05,109.99105786660216
2025-03-08 13:53:20.123,-0.0001133927342342,106.83574652237397
2025-03-08 13:53:20.143,-0.000187424632365,100.23951608194474
2025-03-08 13:53:20.162,-0.0002649181873102,91.0410773369358
2025-03-08 13:53:20.182,-0.0003320611404965,80.27456684723741
2025-03-08 13:53:20.201,-0.0003750234611249,69.02061472967179
2025-03-08 13:53:20.221,-0.000382832436867,58.25206929564605
2025-03-08 13:53:20.241,-0.0003498437456025,48.69953509767525
2025-03-08 13:53:20.260,-0.000277690397692,40.75903688955509
2025-03-08 13:53:20.280,-0.0001762727960991,34.45818233188215
2025-03-08 13:53:20.299,-6.270190671103256e-05,29.487683565758488
2025-03-08 13:53:20.319,4.271079660509582e-05,25.29248542483665
2025-03-08 13:53:20.338,0.0001227870196764,21.20354390061056
2025-03-08 13:53:20.358,0.0001696154052305,16.581853451535775
2025-03-08 13:53:20.377,0.0001874202055001,10.94459398277491
2025-03-08 13:53:20.397,0.0001906408960724,4.049950827909555
2025-03-08 13:53:20.416,0.0001982829717861,-4.070881957127749
2025-03-08 13:53:20.436,0.0002273346515353,-13.13340878312026
2025-03-08 13:53:20.455,0.0002878449268404,-22.660434595720748
2025-03-08 13:53:20.475,0.0003806704084549,-32.06742611885912
2025-03-08 13:53:20.494,0.0004974347877086,-40.75538952734478
2025-03-08 13:53:20.514,0.0006219554489694,-48.19596240741371
2025-03-08 13:53:20.534,0.0007330008637796,-53.99703507183264
2025-03-08 13:53:20.553,0.0008086083022745,-57.94158321149478
2025-03-08 13:53:20.573,0.0008315603890456,-59.9971284135937
2025-03-08 13:53:20.592,0.000794427545989,-60.2980286136223
2025-03-08 13:53:20.612,0.0007020411910891,-59.10694315011364
2025-03-08 13:53:20.631,0.000570139751704,-56.764426704160826
2025-03-08 13:53:20.651,0.0004207570958198,-53.63618582713317
2025-03-08 13:53:20.670,0.0002763869917928,-50.06628681048528
2025-03-08 13:53:20.690,0.0001550934334761,-46.34221715851675
2025-03-08 13:53:20.709,6.77365052400767e-05,-42.6748966420937
2025-03-08 13:53:20.729,1.732751512144603e-05,-39.19400348432171
2025-03-08 13:53:20.748,-1.827898943338532e-08,-35.956602899872536
2025-03-08 13:53:20.768,7.00439974904185e-06,-32.96523186860048
2025-03-08 13:53:20.787,2.77782557299372e-05,-30.190500929084436
2025-03-08 13:53:20.807,5.285468980260351e-05,-27.59309149302478
2025-03-08 13:53:20.826,7.619822311941035e-05,-25.140811974279053
2025-03-08 13:53:20.846,9.563999653012232e-05,-22.817986557456237
2025-03-08 13:53:20.866,0.0001115752583045,-20.626523381931484
2025-03-08 13:53:20.885,0.0001250411667899,-18.580035679663343
2025-03-08 13:53:20.905,0.0001364676667862,-16.693882121837326
2025-03-08 13:53:20.924,0.0001454964702,-14.974649163056256
2025-03-08 13:53:20.944,0.0001513033286736,-13.412373285697525
2025-03-08 13:53:20.963,0.0001527801821304,-11.977869928639002
2025-03-08 13:53:20.983,0.0001486400563936,-10.626196536331152
2025-03-08 13:53:21.002,0.0001380802304132,-9.305840993659386
2025-03-08 13:53:21.022,0.000122347546248,-7.971933248687228
2025-03-08 13:53:21.041,0.0001065839188146,-6.600762492682122
2025-03-08 13:53:21.061,0.0001006070617863,-5.2022127344677696
2025-03-08 13:53:21.080,0.0001175564815161,-3.826492793715683
2025-03-08 13:53:21.100,0.0001704825126603,-2.561901742712022
2025-03-08 13:53:21.119,0.0002680802880403,-1.521545826891763
2025-03-08 13:53:21.139,0.0004110330809367,-0.8190007711238323
2025-03-08 13:53:21.159,0.0005898483525077,-0.5357032888703462
2025-03-08 13:53:21.178,0.0007844570932896,-0.6858170969464945
2025-03-08 13:53:21.198,0.0009658508556607,-1.1866468673163606
2025-03-08 13:53:21.217,0.0011003260241868,-1.8435059246384955
2025-03-08 13:53:21.237,0.0011565247945935,-2.356623965996938
2025-03-08 13:53:21.256,0.0011139812097263,-2.3540095565393524
2025-03-08 13:53:21.276,0.0009701981041418,-1.448582504170122
2025-03-08 13:53:21.295,0.0007430569178956,0.6885583873105913
2025-03-08 13:53:21.315,0.0004673484005105,4.252569039822131
2025-03-08 13:53:21.334,0.0001871084413152,9.24398104414185
2025-03-08 13:53:21.354,-5.307653413072773e-05,15.4385738594224
2025-03-08 13:53:21.373,-0.0002155144837435,22.398496455030525
2025-03-08 13:53:21.393,-0.0002752122379991,29.525879357444555
2025-03-08 13:53:21.412,-0.00022451879795,36.14975930370864
2025-03-08 13:53:21.432,-7.635176352675312e-05,41.62883872027837
2025-03-08 13:53:21.451,0.0001354283355531,45.4490216327808
2025-03-08 13:53:21.471,0.0003600460439476,47.296587028957376
2025-03-08 13:53:21.491,0.0005384557587079,47.09416671669637
2025-03-08 13:53:21.510,0.0006149734832452,44.9952698322024
2025-03-08 13:53:21.530,0.0005491298366764,41.341820048984026
2025-03-08 13:53:21.549,0.000324966557603,36.59634490388173
2025-03-08 13:53:21.569,-4.43114920938087e-05,31.264745875039
2025-03-08 13:53:21.588,-0.0005175463235167,25.82603145897908
2025-03-08 13:53:21.608,-0.0010329262031583,20.681795071082032
2025-03-08 13:53:21.627,-0.0015202522765667,16.131480165691812
2025-03-08 13:53:21.647,-0.0019154699867118,12.371623016735718
2025-03-08 13:53:21.666,-0.0021737548485925,9.510810075579064
2025-03-08 13:53:21.686,-0.0022778325852291,7.589060533773489
2025-03-08 13:53:21.705,-0.0022399562351697,6.591493275227838
2025-03-08 13:53:21.725,-0.0020980676779748,6.4506968771669015
2025-03-08 13:53:21.744,-0.0019079615126108,7.038323438806734
2025-03-08 13:53:21.764,-0.0017332426704457,8.151897214137236
2025-03-08 13:53:21.784,-0.0016340492018288,9.50598989610439
2025-03-08 13:53:21.803,-0.0016550259099393,10.737055525668596
2025-03-08 13:53:21.823,-0.0018136439758442,11.428576083512343
2025-03-08 13:53:21.842,-0.0020913152810828,11.15852814817964
2025-03-08 13:53:21.862,-0.0024306225785449,9.56542827753374
2025-03-08 13:53:21.881,-0.0027413494960775,6.423189777484494
2025-03-08 13:53:21.901,-0.0029158758963637,1.709749785045651
2025-03-08 13:53:21.920,-0.0028518654830934,-4.348562027547432
2025-03-08 13:53:21.940,-0.0024780383826169,-11.273688346092133
2025-03-08 13:53:21.959,-0.0017775471079202,-18.383335622009117
2025-03-08 13:53:21.979,-0.0008028846681709,-24.88679751754945
2025-03-08 13:53:21.998,0.000323519277047,-30.01233181421821
2025-03-08 13:53:22.018,0.0014269090875902,-33.13848926499915
2025-03-08 13:53:22.037,0.0023153331405903,-33.8993423398114
2025-03-08 13:53:22.057,0.0028250446970276,-32.240752743470864
2025-03-08 13:53:22.077,0.0028631959964182,-28.418306154621195
2025-03-08 13:53:22.096,0.0024334251804809,-22.94158998290361
2025-03-08 13:53:22.116,0.0016348041802413,-16.479544487669774
2025-03-08 13:53:22.135,0.0006346345608462,-9.746357512967723
2025-03-08 13:53:22.155,-0.0003743223155965,-3.388065095255487
2025-03-08 13:53:22.174,-0.0012175589886742,2.1115319601378584
2025-03-08 13:53:22.194,-0.0017721803025323,6.490054889119306
2025-03-08 13:53:22.213,-0.0019847153078079,9.72021499093467
2025-03-08 13:53:22.233,-0.0018725367759488,11.974916133313677
2025-03-08 13:53:22.252,-0.0015103725292133,13.55057320491884
2025-03-08 13:53:22.272,-0.0010057931537987,14.765492840190532
2025-03-08 13:53:22.291,-0.0004705723928735,15.857429451750551
2025-03-08 13:53:22.311,3.591739659418193e-06,16.906285395681063
2025-03-08 13:53:22.330,0.0003585884876555,17.803323089985728
2025-03-08 13:53:22.350,0.0005715331516946,18.27788145814912
2025-03-08 13:53:22.369,0.0006485367858626,17.978385238066398
2025-03-08 13:53:22.389,0.0006160728037154,16.589253393458172
2025-03-08 13:53:22.409,0.0005129666860291,13.95276174785068
2025-03-08 13:53:22.428,0.0003828181122568,10.158953566203428
2025-03-08 13:53:22.448,0.0002659615463452,5.57061604102971
2025-03-08 13:53:22.467,0.0001920570114653,0.7653181063445641
2025-03-08 13:53:22.487,0.0001762103794019,-3.59982270158477
2025-03-08 13:53:22.506,0.0002204775460397,-6.968918320256915
2025-03-08 13:53:22.526,0.0003192041168881,-9.06225674176547
2025-03-08 13:53:22.545,0.0004641385884002,-9.988876122717164
2025-03-08 13:53:22.565,0.0006461988046079,-10.253481648674477
2025-03-08 13:53:22.584,0.000854284724924,-10.643824340020366
2025-03-08 13:53:22.604,0.0010741630269173,-12.021766053705113
2025-03-08 13:53:22.623,0.0012897391196073,-15.07375823002653
2025-03-08 13:53:22.643,0.0014860078463978,-20.092457818930388
2025-03-08 13:53:22.662,0.001651006163106,-26.854077390612797
2025-03-08 13:53:22.682,0.0017753059567485,-34.62787741650307
2025-03-08 13:53:22.702,0.0018506239379692,-42.31525158052903
2025-03-08 13:53:22.721,0.0018705867983442,-48.67988681667229
2025-03-08 13:53:22.741,0.0018347490859385,-52.60859704042117
2025-03-08 13:53:22.760,0.0017534020819608,-53.339429025753205
2025-03-08 13:53:22.780,0.001649144108169,-50.60756747844014
2025-03-08 13:53:22.799,0.0015532657883003,-44.68344375340274
2025-03-08 13:53:22.819,0.0014987383751894,-36.30289330639879
2025-03-08 13:53:22.838,0.0015134421877811,-26.510473026012047
2025-03-08 13:53:22.858,0.0016157855326864,-16.452237892896303
2025-03-08 13:53:22.877,0.0018120537737509,-7.162927781350003
2025-03-08 13:53:22.897,0.0020939173375253,0.6068383022038972
2025-03-08 13:53:22.916,0.0024364559018953,6.487081867019166
2025-03-08 13:53:22.936,0.0027994168523076,10.491591590661509
2025-03-08 13:53:22.955,0.0031340130184532,12.935524061816094
2025-03-08 13:53:22.975,0.0033939748498023,14.29855728158938
2025-03-08 13:53:22.995,0.0035460019442041,15.077822033611094
2025-03-08 13:53:23.014,0.0035748642790419,15.672834531870516
2025-03-08 13:53:23.034,0.003482407426429,16.32853356505068
2025-03-08 13:53:23.053,0.0032839141025934,17.139232212117754
2025-03-08 13:53:23.073,0.0030056225211935,18.09537621763693
2025-03-08 13:53:23.092,0.0026835327033392,19.14419358178259
2025-03-08 13:53:23.112,0.0023600717575873,20.23737253154137
2025-03-08 13:53:23.131,0.0020759205313376,21.350914232956896
2025-03-08 13:53:23.151,0.0018589918857232,22.477598077936975
2025-03-08 13:53:23.170,0.0017164674988411,23.604107087957477
2025-03-08 13:53:23.190,0.0016346740124013,24.6887949265588
2025-03-08 13:53:23.209,0.001586143189075,25.65253874614189
2025-03-08 13:53:23.229,0.0015385909298263,26.387342122856488
2025-03-08 13:53:23.248,0.0014610317415179,26.77931122045538
2025-03-08 13:53:23.268,0.001326819901133,26.737287502328236
2025-03-08 13:53:23.287,0.0011169461536058,26.21705467512426
2025-03-08 13:53:23.307,0.0008256009198452,25.23336007572423
2025-03-08 13:53:23.327,0.0004654084679517,23.85664074996592
2025-03-08 13:53:23.346,6.711362499908025e-05,22.19648277681744
2025-03-08 13:53:23.366,-0.0003288610916402,20.37773707472621
2025-03-08 13:53:23.385,-0.0006858463702662,18.51672411984405
2025-03-08 13:53:23.405,-0.0009826096624576,16.703830974617293
2025-03-08 13:53:23.424,-0.0012180538076721,14.995709417391629
2025-03-08 13:53:23.444,-0.0014084108853472,13.41655233541113
2025-03-08 13:53:23.463,-0.0015800580260218,11.965024048723237
2025-03-08 13:53:23.483,-0.0017613537808913,10.622360231587844
2025-03-08 13:53:23.502,-0.0019751541652134,9.35806764969206
2025-03-08 13:53:23.522,-0.0022326304719193,8.131791965291262
2025-03-08 13:53:23.541,-0.0025295425528227,6.892122017931164
2025-03-08 13:53:23.561,-0.0028466940675862,5.5744622496244425
2025-03-08 13:53:23.580,-0.0031552235114264,4.100380830229764
2025-03-08 13:53:23.600,-0.0034249487150169,2.380304306162223
2025-03-08 13:53:23.620,-0.0036322048946336,0.3205277915796071
2025-03-08 13:53:23.639,-0.0037642377506536,-2.1653558686723877
2025-03-08 13:53:23.659,-0.0038199263344838,-5.14109272177576
2025-03-08 13:53:23.678,-0.0038090943645201,-8.629344414160656
2025-03-08 13:53:23.698,-0.0037525683953289,-12.59169229914152
2025-03-08 13:53:23.717,-0.003682446806178,-16.909806440392618
2025-03-08 13:53:23.737,-0.0036395320853862,-21.372301470048917
2025-03-08 13:53:23.756,-0.0036656265351517,-25.67332300526224
2025-03-08 13:53:23.776,-0.0037923669519547,-29.429010331693917
2025-03-08 13:53:23.795,-0.0040318586651362,-32.21574157266885
2025-03-08 13:53:23.815,-0.0043739610413876,-33.62930315357723
2025-03-08 13:53:23.834,-0.004790891294724,-33.3576215903584
2025-03-08 13:53:23.854,-0.0052455764152701,-31.25316636452135
2025-03-08 13:53:23.873,-0.0056993123395113,-27.38693793634137
2025-03-08 13:53:23.893,-0.0061167737703067,-22.066499134016368
2025-03-08 13:53:23.912,-0.0064692818984108,-15.807213397458533
2025-03-08 13:53:23.932,-0.0067377333511406,-9.257930507271489
2025-03-08 13:53:23.952,-0.0069148268220714,-3.0961807887435606
2025-03-08 13:53:23.971,-0.0070047391687368,2.0819912296414675
2025-03-08 13:53:23.991,-0.0070193093479214,5.850734804230897
2025-03-08 13:53:24.010,-0.0069724033767145,8.00235165873061
2025-03-08 13:53:24.030,-0.0068756891760673,8.548285372257935
2025-03-08 13:53:24.049,-0.0067377609371244,7.679761311788529
2025-03-08 13:53:24.069,-0.0065656139032164,5.7029692404103765
2025-03-08 13:53:24.088,-0.0063657859329792,2.966285273513644
2025-03-08 13:53:24.108,-0.0061435966678661,-0.204675769749532
2025-03-08 13:53:24.127,-0.0059014586739973,-3.552466594288611
2025-03-08 13:53:24.147,-0.0056384655851922,-6.907137250395774
2025-03-08 13:53:24.166,-0.0053521787472518,-10.17865707183408
2025-03-08 13:53:24.186,-0.0050412242793518,-13.327342805930511
2025-03-08 13:53:24.205,-0.0047064526820641,-16.32206719840655
2025-03-08 13:53:24.225,-0.0043498588433502,-19.098736438229327
2025-03-08 13:53:24.245,-0.0039726359213005,-21.531215778149345
2025-03-08 13:53:24.264,-0.0035743723566683,-23.42374216228752
2025-03-08 13:53:24.284,-0.0031539285755808,-24.529064753009912
2025-03-08 13:53:24.303,-0.0027105942786561,-24.591370221009416
2025-03-08 13:53:24.323,-0.0022437823157605,-23.408011873578324
2025-03-08 13:53:24.342,-0.0017511014672092,-20.899023409407132
2025-03-08 13:53:24.362,-0.0012265192905714,-17.16845516988646
2025-03-08 13:53:24.381,-0.0006605760655538,-12.538028883334158
2025-03-08 13:53:24.401,-4.300042534735477e-05,-7.534110928301268
2025-03-08 13:53:24.420,0.000633806551907,-2.816369279562851
2025-03-08 13:53:24.440,0.0013723656600605,0.9484980677324084
2025-03-08 13:53:24.459,0.0021695210554926,3.2450196246592897
2025-03-08 13:53:24.479,0.0030169622251577,3.859073717242941
2025-03-08 13:53:24.498,0.0039019847025398,2.9729751023613176
2025-03-08 13:53:24.518,0.004808580000356,1.167476952968494
2025-03-08 13:53:24.538,0.0057196874671236,-0.6832953128063491
2025-03-08 13:53:24.557,0.0066207330911948,-1.605457620497118
2025-03-08 13:53:24.577,0.0075028664559531,-0.7591558226976687
2025-03-08 13:53:24.596,0.0083635115242539,2.3517453563461808
2025-03-08 13:53:24.616,0.0092033489394795,7.753549115352157
2025-03-08 13:53:24.635,0.0100216921727549,14.99530564035365
2025-03-08 13:53:24.655,0.0108137581131999,23.260124320146637
2025-03-08 13:53:24.674,0.0115718743299188,31.5617919727396
2025-03-08 13:53:24.694,0.0122893856839994,38.97171899504393
2025-03-08 13:53:24.713,0.012963942314838,44.81664412173704
2025-03-08 13:53:24.733,0.0135978194656099,48.799135200656
2025-03-08 13:53:24.752,0.0141957940270676,51.01529218951552
2025-03-08 13:53:24.772,0.0147629687727574,51.869891679539336
2025-03-08 13:53:24.791,0.0153040612367173,51.912807586513246
2025-03-08 13:53:24.811,0.0158232589264173,51.63889929866387
2025-03-08 13:53:24.830,0.0163226448169873,51.30440324685337
2025-03-08 13:53:24.850,0.0167988246934093,50.81287412599006
2025-03-08 13:53:24.870,0.0172400451824424,49.70974624523133
2025-03-08 13:53:24.889,0.0176267244865378,47.29683492699765
2025-03-08 13:53:24.909,0.0179359049601049,42.84248492385089
2025-03-08 13:53:24.928,0.0181469482207603,35.83077539819516
2025-03-08 13:53:24.948,0.0182449851957701,26.176751314996096
2025-03-08 13:53:24.967,0.018220899252262,14.341706914035951
2025-03-08 13:53:24.987,0.0180696273206981,1.3111027735652487
2025-03-08 13:53:25.006,0.0177894903527227,-11.562948884022244
2025-03-08 13:53:25.026,0.0173835493173033,-22.816000303466904
2025-03-08 13:53:25.045,0.0168616068427814,-31.159940235054965
2025-03-08 13:53:25.065,0.0162407466325636,-35.737179885889546
2025-03-08 13:53:25.084,0.0155435661696903,-36.28202371962707
2025-03-08 13:53:25.104,0.0147948387680107,-33.154592849766395
2025-03-08 13:53:25.123,0.0140175600273115,-27.24406154996966
2025-03-08 13:53:25.143,0.0132283045687721,-19.77004336250816
2025-03-08 13:53:25.163,0.0124311672071498,-12.035401191924816
2025-03-08 13:53:25.182,0.0116105195805617,-5.19326890613444
2025-03-08 13:53:25.202,0.010724825963681,-0.082931980376029
2025-03-08 13:53:25.221,0.0097050410828024,2.833559743041675
2025-03-08 13:53:25.241,0.0084604125102803,3.43270114269666
2025-03-08 13:53:25.260,0.0068922726934026,1.8172348642156864
2025-03-08 13:53:25.280,0.0049141533262716,-1.8209286810982763
2025-03-08 13:53:25.299,0.0024752779123524,-7.310109123691491
2025-03-08 13:53:25.319,-0.0004161836106631,-14.543311750201887
2025-03-08 13:53:25.338,-0.0036747464563941,-23.44849355898446
2025-03-08 13:53:25.358,-0.0071302866103056,-33.90385738270424
2025-03-08 13:53:25.377,-0.0105385689335508,-45.634960234050176
2025-03-08 13:53:25.397,-0.0136143672659668,-58.13324202403748
2025-03-08 13:53:25.416,-0.0160864496611407,-70.62692188043575
2025-03-08 13:53:25.436,-0.0177662233606771,-82.12033284992827
2025-03-08 13:53:25.456,-0.0186150309726186,-91.50043852432016
2025-03-08 13:53:25.475,-0.0187913789932856,-97.69201739060236
2025-03-08 13:53:25.495,-0.0186600292204533,-99.82867740233016
2025-03-08 13:53:25.514,-0.0187503577777675,-97.3994186540951
2025-03-08 13:53:25.534,-0.0196619596107826,-90.33387048181886
2025-03-08 13:53:25.553,-0.0219307015820617,-79.00467591735124
2025-03-08 13:53:25.573,-0.0258851340241681,-64.1483692930704
2025-03-08 13:53:25.592,-0.0315340796038295,-46.72785424366658
2025-03-08 13:53:25.612,-0.0385230479947147,-27.772447728327016
2025-03-08 13:53:25.631,-0.0461779100666342,-8.232558391838415
2025-03-08 13:53:25.651,-0.0536270150307228,11.12261179466097
2025-03-08 13:53:25.670,-0.0599700693706962,29.75012827784125
2025-03-08 13:53:25.690,-0.0644516843968794,47.32205099908584
2025-03-08 13:53:25.709,-0.0666001325928764,63.67101339946749
2025-03-08 13:53:25.729,-0.0663034855333511,78.71288676859412
2025-03-08 13:53:25.748,-0.0638110525202693,92.36790861203076
2025-03-08 13:53:25.768,-0.0596640595134121,104.497887895647
2025-03-08 13:53:25.788,-0.0545730285266006,114.87056897408593
2025-03-08 13:53:25.807,-0.049268107306796,123.15537989173902
2025-03-08 13:53:25.827,-0.0443514024761905,128.94929715140734
2025-03-08 13:53:25.846,-0.0401780059369666,131.82764236575883
2025-03-08 13:53:25.866,-0.0367871640519783,131.41135467186325
2025-03-08 13:53:25.885,-0.0338979727224451,127.43891614540163
2025-03-08 13:53:25.905,-0.0309737954682557,119.8282755836046
2025-03-08 13:53:25.924,-0.0273455268913803,108.71373520610764
2025-03-08 13:53:25.944,-0.0223688745419226,94.44676474823868
2025-03-08 13:53:25.963,-0.0155808589543496,77.55845631058169
2025-03-08 13:53:25.983,-0.0068202246759394,58.69268429756559
2025-03-08 13:53:26.002,0.0037144490759139,38.528734464833576
2025-03-08 13:53:26.022,0.0154802532351514,17.71581633604196
2025-03-08 13:53:26.041,0.0276745485049959,-3.162604397643665
2025-03-08 13:53:26.061,0.0393703536968568,-23.58789468379051
2025-03-08 13:53:26.081,0.0496736292258705,-43.07576109300355
2025-03-08 13:53:26.100,0.0578683486169695,-61.13457344720249
2025-03-08 13:53:26.120,0.063518868641726,-77.23593657492404
2025-03-08 13:53:26.139,0.0665117628816024,-90.81761892941051
2025-03-08 13:53:26.159,0.0670357024381906,-101.32785616943632
2025-03-08 13:53:26.178,0.0655117786771547,-108.30440726790796
2025-03-08 13:53:26.198,0.0624948486712675,-111.46688921516508
2025-03-08 13:53:26.217,0.0585688946312147,-110.79293895704724
2025-03-08 13:53:26.237,0.0542568184697237,-106.55184142304684
2025-03-08 13:53:26.256,0.0499589201213484,-99.28264673047713
2025-03-08 13:53:26.276,0.0459263828077621,-89.72120878972414
2025-03-08 13:53:26.295,0.0422681333476761,-78.69418606463164
2025-03-08 13:53:26.315,0.0389828026298275,-67.00367346079032
2025-03-08 13:53:26.334,0.0360033270935768,-55.32466897084072
2025-03-08 13:53:26.354,0.0332409283023368,-44.13231854371868
2025-03-08 13:53:26.373,0.0306179863706322,-33.66950012007239
2025-03-08 13:53:26.393,0.0280846738344184,-23.95874720796889
2025-03-08 13:53:26.413,0.0256200830125793,-14.855508581786111
2025-03-08 13:53:26.432,0.0232228198673998,-6.132030527502326
2025-03-08 13:53:26.452,0.0208975610633235,2.4262545016601367
2025-03-08 13:53:26.471,0.0186432536439878,10.934291955645763
2025-03-08 13:53:26.491,0.0164466559938811,19.351574379998173
2025-03-08 13:53:26.510,0.014282701581966,27.468909684473243
2025-03-08 13:53:26.530,0.0121210196823715,34.9373211412763
2025-03-08 13:53:26.549,0.0099360276152897,41.327388451851405
2025-03-08 13:53:26.569,0.0077167905226074,46.20122544720993
2025-03-08 13:53:26.588,0.0054729441593012,49.17932827994702
2025-03-08 13:53:26.608,0.0032345571445878,49.98944638706992
2025-03-08 13:53:26.627,0.0010461888288814,48.492155668768966
2025-03-08 13:53:26.647,-0.0010426351531262,44.685573134978966
2025-03-08 13:53:26.666,-0.0029876177668209,38.69750827346117
2025-03-08 13:53:26.686,-0.0047581370854947,30.77563580877444
2025-03-08 13:53:26.706,-0.0063424305550325,21.284211161519053
2025-03-08 13:53:26.725,-0.007748700040599,10.709941102817496
2025-03-08 13:53:26.745,-0.0090018554243622,-0.3282608224439377
2025-03-08 13:53:26.764,-0.0101363983688761,-11.077978348036524
2025-03-08 13:53:26.784,-0.0111870495404738,-20.676200281647684
2025-03-08 13:53:26.803,-0.0121796218942493,-28.209862059643065
2025-03-08 13:53:26.823,-0.0131246937308312,-32.81892658816137
2025-03-08 13:53:26.842,-0.0140156740541774,-33.83362105132352
2025-03-08 13:53:26.862,-0.0148313695583207,-30.92280796642984
2025-03-08 13:53:26.881,-0.0155419279208284,-24.21936496993663
2025-03-08 13:53:26.901,-0.0161164914361545,-14.38577072805779
2025-03-08 13:53:26.920,-0.0165308856350882,-2.591310510741689
2025-03-08 13:53:26.940,-0.0167737629781549,9.610330530240098
2025-03-08 13:53:26.959,-0.0168497261992279,20.492862358229885
2025-03-08 13:53:26.979,-0.0167784275030324,28.428060052706552
2025-03-08 13:53:26.999,-0.0165897641073061,32.16916026899558
2025-03-08 13:53:27.018,-0.0163167401394496,31.09210948007264
2025-03-08 13:53:27.038,-0.0159885041966616,25.340483666254407
2025-03-08 13:53:27.057,-0.0156258351359728,15.832940734526847
2025-03-08 13:53:27.077,-0.0152400443577842,4.118630854836535
2025-03-08 13:53:27.096,-0.0148347251928472,-7.897941131487666
2025-03-08 13:53:27.116,-0.014408893496425,-18.30590281359945
2025-03-08 13:53:27.135,-0.0139601050053409,-25.532483089273143
2025-03-08 13:53:27.155,-0.0134867180293602,-28.60467519252742
2025-03-08 13:53:27.174,-0.0129890327529515,-27.271747382456724
2025-03-08 13:53:27.194,-0.0124693349725058,-21.96933447957843
2025-03-08 13:53:27.213,-0.0119310272613744,-13.647561844511534
2025-03-08 13:53:27.233,-0.0113772248199087,-3.520133225492947
2025-03-08 13:53:27.252,-0.010809404937239,7.1921743851753535
2025-03-08 13:53:27.272,-0.0102267425296218,17.457348195531104
2025-03-08 13:53:27.291,-0.0096264891661674,26.529022715625214
2025-03-08 13:53:27.311,-0.0090052197508345,33.943590597918416
2025-03-08 13:53:27.331,-0.0083602990142037,39.44931508979118
2025-03-08 13:53:27.350,-0.0076908775872091,42.916225357363935
2025-03-08 13:53:27.370,-0.0069981527240577,44.273402924549934
2025-03-08 13:53:27.389,-0.0062851242239195,43.50181576425068
2025-03-08 13:53:27.409,-0.0055562026150693,40.68324861295642
2025-03-08 13:53:27.428,-0.0048167770584853,36.0782780490337
2025-03-08 13:53:27.448,-0.0040726319529402,30.18793186617605
2025-03-08 13:53:27.467,-0.0033292317968031,23.752102996376205
2025-03-08 13:53:27.487,-0.0025912146536078,17.656203676928012
2025-03-08 13:53:27.506,-0.0018625060087943,12.752134409313156
2025-03-08 13:53:27.526,-0.0011470927112233,9.63815618383712
2025-03-08 13:53:27.545,-0.0004499648755961,8.4676257055147
2025-03-08 13:53:27.565,0.0002224803240813,8.855699010332419
2025-03-08 13:53:27.584,0.0008629577680454,9.924968147571253
2025-03-08 13:53:27.604,0.0014644991324009,10.487057228128169
2025-03-08 13:53:27.624,0.0020216720871136,9.3144785241111
2025-03-08 13:53:27.643,0.0025312148391348,5.429927041074929
2025-03-08 13:53:27.663,0.0029919236018259,-1.663611532313173
2025-03-08 13:53:27.682,0.0034040258088998,-11.868835252480292
2025-03-08 13:53:27.702,0.0037684166251756,-24.51717336925615
2025-03-08 13:53:27.721,0.0040861151231135,-38.510864304154026
2025-03-08 13:53:27.741,0.0043581836513512,-52.5371873325772
2025-03-08 13:53:27.760,0.004586115867399,-65.2970098251062
2025-03-08 13:53:27.780,0.0047724038529139,-75.696633185291
2025-03-08 13:53:27.799,0.0049208421607826,-82.97062293002982
2025-03-08 13:53:27.819,0.0050362319034506,-86.72569123325758
2025-03-08 13:53:27.838,0.0051234469765176,-86.91459200348754
2025-03-08 13:53:27.858,0.0051861695290805,-83.76046474815693
2025-03-08 13:53:27.877,0.0052258433690031,-77.6558937591651
2025-03-08 13:53:27.897,0.005241393216637,-69.05943557294505
2025-03-08 13:53:27.917,0.0052299436754611,-58.40843410759482
2025-03-08 13:53:27.936,0.0051882608039503,-46.06239937859564
2025-03-08 13:53:27.956,0.0051142459630906,-32.28606842320545
2025-03-08 13:53:27.975,0.0050078296059979,-17.274495820895964
2025-03-08 13:53:27.995,0.0048710269155923,-1.2138049100541173
2025-03-08 13:53:28.014,0.0047073861032403,15.638091260354567
2025-03-08 13:53:28.034,0.0045212486008931,32.8738081573126
2025-03-08 13:53:28.053,0.0043171348684593,49.8874467322433
2025-03-08 13:53:28.073,0.004099405867621,65.87584789161058
2025-03-08 13:53:28.092,0.0038722886731109,79.90109535625605
2025-03-08 13:53:28.112,0.0036403202792262,91.0094206866868
2025-03-08 13:53:28.131,0.0034090962226743,98.38441027278152
2025-03-08 13:53:28.151,0.0031859078701431,101.49889577138988
2025-03-08 13:53:28.170,0.0029796293657488,100.2256882645424
2025-03-08 13:53:28.190,0.002799313436054,94.87584689661584
2025-03-08 13:53:28.209,0.0026514078224524,86.15278304540517
2025-03-08 13:53:28.229,0.0025361110494191,75.03382998784508
2025-03-08 13:53:28.249,0.0024438868036488,62.60886685461717
2025-03-08 13:53:28.268,0.0023533902563118,49.91280922307753
2025-03-08 13:53:28.288,0.0022319846711291,37.78552102773824
2025-03-08 13:53:28.307,0.0020396374237943,26.782638231524118
2025-03-08 13:53:28.327,0.0017362727696972,17.148061770354715
2025-03-08 13:53:28.346,0.0012916730611975,8.84649091836432
2025-03-08 13:53:28.366,0.0006959456108992,1.6438762807726752
2025-03-08 13:53:28.385,-3.226013825180388e-05,-4.784383774489767
2025-03-08 13:53:28.405,-0.0008427790333772,-10.742672681132555
2025-03-08 13:53:28.424,-0.0016583720239249,-16.427317495385577
2025-03-08 13:53:28.444,-0.002386882455822,-21.881073954530105
2025-03-08 13:53:28.463,-0.0029389257581341,-26.997114219225843
2025-03-08 13:53:28.483,-0.0032467538862346,-31.56521469459077
2025-03-08 13:53:28.502,-0.0032790886055583,-35.341610412465315
2025-03-08 13:53:28.522,-0.0030477538574886,-38.11988007874334
2025-03-08 13:53:28.542,-0.0026044783616727,-39.78364552842572
2025-03-08 13:53:28.561,-0.002029141277302,-40.33033259973967
2025-03-08 13:53:28.581,-0.0014128405684043,-39.86516949431547
2025-03-08 13:53:28.600,-0.0008399717134103,-38.57283222957438
2025-03-08 13:53:28.620,-0.0003732113020348,-36.67871284379654
2025-03-08 13:53:28.639,-4.436188655813582e-05,-34.412085892259235
2025-03-08 13:53:28.659,0.0001473264184334,-31.98011799684977
2025-03-08 13:53:28.678,0.0002294929214228,-29.556233057633737
2025-03-08 13:53:28.698,0.0002457508891681,-27.28073199548615
2025-03-08 13:53:28.717,0.0002430427707511,-25.26752104593012
2025-03-08 13:53:28.737,0.0002609500454936,-23.60944699586046
2025-03-08 13:53:28.756,0.00032549601626,-22.37629673919957
2025-03-08 13:53:28.776,0.0004482347758357,-21.60329608777343
2025-03-08 13:53:28.795,0.0006298363053133,-21.272567856502768
2025-03-08 13:53:28.815,0.0008662899176575,-21.29391347277749
2025-03-08 13:53:28.834,0.0011552933535216,-21.49321711164016
2025-03-08 13:53:28.854,0.0015004239948551,-21.616141564604813
2025-03-08 13:53:28.874,0.0019113984796859,-21.351734142044545
2025-03-08 13:53:28.893,0.0024000471086129,-20.37587441682608
2025-03-08 13:53:28.913,0.0029731721052968,-18.40935910434562
2025-03-08 13:53:28.932,0.0036246411510609,-15.281044775479222
2025-03-08 13:53:28.952,0.00432946354596,-10.983745278280669
2025-03-08 13:53:28.971,0.0050422310699292,-5.709989007914578
2025-03-08 13:53:28.991,0.0057015460082086,0.1434551713522248
2025-03-08 13:53:29.010,0.0062411295821498,6.008998100596658
2025-03-08 13:53:29.030,0.0066070085643264,11.219515649502709
2025-03-08 13:53:29.049,0.0067782464463358,15.10917113264288
2025-03-08 13:53:29.069,0.0067863647603946,17.12768728728629
2025-03-08 13:53:29.088,0.0067268023759493,16.947053190985436
2025-03-08 13:53:29.108,0.006755605410569,14.53928711957651
2025-03-08 13:53:29.127,0.0070666743474144,10.208420574657378
2025-03-08 13:53:29.147,0.0078491237481313,4.568250691304586
2025-03-08 13:53:29.167,0.0092297734328686,-1.5322613384076045
2025-03-08 13:53:29.186,0.0112113701228135,-7.123822109509453
2025-03-08 13:53:29.206,0.0136216348603698,-11.251522599534344
2025-03-08 13:53:29.225,0.0160902703738025,-13.104928844306755
2025-03-08 13:53:29.245,0.0180691360683111,-12.120927340159776
2025-03-08 13:53:29.264,0.0189037818318362,-8.045324740400698
2025-03-08 13:53:29.284,0.0179525747045354,-0.9520028645510068
2025-03-08 13:53:29.303,0.0147348641896279,8.770313187595594
2025-03-08 13:53:29.323,0.0090759789092874,20.44949280622917
2025-03-08 13:53:29.342,0.001209205028209,33.169991248040944
2025-03-08 13:53:29.362,-0.0082022753736999,45.82154570467271
2025-03-08 13:53:29.381,-0.0181446008466954,57.16591070029631
2025-03-08 13:53:29.401,-0.0274270673913606,65.93413026317859
2025-03-08 13:53:29.420,-0.0349124341175812,70.96111478968567
2025-03-08 13:53:29.440,-0.0397433354325418,71.35031481481028
2025-03-08 13:53:29.460,-0.0415032087407336,66.6433370467484
2025-03-08 13:53:29.479,-0.0402711386667468,56.95450709401689
2025-03-08 13:53:29.499,-0.0365636266751926,43.026462866858026
2025-03-08 13:53:29.518,-0.0311889120180569,26.17488182939667
2025-03-08 13:53:29.538,-0.025059960972418,8.116922834555147
2025-03-08 13:53:29.557,-0.0190155863424798,-9.289668893738654
2025-03-08 13:53:29.577,-0.0136877933016097,-24.34312212888172
2025-03-08 13:53:29.596,-0.0094347312906473,-35.76415007859141
2025-03-08 13:53:29.616,-0.0063399262643336,-42.87320368607782
2025-03-08 13:53:29.635,-0.0042642774699421,-45.64271536106445
2025-03-08 13:53:29.655,-0.0029293641786379,-44.62183222536013
2025-03-08 13:53:29.674,-0.0020088227943127,-40.76302268021996
2025-03-08 13:53:29.694,-0.0012077462506679,-35.200073179838526
2025-03-08 13:53:29.713,-0.0003165400126887,-29.030792404659124
2025-03-08 13:53:29.733,0.0007663790943566,-23.14737102712812
2025-03-08 13:53:29.752,0.0020409604113606,-18.13882539720441
2025-03-08 13:53:29.772,0.003432929349372,-14.269806033389171
2025-03-08 13:53:29.792,0.0048310394155576,-11.523362427173186
2025-03-08 13:53:29.811,0.0061230879499744,-9.684947695849331
2025-03-08 13:53:29.831,0.0072225006467371,-8.44176343369087
2025-03-08 13:53:29.850,0.0080816423628354,-7.474481135298464
2025-03-08 13:53:29.870,0.008692308694494,-6.525353918834086
2025-03-08 13:53:29.889,0.0090769523906198,-5.435321786026848
2025-03-08 13:53:29.909,0.0092755857819255,-4.150740982701179
2025-03-08 13:53:29.928,0.0093330381055197,-2.706309719011493
2025-03-08 13:53:29.948,0.0092898054782988,-1.1939041138591906
2025-03-08 13:53:29.967,0.0091777631096651,0.2725773829115024
2025-03-08 13:53:29.987,0.0090201396115361,1.588032595203902
2025-03-08 13:53:30.006,0.008833883308528,2.677334013464453
2025-03-08 13:53:30.026,0.0086322105270941,3.504910185729094
2025-03-08 13:53:30.045,0.008425752867646,4.073673322779002
2025-03-08 13:53:30.065,0.0082219402977488,4.416206084653468
2025-03-08 13:53:30.085,0.0080233994092215,4.58198906452628
2025-03-08 13:53:30.104,0.0078266412784561,4.62431674993908
2025-03-08 13:53:30.124,0.0076220630363316,4.589694448271913
2025-03-08 13:53:30.143,0.0073956322735914,4.511290770433839
2025-03-08 13:53:30.163,0.0071319743052613,4.406783189894244
2025-03-08 13:53:30.182,0.0068181508767186,4.279938785129191
2025-03-08 13:53:30.202,0.0064472260561579,4.124663694662572
2025-03-08 13:53:30.221,0.0060207142271943,3.930061648146227
2025-03-08 13:53:30.241,0.005549185401818,3.685199619914627
2025-03-08 13:53:30.260,0.0050507055117668,3.382666267960717
2025-03-08 13:53:30.280,0.0045474018710198,3.020488298520695
2025-03-08 13:53:30.299,0.0040610800389992,2.602418886390863
2025-03-08 13:53:30.319,0.0036091555847741,2.136945518520376
2025-03-08 13:53:30.338,0.0032019826212271,1.6355422455528008
2025-03-08 13:53:30.358,0.0028420653541972,1.110715684193541
2025-03-08 13:53:30.378,0.0025249818016731,0.5742986951414777
2025-03-08 13:53:30.397,0.0022414110267059,0.0362803175634067
2025-03-08 13:53:30.417,0.0019794764948518,-0.4957229391378273
2025-03-08 13:53:30.436,0.0017266372032193,-1.016408437345398
2025-03-08 13:53:30.456,0.0014705934466101,-1.5223032908159937
2025-03-08 13:53:30.475,0.0011991727991717,-2.0110639511773925
2025-03-08 13:53:30.495,0.0008997767687088,-2.4807607500281468
2025-03-08 13:53:30.514,0.0005593077785059,-2.929301048051623
2025-03-08 13:53:30.534,0.0001652577912898,-3.354077194583573
2025-03-08 13:53:30.553,-0.0002920258398405,-3.751857159494033
2025-03-08 13:53:30.573,-0.000816496388516,-4.118880848584533
2025-03-08 13:53:30.592,-0.0014038130783861,-4.451091736812087
2025-03-08 13:53:30.612,-0.0020397146732501,-4.744423084202057
2025-03-08 13:53:30.631,-0.0026998933457014,-4.995067018394499
2025-03-08 13:53:30.651,-0.0033517852625636,-5.19967643984533
2025-03-08 13:53:30.670,-0.0039585250742824,-5.355476348895098
2025-03-08 13:53:30.690,-0.0044848211185904,-5.460286004245996
2025-03-08 13:53:30.710,-0.0049036664651399,-5.512471563705816
2025-03-08 13:53:30.729,-0.0052020564897225,-5.510858332159318
2025-03-08 13:53:30.749,-0.0053838554850179,-5.454632621956461
2025-03-08 13:53:30.768,-0.0054688142056115,-5.34325745130671
2025-03-08 13:53:30.788,-0.0054880274229742,-5.176416739966413
2025-03-08 13:53:30.807,-0.0054771835864913,-4.953992305397081
2025-03-08 13:53:30.827,-0.0054694249894089,-4.676069289171588
2025-03-08 13:53:30.846,-0.0054894966717652,-4.342960206987385
2025-03-08 13:53:30.866,-0.0055503107731839,-3.955236128368695
2025-03-08 13:53:30.885,-0.0056523329075708,-3.5137551306840766
2025-03-08 13:53:30.905,-0.0057855110471087,-3.019682043017901
2025-03-08 13:53:30.924,-0.0059329473506172,-2.4744981775592576
2025-03-08 13:53:30.944,-0.0060752335308235,-1.88000383613724
2025-03-08 13:53:30.963,-0.0061943774587194,-1.2383187837629437
2025-03-08 13:53:30.983,-0.0062765476377018,-0.5518860180922854
2025-03-08 13:53:31.003,-0.0063133544631874,0.1765179412220393
2025-03-08 13:53:31.022,-0.0063018653605273,0.9437667522578022
2025-03-08 13:53:31.042,-0.0062438054112944,1.746366731102434
2025-03-08 13:53:31.061,-0.0061443600292812,2.5804464099250235
2025-03-08 13:53:31.081,-0.0060108039717849,3.441762908890292
2025-03-08 13:53:31.100,-0.0058510454948389,4.325733289651035
2025-03-08 13:53:31.120,-0.0056721921157257,5.227494185184856
2025-03-08 13:53:31.139,-0.0054793293587731,6.141985376426041
2025-03-08 13:53:31.159,-0.0052747253352644,7.064044072515412
2025-03-08 13:53:31.178,-0.0050575999452648,7.98848867209227
2025-03-08 13:53:31.198,-0.0048244805381825,8.910166345770891
2025-03-08 13:53:31.217,-0.0045700538570983,9.823940293164377
2025-03-08 13:53:31.237,-0.00428832636137,10.724601493617804
2025-03-08 13:53:31.256,-0.0039738158317837,11.606706098367535
2025-03-08 13:53:31.276,-0.0036224305575973,12.464361144575992
2025-03-08 13:53:31.295,-0.0032317054623498,13.29100370845978
2025-03-08 13:53:31.315,-0.0028002319670993,14.079235997516816
2025-03-08 13:53:31.335,-0.0023264497363694,14.820784687934054
2025-03-08 13:53:31.354,-0.0018073481068554,15.506641562509667
2025-03-08 13:53:31.374,-0.0012378517060672,16.127411612789384
2025-03-08 13:53:31.393,-0.0006115673237626,16.67384622226734
2025-03-08 13:53:31.413,7.688101712222233e-05,17.137480374985714
2025-03-08 13:53:31.432,0.0008283607284031,17.511236881591486
2025-03-08 13:53:31.452,0.0016356436721408,17.78982377599885
2025-03-08 13:53:31.471,0.002481157195376,17.96974991067625
2025-03-08 13:53:31.491,0.0033374711781672,18.048830658573458
2025-03-08 13:53:31.510,0.0041714104082566,18.025153655966125
2025-03-08 13:53:31.530,0.0049517396963369,17.89561374558385
2025-03-08 13:53:31.549,0.0056591613337759,17.65428202246973
2025-03-08 13:53:31.569,0.0062961963195109,17.29100860531851
2025-03-08 13:53:31.588,0.0068937875894047,16.790728109033378
2025-03-08 13:53:31.608,0.0075115167757574,16.133899603034067
2025-03-08 13:53:31.628,0.0082293162009294,15.298343543034344
2025-03-08 13:53:31.647,0.0091303772383505,14.262439134383628
2025-03-08 13:53:31.667,0.0102773285189457,13.009255874897905
2025-03-08 13:53:31.686,0.0116863223388946,11.530789925137158
2025-03-08 13:53:31.706,0.013305875063841,9.831166527017135
2025-03-08 13:53:31.725,0.0150082795711537,7.927571258515615
2025-03-08 13:53:31.745,0.016600198705166,5.847884180491824
2025-03-08 13:53:31.764,0.017855300343216,3.624558606263564
2025-03-08 13:53:31.784,0.018566138154496,1.2851748151961766
2025-03-08 13:53:31.803,0.0186062645310578,-1.1588267310953404
2025-03-08 13:53:31.823,0.0179883186982061,-3.722699171809312
2025-03-08 13:53:31.842,0.0169010510432358,-6.455007607445615
2025-03-08 13:53:31.862,0.0157093135620441,-9.43703905204946
2025-03-08 13:53:31.881,0.0149069341831291,-12.772539625429278
2025-03-08 13:53:31.901,0.0150228846798078,-16.56703925079869
2025-03-08 13:53:31.921,0.0164940548261973,-20.898487893964425
2025-03-08 13:53:31.940,0.019529294182683,-25.783692629022397
2025-03-08 13:53:31.960,0.023995376265427,-31.14745044150991
2025-03-08 13:53:31.979,0.0293547952109256,-36.80254733220272
2025-03-08 13:53:31.999,0.0346788230552847,-42.44824640326011
2025-03-08 13:53:32.018,0.0387482610102283,-47.692131019084265
2025-03-08 13:53:32.038,0.0402390697083058,-52.0953563970027
2025-03-08 13:53:32.057,0.0379710635745805,-55.23534791325406
2025-03-08 13:53:32.077,0.031177687027918,-56.7743329841289
2025-03-08 13:53:32.096,0.0197387367872485,-56.51879110794435
2025-03-08 13:53:32.116,0.0043124895698748,-54.45561907521136
2025-03-08 13:53:32.135,-0.0136846646227406,-50.75590509098258
2025-03-08 13:53:32.155,-0.0322713643131668,-45.74525956693205
2025-03-08 13:53:32.174,-0.0492405185988703,-39.84797311732668
2025-03-08 13:53:32.194,-0.0625706640907544,-33.5181710547335
2025-03-08 13:53:32.213,-0.0708082211721957,-27.173028849466515
2025-03-08 13:53:32.233,-0.07332546262853,-21.14095731049757
2025-03-08 13:53:32.253,-0.0703951940976627,-15.632666843067764
2025-03-08 13:53:32.272,-0.0630740919413299,-10.73697057675388
2025-03-08 13:53:32.292,-0.0529353729741475,-6.437779282995715
2025-03-08 13:53:32.311,-0.0417253774448535,-2.645127420096606
2025-03-08 13:53:32.331,-0.0310299167945379,0.7682872377043563
2025-03-08 13:53:32.350,-0.0220230821830715,3.932836163002031
2025-03-08 13:53:32.370,-0.015340075473125,6.955559102459233
2025-03-08 13:53:32.389,-0.0110789281998824,9.904412068208607
2025-03-08 13:53:32.409,-0.0089055635724804,12.803294605462645
2025-03-08 13:53:32.428,-0.0082190818164015,15.636020696178676
2025-03-08 13:53:32.448,-0.0083304116417273,18.35632837580089
2025-03-08 13:53:32.467,-0.0086149807210418,20.90079263241487
2025-03-08 13:53:32.487,-0.0086145266733451,23.20189565728372
2025-03-08 13:53:32.506,-0.0080798525602722,25.199250997220197
2025-03-08 13:53:32.526,-0.0069608976035738,26.847831126252142
2025-03-08 13:53:32.546,-0.0053599373868316,28.12282017221089
2025-03-08 13:53:32.565,-0.0034671077704772,29.021277016454125
2025-03-08 13:53:32.585,-0.0014957748384721,29.56110026963743
2025-03-08 13:53:32.604,0.0003694815107631,29.77787300900535
2025-03-08 13:53:32.624,0.0020053994676804,29.720134431677455
2025-03-08 13:53:32.643,0.0033617418930618,29.443598550875997
2025-03-08 13:53:32.663,0.0044550278581313,29.004891365337134
2025-03-08 13:53:32.682,0.0053496450926257,28.45548790318248
2025-03-08 13:53:32.702,0.0061327009850854,27.836599903589377
2025-03-08 13:53:32.721,0.0068888229288906,27.17569388107213
2025-03-08 13:53:32.741,0.0076800734995159,26.48508454497065
2025-03-08 13:53:32.760,0.0085343869430446,25.76271228791359
2025-03-08 13:53:32.780,0.0094437418871497,24.994870730771154
2025-03-08 13:53:32.799,0.0103710546136671,24.16037077360334
2025-03-08 13:53:32.819,0.0112629356120624,23.23543635659972
2025-03-08 13:53:32.839,0.0120644132586094,22.198526369118543
2025-03-08 13:53:32.858,0.0127317840127898,21.0342800384876
2025-03-08 13:53:32.878,0.013240852726983,19.735922903892195
2025-03-08 13:53:32.897,0.0135895077877257,18.305765857144078
2025-03-08 13:53:32.917,0.0137951720476323,16.753836856034937
2025-03-08 13:53:32.936,0.0138887019742643,15.095097334192536
2025-03-08 13:53:32.956,0.0139066583466867,13.346003953268372
2025-03-08 13:53:32.975,0.013883715490764,11.521320877571071
2025-03-08 13:53:32.995,0.0138465781950197,9.632047034367188
2025-03-08 13:53:33.014,0.013810317174698,7.685087605141456
2025-03-08 13:53:33.034,0.0137775614715321,5.684888141402873
2025-03-08 13:53:33.053,0.0137404878649389,3.6367432863418023
2025-03-08 13:53:33.073,0.0136850363724091,1.551016953122799
2025-03-08 13:53:33.092,0.0135963103262262,-0.552818972028975
2025-03-08 13:53:33.112,0.0134637753724834,-2.643549131249125
2025-03-08 13:53:33.131,0.0132847744126378,-4.67812811390356
2025-03-08 13:53:33.151,0.0130651374427854,-6.605011618975334
2025-03-08 13:53:33.171,0.0128162977796772,-8.37127611338996
2025-03-08 13:53:33.190,0.0125492051965259,-9.933155423999464
2025-03-08 13:53:33.210,0.0122662550543389,-11.268677044113549
2025-03-08 13:53:33.229,0.0119532136407973,-12.390092196889231
2025-03-08 13:53:33.249,0.011573501038184,-13.353036567486718
2025-03-08 13:53:33.268,0.0110670447483791,-14.25915493918329
2025-03-08 13:53:33.288,0.0103551953900065,-15.249534848521895
2025-03-08 13:53:33.307,0.0093519592770739,-16.48780180494118
2025-03-08 13:53:33.327,0.0079802642074829,-18.133937402856148
2025-03-08 13:53:33.346,0.0061905280517743,-20.312328470797503
2025-03-08 13:53:33.366,0.0039778347150481,-23.079634787380098
2025-03-08 13:53:33.385,0.0013936827131353,-26.3992109071845
2025-03-08 13:53:33.405,-0.0014514119392139,-30.12864695051019
2025-03-08 13:53:33.424,-0.0043968618953961,-34.02533618827134
2025-03-08 13:53:33.444,-0.0072520880340969,-37.7718947794189
2025-03-08 13:53:33.464,-0.0098234656451035,-41.0191039092404
2025-03-08 13:53:33.483,-0.0119411265703634,-43.43957661652279
2025-03-08 13:53:33.503,-0.0134792238468744,-44.78175506153646
2025-03-08 13:53:33.522,-0.0143670580126704,-44.91246433030389
2025-03-08 13:53:33.542,-0.0145926234553025,-43.83803507010828
2025-03-08 13:53:33.561,-0.0142018250751784,-41.6989057941195
2025-03-08 13:53:33.581,-0.0132952041482573,-38.73930799159647
2025-03-08 13:53:33.600,-0.012021071914383,-35.25991399126859
2025-03-08 13:53:33.620,-0.0105620402335649,-31.565029088666144
2025-03-08 13:53:33.639,-0.0091129839949995,-27.91592239410038
2025-03-08 13:53:33.659,-0.0078521790364319,-24.49859375290458
2025-03-08 13:53:33.678,-0.0069112977794054,-21.409220030712117
2025-03-08 13:53:33.698,-0.0063517601477646,-18.655649591538744
2025-03-08 13:53:33.717,-0.0061541473235042,-16.170137739295427
2025-03-08 13:53:33.737,-0.0062247359431873,-13.827655792325476
2025-03-08 13:53:33.756,-0.0064192746215026,-11.465227918030564
2025-03-08 13:53:33.776,-0.0065793581980004,-8.899889426147626
2025-03-08 13:53:33.796,-0.0065724144939093,-5.944940431312344
2025-03-08 13:53:33.815,-0.0063243824794733,-2.4254623745717327
2025-03-08 13:53:33.835,-0.0058359343085116,1.8056091292131
2025-03-08 13:53:33.854,-0.0051780164617021,6.849984126594235
2025-03-08 13:53:33.874,-0.0044685156006064,12.745111502602027
2025-03-08 13:53:33.893,-0.0038369088698019,19.44513948758137
2025-03-08 13:53:33.913,-0.0033866313157488,26.804604764626053
2025-03-08 13:53:33.932,-0.003165217823609,34.56936744404865
2025-03-08 13:53:33.952,-0.0031502512655135,42.38033594898762
2025-03-08 13:53:33.971,-0.0032552917186283,49.79497474284898
2025-03-08 13:53:33.991,-0.0033547889914414,56.32875977928853
2025-03-08 13:53:34.010,-0.0033211699337698,61.513745140165405
2025-03-08 13:53:34.030,-0.0030625415302824,64.9654598291951
2025-03-08 13:53:34.049,-0.0025484719552787,66.4446554276011
2025-03-08 13:53:34.069,-0.0018157027496569,65.89927659765551
2025-03-08 13:53:34.089,-0.0009536575005675,63.47556933585336
2025-03-08 13:53:34.108,-7.698833139222439e-05,59.49460871304537
2025-03-08 13:53:34.128,0.0007042983427873,54.39917368111322
2025-03-08 13:53:34.147,0.0013078974975287,48.68288826997037
2025-03-08 13:53:34.167,0.0016904234988527,42.816866557550696
2025-03-08 13:53:34.186,0.001846717013427,37.18824903399774
2025-03-08 13:53:34.206,0.0018010732624958,32.06087200327717
2025-03-08 13:53:34.225,0.0015959292223695,27.562473082770715
2025-03-08 13:53:34.245,0.0012826604899834,23.69694161907886
2025-03-08 13:53:34.264,0.0009163815722934,20.375403445485222
2025-03-08 13:53:34.284,0.0005537052032839,17.45710025520477
2025-03-08 13:53:34.303,0.0002508746110346,14.790347943772188
2025-03-08 13:53:34.323,5.9968382996173295e-05,12.24520918481186
2025-03-08 13:53:34.342,2.2453566020634443e-05,9.732420432279005
2025-03-08 13:53:34.362,0.0001614580077048,7.206844132709124
2025-03-08 13:53:34.382,0.0004757965363326,4.657449500290882
2025-03-08 13:53:34.401,0.0009388684269345,2.088818892068439
2025-03-08 13:53:34.421,0.0015036444769192,-0.4991048748938289
2025-03-08 13:53:34.440,0.0021122328346867,-3.126173937462292
2025-03-08 13:53:34.460,0.0027067702362326,-5.836743732185687
2025-03-08 13:53:34.479,0.0032384545742901,-8.691522061716414
2025-03-08 13:53:34.499,0.0036728523592685,-11.747927828645368
2025-03-08 13:53:34.518,0.0039911676029472,-15.034022198528616
2025-03-08 13:53:34.538,0.0041883230524731,-18.52361982270169
2025-03-08 13:53:34.557,0.0042693135193215,-22.120713444236525
2025-03-08 13:53:34.577,0.0042453616878866,-25.65947521223713
2025-03-08 13:53:34.596,0.0041310152207109,-28.922144328554136
2025-03-08 13:53:34.616,0.0039426466627463,-31.67210444057301
2025-03-08 13:53:34.635,0.0036981205816515,-33.694929976075166
2025-03-08 13:53:34.655,0.0034169167494783,-34.8376608117823
2025-03-08 13:53:34.674,0.0031198893750016,-35.03691380075695
2025-03-08 13:53:34.694,0.0028281363934565,-34.329482910662456
2025-03-08 13:53:34.714,0.002561010784543,-32.8437414246788
2025-03-08 13:53:34.733,0.0023338037989182,-30.77496504805816
2025-03-08 13:53:34.753,0.0021557810217035,-28.351289340183417
2025-03-08 13:53:34.772,0.0020290674459158,-25.798519954506126
2025-03-08 13:53:34.792,0.0019486074771677,-23.31120952965991
2025-03-08 13:53:34.811,0.0019032462618587,-21.0347539979642
2025-03-08 13:53:34.831,0.0018778373353738,-19.05970855682148
2025-03-08 13:53:34.850,0.0018560593511194,-17.426238618718138
2025-03-08 13:53:34.870,0.001823347642199,-16.134563620020295
2025-03-08 13:53:34.889,0.0017691865288121,-15.156865709428164
2025-03-08 13:53:34.909,0.0016881298756526,-14.44725135104563
2025-03-08 13:53:34.928,0.0015793442431646,-13.94832580276589
2025-03-08 13:53:34.948,0.0014450352561416,-13.594927608256544
2025-03-08 13:53:34.967,0.001288528869619,-13.31685544856175
2025-03-08 13:53:34.987,0.0011128081643919,-13.042654741208557
2025-03-08 13:53:35.007,0.0009199829376441,-12.70580556356129
2025-03-08 13:53:35.026,0.0007117317850177,-12.2533700660515
2025-03-08 13:53:35.046,0.0004904134519263,-11.65582012314235
2025-03-08 13:53:35.065,0.0002603464450662,-10.91579286732924
2025-03-08 13:53:35.085,2.8681882062434996e-05,-10.073146980353926
2025-03-08 13:53:35.104,-0.000194636821423,-9.203966297365607
2025-03-08 13:53:35.124,-0.0003980817181602,-8.412019154668515
2025-03-08 13:53:35.143,-0.0005707577058893,-7.812531382142318
2025-03-08 13:53:35.163,-0.0007050234823554,-7.509818072341314
2025-03-08 13:53:35.182,-0.0007986257422668,-7.572076400373247
2025-03-08 13:53:35.202,-0.0008555369115723,-8.008062373314713
2025-03-08 13:53:35.221,-0.000885175439816,-8.751004540735641
2025-03-08 13:53:35.241,-0.0009003391996386,-9.654596788248009
2025-03-08 13:53:35.260,-0.000914601296363,-10.504145274200887
2025-03-08 13:53:35.280,-0.0009399063997264,-11.043126324853834
2025-03-08 13:53:35.300,-0.0009848184582184,-11.012078013704166
2025-03-08 13:53:35.319,-0.0010535895950162,-10.1936525606092
2025-03-08 13:53:35.339,-0.0011460629890137,-8.455554041559626
2025-03-08 13:53:35.358,-0.0012583133447867,-5.782522709541071
2025-03-08 13:53:35.378,-0.0013837869512247,-2.289758670897821
2025-03-08 13:53:35.397,-0.0015145839324283,1.7868167009813292
2025-03-08 13:53:35.417,-0.0016425543759639,6.123599142319775
2025-03-08 13:53:35.436,-0.0017600873115002,10.360580137875624
2025-03-08 13:53:35.456,-0.0018607219568383,14.161081332360911
2025-03-08 13:53:35.475,-0.001939816062802,17.267388420746393
2025-03-08 13:53:35.495,-0.0019953838159442,19.540122650842022
2025-03-08 13:53:35.514,-0.0020289365403609,20.9730318854518
2025-03-08 13:53:35.534,-0.0020458953557864,21.68115719181192
2025-03-08 13:53:35.553,-0.0020550880311442,21.866975047714963
2025-03-08 13:53:35.573,-0.0020670950854652,21.77391197281989
2025-03-08 13:53:35.592,-0.0020916766360737,21.63822229292561
2025-03-08 13:53:35.612,-0.0021349217501484,21.64863951200828
2025-03-08 13:53:35.632,-0.0021968840332055,21.919641492054428
2025-03-08 13:53:35.651,-0.0022703036335102,22.48022573860696
2025-03-08 13:53:35.671,-0.0023407497802337,23.27705973466609
2025-03-08 13:53:35.690,-0.0023882813235044,24.189256253534165
2025-03-08 13:53:35.710,-0.0023904825150873,25.05153729434453
2025-03-08 13:53:35.729,-0.0023264118242048,25.682474626750302
2025-03-08 13:53:35.749,-0.002180664419088,25.914214877473093
2025-03-08 13:53:35.768,-0.0019466018012798,25.61954053975664
2025-03-08 13:53:35.788,-0.0016280127021648,24.731823025323266
2025-03-08 13:53:35.807,-0.001238963521922,23.25413448630276
2025-03-08 13:53:35.827,-0.0008020702037388,21.25583227008399
2025-03-08 13:53:35.846,-0.0003456236938554,18.85785142150304
2025-03-08 13:53:35.866,0.0001000205574431,16.210652600563044
2025-03-08 13:53:35.885,0.0005063830841846,13.470185473495684
2025-03-08 13:53:35.905,0.0008506162513576,10.776860482163194
2025-03-08 13:53:35.925,0.0011184757575311,8.240712161601571
2025-03-08 13:53:35.944,0.001305995544297,5.933591227047738
2025-03-08 13:53:35.964,0.0014195984919609,3.88733500993024
2025-03-08 13:53:35.983,0.0014746558398176,2.096065689390052
2025-03-08 13:53:36.003,0.0014927251747827,0.5210768000583065
2025-03-08 13:53:36.022,0.0014978220841562,-0.902325690779691
2025-03-08 13:53:36.042,0.001512163299936,-2.2558834904791563
2025-03-08 13:53:36.061,0.0015519425063766,-3.627066533008658
2025-03-08 13:53:36.081,0.0016238646587453,-5.0956631819993845
2025-03-08 13:53:36.100,0.0017232359066905,-6.719530641899183
2025-03-08 13:53:36.120,0.0018342349395871,-8.521669151447492
2025-03-08 13:53:36.139,0.0019325658048872,-10.481291072338587
2025-03-08 13:53:36.159,0.0019901390693591,-12.531440944904126
2025-03-08 13:53:36.178,0.0019809054836012,-14.564886510243609
2025-03-08 13:53:36.198,0.0018865962820364,-16.44846968593927
2025-03-08 13:53:36.217,0.0017010177875047,-18.044095804456312
2025-03-08 13:53:36.237,0.0014318115974365,-19.23251215980394
2025-03-08 13:53:36.257,0.0010992282945482,-19.934639414979173
2025-03-08 13:53:36.276,0.0007322834677232,-20.12510335031663
2025-03-08 13:53:36.296,0.0003633628680966,-19.83407222086964
2025-03-08 13:53:36.315,2.266565360308396e-05,-19.13629846038056
2025-03-08 13:53:36.335,-0.0002662573134243,-18.12964731219709
2025-03-08 13:53:36.354,-0.0004890817878345,-16.908386501204962
2025-03-08 13:53:36.374,-0.0006411899443625,-15.53823685466478
2025-03-08 13:53:36.393,-0.0007263102334666,-14.040131646307932
2025-03-08 13:53:36.413,-0.0007538686626454,-12.38774720128954
2025-03-08 13:53:36.432,-0.0007357437409558,-10.520533447448909
2025-03-08 13:53:36.452,-0.0006831700423617,-8.369932238230918
2025-03-08 13:53:36.471,-0.0006045160681622,-5.892682525888376
2025-03-08 13:53:36.491,-0.0005045041551415,-3.102565469616651
2025-03-08 13:53:36.510,-0.0003850625616318,-0.0914519477183814
2025-03-08 13:53:36.530,-0.0002474441538265,2.9675120622453925
2025-03-08 13:53:36.550,-9.47348887861304e-05,5.837533264784804
2025-03-08 13:53:36.569,6.63055986888635e-05,8.254093828498396
2025-03-08 13:53:36.589,0.0002248405437934,9.971519566290011
2025-03-08 13:53:36.608,0.0003671308351375,10.80940901210721
2025-03-08 13:53:36.628,0.0004787941106632,10.688011159523311
2025-03-08 13:53:36.647,0.0005473386861993,9.644467522921698
2025-03-08 13:53:36.667,0.0005642708311066,7.826643160653989
2025-03-08 13:53:36.686,0.0005264322253413,5.46664386526915
2025-03-08 13:53:36.706,0.0004365512028486,2.840655414240465
2025-03-08 13:53:36.725,0.000303130489231,0.2243792629825678
2025-03-08 13:53:36.745,0.0001397831866715,-2.1464578323040366
2025-03-08 13:53:36.764,-3.592313366788252e-05,-4.103170936552082
2025-03-08 13:53:36.784,-0.0002040874493161,-5.555148889656941
2025-03-08 13:53:36.803,-0.0003445295237224,-6.4854410897467805
2025-03-08 13:53:36.823,-0.0004391703152499,-6.934946203966375
2025-03-08 13:53:36.843,-0.0004744745885317,-6.981089583539043
2025-03-08 13:53:36.862,-0.0004435327419855,-6.716828386913695
2025-03-08 13:53:36.882,-0.000347330216514,-6.234240570191291
2025-03-08 13:53:36.901,-0.0001949072608242,-5.614600234070796
2025-03-08 13:53:36.921,-2.3673191744000364e-06,-4.9245669550120255
2025-03-08 13:53:36.940,0.0002090902807153,-4.2165631092771685
2025-03-08 13:53:36.960,0.0004158389011627,-3.530861769057168
2025-03-08 13:53:36.979,0.0005948960955187,-2.8972740712440306
2025-03-08 13:53:36.999,0.0007270354174356,-2.33526188846658
2025-03-08 13:53:37.018,0.0007994369918418,-1.8523673991039105
2025-03-08 13:53:37.038,0.0008072854135729,-1.4416932541007872
2025-03-08 13:53:37.057,0.0007538635313602,-1.079632690248621
2025-03-08 13:53:37.077,0.00064912290907,-0.7251543046354837
2025-03-08 13:53:37.096,0.0005072617178159,-0.3217561758315208
2025-03-08 13:53:37.116,0.0003441542601154,0.1972428718122522
2025-03-08 13:53:37.135,0.0001753098874191,0.9000723405559635
2025-03-08 13:53:37.155,1.4529914376425964e-05,1.845329858676092
2025-03-08 13:53:37.175,-0.000127014516383,3.069814035277958
2025-03-08 13:53:37.194,-0.0002416462627116,4.577501724915561
2025-03-08 13:53:37.214,-0.0003260920757304,6.33198216975891
2025-03-08 13:53:37.233,-0.000382173089971,8.254322325205395
2025-03-08 13:53:37.253,-0.0004167885283143,10.227482173881755
2025-03-08 13:53:37.272,-0.0004407788380739,12.107202100867768
2025-03-08 13:53:37.292,-0.0004665992871202,13.73804532431858
2025-03-08 13:53:37.311,-0.0005051889027126,14.972296666667477
2025-03-08 13:53:37.331,-0.0005627868366922,15.688885517674368
2025-03-08 13:53:37.350,-0.0006386031370512,15.809465269744392
2025-03-08 13:53:37.370,-0.0007241538741139,15.309190870443167
2025-03-08 13:53:37.389,-0.0008047016221784,14.22049395042286
2025-03-08 13:53:37.409,-0.0008626139291587,12.629156103855273
2025-03-08 13:53:37.428,-0.0008817476948052,10.663112203333624
2025-03-08 13:53:37.448,-0.000851544724616,8.475541613995455
2025-03-08 13:53:37.468,-0.0007696475036994,6.224762870673487
2025-03-08 13:53:37.487,-0.0006424370431538,4.054064626920565
2025-03-08 13:53:37.507,-0.0004836074012205,2.074740249946524
2025-03-08 13:53:37.526,-0.0003113871168299,0.3551705499340698
2025-03-08 13:53:37.546,-0.0001451824847659,-1.082171583896189
2025-03-08 13:53:37.565,-2.348260009515841e-06,-2.2553368496013677
2025-03-08 13:53:37.585,0.0001043687742037,-3.21032788356727
2025-03-08 13:53:37.604,0.000168349815531,-4.0040950684763965
2025-03-08 13:53:37.624,0.0001894259705316,-4.6869442585161645
2025-03-08 13:53:37.643,0.0001730750301787,-5.2884777666192
2025-03-08 13:53:37.663,0.0001288138596064,-5.810484128178385
2025-03-08 13:53:37.682,6.82783448276084e-05,-6.2285810770075845
2025-03-08 13:53:37.702,3.4563474815319977e-06,-6.502230318734447
2025-03-08 13:53:37.721,-5.469598972758232e-05,-6.590514007856104
2025-03-08 13:53:37.741,-9.729617710912912e-05,-6.469406579836975
2025-03-08 13:53:37.761,-0.0001183693589342,-6.145704511761994
2025-03-08 13:53:37.780,-0.0001154747796932,-5.663515763148696
2025-03-08 13:53:37.800,-8.994102280520217e-05,-5.101098589946922
2025-03-08 13:53:37.819,-4.650765300767654e-05,-4.558357126295377
2025-03-08 13:53:37.839,7.644670063012505e-06,-4.137729211282664
2025-03-08 13:53:37.858,6.42634658024875e-05,-3.9228555447317
2025-03-08 13:53:37.878,0.0001154748307047,-3.959873709314421
2025-03-08 13:53:37.897,0.0001550441088466,-4.245410825186756
2025-03-08 13:53:37.917,0.0001792813067294,-4.723715060720015
2025-03-08 13:53:37.936,0.0001874895846489,-5.29342071756704
2025-03-08 13:53:37.956,0.0001818742938807,-5.822661439943688
2025-03-08 13:53:37.975,0.00016688368804,-6.169890503716002
2025-03-08 13:53:37.995,0.0001480930655764,-6.206927570768679
2025-03-08 13:53:38.014,0.0001309155782282,-5.840470426880081
2025-03-08 13:53:38.034,0.0001194984101755,-5.028614895161939
2025-03-08 13:53:38.053,0.0001160670736942,-3.7897669394221487
2025-03-08 13:53:38.073,0.0001207769798973,-2.2025443840852152
2025-03-08 13:53:38.093,0.000131973380595,-0.3966310847002811
2025-03-08 13:53:38.112,0.0001467335198878,1.4641177930119185
2025-03-08 13:53:38.132,0.0001616008468139,3.2038266951607723
2025-03-08 13:53:38.151,0.0001734032235775,4.658571753253334
2025-03-08 13:53:38.171,0.0001799694147166,5.698238259302754
2025-03-08 13:53:38.190,0.000180532577335,6.242513987794407
2025-03-08 13:53:38.210,0.0001757178960272,6.268287820816331
2025-03-08 13:53:38.229,0.0001671997686856,5.8074592485673735
2025-03-08 13:53:38.249,0.0001572406911381,4.936210540282749
2025-03-08 13:53:38.268,0.0001482955827789,3.7585855706788194
2025-03-08 13:53:38.288,0.0001427213537986,2.388251707989512
2025-03-08 13:53:38.307,0.0001425037952683,0.9323242216386264
2025-03-08 13:53:38.327,0.0001489097574518,-0.5198504525255977
2025-03-08 13:53:38.346,0.0001620925118361,-1.9016863969689344
2025-03-08 13:53:38.366,0.0001808157796774,-3.16860564624158
2025-03-08 13:53:38.386,0.0002024866561952,-4.293356619403076
2025-03-08 13:53:38.405,0.0002235614909658,-5.259816109084628
2025-03-08 13:53:38.425,0.0002402069570619,-6.057521462450811
2025-03-08 13:53:38.444,0.0002490037636092,-6.67846057206458
2025-03-08 13:53:38.464,0.0002475274870702,-7.11667621051987
2025-03-08 13:53:38.483,0.0002347473157282,-7.370291434826913
2025-03-08 13:53:38.503,0.000211232478476,-7.444838879809537
2025-03-08 13:53:38.522,0.0001791341696761,-7.356419220100754
2025-03-08 13:53:38.542,0.000141900062906,-7.133286892836083
2025-03-08 13:53:38.561,0.0001037352972335,-6.814911314687751
2025-03-08 13:53:38.581,6.891545616231837e-05,-6.448216941137682
2025-03-08 13:53:38.600,4.110568164304684e-05,-6.081362781010617
2025-03-08 13:53:38.620,2.2805010859346015e-05,-5.755961334961772
2025-03-08 13:53:38.639,1.4962576930910587e-05,-5.4990374119784216
2025-03-08 13:53:38.659,1.6788766038183308e-05,-5.31628199046651
2025-03-08 13:53:38.678,2.582534928161549e-05,-5.188201650496336
2025-03-08 13:53:38.698,3.835924223897204e-05,-5.070496533708635
2025-03-08 13:53:38.718,5.018244528336883e-05,-4.899349663223107
2025-03-08 13:53:38.737,5.754128692452661e-05,-4.601317504301827
2025-03-08 13:53:38.757,5.799546328720457e-05,-4.106363236314735
2025-03-08 13:53:38.776,5.091770957678743e-05,-3.361580139960023
2025-03-08 13:53:38.796,3.750747505376039e-05,-2.3426558656925702
2025-03-08 13:53:38.815,2.0368422580959776e-05,-1.0603811075644896
2025-03-08 13:53:38.835,2.7923212212582978e-06,0.4394527141673057
2025-03-08 13:53:38.854,-1.2126607725306248e-05,2.082838498247072
2025-03-08 13:53:38.874,-2.245961070732492e-05,3.7794531676704
2025-03-08 13:53:38.893,-2.8349923135206225e-05,5.436946522238884
2025-03-08 13:53:38.913,-3.2576275147440755e-05,6.974561076498586
2025-03-08 13:53:38.932,-4.042431231108583e-05,8.333516458838346
2025-03-08 13:53:38.952,-5.8662344831964966e-05,9.48260970855207
2025-03-08 13:53:38.971,-9.375605870207262e-05,10.418618008646792
2025-03-08 13:53:38.991,-0.0001498093760326,11.162029044538842
2025-03-08 13:53:39.011,-0.0002268804773659,11.74925067225479
2025-03-08 13:53:39.030,-0.0003202061004861,12.222808231657169
2025-03-08 13:53:39.050,-0.0004205651609364,12.621206393068933
2025-03-08 13:53:39.069,-0.0005157079839771,12.970146316977129
2025-03-08 13:53:39.089,-0.0005925752587376,13.276618082457214
2025-03-08 13:53:39.108,-0.0006398889745432,13.526972739677475
2025-03-08 13:53:39.128,-0.0006505519615054,13.689391260115402
2025-03-08 13:53:39.147,-0.0006232185104576,13.720285768211884
2025-03-08 13:53:39.167,-0.0005625596453482,13.57329221919933
2025-03-08 13:53:39.186,-0.0004781621906827,13.208908037432687
2025-03-08 13:53:39.206,-0.00038245153685,12.602714996079271
2025-03-08 13:53:39.225,-0.0002882528381332,11.750575253870316
2025-03-08 13:53:39.245,-0.0002065434223857,10.670049438433468
2025-03-08 13:53:39.264,-0.0001447495849374,9.398245813621692
2025-03-08 13:53:39.284,-0.0001057790683854,7.987042405296047
2025-03-08 13:53:39.304,-8.790417746389692e-05,6.496937102630991
2025-03-08 13:53:39.323,-8.553906152557185e-05,4.990663587584717
2025-03-08 13:53:39.343,-9.079406976960852e-05,3.5273035247040947
2025-03-08 13:53:39.362,-9.545187650917917e-05,2.1571590096501607
2025-03-08 13:53:39.382,-9.282910823670172e-05,0.9173596285751162
2025-03-08 13:53:39.401,-7.901188162627961e-05,-0.1718043122039068
2025-03-08 13:53:39.421,-5.320768945216877e-05,-1.1095521700097977
2025-03-08 13:53:39.440,-1.7299385660989063e-05,-1.9156679318048109
2025-03-08 13:53:39.460,2.508700453721024e-05,-2.6291386934606877
2025-03-08 13:53:39.479,6.96821191639418e-05,-3.303741117553572
2025-03-08 13:53:39.499,0.0001126371134445,-4.000502626076384
2025-03-08 13:53:39.518,0.0001514042664643,-4.777797975491537
2025-03-08 13:53:39.538,0.0001852412940957,-5.680669147630262
2025-03-08 13:53:39.557,0.0002151409240043,-6.731453355117038
2025-03-08 13:53:39.577,0.0002431606984436,-7.923750112406765
2025-03-08 13:53:39.596,0.0002714150796487,-9.221135593631232
2025-03-08 13:53:39.616,0.0003011651066164,-10.56101871232656
2025-03-08 13:53:39.636,0.0003323527111981,-11.862920283762527
2025-03-08 13:53:39.655,0.0003636585151679,-13.039549386660733
2025-03-08 13:53:39.675,0.0003929187965602,-14.008577414832573
2025-03-08 13:53:39.694,0.000417657260781,-14.703057013147632
2025-03-08 13:53:39.714,0.0004355604458123,-15.078931243042634
2025-03-08 13:53:39.733,0.0004448416738384,-15.118839325400357
2025-03-08 13:53:39.753,0.0004444939420789,-14.83220600907299
2025-03-08 13:53:39.772,0.0004344178719746,-14.2521851742725
2025-03-08 13:53:39.792,0.000415398996823,-13.43031008387885
2025-03-08 13:53:39.811,0.0003889512135041,-12.42973698429678
2025-03-08 13:53:39.831,0.0003571054666866,-11.31791375270397
2025-03-08 13:53:39.850,0.0003222287446538,-10.15948053738471
2025-03-08 13:53:39.870,0.0002868824111659,-9.010193467661525
2025-03-08 13:53:39.889,0.0002536336718948,-7.912543056054853
2025-03-08 13:53:39.909,0.0002247231499571,-6.893458565880301
2025-03-08 13:53:39.929,0.0002016074594615,-5.964121852822987
2025-03-08 13:53:39.948,0.000184556153193,-5.121594495590657
2025-03-08 13:53:39.968,0.0001725349240073,-4.351773095052985
2025-03-08 13:53:39.987,0.00016347178164,-3.6331268098243727
2025-03-08 13:53:40.007,0.0001547735423721,-2.9407023742487644
2025-03-08 13:53:40.026,0.0001438285702946,-2.2499780471441726
2025-03-08 13:53:40.046,0.0001282954167074,-1.5402780623139352
2025-03-08 13:53:40.065,0.0001061540328153,-0.7975655719089353
2025-03-08 13:53:40.085,7.563443243967916e-05,-0.0164535663653612
2025-03-08 13:53:40.104,3.515702161061751e-05,0.7987975141586887
2025-03-08 13:53:40.124,-1.6644135570993236e-05,1.6346062890021305
2025-03-08 13:53:40.143,-8.079298585064725e-05,2.4699802717511243
2025-03-08 13:53:40.163,-0.0001577074505815,3.2799959489442783
2025-03-08 13:53:40.182,-0.0002467687116965,4.040400433235331
2025-03-08 13:53:40.202,-0.0003457855700232,4.732474904688122
2025-03-08 13:53:40.222,-0.0004505656261362,5.347104680065858
2025-03-08 13:53:40.241,-0.0005548666578684,5.887096068508903
2025-03-08 13:53:40.261,-0.0006508843315272,6.367113225559393
2025-03-08 13:53:40.280,-0.0007302075938591,6.811075301757651
2025-03-08 13:53:40.300,-0.0007849946181489,7.247366149540377
2025-03-08 13:53:40.319,-0.0008090817269057,7.702691815608399
2025-03-08 13:53:40.339,-0.0007988171177433,8.195793054767444
2025-03-08 13:53:40.358,-0.0007535272767507,8.732391693977743
2025-03-08 13:53:40.378,-0.000675596537973,9.302644827633989
2025-03-08 13:53:40.397,-0.0005701601494207,9.881961361238265
2025-03-08 13:53:40.417,-0.0004444486014328,10.435327392795006
2025-03-08 13:53:40.436,-0.0003069257510704,10.92440523703718
2025-03-08 13:53:40.456,-0.0001664671990766,11.315826464173938
2025-03-08 13:53:40.475,-3.17946531553554e-05,11.588567483916028
2025-03-08 13:53:40.495,8.882139690419791e-05,11.738328077975089
2025-03-08 13:53:40.514,0.0001878163281218,11.777522916457333
2025-03-08 13:53:40.534,0.0002588328982516,11.730682706637026
2025-03-08 13:53:40.554,0.0002975664906891,11.626367872981412
2025-03-08 13:53:40.573,0.0003027386499951,11.487699384611242
2025-03-08 13:53:40.593,0.0002767990277653,11.324010502388196
2025-03-08 13:53:40.612,0.0002260366501583,11.125830002413966
2025-03-08 13:53:40.632,0.0001600269804349,10.864545194057944
2025-03-08 13:53:40.651,9.05211478782226e-05,10.49694104271114
2025-03-08 13:53:40.671,2.9892777200580905e-05,9.973683018168606
2025-03-08 13:53:40.690,-1.0769382836471529e-05,9.249938793164004
2025-03-08 13:53:40.710,-2.3709042509305456e-05,8.295852250647327
2025-03-08 13:53:40.729,-6.218881042762281e-06,7.104572587721254
2025-03-08 13:53:40.749,3.8589911910108047e-05,5.696032110992231
2025-03-08 13:53:40.768,0.0001023973526922,4.115590516732015
2025-03-08 13:53:40.788,0.0001736158670427,2.4278232708628127
2025-03-08 13:53:40.807,0.0002400979789154,0.7068330697012497
2025-03-08 13:53:40.827,0.0002917810197783,-0.9747985952673076
2025-03-08 13:53:40.847,0.0003225493389896,-2.556134677594523
2025-03-08 13:53:40.866,0.0003309672918792,-3.995212614995488
2025-03-08 13:53:40.886,0.0003199311477917,-5.272522268286288
2025-03-08 13:53:40.905,0.0002955177973721,-6.390464734534944
2025-03-08 13:53:40.925,0.0002653586205884,-7.36932853606896
2025-03-08 13:53:40.944,0.0002368622042339,-8.240722165399626
2025-03-08 13:53:40.964,0.0002156443331069,-9.039562962921252
2025-03-08 13:53:40.983,0.0002045354965851,-9.795779086129851
2025-03-08 13:53:41.003,0.0002033934439769,-10.52691944877493
2025-03-08 13:53:41.022,0.0002096547974518,-11.23285660448648
2025-03-08 13:53:41.042,0.0002193001576523,-11.893609856967435
2025-03-08 13:53:41.061,0.0002278665795974,-12.47093631908823
2025-03-08 13:53:41.081,0.000231309987869,-12.913746853733498
2025-03-08 13:53:41.100,0.0002266997331577,-13.166689736538984
2025-03-08 13:53:41.120,0.000212739830831,-13.18053968027236
2025-03-08 13:53:41.140,0.0001899949096333,-12.922494886795963
2025-03-08 13:53:41.159,0.0001606623526483,-12.384300982815734
2025-03-08 13:53:41.179,0.0001278986179318,-11.586433231011563
2025-03-08 13:53:41.198,9.495794972665762e-05,-10.577381102479093
2025-03-08 13:53:41.218,6.450596324909475e-05,-9.428189204887778
2025-03-08 13:53:41.237,3.83273964990772e-05,-8.223468829292575
2025-03-08 13:53:41.257,1.7368972276948043e-05,-7.050770161585737
2025-03-08 13:53:41.276,1.8708674531096515e-06,-5.990313080852001
2025-03-08 13:53:41.296,-8.604917967329767e-06,-5.106642855018321
2025-03-08 13:53:41.315,-1.521376995702338e-05,-4.443020908082664
2025-03-08 13:53:41.335,-1.973490708506029e-05,-4.018583189246195
2025-03-08 13:53:41.354,-2.4201764657070644e-05,-3.827767024694753
2025-03-08 13:53:41.374,-3.0325137558499705e-05,-3.8413710802131216
2025-03-08 13:53:41.393,-3.895258132869457e-05,-4.008872721519498
2025-03-08 13:53:41.413,-4.98162183173331e-05,-4.262120860862987
2025-03-08 13:53:41.432,-6.167975176275161e-05,-4.520943833488457
