Timestamp,GSR_Filtered,PPG_Filtered
2025-03-08 13:53:03.990,7.198004140556542e-07,-38.77572971786637
2025-03-08 13:53:04.010,0.00010237002463704551,-38.16136535460241
2025-03-08 13:53:04.029,0.00019544930858512001,-37.13262635858912
2025-03-08 13:53:04.049,0.00027218630479841524,-36.10054903892036
2025-03-08 13:53:04.068,0.00032699452950483065,-35.31650183141483
2025-03-08 13:53:04.088,0.00035698294064190404,-34.799972229996996
2025-03-08 13:53:04.107,0.0003620242718636681,-34.33906213084578
2025-03-08 13:53:04.127,0.0003444723689848736,-33.56460295134755
2025-03-08 13:53:04.146,0.0003086262350896914,-32.07452054042206
2025-03-08 13:53:04.166,0.00026003354810096984,-29.568399406182234
2025-03-08 13:53:04.185,0.00020472655996233983,-25.949852094163536
2025-03-08 13:53:04.205,0.0001484851096411175,-21.36713358224865
2025-03-08 13:53:04.224,9.621924997408438e-05,-16.18458177569534
2025-03-08 13:53:04.244,5.153816692743037e-05,-10.899429260772733
2025-03-08 13:53:04.264,1.6512878626717285e-05,-6.032292850357011
2025-03-08 13:53:04.283,-8.415902504966092e-06,-2.0222066073210567
2025-03-08 13:53:04.303,-2.4438152163753486e-05,0.8495022457599047
2025-03-08 13:53:04.322,-3.42863101409879e-05,2.493380287701129
2025-03-08 13:53:04.342,-4.198474015244034e-05,3.0026582920164695
2025-03-08 13:53:04.361,-5.23066036573019e-05,2.609068231965901
2025-03-08 13:53:04.381,-6.985247173572833e-05,1.618572522773253
2025-03-08 13:53:04.400,-9.785746000480646e-05,0.3444777568414387
2025-03-08 13:53:04.420,-0.00013707807567782924,-0.9463265221791072
2025-03-08 13:53:04.439,-0.00018521164995775384,-2.063759044810632
2025-03-08 13:53:04.459,-0.00023715184337550326,-2.8989678443015925
2025-03-08 13:53:04.478,-0.00028607100788856675,-3.407687595914507
2025-03-08 13:53:04.498,-0.0003250430265809241,-3.5826746987020583
2025-03-08 13:53:04.517,-0.00034881066805240714,-3.4270668974897367
2025-03-08 13:53:04.537,-0.0003553344094973269,-2.9385848081445696
2025-03-08 13:53:04.557,-0.0003468161243927514,-2.109807737737997
2025-03-08 13:53:04.576,-0.000329895232356189,-0.9437914185361185
2025-03-08 13:53:04.596,-0.0003147164647388117,0.5212690999066294
2025-03-08 13:53:04.615,-0.000312698221096972,2.1882635029230966
2025-03-08 13:53:04.635,-0.00033318553125225123,3.8888982117646935
2025-03-08 13:53:04.654,-0.00037971355910408546,5.391071041356486
2025-03-08 13:53:04.674,-0.0004470971649343552,6.428956752887361
2025-03-08 13:53:04.693,-0.0005206256584308878,6.752431041411648
2025-03-08 13:53:04.713,-0.0005780651867580144,6.1861735772311945
2025-03-08 13:53:04.732,-0.0005941776252409457,4.684277527051024
2025-03-08 13:53:04.752,-0.0005466022201881755,2.364946966555586
2025-03-08 13:53:04.771,-0.0004216386919332356,-0.4871086852775357
2025-03-08 13:53:04.791,-0.0002186926622414893,-3.455720646660763
2025-03-08 13:53:04.810,4.7471571326328234e-05,-6.061027368732595
2025-03-08 13:53:04.830,0.0003472854589829299,-7.845842704711309
2025-03-08 13:53:04.850,0.0006401958282404563,-8.460921504041655
2025-03-08 13:53:04.869,0.0008817933253935791,-7.729717145206774
2025-03-08 13:53:04.889,0.0010333958710124977,-5.6792344917655875
2025-03-08 13:53:04.908,0.0010720628247152149,-2.5330096304137975
2025-03-08 13:53:04.928,0.0009981437265235574,1.3283500920745521
2025-03-08 13:53:04.947,0.0008375015016604705,5.427437558284365
2025-03-08 13:53:04.967,0.0006368412168911872,9.258082698086309
2025-03-08 13:53:04.986,0.00045288935183588627,12.245576740252515
2025-03-08 13:53:05.006,0.0003384727326152653,14.163115077018178
2025-03-08 13:53:05.025,0.00032954073109508754,14.732546450429085
2025-03-08 13:53:05.045,0.00043647037671548883,13.84494004929964
2025-03-08 13:53:05.064,0.0006414443960050967,11.589847512341775
2025-03-08 13:53:05.084,0.0009022639109748899,8.265381151340808
2025-03-08 13:53:05.103,0.0011617514806646658,4.361326491635621
2025-03-08 13:53:05.123,0.0013606176302616679,0.5089663660794218
2025-03-08 13:53:05.142,0.001450542926935533,-2.603095820166892
2025-03-08 13:53:05.162,0.0014040018357868507,-4.339234820096468
2025-03-08 13:53:05.182,0.0012184169763742967,-4.236580595487818
2025-03-08 13:53:05.201,0.0009141481149337286,-2.111850692576616
2025-03-08 13:53:05.221,0.000527682052322158,1.8678328890756561
2025-03-08 13:53:05.240,0.00010250218402341318,7.168318570331257
2025-03-08 13:53:05.260,-0.00031970091545238465,12.93495664192211
2025-03-08 13:53:05.279,-0.0007053959040742855,18.099937718070045
2025-03-08 13:53:05.299,-0.001032135139843007,21.537041475337443
2025-03-08 13:53:05.318,-0.001288257383103361,22.24148364890064
2025-03-08 13:53:05.338,-0.0014706343729723652,19.506928597096724
2025-03-08 13:53:05.357,-0.0015821453706673656,13.07011707370566
2025-03-08 13:53:05.377,-0.001630072398101572,3.196437237886337
2025-03-08 13:53:05.396,-0.001625453736809172,-9.312752555150688
2025-03-08 13:53:05.416,-0.0015824435152033626,-23.198815097296865
2025-03-08 13:53:05.435,-0.0015166789022118257,-36.90438972853514
2025-03-08 13:53:05.455,-0.0014424962195595172,-48.79115044846129
2025-03-08 13:53:05.475,-0.0013697329502229008,-57.38313623934602
2025-03-08 13:53:05.494,-0.0013011068384397783,-61.59321883211197
2025-03-08 13:53:05.514,-0.0012308359856354233,-60.88886432210742
2025-03-08 13:53:05.533,-0.0011447763348202055,-55.3622184849855
2025-03-08 13:53:05.553,-0.0010222353340083308,-45.688999937070996
2025-03-08 13:53:05.572,-0.0008396552774052038,-32.986438118370636
2025-03-08 13:53:05.592,-0.0005762094201332502,-18.604452675009316
2025-03-08 13:53:05.611,-0.00022079832125643895,-3.8984293957853127
2025-03-08 13:53:05.631,0.0002209676725726129,9.967668562897709
2025-03-08 13:53:05.650,0.0007221065992860606,22.151397600924792
2025-03-08 13:53:05.670,0.0012345214027265044,32.17888887528878
2025-03-08 13:53:05.689,0.001695869047814374,39.91435037847932
2025-03-08 13:53:05.709,0.0020425057310513943,45.4745721060539
2025-03-08 13:53:05.728,0.0022251570285844076,49.11921957803812
2025-03-08 13:53:05.748,0.002222081328542605,51.14621759123716
2025-03-08 13:53:05.767,0.00204490406043487,51.812602667020826
2025-03-08 13:53:05.787,0.001735009955187362,51.28894180144915
2025-03-08 13:53:05.807,0.0013519330761099892,49.64419252121152
2025-03-08 13:53:05.826,0.0009578205801925514,46.851385728526836
2025-03-08 13:53:05.846,0.00060285950223463,42.804596556698996
2025-03-08 13:53:05.865,0.00031566682682838645,37.343194146817076
2025-03-08 13:53:05.885,0.00010071853453878543,30.28612645362944
2025-03-08 13:53:05.904,-5.732984753975745e-05,21.481761758337207
2025-03-08 13:53:05.924,-0.00018449749877519323,10.87453427321751
2025-03-08 13:53:05.943,-0.00030673333118674817,-1.4203143438078951
2025-03-08 13:53:05.963,-0.00044091865315590707,-15.052893478371537
2025-03-08 13:53:05.982,-0.0005900464354004923,-29.409001023735254
2025-03-08 13:53:06.002,-0.000743390705068517,-43.63277268239945
2025-03-08 13:53:06.021,-0.000880777239610788,-56.706702809832656
2025-03-08 13:53:06.041,-0.0009789467389005513,-67.5781720902378
2025-03-08 13:53:06.060,-0.0010178522214197843,-75.30839737855257
2025-03-08 13:53:06.080,-0.0009853869320448061,-79.21310143138297
2025-03-08 13:53:06.100,-0.0008799258949656371,-78.9659387612017
2025-03-08 13:53:06.119,-0.0007107101103995493,-74.6454034844522
2025-03-08 13:53:06.139,-0.0004964242012880198,-66.72060929164886
2025-03-08 13:53:06.158,-0.00026246494820015594,-55.98552188916105
2025-03-08 13:53:06.178,-3.7477064160238226e-05,-43.45935556702561
2025-03-08 13:53:06.197,0.00015027260033393286,-30.270965768328963
2025-03-08 13:53:06.217,0.00027623924533002296,-17.540218030997238
2025-03-08 13:53:06.236,0.00032241113693176366,-6.264623944904406
2025-03-08 13:53:06.256,0.0002794500781770909,2.7818607140224025
2025-03-08 13:53:06.275,0.00014798228410066658,9.129455628581217
2025-03-08 13:53:06.295,-6.124354851436756e-05,12.662276290901033
2025-03-08 13:53:06.314,-0.0003285606219790956,13.627185365071892
2025-03-08 13:53:06.334,-0.0006278115272465875,12.595676064632817
2025-03-08 13:53:06.353,-0.0009293060125857178,10.379657099829014
2025-03-08 13:53:06.373,-0.001202336893622456,7.910413169224864
2025-03-08 13:53:06.393,-0.0014167068778959363,6.097750708521464
2025-03-08 13:53:06.412,-0.0015437054812156047,5.691534789981232
2025-03-08 13:53:06.432,-0.0015577284096694834,7.169280628026429
2025-03-08 13:53:06.451,-0.0014394884979810464,10.67076077345792
2025-03-08 13:53:06.471,-0.0011805762450151436,15.993783469075108
2025-03-08 13:53:06.490,-0.0007878426768364149,22.65463526140096
2025-03-08 13:53:06.510,-0.000285599971693364,30.003002260802276
2025-03-08 13:53:06.529,0.00028577295664211736,37.36691040623573
2025-03-08 13:53:06.549,0.0008749946577103082,44.19269545168797
2025-03-08 13:53:06.568,0.0014277486741678985,50.14309036666884
2025-03-08 13:53:06.588,0.0018954019664808688,55.12593785937686
2025-03-08 13:53:06.607,0.0022425860640121953,59.24528056891352
2025-03-08 13:53:06.627,0.0024521058000993652,62.68980813864524
2025-03-08 13:53:06.646,0.0025263694779127247,65.59294097652429
2025-03-08 13:53:06.666,0.002485188699525406,67.90768200795617
2025-03-08 13:53:06.685,0.0023602645281832046,69.33529154602111
2025-03-08 13:53:06.705,0.002187083705035053,69.33185455753681
2025-03-08 13:53:06.725,0.001995453499162086,67.19596134569227
2025-03-08 13:53:06.744,0.0018005359866916561,62.22005385520228
2025-03-08 13:53:06.764,0.0015967941743413123,53.872743531270444
2025-03-08 13:53:06.783,0.0013572907151702496,41.972538577663784
2025-03-08 13:53:06.803,0.0010398371698263533,26.814967077847943
2025-03-08 13:53:06.822,0.0005995160701662537,9.223203544898011
2025-03-08 13:53:06.842,4.697440435870279e-06,-9.494890162237517
2025-03-08 13:53:06.861,-0.0007480505873006116,-27.6842443717736
2025-03-08 13:53:06.881,-0.0016248810917934627,-43.55771947175535
2025-03-08 13:53:06.900,-0.0025545523484231066,-55.455532525899436
2025-03-08 13:53:06.920,-0.003437779799405318,-62.10428407666261
2025-03-08 13:53:06.939,-0.004163842309062965,-62.82856521190398
2025-03-08 13:53:06.959,-0.004630246743495203,-57.67681294354894
2025-03-08 13:53:06.978,-0.004760546394162145,-47.44103004852633
2025-03-08 13:53:06.998,-0.004516209313878119,-33.571113683876845
2025-03-08 13:53:07.018,-0.0039005848912444757,-18.00141951768527
2025-03-08 13:53:07.037,-0.0029557758350588314,-2.9157650942689135
2025-03-08 13:53:07.057,-0.0017553023960949076,9.52137950951036
2025-03-08 13:53:07.076,-0.0003957362799024475,17.440815115877502
2025-03-08 13:53:07.096,0.0010109835072118554,19.524576736406015
2025-03-08 13:53:07.115,0.0023448082415256774,15.211959522249634
2025-03-08 13:53:07.135,0.003485746940576631,4.822758273689231
2025-03-08 13:53:07.154,0.004324013921777073,-10.43301324600277
2025-03-08 13:53:07.174,0.004772080303459535,-28.578251920315196
2025-03-08 13:53:07.193,0.004777225338603584,-47.12287057806232
2025-03-08 13:53:07.213,0.004332152943909675,-63.42025552953484
2025-03-08 13:53:07.232,0.0034808046362940635,-75.07236730995984
2025-03-08 13:53:07.252,0.0023169067227682334,-80.31366216126544
2025-03-08 13:53:07.271,0.0009741455001812971,-78.30206747123158
2025-03-08 13:53:07.291,-0.00039107809349657745,-69.25922326794654
2025-03-08 13:53:07.311,-0.0016213067716652411,-54.42976137161212
2025-03-08 13:53:07.330,-0.0025798935624224053,-35.86453819524636
2025-03-08 13:53:07.350,-0.003168968416860486,-16.067508678262776
2025-03-08 13:53:07.369,-0.0033405678115188725,2.427328142836383
2025-03-08 13:53:07.389,-0.0030997233210857465,17.46916475533753
2025-03-08 13:53:07.408,-0.0025001203609427867,27.616321889594296
2025-03-08 13:53:07.428,-0.0016342870177167195,32.31445952302228
2025-03-08 13:53:07.447,-0.0006205773210311494,31.89577620850167
2025-03-08 13:53:07.467,0.0004114948689414798,27.40504502258664
2025-03-08 13:53:07.486,0.0013367751851834358,20.297090101185766
2025-03-08 13:53:07.506,0.0020498682860783145,12.081150584602781
2025-03-08 13:53:07.525,0.002478462401015552,3.9998836463914773
2025-03-08 13:53:07.545,0.0025919833829737443,-3.181610510015796
2025-03-08 13:53:07.564,0.002403648337818031,-9.23525454323878
2025-03-08 13:53:07.584,0.0019657788668597347,-14.380398549586998
2025-03-08 13:53:07.603,0.0013599921355258932,-19.08764384247887
2025-03-08 13:53:07.623,0.0006845607119310614,-23.843699527179357
2025-03-08 13:53:07.643,4.078996438685532e-05,-28.949123125538332
2025-03-08 13:53:07.662,-0.0004804262067896705,-34.403696947421786
2025-03-08 13:53:07.682,-0.0008108503447142868,-39.9014566262747
2025-03-08 13:53:07.701,-0.0009145291194978501,-44.92007953758986
2025-03-08 13:53:07.721,-0.0007930623625554463,-48.860351071561354
2025-03-08 13:53:07.740,-0.0004850539571478172,-51.18045540461083
2025-03-08 13:53:07.760,-5.924248333366947e-05,-51.47961261628733
2025-03-08 13:53:07.779,0.00039788052456964004,-49.51117320092637
2025-03-08 13:53:07.799,0.0007979048583559881,-45.13637893058163
2025-03-08 13:53:07.818,0.0010667786563744504,-38.254765037683526
2025-03-08 13:53:07.838,0.0011580528837541251,-28.756277713751388
2025-03-08 13:53:07.857,0.0010600082130657773,-16.53014340661991
2025-03-08 13:53:07.877,0.0007951199840357677,-1.5403276807254123
2025-03-08 13:53:07.896,0.0004125893417390528,16.05279627344079
2025-03-08 13:53:07.916,-2.3427914709819473e-05,35.76792320229522
2025-03-08 13:53:07.936,-0.00044661884330938676,56.72541292547138
2025-03-08 13:53:07.955,-0.0007996875014754706,77.6553268749675
2025-03-08 13:53:07.975,-0.0010424862848572522,97.00481844794894
2025-03-08 13:53:07.994,-0.0011567497232920698,113.13096779036454
2025-03-08 13:53:08.014,-0.0011475298000322377,124.54227616911592
2025-03-08 13:53:08.033,-0.0010413705583429596,130.1391346387139
2025-03-08 13:53:08.053,-0.000881193585549114,129.4027472841697
2025-03-08 13:53:08.072,-0.0007182004049150938,122.49330274772103
2025-03-08 13:53:08.092,-0.0006017633978839305,110.23917531125836
2025-03-08 13:53:08.111,-0.0005689508003534328,94.0235042248341
2025-03-08 13:53:08.131,-0.0006357880344990207,75.59445574991713
2025-03-08 13:53:08.150,-0.0007924226409779262,56.835070347246166
2025-03-08 13:53:08.170,-0.0010038154544752967,39.527891205822186
2025-03-08 13:53:08.189,-0.001216416136595982,25.143131484266064
2025-03-08 13:53:08.209,-0.0013698559835137057,14.671937831218992
2025-03-08 13:53:08.228,-0.0014114287470890473,8.520713247460758
2025-03-08 13:53:08.248,-0.0013102246553191948,6.477892984462784
2025-03-08 13:53:08.268,-0.0010673366996600527,7.758971983554877
2025-03-08 13:53:08.287,-0.0007188235243498431,11.127395999180798
2025-03-08 13:53:08.307,-0.0003294501402244252,15.078369584591897
2025-03-08 13:53:08.326,2.221453541843258e-05,18.061715033289694
2025-03-08 13:53:08.346,0.000263557037833819,18.71147009248136
2025-03-08 13:53:08.365,0.0003464301575531307,16.046441434969736
2025-03-08 13:53:08.385,0.00025851385927144304,9.608798408863874
2025-03-08 13:53:08.404,2.4506420771479652e-05,-0.4830658440545881
2025-03-08 13:53:08.424,-0.000301959250812331,-13.57700091732379
2025-03-08 13:53:08.443,-0.0006518479084639567,-28.61725444337614
2025-03-08 13:53:08.463,-0.0009550395550521192,-44.33705345466452
2025-03-08 13:53:08.482,-0.0011520252362786294,-59.47401123955489
2025-03-08 13:53:08.502,-0.001201939908803975,-72.96217050561529
2025-03-08 13:53:08.521,-0.0010878104010054366,-84.05933253326941
2025-03-08 13:53:08.541,-0.0008202158872397718,-92.38513951953828
2025-03-08 13:53:08.561,-0.0004393217785505234,-97.87016619091997
2025-03-08 13:53:08.580,-1.3579386793227845e-05,-100.64126187616525
2025-03-08 13:53:08.600,0.00036734944537991795,-100.88500617829425
2025-03-08 13:53:08.619,0.0006070013920489437,-98.73382673752559
2025-03-08 13:53:08.639,0.0006232019855797881,-94.20793579464025
2025-03-08 13:53:08.658,0.0003723600509509975,-87.22580984668888
2025-03-08 13:53:08.678,-0.0001292490121428616,-77.67417095526332
2025-03-08 13:53:08.697,-0.000795084754711503,-65.51254603413597
2025-03-08 13:53:08.717,-0.0014757447436523847,-50.881583938249186
2025-03-08 13:53:08.736,-0.001986423045207206,-34.18794889116915
2025-03-08 13:53:08.756,-0.0021493863527448404,-16.14745511230927
2025-03-08 13:53:08.775,-0.0018399474162850275,2.222959173382051
2025-03-08 13:53:08.795,-0.0010222045835424794,19.66728240211718
2025-03-08 13:53:08.814,0.0002361985770997974,34.804197321673634
2025-03-08 13:53:08.834,0.001774596143573238,46.28394855923161
2025-03-08 13:53:08.854,0.0033721203727549044,52.97102060156115
2025-03-08 13:53:08.873,0.004793837124251345,54.12585723197314
2025-03-08 13:53:08.893,0.005838019980406423,49.552588629678965
2025-03-08 13:53:08.912,0.006372917914257746,39.681074351003836
2025-03-08 13:53:08.932,0.006355371222958881,25.562120158948872
2025-03-08 13:53:08.951,0.005829349882371275,8.771425971657223
2025-03-08 13:53:08.971,0.004907660654837057,-8.765279000227197
2025-03-08 13:53:08.990,0.003743301265813572,-25.001187851188643
2025-03-08 13:53:09.010,0.0024979894123094877,-38.02054593563936
2025-03-08 13:53:09.029,0.0013145853129038188,-46.28182340117382
2025-03-08 13:53:09.049,0.00029802700278401014,-48.821521860770055
2025-03-08 13:53:09.068,-0.0004932344298067706,-45.39133776839918
2025-03-08 13:53:09.088,-0.0010457834761759969,-36.50587433094219
2025-03-08 13:53:09.107,-0.001382151959183602,-23.385569167825143
2025-03-08 13:53:09.127,-0.0015475479331007735,-7.792009265476822
2025-03-08 13:53:09.146,-0.0015959543853020126,8.229557973467848
2025-03-08 13:53:09.166,-0.0015783854032192447,22.665915115031556
2025-03-08 13:53:09.186,-0.0015348980794366374,33.858381403415734
2025-03-08 13:53:09.205,-0.0014908273753314733,40.77244941897289
2025-03-08 13:53:09.225,-0.0014568742376979355,43.15910659567473
2025-03-08 13:53:09.244,-0.0014321214687355577,41.57032354759127
2025-03-08 13:53:09.264,-0.0014087076220067709,37.21993717275959
2025-03-08 13:53:09.283,-0.0013767782424643717,31.714208299120465
2025-03-08 13:53:09.303,-0.001328529823482146,26.705608183195864
2025-03-08 13:53:09.322,-0.0012606309690959532,23.541801178216915
2025-03-08 13:53:09.342,-0.0011748556974694798,22.984991873462963
2025-03-08 13:53:09.361,-0.0010771930375792825,25.063740268139817
2025-03-08 13:53:09.381,-0.0009759402521465026,29.09203058795021
2025-03-08 13:53:09.400,-0.0008793949325631601,33.85342489722595
2025-03-08 13:53:09.420,-0.0007937827072478417,37.90860674175383
2025-03-08 13:53:09.439,-0.0007219730707719307,39.95204590227373
2025-03-08 13:53:09.459,-0.0006632934545130571,39.12846174785327
2025-03-08 13:53:09.479,-0.0006143692166616413,35.22955939773616
2025-03-08 13:53:09.498,-0.0005705474165520852,28.725080066008815
2025-03-08 13:53:09.518,-0.0005273108743761888,20.6288241710454
2025-03-08 13:53:09.537,-0.0004812399224340945,12.244409776527196
2025-03-08 13:53:09.557,-0.000430407737840412,4.863870449630638
2025-03-08 13:53:09.576,-0.00037436962125358926,-0.501825293749999
2025-03-08 13:53:09.596,-0.0003139779443291894,-3.2972488878637503
2025-03-08 13:53:09.615,-0.000251152781674108,-3.4708608189080694
2025-03-08 13:53:09.635,-0.00018860921857841463,-1.404024940024143
2025-03-08 13:53:09.654,-0.00012950327539640286,2.2402741247336557
2025-03-08 13:53:09.674,-7.700622481556044e-05,6.6931003482422815
2025-03-08 13:53:09.693,-3.3870141192062564e-05,11.226623204588888
2025-03-08 13:53:09.713,-2.0553693119501e-06,15.239639771234394
2025-03-08 13:53:09.732,1.7530214843537488e-05,18.277140384661667
2025-03-08 13:53:09.752,2.5147726958755882e-05,20.00500285811618
2025-03-08 13:53:09.772,2.2174061260089217e-05,20.1739581743744
2025-03-08 13:53:09.791,1.0862335685329755e-05,18.603764613891716
2025-03-08 13:53:09.811,-6.073129445135881e-06,15.202022453084355
2025-03-08 13:53:09.830,-2.598119324028945e-05,10.010402323286149
2025-03-08 13:53:09.850,-4.677216525016855e-05,3.2540292118467335
2025-03-08 13:53:09.869,-6.721467544861575e-05,-4.63537972219524
2025-03-08 13:53:09.889,-8.689117156889804e-05,-13.04362430344186
2025-03-08 13:53:09.908,-0.00010578904593787448,-21.248827350295418
2025-03-08 13:53:09.928,-0.00012366473772208806,-28.531643844071212
2025-03-08 13:53:09.947,-0.0001394531969373545,-34.29318346072898
2025-03-08 13:53:09.967,-0.00015102409011238425,-38.150843165309674
2025-03-08 13:53:09.986,-0.00015546629352378827,-39.98982065226522
2025-03-08 13:53:10.006,-0.00014985781317410887,-39.96143702288967
2025-03-08 13:53:10.025,-0.00013226185707693812,-38.43351067459883
2025-03-08 13:53:10.045,-0.00010258735778752491,-35.90867681104736
2025-03-08 13:53:10.064,-6.300053099388124e-05,-32.93140625568343
2025-03-08 13:53:10.084,-1.773889286131865e-05,-30.003300794289046
2025-03-08 13:53:10.104,2.7610679526633434e-05,-27.520465443176935
2025-03-08 13:53:10.123,6.714362946966292e-05,-25.738759687491925
2025-03-08 13:53:10.143,9.571229492046838e-05,-24.76504851754921
2025-03-08 13:53:10.162,0.00010985418643470378,-24.56728225539104
2025-03-08 13:53:10.182,0.00010848086142373388,-24.994524000176867
2025-03-08 13:53:10.201,9.325870331186681e-05,-25.799953222132384
2025-03-08 13:53:10.221,6.857682547032864e-05,-26.664169987698923
2025-03-08 13:53:10.240,4.0990994649770004e-05,-27.220587409797822
2025-03-08 13:53:10.260,1.813392793744433e-05,-27.087000995173742
2025-03-08 13:53:10.279,7.276272887788925e-06,-25.906268242552024
2025-03-08 13:53:10.299,1.389036269980679e-05,-23.394857264321914
2025-03-08 13:53:10.318,4.058053284727279e-05,-19.392771170546588
2025-03-08 13:53:10.338,8.658839693934362e-05,-13.904491729661611
2025-03-08 13:53:10.357,0.00014788659807487656,-7.119966665797886
2025-03-08 13:53:10.377,0.00021776925723983562,0.5921952472068525
2025-03-08 13:53:10.397,0.00028783524121446004,8.721168906290535
2025-03-08 13:53:10.416,0.00034925299577042026,16.674892184033496
2025-03-08 13:53:10.436,0.0003941333006607734,23.85471303536872
2025-03-08 13:53:10.455,0.00041675356024900123,29.72999495584147
2025-03-08 13:53:10.475,0.00041436755654278236,33.899787213716515
2025-03-08 13:53:10.494,0.00038745147602062285,36.132622357696384
2025-03-08 13:53:10.514,0.00033942704669335914,36.38103412280039
2025-03-08 13:53:10.533,0.00027604394274505163,34.77257822272597
2025-03-08 13:53:10.553,0.00020461163713172463,31.582553984379487
2025-03-08 13:53:10.572,0.00013316759407761496,27.194811809316942
2025-03-08 13:53:10.592,6.95620121409271e-05,22.05647104186523
2025-03-08 13:53:10.611,2.043703224040368e-05,16.631062636894686
2025-03-08 13:53:10.631,-9.805214273465702e-06,11.353550666633328
2025-03-08 13:53:10.650,-1.981629821118747e-05,6.590458721015079
2025-03-08 13:53:10.670,-1.1633731991719104e-05,2.608859839187371
2025-03-08 13:53:10.690,9.633440928107417e-06,-0.4414426372752838
2025-03-08 13:53:10.709,3.675593280149712e-05,-2.5286751716395863
2025-03-08 13:53:10.729,6.178488010446523e-05,-3.7212033146411887
2025-03-08 13:53:10.748,7.75977070034864e-05,-4.15336070359198
2025-03-08 13:53:10.768,7.926059638746812e-05,-3.9817822715759297
2025-03-08 13:53:10.787,6.492362713693833e-05,-3.3421198486525947
2025-03-08 13:53:10.807,3.604943720888036e-05,-2.316469403373609
2025-03-08 13:53:10.826,-3.0781616444713355e-06,-0.9194312713963029
2025-03-08 13:53:10.846,-4.641065984148264e-05,0.8937582792552231
2025-03-08 13:53:10.865,-8.742578383289828e-05,3.1989168479934325
2025-03-08 13:53:10.885,-0.00012029146571204379,6.061252298088002
2025-03-08 13:53:10.904,-0.00014065780312372261,9.490575583364686
2025-03-08 13:53:10.924,-0.00014600432070264793,13.40462527321358
2025-03-08 13:53:10.943,-0.00013561218640781804,17.610047941909436
2025-03-08 13:53:10.963,-0.00011030735156906905,21.80670081825818
2025-03-08 13:53:10.982,-7.213237078174261e-05,25.616005135552847
2025-03-08 13:53:11.002,-2.4069966089349333e-05,28.629277775064782
2025-03-08 13:53:11.022,3.0126165112704673e-05,30.468114499900103
2025-03-08 13:53:11.041,8.603937942472717e-05,30.84635873252039
2025-03-08 13:53:11.061,0.00013879845392994282,29.622152101876704
2025-03-08 13:53:11.080,0.00018358431397624543,26.82928563511803
2025-03-08 13:53:11.100,0.00021648054434876053,22.679884420482736
2025-03-08 13:53:11.119,0.00023541268573276232,17.535457643966147
2025-03-08 13:53:11.139,0.00024071764703286283,11.849942176348447
2025-03-08 13:53:11.158,0.00023499601201143559,6.095088292473827
2025-03-08 13:53:11.178,0.00022226220871648188,0.6833847899322345
2025-03-08 13:53:11.197,0.00020674839850898463,-4.0949933448699944
2025-03-08 13:53:11.217,0.0001918394958783706,-8.10763325676783
2025-03-08 13:53:11.236,0.00017950074202912085,-11.380564185478804
2025-03-08 13:53:11.256,0.00017029257507404841,-14.065265158039432
2025-03-08 13:53:11.275,0.00016379751009213694,-16.381057961222794
2025-03-08 13:53:11.295,0.00015916860907512142,-18.54756294486164
2025-03-08 13:53:11.315,0.0001555888967929672,-20.723780120724
2025-03-08 13:53:11.334,0.00015258007939516116,-22.96814935178475
2025-03-08 13:53:11.354,0.00015016751918829954,-25.228346252020792
2025-03-08 13:53:11.373,0.00014887977557861623,-27.362029058766428
2025-03-08 13:53:11.393,0.00014953725901345125,-29.18201109615734
2025-03-08 13:53:11.412,0.00015284788752689674,-30.513100693783983
2025-03-08 13:53:11.432,0.0001589450578045899,-31.244574655521028
2025-03-08 13:53:11.451,0.00016707169358836507,-31.36291834468592
2025-03-08 13:53:11.471,0.0001755749882737185,-30.95433209541113
2025-03-08 13:53:11.490,0.000182253818012894,-30.174821237272667
2025-03-08 13:53:11.510,0.0001849526488981102,-29.195599589651938
2025-03-08 13:53:11.529,0.00018218097524478127,-28.14033420240271
2025-03-08 13:53:11.549,0.00017351628453820829,-27.035470568172432
2025-03-08 13:53:11.568,0.0001596489538674657,-25.793064315379556
2025-03-08 13:53:11.588,0.00014209346198221202,-24.236303774382762
2025-03-08 13:53:11.607,0.0001227155395780986,-22.163013611935938
2025-03-08 13:53:11.627,0.00010325195088298728,-19.426880412618534
2025-03-08 13:53:11.647,8.495244269302595e-05,-16.006827914433632
2025-03-08 13:53:11.666,6.84026241369337e-05,-12.037246260408825
2025-03-08 13:53:11.686,5.352409325785304e-05,-7.785893996401213
2025-03-08 13:53:11.705,3.970650420958144e-05,-3.586523482662937
2025-03-08 13:53:11.725,2.6008420833300857e-05,0.24926116391264658
2025-03-08 13:53:11.744,1.136686298595242e-05,3.509207561655801
2025-03-08 13:53:11.764,-5.227343365670741e-06,6.120660459418887
2025-03-08 13:53:11.783,-2.4608316723292235e-05,8.14342336049139
2025-03-08 13:53:11.803,-4.736690751005932e-05,9.723478706142355
2025-03-08 13:53:11.822,-7.382108285156474e-05,11.0298323318082
2025-03-08 13:53:11.842,-0.0001040071217883489,12.200582087667035
2025-03-08 13:53:11.861,-0.00013767967663051595,13.31686928123874
2025-03-08 13:53:11.881,-0.00017432024871247607,14.408572359746344
2025-03-08 13:53:11.900,-0.00021316563264883772,15.480551350630051
2025-03-08 13:53:11.920,-0.0002532750724648376,16.53981353688134
2025-03-08 13:53:11.940,-0.0002936531615810245,17.60561533715618
2025-03-08 13:53:11.959,-0.0003334332754907846,18.69499825186431
2025-03-08 13:53:11.979,-0.0003721051012923053,19.790462997406568
2025-03-08 13:53:11.998,-0.000409744405716534,20.807821386725376
2025-03-08 13:53:12.018,-0.0004471808467230799,21.585501863303577
2025-03-08 13:53:12.037,-0.00048602866776637806,21.909930521526295
2025-03-08 13:53:12.057,-0.0005285127230742688,21.577268523017395
2025-03-08 13:53:12.076,-0.0005770522915343261,20.475089139118165
2025-03-08 13:53:12.096,-0.0006336159905984282,18.655125926589204
2025-03-08 13:53:12.115,-0.0006989247650138457,16.36549578031205
2025-03-08 13:53:12.135,-0.0007716422499038394,14.019998365383403
2025-03-08 13:53:12.154,-0.000847734733994405,12.101221812024571
2025-03-08 13:53:12.174,-0.0009201885560537698,11.017582155592288
2025-03-08 13:53:12.193,-0.0009792287055519638,10.954233114003824
2025-03-08 13:53:12.213,-0.0010130904747204792,11.766219972501613
2025-03-08 13:53:12.233,-0.0010092873300201312,12.954647673567342
2025-03-08 13:53:12.252,-0.000956253860876915,13.744033178521786
2025-03-08 13:53:12.272,-0.0008452570454436336,13.248479554601131
2025-03-08 13:53:12.291,-0.0006724952047867242,10.686408791057
2025-03-08 13:53:12.311,-0.0004412152682086543,5.588224456191917
2025-03-08 13:53:12.330,-0.0001634483471415176,-2.056442096296945
2025-03-08 13:53:12.350,0.00013925455568611112,-11.747270366038588
2025-03-08 13:53:12.369,0.00043669063440775695,-22.526978425837353
2025-03-08 13:53:12.389,0.0006927475369930114,-33.12471529199777
2025-03-08 13:53:12.408,0.0008697642755487411,-42.15594624745156
2025-03-08 13:53:12.428,0.000933776948294749,-48.337803635036565
2025-03-08 13:53:12.447,0.0008596775933171316,-50.68073172791353
2025-03-08 13:53:12.467,0.0006353849572199601,-48.62694437300505
2025-03-08 13:53:12.486,0.00026448919714201004,-42.1201325566431
2025-03-08 13:53:12.506,-0.00023257542612831647,-31.604473559682354
2025-03-08 13:53:12.525,-0.0008182388514006549,-17.960884064889598
2025-03-08 13:53:12.545,-0.001437887003692032,-2.3940042838327327
2025-03-08 13:53:12.565,-0.002020846349432576,13.713654244057139
2025-03-08 13:53:12.584,-0.002484038402106482,28.961673232619354
2025-03-08 13:53:12.604,-0.0027404091502338463,42.085119408663324
2025-03-08 13:53:12.623,-0.0027128690009367157,52.08043255536852
2025-03-08 13:53:12.643,-0.002351716358646713,58.286376837165506
2025-03-08 13:53:12.662,-0.0016508242058242218,60.41134199029456
2025-03-08 13:53:12.682,-0.0006570985192804731,58.51173016901457
2025-03-08 13:53:12.701,0.000530510955368361,52.940302354577625
2025-03-08 13:53:12.721,0.001773150260441889,44.29090393733633
2025-03-08 13:53:12.740,0.0029135286153993013,33.360522008013284
2025-03-08 13:53:12.760,0.003803232321657318,21.13142312845509
2025-03-08 13:53:12.779,0.0043308495148659774,8.75428866651516
2025-03-08 13:53:12.799,0.004444363062184641,-2.4991768338981024
2025-03-08 13:53:12.818,0.004161294022585717,-11.340499100892634
2025-03-08 13:53:12.838,0.0035630411294796686,-16.630535516941354
2025-03-08 13:53:12.858,0.002774974002176798,-17.583953667858673
2025-03-08 13:53:12.877,0.001938368530790948,-13.964454256156932
2025-03-08 13:53:12.897,0.0011818920822855227,-6.213027415427596
2025-03-08 13:53:12.916,0.0005989152342813534,4.539250899734417
2025-03-08 13:53:12.936,0.00023420921852377777,16.595831725157172
2025-03-08 13:53:12.955,8.140677123147312e-05,27.94369036878488
2025-03-08 13:53:12.975,9.11867013687837e-05,36.581674192654525
2025-03-08 13:53:12.994,0.00018840369810274956,40.86297214625488
2025-03-08 13:53:13.014,0.00029386079237544695,39.782546276678744
2025-03-08 13:53:13.033,0.0003444094892727814,33.153012908377306
2025-03-08 13:53:13.053,0.00030546956597578593,21.63764047752924
2025-03-08 13:53:13.072,0.0001733143219794102,6.63881810698924
2025-03-08 13:53:13.092,-3.1202973522010785e-05,-9.934080449603673
2025-03-08 13:53:13.111,-0.0002730201190748577,-25.976759752437673
2025-03-08 13:53:13.131,-0.0005130041559205241,-39.532866039183155
2025-03-08 13:53:13.151,-0.0007156914239064264,-49.11540210927907
2025-03-08 13:53:13.170,-0.0008545143034500198,-53.95483125138964
2025-03-08 13:53:13.190,-0.0009149853097354163,-54.12707431423427
2025-03-08 13:53:13.209,-0.0008958380558641305,-50.52798046285757
2025-03-08 13:53:13.229,-0.0008078108914425837,-44.685775233406694
2025-03-08 13:53:13.248,-0.0006702484730759556,-38.43795625478782
2025-03-08 13:53:13.268,-0.0005065813823779566,-33.535426642075585
2025-03-08 13:53:13.287,-0.0003400985775411803,-31.261394133594287
2025-03-08 13:53:13.307,-0.0001908844817393506,-32.15505131505271
2025-03-08 13:53:13.326,-7.396732441793604e-05,-35.90681104681742
2025-03-08 13:53:13.346,1.6388030237815185e-06,-41.44830931374792
2025-03-08 13:53:13.365,3.321232189096297e-05,-47.20985711367199
2025-03-08 13:53:13.385,2.3990117328148068e-05,-51.477186939811475
2025-03-08 13:53:13.404,-1.774553500213564e-05,-52.76080529446026
2025-03-08 13:53:13.424,-8.015288681288242e-05,-50.09819558402177
2025-03-08 13:53:13.443,-0.0001498945748307145,-43.23494487978215
2025-03-08 13:53:13.463,-0.0002146499501490074,-32.66350444621926
2025-03-08 13:53:13.483,-0.0002656597361928428,-19.526576718618223
2025-03-08 13:53:13.502,-0.0002996163907789439,-5.410916653008265
2025-03-08 13:53:13.522,-0.0003191963995149167,7.931875891279214
2025-03-08 13:53:13.541,-0.0003319075490685799,18.8937328286716
2025-03-08 13:53:13.561,-0.000347528377028916,26.29731889687248
2025-03-08 13:53:13.580,-0.0003748516022203475,29.607764405273002
2025-03-08 13:53:13.600,-0.00041852084173252507,29.019053966856244
2025-03-08 13:53:13.619,-0.0004766569950360319,25.384046093034772
2025-03-08 13:53:13.639,-0.0005398874652997334,19.991815065856557
2025-03-08 13:53:13.658,-0.0005922169513344993,14.2399393126381
2025-03-08 13:53:13.678,-0.0006137791670352964,9.287760657479318
2025-03-08 13:53:13.697,-0.0005850041782429561,5.791578207211183
2025-03-08 13:53:13.717,-0.000491367309222668,3.8024696830350315
2025-03-08 13:53:13.736,-0.0003277489741023307,2.855024066807394
2025-03-08 13:53:13.756,-0.00010148036116081333,2.209576029914636
2025-03-08 13:53:13.776,0.00016666580775757597,1.1578491071216603
2025-03-08 13:53:13.795,0.0004439636686885529,-0.7162623661577365
2025-03-08 13:53:13.815,0.0006897195885081949,-3.405513579002138
2025-03-08 13:53:13.834,0.0008613498887668729,-6.5076704834612205
2025-03-08 13:53:13.854,0.0009217339457120633,-9.381220284827263
2025-03-08 13:53:13.873,0.0008466328623204288,-11.353274296592703
2025-03-08 13:53:13.893,0.0006307068886588602,-11.897011234781163
2025-03-08 13:53:13.912,0.00029072791951324426,-10.72303815368447
2025-03-08 13:53:13.932,-0.00013498749641340971,-7.7745647136099505
2025-03-08 13:53:13.951,-0.0005912629956863696,-3.158329448152766
2025-03-08 13:53:13.971,-0.0010145290179603681,2.935435934025579
2025-03-08 13:53:13.990,-0.001344009507075497,10.275949547762728
2025-03-08 13:53:14.010,-0.0015337092199305203,18.575883079774197
2025-03-08 13:53:14.029,-0.0015624659269306675,27.429009953119426
2025-03-08 13:53:14.049,-0.001439086881502706,36.24228761788034
2025-03-08 13:53:14.068,-0.0012004689977217725,44.2138364937812
2025-03-08 13:53:14.088,-0.000902647499213146,50.39685591251563
2025-03-08 13:53:14.108,-0.0006071928994156524,53.859608504685866
2025-03-08 13:53:14.127,-0.0003671078276680694,53.913513072025495
2025-03-08 13:53:14.147,-0.0002164258537097426,50.34856475243467
2025-03-08 13:53:14.166,-0.00016595431426055907,43.60012871746263
2025-03-08 13:53:14.186,-0.00020498636875568307,34.78080443404884
2025-03-08 13:53:14.205,-0.0003069041417376608,25.544428720224303
2025-03-08 13:53:14.225,-0.00043632095587696175,17.79659955728788
2025-03-08 13:53:14.244,-0.000556256118910964,13.311979128030575
2025-03-08 13:53:14.264,-0.0006346089390365562,13.34764407360704
2025-03-08 13:53:14.283,-0.0006493327662801649,18.344418636487497
2025-03-08 13:53:14.303,-0.0005915823878513432,27.784838600888637
2025-03-08 13:53:14.322,-0.0004662949766282019,40.23669324533495
2025-03-08 13:53:14.342,-0.00029025052572891963,53.56843109608884
2025-03-08 13:53:14.361,-8.826492861923498e-05,65.28848088406123
2025-03-08 13:53:14.381,0.00011159064636406356,72.9410840281826
2025-03-08 13:53:14.401,0.000283003945490635,74.48794502127363
2025-03-08 13:53:14.420,0.000406145271056731,68.61548268775734
2025-03-08 13:53:14.440,0.000471554067570706,54.926908128103605
2025-03-08 13:53:14.459,0.00048242957856973345,34.00109821221158
2025-03-08 13:53:14.479,0.00045443230901354143,7.3211874061784945
2025-03-08 13:53:14.498,0.00041231154166220294,-22.908341668449875
2025-03-08 13:53:14.518,0.00038345053359336423,-54.02721209295335
2025-03-08 13:53:14.537,0.0003897162980707897,-83.23279401406003
2025-03-08 13:53:14.557,0.00044018715932710243,-107.90290416609551
2025-03-08 13:53:14.576,0.0005275608671528998,-125.88730784705609
2025-03-08 13:53:14.596,0.0006300109338012043,-135.72865801629285
2025-03-08 13:53:14.615,0.0007183768931936925,-136.78208092614798
2025-03-08 13:53:14.635,0.0007666056441069848,-129.22098142527798
2025-03-08 13:53:14.654,0.0007620533195220335,-113.94272058824691
2025-03-08 13:53:14.674,0.0007120977941527298,-92.41194742813099
2025-03-08 13:53:14.694,0.0006445546326360531,-66.48859272206778
2025-03-08 13:53:14.713,0.00060128696253834,-38.27547234511319
2025-03-08 13:53:14.733,0.0006265420081647188,-9.993762189042311
2025-03-08 13:53:14.752,0.0007532096630669173,16.131010179979413
2025-03-08 13:53:14.772,0.000990849390186484,38.00038173257762
2025-03-08 13:53:14.791,0.001318942839279711,53.81055938317375
2025-03-08 13:53:14.811,0.0016877518382761264,62.2509778950601
2025-03-08 13:53:14.830,0.0020276053057165645,62.700522752241795
2025-03-08 13:53:14.850,0.0022652318080992363,55.3691888346478
2025-03-08 13:53:14.869,0.0023429369071083046,41.33372975281996
2025-03-08 13:53:14.889,0.002234213412015911,22.438537293587128
2025-03-08 13:53:14.908,0.0019498317637198653,1.0688809850566747
2025-03-08 13:53:14.928,0.0015322859689991181,-20.1622266146305
2025-03-08 13:53:14.947,0.0010415673638743876,-38.752819256295105
2025-03-08 13:53:14.967,0.0005384310376885504,-52.61621581378209
2025-03-08 13:53:14.986,7.115141813701775e-05,-60.3078183681791
2025-03-08 13:53:15.006,-0.0003308755326724967,-61.15621281901784
2025-03-08 13:53:15.026,-0.0006565216051247523,-55.30071842722743
2025-03-08 13:53:15.045,-0.0009073620314720112,-43.64605759978671
2025-03-08 13:53:15.065,-0.0010899703675737679,-27.742152699708704
2025-03-08 13:53:15.084,-0.001208649250915086,-9.59145490109896
2025-03-08 13:53:15.104,-0.0012606291090693606,8.612073380266823
2025-03-08 13:53:15.123,-0.0012351060290631498,24.793765786645327
2025-03-08 13:53:15.143,-0.001116440824692465,37.317064522184374
2025-03-08 13:53:15.162,-0.0008903773314420175,45.24871698728313
2025-03-08 13:53:15.182,-0.0005509100558990279,48.505634713140495
2025-03-08 13:53:15.201,-0.0001052973474411448,47.838231925811954
2025-03-08 13:53:15.221,0.00042407037965841145,44.64230213836975
2025-03-08 13:53:15.240,0.0010003648166912766,40.63457891308547
2025-03-08 13:53:15.260,0.0015738124444485495,37.46341890872957
2025-03-08 13:53:15.279,0.002082855583439362,36.34510657857005
2025-03-08 13:53:15.299,0.002455957148408051,37.81144202859443
2025-03-08 13:53:15.319,0.002616622228632092,41.625703456114145
2025-03-08 13:53:15.338,0.002493449974721242,46.88017333283005
2025-03-08 13:53:15.358,0.0020341143848265552,52.24257376770529
2025-03-08 13:53:15.377,0.0012192607160533713,56.2842254163865
2025-03-08 13:53:15.397,7.166919180065535e-05,57.80831534791937
2025-03-08 13:53:15.416,-0.0013418641790576868,56.103809065550415
2025-03-08 13:53:15.436,-0.002915457166783267,51.07403418838685
2025-03-08 13:53:15.455,-0.004513740953362536,43.220893606918
2025-03-08 13:53:15.475,-0.005984182960175777,33.49872322609543
2025-03-08 13:53:15.494,-0.007171058871256349,23.079527445431367
2025-03-08 13:53:15.514,-0.007930574782794915,13.088085359763175
2025-03-08 13:53:15.533,-0.008146984429673283,4.368302079085878
2025-03-08 13:53:15.553,-0.007749835671211804,-2.667625472149646
2025-03-08 13:53:15.572,-0.006732049874364419,-8.074644291637783
2025-03-08 13:53:15.592,-0.005166405028872322,-12.28796527060101
2025-03-08 13:53:15.612,-0.003214486648303822,-15.93774215338044
2025-03-08 13:53:15.631,-0.0011197039421623066,-19.619865625453034
2025-03-08 13:53:15.651,0.0008224415364505243,-23.696188886135605
2025-03-08 13:53:15.670,0.0023169587033055232,-28.19130520695733
2025-03-08 13:53:15.690,0.003135363425108462,-32.818319812473604
2025-03-08 13:53:15.709,0.003177449296016179,-37.11518909868923
2025-03-08 13:53:15.729,0.0025086779220175035,-40.62971500503037
2025-03-08 13:53:15.748,0.001357952507835361,-43.076829431511825
2025-03-08 13:53:15.768,7.17472514418474e-05,-44.41282703323992
2025-03-08 13:53:15.787,-0.0009656412506004737,-44.814679243488065
2025-03-08 13:53:15.807,-0.0014245627304996674,-44.594071083614125
2025-03-08 13:53:15.826,-0.0011095200972385689,-44.09486552431852
2025-03-08 13:53:15.846,-4.337558282916705e-06,-43.614581078658404
2025-03-08 13:53:15.865,0.0017271328806973143,-43.36625573766726
2025-03-08 13:53:15.885,0.0037816795291659897,-43.473642012094736
2025-03-08 13:53:15.904,0.005785653526907012,-43.98146590750061
2025-03-08 13:53:15.924,0.007374580621212717,-44.86460529906107
2025-03-08 13:53:15.944,0.00826630936007266,-46.02903241738931
2025-03-08 13:53:15.963,0.008313713327041464,-47.30567201424212
2025-03-08 13:53:15.983,0.007527382965081404,-48.442547048767466
2025-03-08 13:53:16.002,0.006064171221946234,-49.102033458292674
2025-03-08 13:53:16.022,0.004184314483172666,-48.87107635712411
2025-03-08 13:53:16.041,0.0021877584694360666,-47.29263446379742
2025-03-08 13:53:16.061,0.0003469127120597814,-43.92397577792764
2025-03-08 13:53:16.080,-0.0011452784813255894,-38.42004020591036
2025-03-08 13:53:16.100,-0.0021985107543781622,-30.62904704070962
2025-03-08 13:53:16.119,-0.00281704847885804,-20.676809151295753
2025-03-08 13:53:16.139,-0.003069231479494533,-9.011098750498281
2025-03-08 13:53:16.158,-0.0030496727889565652,3.6179448482812013
2025-03-08 13:53:16.178,-0.002848333782020877,16.25043340688821
2025-03-08 13:53:16.197,-0.0025342708867552286,27.870322526386076
2025-03-08 13:53:16.217,-0.0021539444726925107,37.5880034267645
2025-03-08 13:53:16.237,-0.001738446692324313,44.808664344424706
2025-03-08 13:53:16.256,-0.0013127320150611564,49.34494414906135
2025-03-08 13:53:16.276,-0.00090202616851898,51.44658410220121
2025-03-08 13:53:16.295,-0.0005335674049199062,51.74137068585054
2025-03-08 13:53:16.315,-0.0002339282822185901,51.1034998975676
2025-03-08 13:53:16.334,-2.3354233927696597e-05,50.48122507504786
2025-03-08 13:53:16.354,9.048732826000475e-05,50.721761159870496
2025-03-08 13:53:16.373,0.00011633343323099906,52.42760119786563
2025-03-08 13:53:16.393,7.831449427169823e-05,55.866719080416644
2025-03-08 13:53:16.412,9.817988071241416e-06,60.94333137486251
2025-03-08 13:53:16.432,-5.5519101397956886e-05,67.22118270409955
2025-03-08 13:53:16.451,-9.214764003025645e-05,73.98300085301656
2025-03-08 13:53:16.471,-8.743111783185728e-05,80.31007336422134
2025-03-08 13:53:16.490,-4.2078862710468865e-05,85.17207592009636
2025-03-08 13:53:16.510,3.283889262223784e-05,87.52366660578662
2025-03-08 13:53:16.529,0.00012046223634745162,86.40650478049625
2025-03-08 13:53:16.549,0.0002026063372508384,81.05249962897615
2025-03-08 13:53:16.569,0.0002631071539253246,70.9790051543136
2025-03-08 13:53:16.588,0.00028976651397206473,56.06380354043845
2025-03-08 13:53:16.608,0.0002750714496028873,36.5901713923249
2025-03-08 13:53:16.627,0.00021607660009068653,13.259008586065084
2025-03-08 13:53:16.647,0.00011406011942953672,-12.829109968491577
2025-03-08 13:53:16.666,-2.5295647016626258e-05,-40.21877421218331
2025-03-08 13:53:16.686,-0.00019088641029610932,-67.1737005572765
2025-03-08 13:53:16.705,-0.00036511338985012253,-91.78851255760421
2025-03-08 13:53:16.725,-0.0005243919279333181,-112.14808244142641
2025-03-08 13:53:16.744,-0.0006424652974154108,-126.53518535952487
2025-03-08 13:53:16.764,-0.0006961767984624699,-133.66820353495515
2025-03-08 13:53:16.783,-0.0006718181063652336,-132.92756259949982
2025-03-08 13:53:16.803,-0.0005697577237721395,-124.51343692730538
2025-03-08 13:53:16.822,-0.0004058569410428356,-109.47956793275847
2025-03-08 13:53:16.842,-0.0002094452082820897,-89.61387572239536
2025-03-08 13:53:16.862,-1.851985823452248e-05,-67.17904934882483
2025-03-08 13:53:16.881,0.00012687561568755704,-44.56850391446339
2025-03-08 13:53:16.901,0.00019209268270844389,-23.95711603544169
2025-03-08 13:53:16.920,0.00015494910328349686,-7.022729999579818
2025-03-08 13:53:16.940,1.0976965103174753e-05,5.213301460311445
2025-03-08 13:53:16.959,-0.00022455190048757144,12.41717677302109
2025-03-08 13:53:16.979,-0.0005185817190994854,14.869670966833883
2025-03-08 13:53:16.998,-0.0008258955278579291,13.330789721462965
2025-03-08 13:53:17.018,-0.001097063246650739,8.883071958654591
2025-03-08 13:53:17.037,-0.001286838248761523,2.7825362097474584
2025-03-08 13:53:17.057,-0.0013611957928118007,-3.668135937287273
2025-03-08 13:53:17.076,-0.0013017243655226887,-9.2204969754757
2025-03-08 13:53:17.096,-0.0011069129596184648,-12.75873856781252
2025-03-08 13:53:17.115,-0.0007908791051092398,-13.364715692910135
2025-03-08 13:53:17.135,-0.00038082479313883557,-10.382498580683077
2025-03-08 13:53:17.155,8.551175472431007e-05,-3.4928502212363197
2025-03-08 13:53:17.174,0.0005619683480423679,7.204020643046688
2025-03-08 13:53:17.194,0.0009963578522043332,21.1175260999273
2025-03-08 13:53:17.213,0.0013346649722997463,37.14309212262397
2025-03-08 13:53:17.233,0.0015282474004663915,53.72284170003371
2025-03-08 13:53:17.252,0.0015435804904665154,69.00936482993731
2025-03-08 13:53:17.272,0.001371858581263448,81.11830266478445
2025-03-08 13:53:17.291,0.0010346049562548925,88.42180518200763
2025-03-08 13:53:17.311,0.0005823994154516451,89.81664167705479
2025-03-08 13:53:17.330,8.642454392004493e-05,84.90595299813181
2025-03-08 13:53:17.350,-0.00037477673472349163,74.05892780888415
2025-03-08 13:53:17.369,-0.0007296134934536266,58.346759443662584
2025-03-08 13:53:17.389,-0.0009256141868899125,39.38279028050521
2025-03-08 13:53:17.408,-0.0009377221469327655,19.109541382082735
2025-03-08 13:53:17.428,-0.0007721175478341425,-0.42748967218348527
2025-03-08 13:53:17.447,-0.00046518739818468346,-17.29366598526851
2025-03-08 13:53:17.467,-7.719789963241988e-05,-29.855670387597698
2025-03-08 13:53:17.487,0.00031919276909472095,-36.94375318863207
2025-03-08 13:53:17.506,0.0006539064289383448,-37.9776748480108
2025-03-08 13:53:17.526,0.0008744081470234996,-33.041240900000304
2025-03-08 13:53:17.545,0.00095630158584186,-22.886653058132072
2025-03-08 13:53:17.565,0.000906222806942169,-8.85347519510652
2025-03-08 13:53:17.584,0.0007564206968615758,7.301973163097907
2025-03-08 13:53:17.604,0.0005533945796532489,23.654260976885727
2025-03-08 13:53:17.623,0.00034461010745879,38.4012610036431
2025-03-08 13:53:17.643,0.00016721097504137055,50.15052468012949
2025-03-08 13:53:17.662,4.149742651788412e-05,58.13794967975416
2025-03-08 13:53:17.682,-2.957850644443086e-05,62.32190550918213
2025-03-08 13:53:17.701,-5.54677719252394e-05,63.32149863706017
2025-03-08 13:53:17.721,-5.015745170132528e-05,62.20951766617679
2025-03-08 13:53:17.740,-2.5125246409860263e-05,60.21368016205462
2025-03-08 13:53:17.760,1.3792568554583631e-05,58.40561995346937
2025-03-08 13:53:17.780,6.503277965952861e-05,57.4551738095768
2025-03-08 13:53:17.799,0.00012755105295748678,57.50156473736117
2025-03-08 13:53:17.819,0.00019770169434430595,58.15662945983811
2025-03-08 13:53:17.838,0.0002684538558277785,58.622315815989296
2025-03-08 13:53:17.858,0.00033059684709315886,57.883047547844235
2025-03-08 13:53:17.877,0.00037460533595952856,54.92439223871981
2025-03-08 13:53:17.897,0.00039230217048666084,48.930730062350904
2025-03-08 13:53:17.916,0.0003783132794232593,39.424367336047865
2025-03-08 13:53:17.936,0.00033146955015423557,26.32570091395878
2025-03-08 13:53:17.955,0.0002557572703860786,9.9360969236116
2025-03-08 13:53:17.975,0.00015999073212631556,-9.134289738872273
2025-03-08 13:53:17.994,5.578448822737085e-05,-30.06094823106292
2025-03-08 13:53:18.014,-4.5523078483689956e-05,-51.89313729658457
2025-03-08 13:53:18.033,-0.00013552563872681707,-73.62304855280594
2025-03-08 13:53:18.053,-0.00020978931827288845,-94.24116817616492
2025-03-08 13:53:18.073,-0.0002673089933447806,-112.79264600856082
2025-03-08 13:53:18.092,-0.00030950394376020327,-128.44654251829937
2025-03-08 13:53:18.112,-0.0003398526248210168,-140.57716184160716
2025-03-08 13:53:18.131,-0.00036422366619816244,-148.8418761865866
2025-03-08 13:53:18.151,-0.0003909349426816431,-153.23113699548682
2025-03-08 13:53:18.170,-0.00042952455348510657,-154.06875530905276
2025-03-08 13:53:18.190,-0.00048816375996364205,-151.953189089654
2025-03-08 13:53:18.209,-0.0005706919626675285,-147.64749420310025
2025-03-08 13:53:18.229,-0.0006744913347947638,-141.93970829594713
2025-03-08 13:53:18.248,-0.0007897805799112356,-135.5026144201544
2025-03-08 13:53:18.268,-0.0009001795634890928,-128.7816030771536
2025-03-08 13:53:18.287,-0.0009843389875989607,-121.93318292528082
2025-03-08 13:53:18.307,-0.0010189214272372565,-114.82636367127532
2025-03-08 13:53:18.326,-0.0009833568276193547,-107.10625692692702
2025-03-08 13:53:18.346,-0.0008659255166411731,-98.30557718218304
2025-03-08 13:53:18.365,-0.0006693109574995292,-87.97784646199348
2025-03-08 13:53:18.385,-0.00041306730135626544,-75.81964592472946
2025-03-08 13:53:18.405,-0.0001312983052469917,-61.751715299868046
2025-03-08 13:53:18.424,0.00013417456182040759,-45.94072268846109
2025-03-08 13:53:18.444,0.00034305984564332283,-28.761143206321652
2025-03-08 13:53:18.463,0.0004655109437364264,-10.71319000404972
2025-03-08 13:53:18.483,0.0004884760463548325,7.6771994292096535
2025-03-08 13:53:18.502,0.0004183070739303753,25.94838071525551
2025-03-08 13:53:18.522,0.00027945071203609647,43.760037827366176
2025-03-08 13:53:18.541,0.00010970870597699382,60.903724686249724
2025-03-08 13:53:18.561,-4.704498458661099e-05,77.2650025950834
2025-03-08 13:53:18.580,-0.00014938103624156143,92.74701030004103
2025-03-08 13:53:18.600,-0.000166273068399068,107.17563829966157
2025-03-08 13:53:18.619,-8.263138485517873e-05,120.21390676610442
2025-03-08 13:53:18.639,9.86627443345948e-05,131.31578181140694
2025-03-08 13:53:18.658,0.00035797344262279566,139.74533595221877
2025-03-08 13:53:18.678,0.0006622686605306978,144.67447049479344
2025-03-08 13:53:18.698,0.0009697258031206583,145.35223337838215
2025-03-08 13:53:18.717,0.0012354559905732405,141.31505537021891
2025-03-08 13:53:18.737,0.001418415721897825,132.5867227084909
2025-03-08 13:53:18.756,0.0014887402580680555,119.8076118562813
2025-03-08 13:53:18.776,0.0014336207967576876,104.24120286523879
2025-03-08 13:53:18.795,0.0012596628573161642,87.63349117087826
2025-03-08 13:53:18.815,0.0009908408998011735,71.94096479843044
2025-03-08 13:53:18.834,0.000662941386056541,58.98227123436635
2025-03-08 13:53:18.854,0.0003165096483332298,50.093976405043286
2025-03-08 13:53:18.873,-9.821957137018497e-06,45.873385396571685
2025-03-08 13:53:18.893,-0.0002846242952109599,46.07042047421289
2025-03-08 13:53:18.912,-0.00048722376680193744,49.65299988171482
2025-03-08 13:53:18.932,-0.0006092246361230722,55.02831442924324
2025-03-08 13:53:18.951,-0.0006537079366097064,60.36770481485068
2025-03-08 13:53:18.971,-0.0006323313101891137,63.962550350332506
2025-03-08 13:53:18.990,-0.0005614301570280067,64.53451844402326
2025-03-08 13:53:19.010,-0.0004586392079845418,61.43481154292155
2025-03-08 13:53:19.030,-0.0003409524783744981,54.692067324551914
2025-03-08 13:53:19.049,-0.0002239331782610621,44.904492398974256
2025-03-08 13:53:19.069,-0.00012104597131984169,33.01222109048824
2025-03-08 13:53:19.088,-4.245453682318812e-05,20.01963147150161
2025-03-08 13:53:19.108,6.356731238332638e-06,6.7518848793910395
2025-03-08 13:53:19.127,2.5187983441954294e-05,-6.282259439573018
2025-03-08 13:53:19.147,1.8404691852932717e-05,-18.886419331331876
2025-03-08 13:53:19.166,-6.726445329823294e-06,-31.04683912046033
2025-03-08 13:53:19.186,-4.172955211789541e-05,-42.7377375140598
2025-03-08 13:53:19.205,-7.804871958932241e-05,-53.74448357218612
2025-03-08 13:53:19.225,-0.0001077896727383815,-63.57684386075161
2025-03-08 13:53:19.244,-0.00012459769861242946,-71.50745790424673
2025-03-08 13:53:19.264,-0.00012476455324979748,-76.72377361652904
2025-03-08 13:53:19.283,-0.00010798420010538226,-78.54327391340158
2025-03-08 13:53:19.303,-7.709074213242116e-05,-76.62430314493282
2025-03-08 13:53:19.323,-3.680162369928823e-05,-71.11119404912762
2025-03-08 13:53:19.342,7.717081575903702e-06,-62.67651831905303
2025-03-08 13:53:19.362,5.157686266504311e-05,-52.45345632209975
2025-03-08 13:53:19.381,9.005772836496049e-05,-41.876661495242644
2025-03-08 13:53:19.401,0.00011837823787517981,-32.46518810476621
2025-03-08 13:53:19.420,0.00013213083698850332,-25.586242460099655
2025-03-08 13:53:19.440,0.00012839514307726795,-22.236896557871077
2025-03-08 13:53:19.459,0.00010672644420543338,-22.876046366075915
2025-03-08 13:53:19.479,6.921874766999016e-05,-27.332915643697092
2025-03-08 13:53:19.498,1.9662880054186232e-05,-34.81105642677394
2025-03-08 13:53:19.518,-3.739804384919945e-05,-43.99609932378839
2025-03-08 13:53:19.537,-9.698067402601165e-05,-53.25986394525287
2025-03-08 13:53:19.557,-0.00015344100477627325,-60.93401299587537
2025-03-08 13:53:19.576,-0.00020054303936692584,-65.60785282480737
2025-03-08 13:53:19.596,-0.00023247189981379484,-66.39337830990509
2025-03-08 13:53:19.616,-0.00024551993099903685,-63.10103911146332
2025-03-08 13:53:19.635,-0.000239407548974318,-56.28353833040846
2025-03-08 13:53:19.655,-0.00021738578447876722,-47.13047967692024
2025-03-08 13:53:19.674,-0.000185226008190489,-37.22908160485056
2025-03-08 13:53:19.694,-0.00014995026886432345,-28.238102451432738
2025-03-08 13:53:19.713,-0.0001189703078743817,-21.54493425319142
2025-03-08 13:53:19.733,-9.949032291154403e-05,-17.982378157259514
2025-03-08 13:53:19.752,-9.754147762606665e-05,-17.669034396613515
2025-03-08 13:53:19.772,-0.00011641888916522765,-20.007940201332257
2025-03-08 13:53:19.791,-0.00015517306214639666,-23.83910252144213
2025-03-08 13:53:19.811,-0.00020821372845367846,-27.70312162683539
2025-03-08 13:53:19.830,-0.000266518695391213,-30.146203211757378
2025-03-08 13:53:19.850,-0.0003198886979944132,-29.989934228508687
2025-03-08 13:53:19.869,-0.0003591230340795297,-26.50509355915738
2025-03-08 13:53:19.889,-0.00037738569041478843,-19.46301337020999
2025-03-08 13:53:19.908,-0.0003708936335381635,-9.078767501812461
2025-03-08 13:53:19.928,-0.0003394507399376505,4.108058567190998
2025-03-08 13:53:19.948,-0.00028690233294623483,19.359618700115785
2025-03-08 13:53:19.967,-0.00022090719811805,35.83226257191395
2025-03-08 13:53:19.987,-0.00015144530704342784,52.62388266450948
2025-03-08 13:53:20.006,-8.838815759097451e-05,68.79338667856881
2025-03-08 13:53:20.026,-3.9390870829450854e-05,83.38343348996432
2025-03-08 13:53:20.045,-9.2623750637504e-06,95.4722128237621
2025-03-08 13:53:20.065,-7.57285604072793e-07,104.26082443873915
2025-03-08 13:53:20.084,-1.5517681693523527e-05,109.18069026764746
2025-03-08 13:53:20.104,-5.3870709139866136e-05,109.99105786660216
2025-03-08 13:53:20.123,-0.00011339273423420485,106.83574652237395
2025-03-08 13:53:20.143,-0.00018742463236509882,100.23951608194474
2025-03-08 13:53:20.162,-0.00026491818731029385,91.0410773369358
2025-03-08 13:53:20.182,-0.00033206114049657697,80.27456684723741
2025-03-08 13:53:20.201,-0.00037502346112499473,69.02061472967179
2025-03-08 13:53:20.221,-0.00038283243686701207,58.25206929564605
2025-03-08 13:53:20.241,-0.000349843745602594,48.69953509767525
2025-03-08 13:53:20.260,-0.0002776903976920908,40.759036889555084
2025-03-08 13:53:20.280,-0.00017627279609918673,34.45818233188215
2025-03-08 13:53:20.299,-6.270190671103256e-05,29.487683565758488
2025-03-08 13:53:20.319,4.271079660509582e-05,25.29248542483665
2025-03-08 13:53:20.338,0.00012278701967648745,21.203543900610562
2025-03-08 13:53:20.358,0.0001696154052305182,16.581853451535775
2025-03-08 13:53:20.377,0.0001874202055001576,10.94459398277491
2025-03-08 13:53:20.397,0.00019064089607240346,4.049950827909555
2025-03-08 13:53:20.416,0.0001982829717861022,-4.070881957127749
2025-03-08 13:53:20.436,0.0002273346515353928,-13.13340878312026
2025-03-08 13:53:20.455,0.00028784492684042775,-22.660434595720748
2025-03-08 13:53:20.475,0.00038067040845498804,-32.06742611885912
2025-03-08 13:53:20.494,0.0004974347877086423,-40.75538952734478
2025-03-08 13:53:20.514,0.0006219554489694001,-48.19596240741371
2025-03-08 13:53:20.534,0.0007330008637796104,-53.99703507183264
2025-03-08 13:53:20.553,0.0008086083022745708,-57.94158321149478
2025-03-08 13:53:20.573,0.0008315603890456509,-59.9971284135937
2025-03-08 13:53:20.592,0.000794427545989099,-60.2980286136223
2025-03-08 13:53:20.612,0.0007020411910891613,-59.106943150113636
2025-03-08 13:53:20.631,0.0005701397517040862,-56.764426704160826
2025-03-08 13:53:20.651,0.00042075709581980403,-53.63618582713317
2025-03-08 13:53:20.670,0.00027638699179283806,-50.06628681048528
2025-03-08 13:53:20.690,0.00015509343347614127,-46.34221715851675
2025-03-08 13:53:20.709,6.77365052400767e-05,-42.6748966420937
2025-03-08 13:53:20.729,1.732751512144603e-05,-39.19400348432171
2025-03-08 13:53:20.748,-1.827898943338532e-08,-35.956602899872536
2025-03-08 13:53:20.768,7.00439974904185e-06,-32.965231868600476
2025-03-08 13:53:20.787,2.7778255729937197e-05,-30.190500929084433
2025-03-08 13:53:20.807,5.285468980260351e-05,-27.59309149302478
2025-03-08 13:53:20.826,7.619822311941035e-05,-25.140811974279053
2025-03-08 13:53:20.846,9.563999653012233e-05,-22.817986557456233
2025-03-08 13:53:20.866,0.0001115752583045586,-20.626523381931484
2025-03-08 13:53:20.885,0.0001250411667899045,-18.580035679663343
2025-03-08 13:53:20.905,0.00013646766678627505,-16.693882121837326
2025-03-08 13:53:20.924,0.0001454964702000542,-14.974649163056256
2025-03-08 13:53:20.944,0.0001513033286736889,-13.412373285697525
2025-03-08 13:53:20.963,0.00015278018213045198,-11.977869928639002
2025-03-08 13:53:20.983,0.00014864005639368853,-10.626196536331152
2025-03-08 13:53:21.002,0.00013808023041329595,-9.305840993659386
2025-03-08 13:53:21.022,0.00012234754624801557,-7.971933248687228
2025-03-08 13:53:21.041,0.00010658391881463116,-6.600762492682122
2025-03-08 13:53:21.061,0.00010060706178632589,-5.2022127344677696
2025-03-08 13:53:21.080,0.0001175564815161487,-3.826492793715683
2025-03-08 13:53:21.100,0.00017048251266037827,-2.561901742712022
2025-03-08 13:53:21.119,0.00026808028804037467,-1.521545826891763
2025-03-08 13:53:21.139,0.00041103308093671744,-0.8190007711238323
2025-03-08 13:53:21.159,0.0005898483525077202,-0.5357032888703462
2025-03-08 13:53:21.178,0.0007844570932896754,-0.6858170969464945
2025-03-08 13:53:21.198,0.0009658508556607814,-1.1866468673163606
2025-03-08 13:53:21.217,0.001100326024186897,-1.8435059246384955
2025-03-08 13:53:21.237,0.0011565247945935552,-2.356623965996938
2025-03-08 13:53:21.256,0.0011139812097263125,-2.3540095565393524
2025-03-08 13:53:21.276,0.0009701981041418326,-1.4485825041701221
2025-03-08 13:53:21.295,0.0007430569178956192,0.6885583873105913
2025-03-08 13:53:21.315,0.0004673484005105012,4.252569039822131
2025-03-08 13:53:21.334,0.00018710844131521832,9.24398104414185
2025-03-08 13:53:21.354,-5.307653413072773e-05,15.4385738594224
2025-03-08 13:53:21.373,-0.00021551448374357995,22.398496455030525
2025-03-08 13:53:21.393,-0.0002752122379991095,29.525879357444555
2025-03-08 13:53:21.412,-0.00022451879795002544,36.149759303708635
2025-03-08 13:53:21.432,-7.635176352675312e-05,41.628838720278374
2025-03-08 13:53:21.451,0.00013542833555318554,45.4490216327808
2025-03-08 13:53:21.471,0.0003600460439476405,47.296587028957376
2025-03-08 13:53:21.491,0.0005384557587079619,47.094166716696364
2025-03-08 13:53:21.510,0.0006149734832452303,44.995269832202396
2025-03-08 13:53:21.530,0.0005491298366764452,41.341820048984026
2025-03-08 13:53:21.549,0.0003249665576030152,36.59634490388173
2025-03-08 13:53:21.569,-4.43114920938087e-05,31.264745875039
2025-03-08 13:53:21.588,-0.0005175463235167015,25.826031458979077
2025-03-08 13:53:21.608,-0.001032926203158373,20.681795071082032
2025-03-08 13:53:21.627,-0.0015202522765667545,16.131480165691812
2025-03-08 13:53:21.647,-0.0019154699867118654,12.371623016735718
2025-03-08 13:53:21.666,-0.0021737548485925495,9.510810075579064
2025-03-08 13:53:21.686,-0.0022778325852291243,7.589060533773489
2025-03-08 13:53:21.705,-0.002239956235169797,6.591493275227838
2025-03-08 13:53:21.725,-0.002098067677974882,6.4506968771669015
2025-03-08 13:53:21.744,-0.0019079615126108768,7.038323438806734
2025-03-08 13:53:21.764,-0.0017332426704457294,8.151897214137236
2025-03-08 13:53:21.784,-0.0016340492018288258,9.50598989610439
2025-03-08 13:53:21.803,-0.001655025909939328,10.737055525668595
2025-03-08 13:53:21.823,-0.0018136439758442064,11.428576083512343
2025-03-08 13:53:21.842,-0.0020913152810828266,11.15852814817964
2025-03-08 13:53:21.862,-0.0024306225785449397,9.56542827753374
2025-03-08 13:53:21.881,-0.0027413494960775338,6.423189777484494
2025-03-08 13:53:21.901,-0.0029158758963637264,1.7097497850456507
2025-03-08 13:53:21.920,-0.0028518654830934367,-4.348562027547432
2025-03-08 13:53:21.940,-0.002478038382616951,-11.273688346092133
2025-03-08 13:53:21.959,-0.0017775471079202723,-18.383335622009113
2025-03-08 13:53:21.979,-0.0008028846681709412,-24.88679751754945
2025-03-08 13:53:21.998,0.0003235192770470558,-30.012331814218214
2025-03-08 13:53:22.018,0.001426909087590207,-33.13848926499915
2025-03-08 13:53:22.037,0.002315333140590326,-33.8993423398114
2025-03-08 13:53:22.057,0.00282504469702762,-32.240752743470864
2025-03-08 13:53:22.077,0.0028631959964182047,-28.418306154621195
2025-03-08 13:53:22.096,0.002433425180480964,-22.941589982903615
2025-03-08 13:53:22.116,0.0016348041802413606,-16.479544487669774
2025-03-08 13:53:22.135,0.0006346345608462809,-9.746357512967723
2025-03-08 13:53:22.155,-0.0003743223155965381,-3.388065095255487
2025-03-08 13:53:22.174,-0.0012175589886742376,2.1115319601378584
2025-03-08 13:53:22.194,-0.0017721803025323936,6.490054889119306
2025-03-08 13:53:22.213,-0.001984715307807996,9.72021499093467
2025-03-08 13:53:22.233,-0.0018725367759488242,11.974916133313675
2025-03-08 13:53:22.252,-0.0015103725292133594,13.550573204918841
2025-03-08 13:53:22.272,-0.0010057931537987453,14.765492840190532
2025-03-08 13:53:22.291,-0.000470572392873586,15.857429451750551
2025-03-08 13:53:22.311,3.5917396594181935e-06,16.906285395681063
2025-03-08 13:53:22.330,0.0003585884876555776,17.803323089985728
2025-03-08 13:53:22.350,0.000571533151694673,18.27788145814912
2025-03-08 13:53:22.369,0.0006485367858626957,17.978385238066398
2025-03-08 13:53:22.389,0.0006160728037154569,16.589253393458172
2025-03-08 13:53:22.409,0.0005129666860291638,13.95276174785068
2025-03-08 13:53:22.428,0.00038281811225682297,10.158953566203428
2025-03-08 13:53:22.448,0.0002659615463452752,5.57061604102971
2025-03-08 13:53:22.467,0.00019205701146536979,0.7653181063445641
2025-03-08 13:53:22.487,0.00017621037940190895,-3.59982270158477
2025-03-08 13:53:22.506,0.00022047754603979588,-6.968918320256915
2025-03-08 13:53:22.526,0.0003192041168881285,-9.06225674176547
2025-03-08 13:53:22.545,0.0004641385884002127,-9.988876122717164
2025-03-08 13:53:22.565,0.0006461988046079761,-10.253481648674477
2025-03-08 13:53:22.584,0.0008542847249240197,-10.643824340020366
2025-03-08 13:53:22.604,0.001074163026917352,-12.021766053705113
2025-03-08 13:53:22.623,0.0012897391196073952,-15.07375823002653
2025-03-08 13:53:22.643,0.0014860078463978937,-20.092457818930388
2025-03-08 13:53:22.662,0.0016510061631060502,-26.854077390612794
2025-03-08 13:53:22.682,0.0017753059567485227,-34.62787741650307
2025-03-08 13:53:22.702,0.0018506239379692915,-42.31525158052903
2025-03-08 13:53:22.721,0.0018705867983442343,-48.679886816672294
2025-03-08 13:53:22.741,0.001834749085938581,-52.60859704042117
2025-03-08 13:53:22.760,0.0017534020819608316,-53.339429025753205
2025-03-08 13:53:22.780,0.001649144108169049,-50.60756747844014
2025-03-08 13:53:22.799,0.0015532657883003409,-44.68344375340274
2025-03-08 13:53:22.819,0.0014987383751894976,-36.302893306398786
2025-03-08 13:53:22.838,0.0015134421877811873,-26.510473026012047
2025-03-08 13:53:22.858,0.0016157855326864453,-16.452237892896303
2025-03-08 13:53:22.877,0.0018120537737509534,-7.162927781350003
2025-03-08 13:53:22.897,0.002093917337525356,0.6068383022038972
2025-03-08 13:53:22.916,0.002436455901895373,6.487081867019166
2025-03-08 13:53:22.936,0.0027994168523076657,10.491591590661507
2025-03-08 13:53:22.955,0.0031340130184532252,12.935524061816094
2025-03-08 13:53:22.975,0.0033939748498023566,14.29855728158938
2025-03-08 13:53:22.995,0.0035460019442041177,15.077822033611094
2025-03-08 13:53:23.014,0.0035748642790419368,15.672834531870517
2025-03-08 13:53:23.034,0.0034824074264290295,16.32853356505068
2025-03-08 13:53:23.053,0.0032839141025934153,17.139232212117754
2025-03-08 13:53:23.073,0.0030056225211935314,18.095376217636932
2025-03-08 13:53:23.092,0.0026835327033392932,19.14419358178259
2025-03-08 13:53:23.112,0.002360071757587395,20.23737253154137
2025-03-08 13:53:23.131,0.0020759205313376646,21.350914232956896
2025-03-08 13:53:23.151,0.001858991885723289,22.477598077936978
2025-03-08 13:53:23.170,0.0017164674988411482,23.604107087957473
2025-03-08 13:53:23.190,0.0016346740124013168,24.688794926558796
2025-03-08 13:53:23.209,0.0015861431890750702,25.652538746141886
2025-03-08 13:53:23.229,0.0015385909298263945,26.387342122856488
2025-03-08 13:53:23.248,0.0014610317415179946,26.77931122045538
2025-03-08 13:53:23.268,0.0013268199011330342,26.737287502328233
2025-03-08 13:53:23.287,0.0011169461536058923,26.21705467512426
2025-03-08 13:53:23.307,0.0008256009198452639,25.23336007572423
2025-03-08 13:53:23.327,0.00046540846795172126,23.85664074996592
2025-03-08 13:53:23.346,6.711362499908025e-05,22.196482776817437
2025-03-08 13:53:23.366,-0.0003288610916402826,20.37773707472621
2025-03-08 13:53:23.385,-0.0006858463702662439,18.51672411984405
2025-03-08 13:53:23.405,-0.000982609662457695,16.703830974617293
2025-03-08 13:53:23.424,-0.0012180538076721234,14.995709417391627
2025-03-08 13:53:23.444,-0.001408410885347216,13.41655233541113
2025-03-08 13:53:23.463,-0.001580058026021822,11.965024048723237
2025-03-08 13:53:23.483,-0.00176135378089137,10.622360231587844
2025-03-08 13:53:23.502,-0.001975154165213401,9.358067649692059
2025-03-08 13:53:23.522,-0.002232630471919388,8.131791965291262
2025-03-08 13:53:23.541,-0.0025295425528227477,6.892122017931164
2025-03-08 13:53:23.561,-0.002846694067586245,5.5744622496244425
2025-03-08 13:53:23.580,-0.0031552235114264476,4.100380830229764
2025-03-08 13:53:23.600,-0.0034249487150169113,2.380304306162223
2025-03-08 13:53:23.620,-0.0036322048946336462,0.32052779157960715
2025-03-08 13:53:23.639,-0.0037642377506536227,-2.1653558686723873
2025-03-08 13:53:23.659,-0.003819926334483818,-5.14109272177576
2025-03-08 13:53:23.678,-0.003809094364520137,-8.629344414160656
2025-03-08 13:53:23.698,-0.0037525683953289397,-12.59169229914152
2025-03-08 13:53:23.717,-0.003682446806178095,-16.909806440392618
2025-03-08 13:53:23.737,-0.003639532085386294,-21.372301470048914
2025-03-08 13:53:23.756,-0.003665626535151701,-25.673323005262237
2025-03-08 13:53:23.776,-0.0037923669519547626,-29.429010331693913
2025-03-08 13:53:23.795,-0.004031858665136216,-32.21574157266885
2025-03-08 13:53:23.815,-0.004373961041387608,-33.62930315357723
2025-03-08 13:53:23.834,-0.004790891294724084,-33.3576215903584
2025-03-08 13:53:23.854,-0.005245576415270129,-31.25316636452135
2025-03-08 13:53:23.873,-0.00569931233951137,-27.38693793634137
2025-03-08 13:53:23.893,-0.006116773770306739,-22.066499134016368
2025-03-08 13:53:23.912,-0.00646928189841086,-15.807213397458531
2025-03-08 13:53:23.932,-0.006737733351140614,-9.257930507271487
2025-03-08 13:53:23.952,-0.006914826822071418,-3.0961807887435606
2025-03-08 13:53:23.971,-0.007004739168736809,2.0819912296414675
2025-03-08 13:53:23.991,-0.007019309347921454,5.850734804230897
2025-03-08 13:53:24.010,-0.006972403376714529,8.00235165873061
2025-03-08 13:53:24.030,-0.006875689176067303,8.548285372257935
2025-03-08 13:53:24.049,-0.006737760937124419,7.679761311788529
2025-03-08 13:53:24.069,-0.006565613903216466,5.7029692404103765
2025-03-08 13:53:24.088,-0.006365785932979237,2.966285273513644
2025-03-08 13:53:24.108,-0.006143596667866186,-0.20467576974953203
2025-03-08 13:53:24.127,-0.005901458673997348,-3.552466594288611
2025-03-08 13:53:24.147,-0.005638465585192232,-6.907137250395774
2025-03-08 13:53:24.166,-0.005352178747251861,-10.17865707183408
2025-03-08 13:53:24.186,-0.005041224279351872,-13.327342805930511
2025-03-08 13:53:24.205,-0.004706452682064141,-16.32206719840655
2025-03-08 13:53:24.225,-0.004349858843350269,-19.098736438229327
2025-03-08 13:53:24.245,-0.003972635921300565,-21.531215778149345
2025-03-08 13:53:24.264,-0.0035743723566683473,-23.42374216228752
2025-03-08 13:53:24.284,-0.0031539285755808584,-24.529064753009912
2025-03-08 13:53:24.303,-0.0027105942786561283,-24.591370221009416
2025-03-08 13:53:24.323,-0.00224378231576059,-23.408011873578324
2025-03-08 13:53:24.342,-0.0017511014672092601,-20.899023409407135
2025-03-08 13:53:24.362,-0.0012265192905714004,-17.16845516988646
2025-03-08 13:53:24.381,-0.0006605760655538788,-12.538028883334158
2025-03-08 13:53:24.401,-4.300042534735477e-05,-7.534110928301268
2025-03-08 13:53:24.420,0.0006338065519070397,-2.816369279562851
2025-03-08 13:53:24.440,0.0013723656600605832,0.9484980677324084
2025-03-08 13:53:24.459,0.0021695210554926385,3.2450196246592897
2025-03-08 13:53:24.479,0.003016962225157722,3.859073717242941
2025-03-08 13:53:24.498,0.0039019847025398213,2.9729751023613176
2025-03-08 13:53:24.518,0.0048085800003560865,1.167476952968494
2025-03-08 13:53:24.538,0.0057196874671236325,-0.6832953128063491
2025-03-08 13:53:24.557,0.006620733091194842,-1.605457620497118
2025-03-08 13:53:24.577,0.007502866455953117,-0.7591558226976687
2025-03-08 13:53:24.596,0.008363511524253906,2.3517453563461808
2025-03-08 13:53:24.616,0.009203348939479586,7.753549115352157
2025-03-08 13:53:24.635,0.010021692172754958,14.99530564035365
2025-03-08 13:53:24.655,0.010813758113199954,23.260124320146634
2025-03-08 13:53:24.674,0.011571874329918873,31.561791972739602
2025-03-08 13:53:24.694,0.012289385683999432,38.97171899504393
2025-03-08 13:53:24.713,0.012963942314838009,44.816644121737035
2025-03-08 13:53:24.733,0.013597819465609905,48.799135200656
2025-03-08 13:53:24.752,0.01419579402706766,51.01529218951552
2025-03-08 13:53:24.772,0.014762968772757406,51.869891679539336
2025-03-08 13:53:24.791,0.015304061236717332,51.912807586513246
2025-03-08 13:53:24.811,0.01582325892641734,51.63889929866387
2025-03-08 13:53:24.830,0.016322644816987333,51.30440324685337
2025-03-08 13:53:24.850,0.01679882469340931,50.81287412599006
2025-03-08 13:53:24.870,0.017240045182442456,49.70974624523133
2025-03-08 13:53:24.889,0.017626724486537893,47.29683492699765
2025-03-08 13:53:24.909,0.017935904960104932,42.84248492385089
2025-03-08 13:53:24.928,0.01814694822076033,35.83077539819516
2025-03-08 13:53:24.948,0.01824498519577018,26.176751314996096
2025-03-08 13:53:24.967,0.018220899252262078,14.341706914035953
2025-03-08 13:53:24.987,0.018069627320698136,1.3111027735652487
2025-03-08 13:53:25.006,0.0177894903527227,-11.562948884022244
2025-03-08 13:53:25.026,0.01738354931730335,-22.816000303466904
2025-03-08 13:53:25.045,0.016861606842781495,-31.159940235054965
2025-03-08 13:53:25.065,0.016240746632563613,-35.737179885889546
2025-03-08 13:53:25.084,0.0155435661696903,-36.28202371962707
2025-03-08 13:53:25.104,0.014794838768010755,-33.154592849766395
2025-03-08 13:53:25.123,0.014017560027311504,-27.24406154996966
2025-03-08 13:53:25.143,0.013228304568772133,-19.770043362508158
2025-03-08 13:53:25.163,0.012431167207149835,-12.035401191924816
2025-03-08 13:53:25.182,0.011610519580561788,-5.19326890613444
2025-03-08 13:53:25.202,0.010724825963681024,-0.08293198037602906
2025-03-08 13:53:25.221,0.009705041082802441,2.833559743041675
2025-03-08 13:53:25.241,0.008460412510280308,3.4327011426966596
2025-03-08 13:53:25.260,0.006892272693402628,1.8172348642156866
2025-03-08 13:53:25.280,0.004914153326271634,-1.8209286810982763
2025-03-08 13:53:25.299,0.00247527791235247,-7.310109123691491
2025-03-08 13:53:25.319,-0.00041618361066316195,-14.543311750201887
2025-03-08 13:53:25.338,-0.003674746456394113,-23.44849355898446
2025-03-08 13:53:25.358,-0.007130286610305608,-33.90385738270424
2025-03-08 13:53:25.377,-0.010538568933550851,-45.634960234050176
2025-03-08 13:53:25.397,-0.013614367265966845,-58.13324202403748
2025-03-08 13:53:25.416,-0.016086449661140735,-70.62692188043575
2025-03-08 13:53:25.436,-0.017766223360677125,-82.12033284992827
2025-03-08 13:53:25.456,-0.018615030972618626,-91.50043852432016
2025-03-08 13:53:25.475,-0.01879137899328563,-97.69201739060237
2025-03-08 13:53:25.495,-0.018660029220453348,-99.82867740233016
2025-03-08 13:53:25.514,-0.018750357777767557,-97.3994186540951
2025-03-08 13:53:25.534,-0.019661959610782657,-90.33387048181886
2025-03-08 13:53:25.553,-0.021930701582061705,-79.00467591735124
2025-03-08 13:53:25.573,-0.025885134024168175,-64.1483692930704
2025-03-08 13:53:25.592,-0.031534079603829514,-46.72785424366658
2025-03-08 13:53:25.612,-0.038523047994714746,-27.772447728327016
2025-03-08 13:53:25.631,-0.04617791006663428,-8.232558391838415
2025-03-08 13:53:25.651,-0.05362701503072281,11.12261179466097
2025-03-08 13:53:25.670,-0.059970069370696266,29.75012827784125
2025-03-08 13:53:25.690,-0.06445168439687941,47.32205099908584
2025-03-08 13:53:25.709,-0.06660013259287641,63.67101339946749
2025-03-08 13:53:25.729,-0.06630348553335116,78.71288676859412
2025-03-08 13:53:25.748,-0.06381105252026935,92.36790861203075
2025-03-08 13:53:25.768,-0.05966405951341213,104.497887895647
2025-03-08 13:53:25.788,-0.05457302852660061,114.87056897408591
2025-03-08 13:53:25.807,-0.049268107306796004,123.15537989173902
2025-03-08 13:53:25.827,-0.044351402476190585,128.94929715140734
2025-03-08 13:53:25.846,-0.04017800593696664,131.82764236575883
2025-03-08 13:53:25.866,-0.036787164051978384,131.41135467186325
2025-03-08 13:53:25.885,-0.03389797272244516,127.43891614540163
2025-03-08 13:53:25.905,-0.03097379546825577,119.8282755836046
2025-03-08 13:53:25.924,-0.0273455268913803,108.71373520610763
2025-03-08 13:53:25.944,-0.02236887454192266,94.44676474823869
2025-03-08 13:53:25.963,-0.015580858954349656,77.55845631058169
2025-03-08 13:53:25.983,-0.0068202246759394075,58.69268429756559
2025-03-08 13:53:26.002,0.0037144490759139083,38.528734464833576
2025-03-08 13:53:26.022,0.01548025323515146,17.71581633604196
2025-03-08 13:53:26.041,0.027674548504995955,-3.1626043976436655
2025-03-08 13:53:26.061,0.039370353696856826,-23.58789468379051
2025-03-08 13:53:26.081,0.04967362922587058,-43.07576109300355
2025-03-08 13:53:26.100,0.057868348616969566,-61.13457344720249
2025-03-08 13:53:26.120,0.06351886864172607,-77.23593657492404
2025-03-08 13:53:26.139,0.06651176288160243,-90.81761892941053
2025-03-08 13:53:26.159,0.0670357024381906,-101.32785616943633
2025-03-08 13:53:26.178,0.06551177867715476,-108.30440726790795
2025-03-08 13:53:26.198,0.062494848671267506,-111.46688921516507
2025-03-08 13:53:26.217,0.05856889463121476,-110.79293895704724
2025-03-08 13:53:26.237,0.05425681846972374,-106.55184142304684
2025-03-08 13:53:26.256,0.04995892012134847,-99.28264673047711
2025-03-08 13:53:26.276,0.04592638280776211,-89.72120878972414
2025-03-08 13:53:26.295,0.042268133347676186,-78.69418606463164
2025-03-08 13:53:26.315,0.03898280262982759,-67.00367346079032
2025-03-08 13:53:26.334,0.03600332709357681,-55.32466897084072
2025-03-08 13:53:26.354,0.03324092830233683,-44.13231854371868
2025-03-08 13:53:26.373,0.0306179863706322,-33.66950012007239
2025-03-08 13:53:26.393,0.028084673834418494,-23.95874720796889
2025-03-08 13:53:26.413,0.02562008301257932,-14.855508581786111
2025-03-08 13:53:26.432,0.02322281986739985,-6.132030527502326
2025-03-08 13:53:26.452,0.020897561063323553,2.4262545016601367
2025-03-08 13:53:26.471,0.018643253643987872,10.934291955645765
2025-03-08 13:53:26.491,0.01644665599388118,19.351574379998173
2025-03-08 13:53:26.510,0.014282701581966052,27.468909684473243
2025-03-08 13:53:26.530,0.012121019682371517,34.9373211412763
2025-03-08 13:53:26.549,0.00993602761528971,41.327388451851405
2025-03-08 13:53:26.569,0.007716790522607453,46.20122544720993
2025-03-08 13:53:26.588,0.0054729441593012775,49.17932827994702
2025-03-08 13:53:26.608,0.0032345571445878806,49.98944638706992
2025-03-08 13:53:26.627,0.0010461888288814023,48.492155668768966
2025-03-08 13:53:26.647,-0.0010426351531262962,44.685573134978966
2025-03-08 13:53:26.666,-0.002987617766820914,38.69750827346117
2025-03-08 13:53:26.686,-0.0047581370854947935,30.775635808774442
2025-03-08 13:53:26.706,-0.006342430555032519,21.284211161519053
2025-03-08 13:53:26.725,-0.0077487000405990665,10.709941102817497
2025-03-08 13:53:26.745,-0.009001855424362222,-0.3282608224439377
2025-03-08 13:53:26.764,-0.010136398368876132,-11.077978348036524
2025-03-08 13:53:26.784,-0.011187049540473873,-20.676200281647684
2025-03-08 13:53:26.803,-0.012179621894249395,-28.209862059643065
2025-03-08 13:53:26.823,-0.013124693730831208,-32.81892658816137
2025-03-08 13:53:26.842,-0.014015674054177413,-33.83362105132352
2025-03-08 13:53:26.862,-0.014831369558320755,-30.92280796642984
2025-03-08 13:53:26.881,-0.015541927920828426,-24.21936496993663
2025-03-08 13:53:26.901,-0.016116491436154585,-14.38577072805779
2025-03-08 13:53:26.920,-0.016530885635088262,-2.591310510741689
2025-03-08 13:53:26.940,-0.01677376297815497,9.610330530240098
2025-03-08 13:53:26.959,-0.016849726199227925,20.492862358229885
2025-03-08 13:53:26.979,-0.016778427503032444,28.428060052706552
2025-03-08 13:53:26.999,-0.016589764107306174,32.16916026899558
2025-03-08 13:53:27.018,-0.01631674013944963,31.09210948007264
2025-03-08 13:53:27.038,-0.015988504196661698,25.340483666254407
2025-03-08 13:53:27.057,-0.015625835135972828,15.832940734526847
2025-03-08 13:53:27.077,-0.01524004435778423,4.118630854836535
2025-03-08 13:53:27.096,-0.014834725192847294,-7.897941131487666
2025-03-08 13:53:27.116,-0.014408893496425039,-18.305902813599452
2025-03-08 13:53:27.135,-0.013960105005340935,-25.532483089273146
2025-03-08 13:53:27.155,-0.013486718029360217,-28.60467519252742
2025-03-08 13:53:27.174,-0.012989032752951551,-27.271747382456724
2025-03-08 13:53:27.194,-0.012469334972505816,-21.96933447957843
2025-03-08 13:53:27.213,-0.011931027261374403,-13.647561844511534
2025-03-08 13:53:27.233,-0.011377224819908788,-3.520133225492947
2025-03-08 13:53:27.252,-0.010809404937239002,7.1921743851753535
2025-03-08 13:53:27.272,-0.01022674252962186,17.457348195531104
2025-03-08 13:53:27.291,-0.009626489166167469,26.529022715625214
2025-03-08 13:53:27.311,-0.009005219750834556,33.943590597918416
2025-03-08 13:53:27.331,-0.008360299014203798,39.44931508979118
2025-03-08 13:53:27.350,-0.007690877587209159,42.916225357363935
2025-03-08 13:53:27.370,-0.006998152724057725,44.273402924549934
2025-03-08 13:53:27.389,-0.0062851242239195535,43.50181576425068
2025-03-08 13:53:27.409,-0.005556202615069325,40.68324861295642
2025-03-08 13:53:27.428,-0.004816777058485381,36.0782780490337
2025-03-08 13:53:27.448,-0.004072631952940244,30.187931866176054
2025-03-08 13:53:27.467,-0.0033292317968031757,23.752102996376205
2025-03-08 13:53:27.487,-0.002591214653607833,17.656203676928012
2025-03-08 13:53:27.506,-0.0018625060087943616,12.752134409313156
2025-03-08 13:53:27.526,-0.0011470927112233764,9.63815618383712
2025-03-08 13:53:27.545,-0.000449964875596139,8.4676257055147
2025-03-08 13:53:27.565,0.00022248032408130254,8.855699010332419
2025-03-08 13:53:27.584,0.0008629577680454694,9.924968147571251
2025-03-08 13:53:27.604,0.0014644991324009196,10.487057228128169
2025-03-08 13:53:27.624,0.0020216720871136093,9.314478524111099
2025-03-08 13:53:27.643,0.0025312148391348852,5.429927041074929
2025-03-08 13:53:27.663,0.0029919236018259468,-1.663611532313173
2025-03-08 13:53:27.682,0.003404025808899823,-11.868835252480292
2025-03-08 13:53:27.702,0.0037684166251756627,-24.51717336925615
2025-03-08 13:53:27.721,0.004086115123113536,-38.510864304154026
2025-03-08 13:53:27.741,0.0043581836513512575,-52.5371873325772
2025-03-08 13:53:27.760,0.004586115867399064,-65.2970098251062
2025-03-08 13:53:27.780,0.0047724038529139935,-75.696633185291
2025-03-08 13:53:27.799,0.004920842160782629,-82.97062293002982
2025-03-08 13:53:27.819,0.005036231903450645,-86.72569123325758
2025-03-08 13:53:27.838,0.005123446976517603,-86.91459200348754
2025-03-08 13:53:27.858,0.005186169529080579,-83.76046474815693
2025-03-08 13:53:27.877,0.005225843369003145,-77.6558937591651
2025-03-08 13:53:27.897,0.0052413932166370525,-69.05943557294505
2025-03-08 13:53:27.917,0.005229943675461166,-58.40843410759482
2025-03-08 13:53:27.936,0.005188260803950333,-46.06239937859564
2025-03-08 13:53:27.956,0.005114245963090633,-32.28606842320545
2025-03-08 13:53:27.975,0.005007829605997965,-17.274495820895964
2025-03-08 13:53:27.995,0.004871026915592319,-1.2138049100541173
2025-03-08 13:53:28.014,0.004707386103240359,15.638091260354567
2025-03-08 13:53:28.034,0.0045212486008931055,32.8738081573126
2025-03-08 13:53:28.053,0.004317134868459391,49.8874467322433
2025-03-08 13:53:28.073,0.004099405867621085,65.87584789161058
2025-03-08 13:53:28.092,0.003872288673110962,79.90109535625605
2025-03-08 13:53:28.112,0.00364032027922624,91.0094206866868
2025-03-08 13:53:28.131,0.0034090962226743507,98.38441027278151
2025-03-08 13:53:28.151,0.003185907870143105,101.49889577138988
2025-03-08 13:53:28.170,0.002979629365748817,100.2256882645424
2025-03-08 13:53:28.190,0.0027993134360540677,94.87584689661583
2025-03-08 13:53:28.209,0.002651407822452452,86.15278304540517
2025-03-08 13:53:28.229,0.0025361110494191057,75.03382998784508
2025-03-08 13:53:28.249,0.0024438868036488768,62.60886685461717
2025-03-08 13:53:28.268,0.0023533902563118874,49.91280922307753
2025-03-08 13:53:28.288,0.0022319846711291117,37.78552102773824
2025-03-08 13:53:28.307,0.0020396374237943893,26.782638231524114
2025-03-08 13:53:28.327,0.0017362727696972218,17.148061770354715
2025-03-08 13:53:28.346,0.001291673061197531,8.84649091836432
2025-03-08 13:53:28.366,0.0006959456108992038,1.6438762807726752
2025-03-08 13:53:28.385,-3.226013825180388e-05,-4.784383774489767
2025-03-08 13:53:28.405,-0.0008427790333772596,-10.742672681132557
2025-03-08 13:53:28.424,-0.0016583720239249245,-16.427317495385577
2025-03-08 13:53:28.444,-0.0023868824558220263,-21.881073954530102
2025-03-08 13:53:28.463,-0.0029389257581341303,-26.997114219225843
2025-03-08 13:53:28.483,-0.0032467538862346926,-31.56521469459077
2025-03-08 13:53:28.502,-0.0032790886055583494,-35.341610412465315
2025-03-08 13:53:28.522,-0.003047753857488656,-38.11988007874334
2025-03-08 13:53:28.542,-0.0026044783616727325,-39.783645528425716
2025-03-08 13:53:28.561,-0.0020291412773020077,-40.33033259973967
2025-03-08 13:53:28.581,-0.001412840568404351,-39.86516949431547
2025-03-08 13:53:28.600,-0.000839971713410361,-38.57283222957438
2025-03-08 13:53:28.620,-0.0003732113020348938,-36.67871284379654
2025-03-08 13:53:28.639,-4.436188655813582e-05,-34.412085892259235
2025-03-08 13:53:28.659,0.00014732641843346014,-31.98011799684977
2025-03-08 13:53:28.678,0.00022949292142285921,-29.556233057633737
2025-03-08 13:53:28.698,0.0002457508891681671,-27.28073199548615
2025-03-08 13:53:28.717,0.00024304277075111878,-25.26752104593012
2025-03-08 13:53:28.737,0.0002609500454936636,-23.60944699586046
2025-03-08 13:53:28.756,0.00032549601626006923,-22.376296739199574
2025-03-08 13:53:28.776,0.00044823477583579843,-21.60329608777343
2025-03-08 13:53:28.795,0.000629836305313313,-21.272567856502768
2025-03-08 13:53:28.815,0.0008662899176575123,-21.29391347277749
2025-03-08 13:53:28.834,0.0011552933535216119,-21.49321711164016
2025-03-08 13:53:28.854,0.0015004239948551545,-21.616141564604813
2025-03-08 13:53:28.874,0.0019113984796859265,-21.351734142044542
2025-03-08 13:53:28.893,0.0024000471086129977,-20.37587441682608
2025-03-08 13:53:28.913,0.00297317210529687,-18.40935910434562
2025-03-08 13:53:28.932,0.003624641151060957,-15.281044775479222
2025-03-08 13:53:28.952,0.004329463545960073,-10.983745278280667
2025-03-08 13:53:28.971,0.005042231069929294,-5.709989007914578
2025-03-08 13:53:28.991,0.005701546008208621,0.14345517135222485
2025-03-08 13:53:29.010,0.006241129582149835,6.008998100596658
2025-03-08 13:53:29.030,0.006607008564326484,11.219515649502709
2025-03-08 13:53:29.049,0.006778246446335885,15.10917113264288
2025-03-08 13:53:29.069,0.006786364760394685,17.12768728728629
2025-03-08 13:53:29.088,0.006726802375949368,16.947053190985436
2025-03-08 13:53:29.108,0.006755605410569053,14.53928711957651
2025-03-08 13:53:29.127,0.0070666743474144976,10.208420574657378
2025-03-08 13:53:29.147,0.007849123748131376,4.568250691304586
2025-03-08 13:53:29.167,0.009229773432868637,-1.5322613384076045
2025-03-08 13:53:29.186,0.011211370122813568,-7.123822109509453
2025-03-08 13:53:29.206,0.013621634860369897,-11.251522599534344
2025-03-08 13:53:29.225,0.016090270373802503,-13.104928844306755
2025-03-08 13:53:29.245,0.018069136068311113,-12.120927340159776
2025-03-08 13:53:29.264,0.01890378183183628,-8.045324740400698
2025-03-08 13:53:29.284,0.017952574704535405,-0.9520028645510067
2025-03-08 13:53:29.303,0.014734864189627914,8.770313187595594
2025-03-08 13:53:29.323,0.009075978909287456,20.44949280622917
2025-03-08 13:53:29.342,0.0012092050282090925,33.169991248040944
2025-03-08 13:53:29.362,-0.008202275373699917,45.82154570467271
2025-03-08 13:53:29.381,-0.018144600846695468,57.16591070029631
2025-03-08 13:53:29.401,-0.027427067391360666,65.93413026317859
2025-03-08 13:53:29.420,-0.03491243411758127,70.96111478968567
2025-03-08 13:53:29.440,-0.03974333543254185,71.35031481481028
2025-03-08 13:53:29.460,-0.04150320874073363,66.6433370467484
2025-03-08 13:53:29.479,-0.04027113866674689,56.95450709401689
2025-03-08 13:53:29.499,-0.036563626675192695,43.026462866858026
2025-03-08 13:53:29.518,-0.03118891201805691,26.17488182939667
2025-03-08 13:53:29.538,-0.025059960972418097,8.116922834555147
2025-03-08 13:53:29.557,-0.01901558634247989,-9.289668893738654
2025-03-08 13:53:29.577,-0.01368779330160975,-24.343122128881717
2025-03-08 13:53:29.596,-0.009434731290647395,-35.76415007859141
2025-03-08 13:53:29.616,-0.006339926264333621,-42.87320368607782
2025-03-08 13:53:29.635,-0.004264277469942115,-45.64271536106445
2025-03-08 13:53:29.655,-0.0029293641786379515,-44.62183222536013
2025-03-08 13:53:29.674,-0.002008822794312726,-40.76302268021996
2025-03-08 13:53:29.694,-0.001207746250667994,-35.200073179838526
2025-03-08 13:53:29.713,-0.00031654001268872293,-29.030792404659124
2025-03-08 13:53:29.733,0.0007663790943566204,-23.147371027128116
2025-03-08 13:53:29.752,0.0020409604113606644,-18.13882539720441
2025-03-08 13:53:29.772,0.003432929349372039,-14.269806033389173
2025-03-08 13:53:29.792,0.004831039415557631,-11.523362427173186
2025-03-08 13:53:29.811,0.006123087949974497,-9.684947695849333
2025-03-08 13:53:29.831,0.007222500646737183,-8.44176343369087
2025-03-08 13:53:29.850,0.008081642362835428,-7.474481135298464
2025-03-08 13:53:29.870,0.008692308694494028,-6.525353918834086
2025-03-08 13:53:29.889,0.009076952390619892,-5.435321786026848
2025-03-08 13:53:29.909,0.009275585781925536,-4.150740982701179
2025-03-08 13:53:29.928,0.009333038105519713,-2.7063097190114935
2025-03-08 13:53:29.948,0.009289805478298885,-1.1939041138591906
2025-03-08 13:53:29.967,0.009177763109665192,0.27257738291150246
2025-03-08 13:53:29.987,0.009020139611536164,1.588032595203902
2025-03-08 13:53:30.006,0.008833883308528075,2.677334013464453
2025-03-08 13:53:30.026,0.00863221052709411,3.504910185729094
2025-03-08 13:53:30.045,0.008425752867646071,4.073673322779002
2025-03-08 13:53:30.065,0.008221940297748817,4.416206084653468
2025-03-08 13:53:30.085,0.0080233994092215,4.5819890645262795
2025-03-08 13:53:30.104,0.007826641278456196,4.62431674993908
2025-03-08 13:53:30.124,0.00762206303633161,4.589694448271913
2025-03-08 13:53:30.143,0.00739563227359142,4.511290770433839
2025-03-08 13:53:30.163,0.007131974305261389,4.406783189894244
2025-03-08 13:53:30.182,0.006818150876718652,4.279938785129191
2025-03-08 13:53:30.202,0.006447226056157903,4.124663694662572
2025-03-08 13:53:30.221,0.006020714227194335,3.930061648146227
2025-03-08 13:53:30.241,0.005549185401818043,3.685199619914627
2025-03-08 13:53:30.260,0.005050705511766846,3.382666267960717
2025-03-08 13:53:30.280,0.004547401871019834,3.020488298520695
2025-03-08 13:53:30.299,0.004061080038999235,2.602418886390863
2025-03-08 13:53:30.319,0.003609155584774194,2.136945518520376
2025-03-08 13:53:30.338,0.0032019826212271734,1.6355422455528008
2025-03-08 13:53:30.358,0.002842065354197299,1.110715684193541
2025-03-08 13:53:30.378,0.0025249818016731458,0.5742986951414777
2025-03-08 13:53:30.397,0.0022414110267059864,0.03628031756340674
2025-03-08 13:53:30.417,0.001979476494851817,-0.4957229391378273
2025-03-08 13:53:30.436,0.0017266372032193184,-1.0164084373453979
2025-03-08 13:53:30.456,0.0014705934466101617,-1.5223032908159937
2025-03-08 13:53:30.475,0.001199172799171702,-2.0110639511773925
2025-03-08 13:53:30.495,0.0008997767687088676,-2.4807607500281468
2025-03-08 13:53:30.514,0.0005593077785059435,-2.929301048051623
2025-03-08 13:53:30.534,0.00016525779128988597,-3.354077194583573
2025-03-08 13:53:30.553,-0.00029202583984050607,-3.751857159494033
2025-03-08 13:53:30.573,-0.0008164963885160231,-4.118880848584533
2025-03-08 13:53:30.592,-0.001403813078386146,-4.451091736812087
2025-03-08 13:53:30.612,-0.00203971467325018,-4.744423084202057
2025-03-08 13:53:30.631,-0.0026998933457014723,-4.995067018394499
2025-03-08 13:53:30.651,-0.003351785262563624,-5.19967643984533
2025-03-08 13:53:30.670,-0.00395852507428242,-5.355476348895098
2025-03-08 13:53:30.690,-0.004484821118590445,-5.460286004245996
2025-03-08 13:53:30.710,-0.004903666465139935,-5.512471563705816
2025-03-08 13:53:30.729,-0.005202056489722561,-5.510858332159318
2025-03-08 13:53:30.749,-0.005383855485017955,-5.454632621956461
2025-03-08 13:53:30.768,-0.005468814205611559,-5.34325745130671
2025-03-08 13:53:30.788,-0.005488027422974243,-5.176416739966413
2025-03-08 13:53:30.807,-0.0054771835864913885,-4.953992305397081
2025-03-08 13:53:30.827,-0.005469424989408957,-4.676069289171588
2025-03-08 13:53:30.846,-0.005489496671765292,-4.342960206987385
2025-03-08 13:53:30.866,-0.005550310773183937,-3.955236128368695
2025-03-08 13:53:30.885,-0.005652332907570848,-3.5137551306840766
2025-03-08 13:53:30.905,-0.005785511047108704,-3.019682043017901
2025-03-08 13:53:30.924,-0.005932947350617223,-2.4744981775592576
2025-03-08 13:53:30.944,-0.00607523353082351,-1.8800038361372398
2025-03-08 13:53:30.963,-0.006194377458719429,-1.2383187837629437
2025-03-08 13:53:30.983,-0.006276547637701872,-0.5518860180922854
2025-03-08 13:53:31.003,-0.006313354463187451,0.17651794122203937
2025-03-08 13:53:31.022,-0.0063018653605273305,0.9437667522578022
2025-03-08 13:53:31.042,-0.00624380541129441,1.746366731102434
2025-03-08 13:53:31.061,-0.006144360029281248,2.5804464099250235
2025-03-08 13:53:31.081,-0.006010803971784953,3.4417629088902917
2025-03-08 13:53:31.100,-0.005851045494838978,4.325733289651035
2025-03-08 13:53:31.120,-0.005672192115725746,5.227494185184856
2025-03-08 13:53:31.139,-0.005479329358773135,6.141985376426041
2025-03-08 13:53:31.159,-0.005274725335264483,7.064044072515412
2025-03-08 13:53:31.178,-0.005057599945264893,7.98848867209227
2025-03-08 13:53:31.198,-0.00482448053818254,8.910166345770891
2025-03-08 13:53:31.217,-0.004570053857098321,9.823940293164375
2025-03-08 13:53:31.237,-0.0042883263613700965,10.724601493617804
2025-03-08 13:53:31.256,-0.003973815831783701,11.606706098367537
2025-03-08 13:53:31.276,-0.00362243055759736,12.464361144575992
2025-03-08 13:53:31.295,-0.0032317054623498278,13.291003708459781
2025-03-08 13:53:31.315,-0.002800231967099392,14.079235997516816
2025-03-08 13:53:31.335,-0.002326449736369416,14.820784687934054
2025-03-08 13:53:31.354,-0.0018073481068554714,15.506641562509667
2025-03-08 13:53:31.374,-0.001237851706067217,16.127411612789384
2025-03-08 13:53:31.393,-0.0006115673237626435,16.67384622226734
2025-03-08 13:53:31.413,7.688101712222233e-05,17.137480374985714
2025-03-08 13:53:31.432,0.000828360728403177,17.511236881591486
2025-03-08 13:53:31.452,0.0016356436721408332,17.78982377599885
2025-03-08 13:53:31.471,0.002481157195376044,17.96974991067625
2025-03-08 13:53:31.491,0.003337471178167249,18.048830658573458
2025-03-08 13:53:31.510,0.004171410408256636,18.025153655966125
2025-03-08 13:53:31.530,0.004951739696336916,17.89561374558385
2025-03-08 13:53:31.549,0.0056591613337759715,17.65428202246973
2025-03-08 13:53:31.569,0.006296196319510907,17.29100860531851
2025-03-08 13:53:31.588,0.0068937875894047795,16.790728109033378
2025-03-08 13:53:31.608,0.007511516775757433,16.133899603034067
2025-03-08 13:53:31.628,0.008229316200929452,15.298343543034344
2025-03-08 13:53:31.647,0.009130377238350544,14.262439134383627
2025-03-08 13:53:31.667,0.010277328518945776,13.009255874897903
2025-03-08 13:53:31.686,0.011686322338894647,11.530789925137158
2025-03-08 13:53:31.706,0.013305875063841063,9.831166527017135
2025-03-08 13:53:31.725,0.015008279571153702,7.9275712585156155
2025-03-08 13:53:31.745,0.016600198705166054,5.847884180491824
2025-03-08 13:53:31.764,0.017855300343216036,3.624558606263564
2025-03-08 13:53:31.784,0.018566138154496047,1.2851748151961766
2025-03-08 13:53:31.803,0.018606264531057893,-1.1588267310953404
2025-03-08 13:53:31.823,0.017988318698206166,-3.722699171809312
2025-03-08 13:53:31.842,0.016901051043235815,-6.455007607445615
2025-03-08 13:53:31.862,0.01570931356204415,-9.43703905204946
2025-03-08 13:53:31.881,0.014906934183129139,-12.772539625429278
2025-03-08 13:53:31.901,0.015022884679807872,-16.56703925079869
2025-03-08 13:53:31.921,0.01649405482619734,-20.898487893964425
2025-03-08 13:53:31.940,0.019529294182683052,-25.783692629022394
2025-03-08 13:53:31.960,0.02399537626542703,-31.14745044150991
2025-03-08 13:53:31.979,0.029354795210925617,-36.80254733220272
2025-03-08 13:53:31.999,0.03467882305528477,-42.44824640326011
2025-03-08 13:53:32.018,0.038748261010228345,-47.692131019084265
2025-03-08 13:53:32.038,0.04023906970830584,-52.0953563970027
2025-03-08 13:53:32.057,0.03797106357458056,-55.23534791325406
2025-03-08 13:53:32.077,0.031177687027918097,-56.7743329841289
2025-03-08 13:53:32.096,0.019738736787248558,-56.51879110794435
2025-03-08 13:53:32.116,0.004312489569874892,-54.45561907521136
2025-03-08 13:53:32.135,-0.013684664622740643,-50.75590509098258
2025-03-08 13:53:32.155,-0.032271364313166816,-45.74525956693205
2025-03-08 13:53:32.174,-0.04924051859887036,-39.84797311732668
2025-03-08 13:53:32.194,-0.06257066409075447,-33.5181710547335
2025-03-08 13:53:32.213,-0.0708082211721957,-27.173028849466515
2025-03-08 13:53:32.233,-0.07332546262853003,-21.14095731049757
2025-03-08 13:53:32.253,-0.07039519409766275,-15.632666843067765
2025-03-08 13:53:32.272,-0.0630740919413299,-10.736970576753881
2025-03-08 13:53:32.292,-0.05293537297414757,-6.437779282995715
2025-03-08 13:53:32.311,-0.04172537744485354,-2.645127420096606
2025-03-08 13:53:32.331,-0.031029916794537992,0.7682872377043563
2025-03-08 13:53:32.350,-0.022023082183071505,3.9328361630020305
2025-03-08 13:53:32.370,-0.015340075473125034,6.955559102459233
2025-03-08 13:53:32.389,-0.011078928199882439,9.904412068208607
2025-03-08 13:53:32.409,-0.00890556357248048,12.803294605462643
2025-03-08 13:53:32.428,-0.008219081816401552,15.636020696178676
2025-03-08 13:53:32.448,-0.00833041164172738,18.356328375800892
2025-03-08 13:53:32.467,-0.008614980721041802,20.90079263241487
2025-03-08 13:53:32.487,-0.008614526673345184,23.201895657283718
2025-03-08 13:53:32.506,-0.008079852560272261,25.199250997220194
2025-03-08 13:53:32.526,-0.006960897603573853,26.847831126252146
2025-03-08 13:53:32.546,-0.005359937386831653,28.12282017221089
2025-03-08 13:53:32.565,-0.003467107770477252,29.021277016454125
2025-03-08 13:53:32.585,-0.0014957748384721965,29.56110026963743
2025-03-08 13:53:32.604,0.00036948151076311524,29.77787300900535
2025-03-08 13:53:32.624,0.002005399467680447,29.720134431677458
2025-03-08 13:53:32.643,0.003361741893061876,29.443598550875993
2025-03-08 13:53:32.663,0.004455027858131335,29.004891365337134
2025-03-08 13:53:32.682,0.00534964509262579,28.45548790318248
2025-03-08 13:53:32.702,0.0061327009850854885,27.836599903589377
2025-03-08 13:53:32.721,0.006888822928890656,27.175693881072135
2025-03-08 13:53:32.741,0.007680073499515917,26.48508454497065
2025-03-08 13:53:32.760,0.008534386943044607,25.76271228791359
2025-03-08 13:53:32.780,0.009443741887149758,24.994870730771154
2025-03-08 13:53:32.799,0.01037105461366717,24.16037077360334
2025-03-08 13:53:32.819,0.011262935612062408,23.23543635659972
2025-03-08 13:53:32.839,0.012064413258609404,22.198526369118543
2025-03-08 13:53:32.858,0.012731784012789836,21.0342800384876
2025-03-08 13:53:32.878,0.013240852726983051,19.735922903892195
2025-03-08 13:53:32.897,0.013589507787725748,18.305765857144074
2025-03-08 13:53:32.917,0.013795172047632368,16.753836856034937
2025-03-08 13:53:32.936,0.013888701974264308,15.095097334192536
2025-03-08 13:53:32.956,0.01390665834668679,13.346003953268372
2025-03-08 13:53:32.975,0.013883715490764026,11.521320877571073
2025-03-08 13:53:32.995,0.013846578195019712,9.632047034367188
2025-03-08 13:53:33.014,0.013810317174698043,7.685087605141456
2025-03-08 13:53:33.034,0.013777561471532142,5.684888141402873
2025-03-08 13:53:33.053,0.013740487864938936,3.6367432863418028
2025-03-08 13:53:33.073,0.013685036372409178,1.551016953122799
2025-03-08 13:53:33.092,0.013596310326226213,-0.552818972028975
2025-03-08 13:53:33.112,0.01346377537248342,-2.6435491312491255
2025-03-08 13:53:33.131,0.01328477441263786,-4.67812811390356
2025-03-08 13:53:33.151,0.013065137442785453,-6.605011618975334
2025-03-08 13:53:33.171,0.01281629777967729,-8.37127611338996
2025-03-08 13:53:33.190,0.012549205196525944,-9.933155423999464
2025-03-08 13:53:33.210,0.012266255054338997,-11.268677044113547
2025-03-08 13:53:33.229,0.011953213640797381,-12.390092196889231
2025-03-08 13:53:33.249,0.011573501038184074,-13.353036567486718
2025-03-08 13:53:33.268,0.011067044748379112,-14.25915493918329
2025-03-08 13:53:33.288,0.010355195390006539,-15.249534848521897
2025-03-08 13:53:33.307,0.009351959277073999,-16.48780180494118
2025-03-08 13:53:33.327,0.007980264207482978,-18.133937402856148
2025-03-08 13:53:33.346,0.00619052805177438,-20.312328470797503
2025-03-08 13:53:33.366,0.003977834715048176,-23.079634787380098
2025-03-08 13:53:33.385,0.0013936827131353295,-26.3992109071845
2025-03-08 13:53:33.405,-0.00145141193921393,-30.12864695051019
2025-03-08 13:53:33.424,-0.004396861895396114,-34.02533618827134
2025-03-08 13:53:33.444,-0.007252088034096975,-37.7718947794189
2025-03-08 13:53:33.464,-0.00982346564510351,-41.0191039092404
2025-03-08 13:53:33.483,-0.011941126570363404,-43.43957661652279
2025-03-08 13:53:33.503,-0.013479223846874456,-44.78175506153646
2025-03-08 13:53:33.522,-0.014367058012670466,-44.912464330303884
2025-03-08 13:53:33.542,-0.01459262345530256,-43.83803507010828
2025-03-08 13:53:33.561,-0.01420182507517843,-41.6989057941195
2025-03-08 13:53:33.581,-0.013295204148257377,-38.73930799159647
2025-03-08 13:53:33.600,-0.012021071914383062,-35.25991399126859
2025-03-08 13:53:33.620,-0.010562040233564975,-31.565029088666144
2025-03-08 13:53:33.639,-0.009112983994999555,-27.91592239410038
2025-03-08 13:53:33.659,-0.007852179036431931,-24.49859375290458
2025-03-08 13:53:33.678,-0.006911297779405414,-21.409220030712113
2025-03-08 13:53:33.698,-0.006351760147764674,-18.655649591538744
2025-03-08 13:53:33.717,-0.006154147323504233,-16.170137739295427
2025-03-08 13:53:33.737,-0.0062247359431873645,-13.827655792325476
2025-03-08 13:53:33.756,-0.006419274621502655,-11.465227918030564
2025-03-08 13:53:33.776,-0.006579358198000446,-8.899889426147626
2025-03-08 13:53:33.796,-0.006572414493909342,-5.944940431312344
2025-03-08 13:53:33.815,-0.0063243824794733,-2.4254623745717327
2025-03-08 13:53:33.835,-0.005835934308511668,1.8056091292130996
2025-03-08 13:53:33.854,-0.005178016461702106,6.849984126594235
2025-03-08 13:53:33.874,-0.004468515600606451,12.745111502602029
2025-03-08 13:53:33.893,-0.0038369088698019583,19.445139487581372
2025-03-08 13:53:33.913,-0.0033866313157488947,26.804604764626053
2025-03-08 13:53:33.932,-0.0031652178236090548,34.56936744404865
2025-03-08 13:53:33.952,-0.0031502512655135024,42.38033594898762
2025-03-08 13:53:33.971,-0.003255291718628306,49.79497474284898
2025-03-08 13:53:33.991,-0.0033547889914414594,56.32875977928853
2025-03-08 13:53:34.010,-0.0033211699337698177,61.513745140165405
2025-03-08 13:53:34.030,-0.0030625415302824852,64.9654598291951
2025-03-08 13:53:34.049,-0.002548471955278785,66.4446554276011
2025-03-08 13:53:34.069,-0.0018157027496569483,65.89927659765551
2025-03-08 13:53:34.089,-0.0009536575005675803,63.47556933585336
2025-03-08 13:53:34.108,-7.698833139222439e-05,59.49460871304537
2025-03-08 13:53:34.128,0.0007042983427873918,54.39917368111322
2025-03-08 13:53:34.147,0.0013078974975287364,48.68288826997037
2025-03-08 13:53:34.167,0.0016904234988527496,42.816866557550696
2025-03-08 13:53:34.186,0.0018467170134270712,37.18824903399774
2025-03-08 13:53:34.206,0.0018010732624958725,32.06087200327717
2025-03-08 13:53:34.225,0.0015959292223695254,27.562473082770715
2025-03-08 13:53:34.245,0.001282660489983465,23.69694161907886
2025-03-08 13:53:34.264,0.0009163815722934918,20.375403445485222
2025-03-08 13:53:34.284,0.0005537052032839931,17.45710025520477
2025-03-08 13:53:34.303,0.00025087461103464356,14.790347943772188
2025-03-08 13:53:34.323,5.9968382996173295e-05,12.24520918481186
2025-03-08 13:53:34.342,2.2453566020634443e-05,9.732420432279003
2025-03-08 13:53:34.362,0.00016145800770483513,7.206844132709124
2025-03-08 13:53:34.382,0.0004757965363326665,4.657449500290882
2025-03-08 13:53:34.401,0.0009388684269345882,2.088818892068439
2025-03-08 13:53:34.421,0.0015036444769192978,-0.49910487489382893
2025-03-08 13:53:34.440,0.0021122328346867827,-3.126173937462292
2025-03-08 13:53:34.460,0.0027067702362326873,-5.8367437321856865
2025-03-08 13:53:34.479,0.0032384545742901926,-8.691522061716414
2025-03-08 13:53:34.499,0.003672852359268507,-11.747927828645368
2025-03-08 13:53:34.518,0.00399116760294723,-15.034022198528616
2025-03-08 13:53:34.538,0.004188323052473196,-18.52361982270169
2025-03-08 13:53:34.557,0.004269313519321559,-22.120713444236525
2025-03-08 13:53:34.577,0.004245361687886617,-25.659475212237126
2025-03-08 13:53:34.596,0.004131015220710958,-28.922144328554136
2025-03-08 13:53:34.616,0.003942646662746386,-31.67210444057301
2025-03-08 13:53:34.635,0.0036981205816515768,-33.694929976075166
2025-03-08 13:53:34.655,0.0034169167494783256,-34.8376608117823
2025-03-08 13:53:34.674,0.003119889375001619,-35.03691380075695
2025-03-08 13:53:34.694,0.002828136393456506,-34.329482910662456
2025-03-08 13:53:34.714,0.002561010784543057,-32.8437414246788
2025-03-08 13:53:34.733,0.0023338037989182035,-30.774965048058156
2025-03-08 13:53:34.753,0.0021557810217035936,-28.351289340183417
2025-03-08 13:53:34.772,0.0020290674459158427,-25.798519954506126
2025-03-08 13:53:34.792,0.0019486074771677246,-23.31120952965991
2025-03-08 13:53:34.811,0.0019032462618587716,-21.034753997964202
2025-03-08 13:53:34.831,0.001877837335373812,-19.05970855682148
2025-03-08 13:53:34.850,0.0018560593511194583,-17.426238618718138
2025-03-08 13:53:34.870,0.001823347642199095,-16.134563620020295
2025-03-08 13:53:34.889,0.001769186528812162,-15.156865709428164
2025-03-08 13:53:34.909,0.0016881298756526138,-14.44725135104563
2025-03-08 13:53:34.928,0.0015793442431646925,-13.94832580276589
2025-03-08 13:53:34.948,0.001445035256141648,-13.594927608256544
2025-03-08 13:53:34.967,0.0012885288696190985,-13.31685544856175
2025-03-08 13:53:34.987,0.0011128081643919808,-13.042654741208555
2025-03-08 13:53:35.007,0.000919982937644128,-12.70580556356129
2025-03-08 13:53:35.026,0.0007117317850177895,-12.2533700660515
2025-03-08 13:53:35.046,0.0004904134519263966,-11.65582012314235
2025-03-08 13:53:35.065,0.0002603464450662808,-10.915792867329241
2025-03-08 13:53:35.085,2.8681882062434993e-05,-10.073146980353926
2025-03-08 13:53:35.104,-0.0001946368214230631,-9.203966297365607
2025-03-08 13:53:35.124,-0.00039808171816029946,-8.412019154668515
2025-03-08 13:53:35.143,-0.0005707577058893082,-7.812531382142318
2025-03-08 13:53:35.163,-0.000705023482355467,-7.509818072341314
2025-03-08 13:53:35.182,-0.0007986257422668782,-7.5720764003732475
2025-03-08 13:53:35.202,-0.0008555369115723003,-8.008062373314713
2025-03-08 13:53:35.221,-0.0008851754398160428,-8.751004540735641
2025-03-08 13:53:35.241,-0.0009003391996386603,-9.654596788248007
2025-03-08 13:53:35.260,-0.0009146012963630465,-10.504145274200889
2025-03-08 13:53:35.280,-0.0009399063997264474,-11.043126324853834
2025-03-08 13:53:35.300,-0.0009848184582184425,-11.012078013704166
2025-03-08 13:53:35.319,-0.0010535895950162131,-10.1936525606092
2025-03-08 13:53:35.339,-0.0011460629890137808,-8.455554041559626
2025-03-08 13:53:35.358,-0.0012583133447867712,-5.7825227095410705
2025-03-08 13:53:35.378,-0.0013837869512247072,-2.289758670897821
2025-03-08 13:53:35.397,-0.0015145839324283085,1.7868167009813292
2025-03-08 13:53:35.417,-0.0016425543759639196,6.123599142319775
2025-03-08 13:53:35.436,-0.0017600873115002017,10.360580137875623
2025-03-08 13:53:35.456,-0.001860721956838378,14.161081332360913
2025-03-08 13:53:35.475,-0.0019398160628020375,17.267388420746393
2025-03-08 13:53:35.495,-0.001995383815944254,19.540122650842026
2025-03-08 13:53:35.514,-0.0020289365403609156,20.973031885451796
2025-03-08 13:53:35.534,-0.0020458953557864587,21.681157191811916
2025-03-08 13:53:35.553,-0.0020550880311442283,21.866975047714963
2025-03-08 13:53:35.573,-0.0020670950854652236,21.77391197281989
2025-03-08 13:53:35.592,-0.0020916766360737178,21.63822229292561
2025-03-08 13:53:35.612,-0.0021349217501484474,21.64863951200828
2025-03-08 13:53:35.632,-0.0021968840332055204,21.919641492054428
2025-03-08 13:53:35.651,-0.0022703036335102026,22.48022573860696
2025-03-08 13:53:35.671,-0.002340749780233764,23.277059734666086
2025-03-08 13:53:35.690,-0.0023882813235044024,24.189256253534165
2025-03-08 13:53:35.710,-0.0023904825150873684,25.05153729434453
2025-03-08 13:53:35.729,-0.0023264118242048355,25.682474626750306
2025-03-08 13:53:35.749,-0.0021806644190880114,25.914214877473093
2025-03-08 13:53:35.768,-0.0019466018012798045,25.619540539756642
2025-03-08 13:53:35.788,-0.0016280127021648107,24.731823025323262
2025-03-08 13:53:35.807,-0.0012389635219220761,23.25413448630276
2025-03-08 13:53:35.827,-0.0008020702037388556,21.25583227008399
2025-03-08 13:53:35.846,-0.00034562369385548005,18.857851421503042
2025-03-08 13:53:35.866,0.00010002055744311719,16.210652600563044
2025-03-08 13:53:35.885,0.0005063830841846516,13.470185473495684
2025-03-08 13:53:35.905,0.0008506162513576402,10.776860482163194
2025-03-08 13:53:35.925,0.0011184757575311178,8.240712161601571
2025-03-08 13:53:35.944,0.001305995544297037,5.933591227047738
2025-03-08 13:53:35.964,0.0014195984919609243,3.88733500993024
2025-03-08 13:53:35.983,0.001474655839817635,2.096065689390052
2025-03-08 13:53:36.003,0.0014927251747827008,0.5210768000583065
2025-03-08 13:53:36.022,0.001497822084156226,-0.902325690779691
2025-03-08 13:53:36.042,0.001512163299936021,-2.2558834904791563
2025-03-08 13:53:36.061,0.0015519425063766207,-3.6270665330086582
2025-03-08 13:53:36.081,0.001623864658745336,-5.0956631819993845
2025-03-08 13:53:36.100,0.0017232359066905402,-6.7195306418991825
2025-03-08 13:53:36.120,0.0018342349395871595,-8.521669151447492
2025-03-08 13:53:36.139,0.0019325658048872053,-10.481291072338587
2025-03-08 13:53:36.159,0.001990139069359106,-12.531440944904126
2025-03-08 13:53:36.178,0.0019809054836012964,-14.564886510243607
2025-03-08 13:53:36.198,0.0018865962820364185,-16.44846968593927
2025-03-08 13:53:36.217,0.0017010177875047144,-18.044095804456312
2025-03-08 13:53:36.237,0.0014318115974365586,-19.23251215980394
2025-03-08 13:53:36.257,0.0010992282945482424,-19.934639414979173
2025-03-08 13:53:36.276,0.0007322834677232091,-20.12510335031663
2025-03-08 13:53:36.296,0.0003633628680966307,-19.83407222086964
2025-03-08 13:53:36.315,2.2665653603083962e-05,-19.136298460380562
2025-03-08 13:53:36.335,-0.00026625731342431606,-18.12964731219709
2025-03-08 13:53:36.354,-0.0004890817878345834,-16.908386501204962
2025-03-08 13:53:36.374,-0.0006411899443625734,-15.53823685466478
2025-03-08 13:53:36.393,-0.0007263102334666997,-14.040131646307932
2025-03-08 13:53:36.413,-0.0007538686626454334,-12.387747201289539
2025-03-08 13:53:36.432,-0.0007357437409558167,-10.520533447448909
2025-03-08 13:53:36.452,-0.0006831700423617264,-8.369932238230918
2025-03-08 13:53:36.471,-0.000604516068162292,-5.892682525888376
2025-03-08 13:53:36.491,-0.0005045041551415816,-3.102565469616651
2025-03-08 13:53:36.510,-0.00038506256163189006,-0.0914519477183814
2025-03-08 13:53:36.530,-0.0002474441538265735,2.9675120622453925
2025-03-08 13:53:36.550,-9.47348887861304e-05,5.837533264784804
2025-03-08 13:53:36.569,6.63055986888635e-05,8.254093828498396
2025-03-08 13:53:36.589,0.00022484054379341204,9.971519566290011
2025-03-08 13:53:36.608,0.0003671308351375011,10.80940901210721
2025-03-08 13:53:36.628,0.00047879411066321817,10.688011159523311
2025-03-08 13:53:36.647,0.0005473386861993067,9.644467522921698
2025-03-08 13:53:36.667,0.0005642708311066769,7.8266431606539895
2025-03-08 13:53:36.686,0.000526432225341361,5.46664386526915
2025-03-08 13:53:36.706,0.00043655120284865674,2.840655414240465
2025-03-08 13:53:36.725,0.0003031304892310532,0.2243792629825678
2025-03-08 13:53:36.745,0.0001397831866715704,-2.1464578323040366
2025-03-08 13:53:36.764,-3.5923133667882516e-05,-4.103170936552082
2025-03-08 13:53:36.784,-0.00020408744931619323,-5.555148889656941
2025-03-08 13:53:36.803,-0.0003445295237224551,-6.4854410897467805
2025-03-08 13:53:36.823,-0.0004391703152499306,-6.934946203966375
2025-03-08 13:53:36.843,-0.0004744745885317489,-6.981089583539043
2025-03-08 13:53:36.862,-0.0004435327419855439,-6.716828386913695
2025-03-08 13:53:36.882,-0.0003473302165140588,-6.234240570191291
2025-03-08 13:53:36.901,-0.0001949072608242182,-5.614600234070796
2025-03-08 13:53:36.921,-2.3673191744000364e-06,-4.9245669550120255
2025-03-08 13:53:36.940,0.00020909028071539428,-4.2165631092771685
2025-03-08 13:53:36.960,0.00041583890116278006,-3.530861769057168
2025-03-08 13:53:36.979,0.0005948960955187389,-2.8972740712440306
2025-03-08 13:53:36.999,0.0007270354174356726,-2.33526188846658
2025-03-08 13:53:37.018,0.0007994369918418139,-1.8523673991039105
2025-03-08 13:53:37.038,0.0008072854135729343,-1.4416932541007872
2025-03-08 13:53:37.057,0.0007538635313602656,-1.079632690248621
2025-03-08 13:53:37.077,0.000649122909070061,-0.7251543046354837
2025-03-08 13:53:37.096,0.0005072617178159493,-0.3217561758315208
2025-03-08 13:53:37.116,0.00034415426011544676,0.19724287181225228
2025-03-08 13:53:37.135,0.00017530988741911184,0.9000723405559635
2025-03-08 13:53:37.155,1.4529914376425964e-05,1.8453298586760922
2025-03-08 13:53:37.175,-0.00012701451638304966,3.069814035277958
2025-03-08 13:53:37.194,-0.0002416462627116093,4.577501724915561
2025-03-08 13:53:37.214,-0.0003260920757304871,6.33198216975891
2025-03-08 13:53:37.233,-0.0003821730899710161,8.254322325205395
2025-03-08 13:53:37.253,-0.0004167885283143544,10.227482173881755
2025-03-08 13:53:37.272,-0.00044077883807391074,12.107202100867768
2025-03-08 13:53:37.292,-0.00046659928712023145,13.73804532431858
2025-03-08 13:53:37.311,-0.0005051889027126391,14.972296666667475
2025-03-08 13:53:37.331,-0.0005627868366922085,15.688885517674368
2025-03-08 13:53:37.350,-0.0006386031370512725,15.809465269744392
2025-03-08 13:53:37.370,-0.0007241538741139903,15.309190870443167
2025-03-08 13:53:37.389,-0.0008047016221784001,14.22049395042286
2025-03-08 13:53:37.409,-0.0008626139291587692,12.629156103855271
2025-03-08 13:53:37.428,-0.0008817476948052091,10.663112203333625
2025-03-08 13:53:37.448,-0.0008515447246160275,8.475541613995455
2025-03-08 13:53:37.468,-0.0007696475036994429,6.224762870673487
2025-03-08 13:53:37.487,-0.0006424370431538454,4.054064626920565
2025-03-08 13:53:37.507,-0.0004836074012205261,2.074740249946524
2025-03-08 13:53:37.526,-0.00031138711682991726,0.3551705499340698
2025-03-08 13:53:37.546,-0.00014518248476591005,-1.082171583896189
2025-03-08 13:53:37.565,-2.3482600095158415e-06,-2.2553368496013673
2025-03-08 13:53:37.585,0.00010436877420375236,-3.21032788356727
2025-03-08 13:53:37.604,0.000168349815531065,-4.0040950684763965
2025-03-08 13:53:37.624,0.00018942597053160008,-4.6869442585161645
2025-03-08 13:53:37.643,0.00017307503017875413,-5.2884777666192
2025-03-08 13:53:37.663,0.00012881385960649783,-5.810484128178385
2025-03-08 13:53:37.682,6.82783448276084e-05,-6.2285810770075845
2025-03-08 13:53:37.702,3.4563474815319977e-06,-6.502230318734447
2025-03-08 13:53:37.721,-5.4695989727582324e-05,-6.590514007856104
2025-03-08 13:53:37.741,-9.729617710912912e-05,-6.469406579836975
2025-03-08 13:53:37.761,-0.00011836935893421941,-6.145704511761994
2025-03-08 13:53:37.780,-0.00011547477969323391,-5.663515763148696
2025-03-08 13:53:37.800,-8.994102280520217e-05,-5.101098589946922
2025-03-08 13:53:37.819,-4.650765300767654e-05,-4.558357126295377
2025-03-08 13:53:37.839,7.644670063012505e-06,-4.137729211282664
2025-03-08 13:53:37.858,6.42634658024875e-05,-3.9228555447317
2025-03-08 13:53:37.878,0.00011547483070470889,-3.959873709314421
2025-03-08 13:53:37.897,0.00015504410884666252,-4.245410825186756
2025-03-08 13:53:37.917,0.00017928130672945961,-4.723715060720015
2025-03-08 13:53:37.936,0.00018748958464893917,-5.29342071756704
2025-03-08 13:53:37.956,0.00018187429388076697,-5.822661439943688
2025-03-08 13:53:37.975,0.00016688368804005505,-6.169890503716002
2025-03-08 13:53:37.995,0.00014809306557641238,-6.206927570768679
2025-03-08 13:53:38.014,0.00013091557822825182,-5.840470426880081
2025-03-08 13:53:38.034,0.00011949841017551942,-5.028614895161939
2025-03-08 13:53:38.053,0.00011606707369426361,-3.7897669394221487
2025-03-08 13:53:38.073,0.00012077697989737434,-2.2025443840852152
2025-03-08 13:53:38.093,0.0001319733805950373,-0.39663108470028113
2025-03-08 13:53:38.112,0.00014673351988785707,1.4641177930119185
2025-03-08 13:53:38.132,0.0001616008468139476,3.2038266951607723
2025-03-08 13:53:38.151,0.00017340322357758763,4.658571753253334
2025-03-08 13:53:38.171,0.00017996941471668462,5.698238259302754
2025-03-08 13:53:38.190,0.00018053257733509492,6.242513987794407
2025-03-08 13:53:38.210,0.00017571789602726783,6.268287820816331
2025-03-08 13:53:38.229,0.00016719976868560295,5.8074592485673735
2025-03-08 13:53:38.249,0.0001572406911381504,4.936210540282749
2025-03-08 13:53:38.268,0.00014829558277890307,3.7585855706788194
2025-03-08 13:53:38.288,0.00014272135379863942,2.3882517079895114
2025-03-08 13:53:38.307,0.00014250379526834777,0.9323242216386264
2025-03-08 13:53:38.327,0.00014890975745184988,-0.5198504525255977
2025-03-08 13:53:38.346,0.00016209251183617516,-1.9016863969689342
2025-03-08 13:53:38.366,0.00018081577967742903,-3.16860564624158
2025-03-08 13:53:38.386,0.0002024866561952067,-4.293356619403076
2025-03-08 13:53:38.405,0.00022356149096581696,-5.259816109084628
2025-03-08 13:53:38.425,0.00024020695706198012,-6.057521462450811
2025-03-08 13:53:38.444,0.00024900376360927247,-6.67846057206458
2025-03-08 13:53:38.464,0.0002475274870702832,-7.11667621051987
2025-03-08 13:53:38.483,0.00023474731572823077,-7.370291434826913
2025-03-08 13:53:38.503,0.00021123247847602844,-7.444838879809537
2025-03-08 13:53:38.522,0.00017913416967612806,-7.356419220100754
2025-03-08 13:53:38.542,0.00014190006290605009,-7.133286892836083
2025-03-08 13:53:38.561,0.00010373529723353878,-6.814911314687751
2025-03-08 13:53:38.581,6.891545616231837e-05,-6.448216941137682
2025-03-08 13:53:38.600,4.110568164304684e-05,-6.081362781010617
2025-03-08 13:53:38.620,2.2805010859346018e-05,-5.755961334961772
2025-03-08 13:53:38.639,1.4962576930910587e-05,-5.4990374119784216
2025-03-08 13:53:38.659,1.6788766038183308e-05,-5.31628199046651
2025-03-08 13:53:38.678,2.5825349281615486e-05,-5.188201650496336
2025-03-08 13:53:38.698,3.8359242238972035e-05,-5.070496533708635
2025-03-08 13:53:38.718,5.018244528336883e-05,-4.899349663223107
2025-03-08 13:53:38.737,5.754128692452661e-05,-4.601317504301827
2025-03-08 13:53:38.757,5.799546328720457e-05,-4.106363236314735
2025-03-08 13:53:38.776,5.091770957678743e-05,-3.361580139960023
2025-03-08 13:53:38.796,3.750747505376039e-05,-2.3426558656925702
2025-03-08 13:53:38.815,2.0368422580959776e-05,-1.0603811075644896
2025-03-08 13:53:38.835,2.7923212212582978e-06,0.43945271416730575
2025-03-08 13:53:38.854,-1.2126607725306248e-05,2.0828384982470722
2025-03-08 13:53:38.874,-2.245961070732492e-05,3.7794531676704004
2025-03-08 13:53:38.893,-2.8349923135206222e-05,5.436946522238884
2025-03-08 13:53:38.913,-3.2576275147440755e-05,6.974561076498586
2025-03-08 13:53:38.932,-4.042431231108583e-05,8.333516458838346
2025-03-08 13:53:38.952,-5.8662344831964966e-05,9.48260970855207
2025-03-08 13:53:38.971,-9.375605870207262e-05,10.418618008646792
2025-03-08 13:53:38.991,-0.0001498093760326352,11.162029044538842
2025-03-08 13:53:39.011,-0.00022688047736593232,11.74925067225479
2025-03-08 13:53:39.030,-0.000320206100486146,12.222808231657169
2025-03-08 13:53:39.050,-0.0004205651609364139,12.621206393068931
2025-03-08 13:53:39.069,-0.0005157079839771816,12.970146316977127
2025-03-08 13:53:39.089,-0.0005925752587376799,13.276618082457214
2025-03-08 13:53:39.108,-0.0006398889745432864,13.526972739677475
2025-03-08 13:53:39.128,-0.0006505519615054517,13.689391260115402
2025-03-08 13:53:39.147,-0.0006232185104576878,13.720285768211884
2025-03-08 13:53:39.167,-0.0005625596453482455,13.57329221919933
2025-03-08 13:53:39.186,-0.0004781621906827209,13.208908037432689
2025-03-08 13:53:39.206,-0.00038245153685000484,12.602714996079273
2025-03-08 13:53:39.225,-0.0002882528381332028,11.750575253870316
2025-03-08 13:53:39.245,-0.00020654342238572826,10.670049438433468
2025-03-08 13:53:39.264,-0.0001447495849374923,9.398245813621692
2025-03-08 13:53:39.284,-0.00010577906838546293,7.987042405296047
2025-03-08 13:53:39.304,-8.790417746389692e-05,6.496937102630991
2025-03-08 13:53:39.323,-8.553906152557185e-05,4.990663587584717
2025-03-08 13:53:39.343,-9.079406976960853e-05,3.5273035247040947
2025-03-08 13:53:39.362,-9.545187650917915e-05,2.1571590096501607
2025-03-08 13:53:39.382,-9.282910823670172e-05,0.9173596285751162
2025-03-08 13:53:39.401,-7.901188162627961e-05,-0.17180431220390688
2025-03-08 13:53:39.421,-5.3207689452168764e-05,-1.1095521700097977
2025-03-08 13:53:39.440,-1.7299385660989063e-05,-1.9156679318048107
2025-03-08 13:53:39.460,2.508700453721024e-05,-2.6291386934606873
2025-03-08 13:53:39.479,6.96821191639418e-05,-3.3037411175535722
2025-03-08 13:53:39.499,0.0001126371134445333,-4.000502626076384
2025-03-08 13:53:39.518,0.0001514042664643428,-4.777797975491537
2025-03-08 13:53:39.538,0.00018524129409570837,-5.680669147630262
2025-03-08 13:53:39.557,0.00021514092400434467,-6.731453355117038
2025-03-08 13:53:39.577,0.00024316069844367166,-7.923750112406765
2025-03-08 13:53:39.596,0.00027141507964870544,-9.221135593631233
2025-03-08 13:53:39.616,0.0003011651066164942,-10.56101871232656
2025-03-08 13:53:39.636,0.0003323527111981256,-11.862920283762527
2025-03-08 13:53:39.655,0.00036365851516794795,-13.039549386660731
2025-03-08 13:53:39.675,0.00039291879656024335,-14.008577414832573
2025-03-08 13:53:39.694,0.00041765726078101233,-14.703057013147632
2025-03-08 13:53:39.714,0.00043556044581236883,-15.078931243042634
2025-03-08 13:53:39.733,0.00044484167383844,-15.118839325400357
2025-03-08 13:53:39.753,0.0004444939420789664,-14.83220600907299
2025-03-08 13:53:39.772,0.0004344178719746606,-14.252185174272501
2025-03-08 13:53:39.792,0.00041539899682301154,-13.43031008387885
2025-03-08 13:53:39.811,0.0003889512135041294,-12.429736984296781
2025-03-08 13:53:39.831,0.00035710546668669957,-11.31791375270397
2025-03-08 13:53:39.850,0.00032222874465384296,-10.15948053738471
2025-03-08 13:53:39.870,0.0002868824111659583,-9.010193467661523
2025-03-08 13:53:39.889,0.0002536336718948441,-7.912543056054853
2025-03-08 13:53:39.909,0.00022472314995714845,-6.893458565880301
2025-03-08 13:53:39.929,0.00020160745946153674,-5.964121852822987
