Timestamp,GSR_Filtered,PPG_Filtered,FMSQ
2025-03-08 13:57:50.423,0.0002224193554319,0.8759504530606157,1.0
2025-03-08 13:57:50.443,0.0002215966184283,0.8050116361945302,1.0
2025-03-08 13:57:50.462,0.0002113162747623,0.712656144136783,1.0
2025-03-08 13:57:50.482,0.0001901277863013,0.5967931900303736,1.0
2025-03-08 13:57:50.501,0.000159205230211,0.4575234283765593,1.0
2025-03-08 13:57:50.521,0.0001219514473285,0.2986638610450762,1.0
2025-03-08 13:57:50.540,8.321759856086466e-05,0.1285881394573441,1.0
2025-03-08 13:57:50.560,4.836607745491484e-05,-0.0400096036818846,1.0
2025-03-08 13:57:50.579,2.232896714013417e-05,-0.1915919806938005,1.0
2025-03-08 13:57:50.599,8.754455199145314e-06,-0.3103481000613025,1.0
2025-03-08 13:57:50.619,9.344094559852282e-06,-0.3833977469158898,1.0
2025-03-08 13:57:50.638,2.351768514957629e-05,-0.4039439107191949,1.0
2025-03-08 13:57:50.658,4.8516593213525056e-05,-0.3735920835435146,1.0
2025-03-08 13:57:50.677,7.99529074207361e-05,-0.3031369591596653,1.0
2025-03-08 13:57:50.697,0.0001126891271247,-0.2114068759036388,1.0
2025-03-08 13:57:50.716,0.0001418490502308,-0.1222157826384199,1.0
2025-03-08 13:57:50.736,0.000163730551137,-0.0599725226854743,1.0
2025-03-08 13:57:50.755,0.0001764127976163,-0.044870237826913,1.0
2025-03-08 13:57:50.775,0.000179920418573,-0.0887077320993585,1.0
2025-03-08 13:57:50.794,0.00017591464117,-0.1922590984753051,1.0
2025-03-08 13:57:50.814,0.0001670143650513,-0.3447606618702312,1.0
2025-03-08 13:57:50.833,0.0001559795736477,-0.5256114757766178,1.0
2025-03-08 13:57:50.853,0.0001450465986792,-0.7078931107927525,1.0
2025-03-08 13:57:50.872,0.0001356265149262,-0.8629313256756339,1.0
2025-03-08 13:57:50.892,0.0001283896152505,-0.9649545003926608,1.0
2025-03-08 13:57:50.912,0.0001235774484691,-0.9949911731914556,1.0
2025-03-08 13:57:50.931,0.0001213211672171,-0.9434358886912948,1.0
2025-03-08 13:57:50.951,0.0001218124900838,-0.8110704565803352,1.0
2025-03-08 13:57:50.970,0.0001252903144008,-0.6086213367025591,1.0
2025-03-08 13:57:50.990,0.0001318895693236,-0.3550931634344023,1.0
2025-03-08 13:57:51.009,0.0001414283274756,-0.0751697606914467,1.0
2025-03-08 13:57:51.029,0.00015321180776,0.2040002530032728,1.0
2025-03-08 13:57:51.048,0.0001659398305206,0.4562629989423326,1.0
2025-03-08 13:57:51.068,0.0001778105794665,0.6597345470839467,1.0
2025-03-08 13:57:51.087,0.0001868603372397,0.7994506222722597,1.0
2025-03-08 13:57:51.107,0.0001914306957773,0.8690073368821741,1.0
2025-03-08 13:57:51.126,0.0001904979833429,0.8709250858061013,1.0
2025-03-08 13:57:51.146,0.0001836054289292,0.8156364702199164,1.0
2025-03-08 13:57:51.165,0.0001703711729733,0.7192300608723913,1.0
2025-03-08 13:57:51.185,0.0001498485277927,0.6003549126884307,1.0
2025-03-08 13:57:51.205,0.0001201538252057,0.476921041044896,1.0
2025-03-08 13:57:51.224,7.866115304457213e-05,0.3632991576180824,1.0
2025-03-08 13:57:51.244,2.278503220582425e-05,0.2685610631668724,1.0
2025-03-08 13:57:51.263,-4.890943743926237e-05,0.1959625683300087,1.0
2025-03-08 13:57:51.283,-0.0001356856902871,0.143512050557205,1.0
2025-03-08 13:57:51.302,-0.0002340984677841,0.1052542683198719,1.0
2025-03-08 13:57:51.322,-0.0003381714360126,0.0728872675914343,1.0
2025-03-08 13:57:51.341,-0.0004403048213365,0.0374444164647208,1.0
2025-03-08 13:57:51.361,-0.0005327322538179,-0.0091051063626003,1.0
2025-03-08 13:57:51.380,-0.0006092062540465,-0.072422152327352,1.0
2025-03-08 13:57:51.400,-0.000666525383682,-0.1546175834308116,1.0
2025-03-08 13:57:51.419,-0.0007055353797337,-0.2534625732080072,1.0
2025-03-08 13:57:51.439,-0.0007313475203049,-0.3621792745835911,1.0
2025-03-08 13:57:51.458,-0.0007527015825762,-0.4699975248547392,1.0
2025-03-08 13:57:51.478,-0.0007805941079528,-0.5635516839559734,1.0
2025-03-08 13:57:51.497,-0.0008264066277171,-0.6289876902804623,1.0
2025-03-08 13:57:51.517,-0.0008997661957482,-0.6544296503743862,1.0
2025-03-08 13:57:51.537,-0.001006319412027,-0.6323073091661306,1.0
2025-03-08 13:57:51.556,-0.0011456202594758,-0.5610326145587927,1.0
2025-03-08 13:57:51.576,-0.0013094695917055,-0.4456465781688712,1.0
2025-03-08 13:57:51.595,-0.001481206426074,-0.2972841761473548,1.0
2025-03-08 13:57:51.615,-0.0016364735087328,-0.131534717774863,1.0
2025-03-08 13:57:51.634,-0.0017457742912022,0.0340461592345379,1.0
2025-03-08 13:57:51.654,-0.0017787568697522,0.1828707988397199,1.0
2025-03-08 13:57:51.673,-0.0017097145927142,0.3021622331470702,1.0
2025-03-08 13:57:51.693,-0.0015233644676935,0.3850919423463014,1.0
2025-03-08 13:57:51.712,-0.0012196267613461,0.4316777559696932,1.0
2025-03-08 13:57:51.732,-0.000816024669058,0.4481813691692977,1.0
2025-03-08 13:57:51.751,-0.0003466332143319,0.4451584777410825,1.0
2025-03-08 13:57:51.771,0.0001427045048984,0.4347277831362464,1.0
2025-03-08 13:57:51.790,0.0006020955732705,0.4278631610387052,1.0
2025-03-08 13:57:51.810,0.0009864873153111,0.4324448251574907,1.0
2025-03-08 13:57:51.830,0.001263538342021,0.4524367727538972,1.0
2025-03-08 13:57:51.849,0.0014185817780995,0.4880658958771572,1.0
2025-03-08 13:57:51.869,0.0014556812415549,0.5365236530213101,1.0
2025-03-08 13:57:51.888,0.0013948756680449,0.592675867689541,1.0
2025-03-08 13:57:51.908,0.0012666202861668,0.6495321449625279,1.0
2025-03-08 13:57:51.927,0.0011049431447971,0.6985938076695222,1.0
2025-03-08 13:57:51.947,0.0009409262779729,0.7304265579955979,1.0
2025-03-08 13:57:51.966,0.0007978527208113,0.7357589081308621,1.0
2025-03-08 13:57:51.986,0.0006888173387782,0.7071280538505078,1.0
2025-03-08 13:57:52.005,0.0006169043711709,0.6407417413859082,1.0
2025-03-08 13:57:52.025,0.000577383192253,0.537974738126551,1.0
2025-03-08 13:57:52.044,0.0005609750398629,0.4058836420611975,1.0
2025-03-08 13:57:52.064,0.0005571994179102,0.2563346160434769,1.0
2025-03-08 13:57:52.083,0.0005570490435356,0.1037547358321697,1.0
2025-03-08 13:57:52.103,0.0005545936450945,-0.0379841622203186,1.0
2025-03-08 13:57:52.122,0.0005474360758597,-0.1586626883917603,1.0
2025-03-08 13:57:52.142,0.0005361875435129,-0.2538451367086805,1.0
2025-03-08 13:57:52.162,0.0005232865979493,-0.3254088070174364,1.0
2025-03-08 13:57:52.181,0.0005115589769937,-0.3803773035649149,1.0
2025-03-08 13:57:52.201,0.0005029067045672,-0.4284942084941895,1.0
2025-03-08 13:57:52.220,0.0004974383943419,-0.4793018679169454,1.0
2025-03-08 13:57:52.240,0.0004932285747659,-0.5395494862297574,1.0
2025-03-08 13:57:52.259,0.0004867446757074,-0.6115744072573832,1.0
2025-03-08 13:57:52.279,0.0004738292169708,-0.6929600823687605,1.0
2025-03-08 13:57:52.298,0.0004509945465034,-0.7773886741569183,1.0
2025-03-08 13:57:52.318,0.0004167003998863,-0.8563053665615326,1.0
2025-03-08 13:57:52.337,0.000372261061806,-0.9208877470190372,1.0
2025-03-08 13:57:52.357,0.0003220850014167,-0.963869746289776,1.0
2025-03-08 13:57:52.376,0.0002730925810815,-0.9809190774466836,1.0
2025-03-08 13:57:52.396,0.0002333767240366,-0.971404209866734,1.0
2025-03-08 13:57:52.415,0.0002104221649473,-0.9384713373862896,1.0
2025-03-08 13:57:52.435,0.0002093843953303,-0.8884229271850204,1.0
2025-03-08 13:57:52.455,0.0002319337988339,-0.8294968384694991,1.0
2025-03-08 13:57:52.474,0.0002759572555594,-0.7702776510355861,1.0
2025-03-08 13:57:52.494,0.0003360896673204,-0.7180625052976221,1.0
2025-03-08 13:57:52.513,0.0004048070357619,-0.6774955672849238,1.0
2025-03-08 13:57:52.533,0.0004737540557149,-0.6496872383469251,1.0
2025-03-08 13:57:52.552,0.0005350548117464,-0.6319116205834018,1.0
2025-03-08 13:57:52.572,0.0005824445508328,-0.6178894879796929,1.0
2025-03-08 13:57:52.591,0.000612090417449,-0.5986247010579582,1.0
2025-03-08 13:57:52.611,0.0006229671014449,-0.5637385020175049,1.0
2025-03-08 13:57:52.630,0.0006167039297592,-0.503204801695778,1.0
2025-03-08 13:57:52.650,0.0005969551958339,-0.4093186895640952,1.0
2025-03-08 13:57:52.669,0.0005684861638201,-0.2786368028893418,1.0
2025-03-08 13:57:52.689,0.0005362079016948,-0.1135299180908502,1.0
2025-03-08 13:57:52.708,0.0005043315958236,0.0770748199522842,1.0
2025-03-08 13:57:52.728,0.0004757349814555,0.278143795256342,1.0
2025-03-08 13:57:52.748,0.0004515995491581,0.4703563213441684,1.0
2025-03-08 13:57:52.767,0.0004313690951874,0.633114534096917,1.0
2025-03-08 13:57:52.787,0.0004130524669098,0.7481661114715622,1.0
2025-03-08 13:57:52.806,0.0003938223314753,0.8029896828063896,1.0
2025-03-08 13:57:52.826,0.0003707625245663,0.7930863741537754,1.0
2025-03-08 13:57:52.845,0.0003415482907382,0.7226068398148154,1.0
2025-03-08 13:57:52.865,0.0003048714330371,0.6032149543457025,1.0
2025-03-08 13:57:52.884,0.0002605364737648,0.4515744448282501,1.0
2025-03-08 13:57:52.904,0.000209266819878,0.2861916799774525,1.0
2025-03-08 13:57:52.923,0.0001523108423546,0.124462871305477,1.0
2025-03-08 13:57:52.943,9.094595533552077e-05,-0.0193771362194816,1.0
2025-03-08 13:57:52.962,2.5983648294487492e-05,-0.1350811580833299,1.0
2025-03-08 13:57:52.982,-4.260752273089269e-05,-0.2161292979820582,1.0
2025-03-08 13:57:53.001,-0.0001158362549023,-0.2588870336312394,1.0
2025-03-08 13:57:53.021,-0.0001954967535602,-0.2618180420846461,1.0
2025-03-08 13:57:53.040,-0.0002836808645386,-0.2252460049173954,1.0
2025-03-08 13:57:53.060,-0.0003821520805699,-0.1518109021993037,1.0
2025-03-08 13:57:53.080,-0.0004917944134558,-0.0473469927252495,1.0
2025-03-08 13:57:53.099,-0.000612305823518,0.0784085390886195,1.0
2025-03-08 13:57:53.119,-0.0007421953592852,0.2119336438776729,1.0
2025-03-08 13:57:53.138,-0.0008790130922908,0.3372743709569239,1.0
2025-03-08 13:57:53.158,-0.0010196676652733,0.4385575919904428,1.0
2025-03-08 13:57:53.177,-0.001160736792556,0.5030840901377582,1.0
2025-03-08 13:57:53.197,-0.001298816628777,0.5241367875105747,1.0
2025-03-08 13:57:53.216,-0.0014310512526223,0.5026973042516806,1.0
2025-03-08 13:57:53.236,-0.0015559372386134,0.4476101936473968,1.0
2025-03-08 13:57:53.255,-0.0016743444586022,0.3741819285873498,1.0
2025-03-08 13:57:53.275,-0.0017905311612593,0.3015609486640581,1.0
2025-03-08 13:57:53.294,-0.0019128076934242,0.2494239553111514,1.0
2025-03-08 13:57:53.314,-0.0020534072856935,0.2345165006527671,1.0
2025-03-08 13:57:53.333,-0.0022270788556656,0.267549969338912,1.0
2025-03-08 13:57:53.353,-0.0024480480919017,0.3509178928822979,1.0
2025-03-08 13:57:53.373,-0.0027254212757957,0.4776706018296818,1.0
2025-03-08 13:57:53.392,-0.0030577748244227,0.6321125967894118,1.0
2025-03-08 13:57:53.412,-0.0034283117238503,0.7921761197604705,1.0
2025-03-08 13:57:53.431,-0.0038022639497879,0.9333533255080853,1.0
2025-03-08 13:57:53.451,-0.0041280138450104,1.0335180116530456,1.0
2025-03-08 13:57:53.470,-0.0043427061507052,1.0775955836028963,1.0
2025-03-08 13:57:53.490,-0.004382048892922,1.060920734809054,1.0
2025-03-08 13:57:53.509,-0.0041927710125009,0.990364783324117,1.0
2025-03-08 13:57:53.529,-0.0037451308793029,0.882888161266218,1.0
2025-03-08 13:57:53.548,-0.0030423296746099,0.7618874363605468,1.0
2025-03-08 13:57:53.568,-0.0021240017056287,0.6522889147918525,1.0
2025-03-08 13:57:53.587,-0.0010622197609083,0.5755886329300044,1.0
2025-03-08 13:57:53.607,4.960736523780666e-05,0.5459182767749524,1.0
2025-03-08 13:57:53.626,0.0011125551496389,0.567844477696219,1.0
2025-03-08 13:57:53.646,0.0020389730017445,0.6361508663443697,1.0
2025-03-08 13:57:53.666,0.0027663373995835,0.7374396059763684,1.0
2025-03-08 13:57:53.685,0.0032653264749797,0.8530860709594096,1.0
2025-03-08 13:57:53.705,0.0035409981726169,0.9628913623397544,1.0
2025-03-08 13:57:53.724,0.0036276096763846,1.0486856720334985,1.0
2025-03-08 13:57:53.744,0.0035787830532935,1.097150696972955,1.0
2025-03-08 13:57:53.763,0.0034553539940174,1.1012956426730391,1.0
2025-03-08 13:57:53.783,0.0033134173310777,1.0603619226509504,1.0
2025-03-08 13:57:53.802,0.0031948410173819,0.9783767356188308,1.0
2025-03-08 13:57:53.822,0.0031218741951634,0.8619628440712657,1.0
2025-03-08 13:57:53.841,0.0030965084262724,0.7181794016638068,1.0
2025-03-08 13:57:53.861,0.003104157732575,0.5530564008952512,1.0
2025-03-08 13:57:53.880,0.0031202727646962,0.3711541488965797,1.0
2025-03-08 13:57:53.900,0.0031179617487323,0.1760633631476546,1.0
2025-03-08 13:57:53.919,0.0030747109142399,-0.0285859650336841,1.0
2025-03-08 13:57:53.939,0.0029768332675731,-0.2381935411911984,1.0
2025-03-08 13:57:53.958,0.0028210863562828,-0.4468365818051089,1.0
2025-03-08 13:57:53.978,0.0026136940963321,-0.6477224398888637,1.0
2025-03-08 13:57:53.998,0.0023675796328185,-0.8343276025500131,1.0
2025-03-08 13:57:54.017,0.0020988669733263,-1.0018245403793935,1.0
2025-03-08 13:57:54.037,0.0018236190944817,-1.1482837784319726,1.0
2025-03-08 13:57:54.056,0.0015554299148039,-1.2752242619877303,1.0
2025-03-08 13:57:54.076,0.0013040615081956,-1.387313525698597,1.0
2025-03-08 13:57:54.095,0.001075009041774,-1.4912711066658326,1.0
2025-03-08 13:57:54.115,0.0008697624996696,-1.5942089109515023,1.0
2025-03-08 13:57:54.134,0.0006865557803252,-1.7017398638020986,1.0
2025-03-08 13:57:54.154,0.0005214337053853,-1.8162366584009733,1.0
2025-03-08 13:57:54.173,0.0003694536205074,-1.9356319930855603,1.0
2025-03-08 13:57:54.193,0.0002257898345817,-2.0530911862545542,1.0
2025-03-08 13:57:54.212,8.651167164346908e-05,-2.157745573915053,1.0
2025-03-08 13:57:54.232,-5.107531188264213e-05,-2.2364735703489678,1.0
2025-03-08 13:57:54.251,-0.0001884421495095,-2.276483698558866,1.0
2025-03-08 13:57:54.271,-0.0003259880518825,-2.268214895241918,1.0
2025-03-08 13:57:54.291,-0.0004631411023441,-2.207876669700533,1.0
2025-03-08 13:57:54.310,-0.0005983611412933,-2.0989016140721297,1.0
2025-03-08 13:57:54.330,-0.0007291368633247,-1.951769834466023,1.0
2025-03-08 13:57:54.349,-0.0008521235540704,-1.7820960733176516,1.0
2025-03-08 13:57:54.369,-0.0009635323720767,-1.607415600221933,1.0
2025-03-08 13:57:54.388,-0.001059789317753,-1.4435466792182865,1.0
2025-03-08 13:57:54.408,-0.0011383633974372,-1.3015595732042662,1.0
2025-03-08 13:57:54.427,-0.0011985442765289,-1.1861851905012402,1.0
2025-03-08 13:57:54.447,-0.0012418764087111,-1.0960334078212406,1.0
2025-03-08 13:57:54.466,-0.0012719958894514,-1.0254358615440422,1.0
2025-03-08 13:57:54.486,-0.0012937969792494,-0.9672619583800168,1.0
2025-03-08 13:57:54.505,-0.0013121165807611,-0.9157997297174802,1.0
2025-03-08 13:57:54.525,-0.0013303361575039,-0.8687933407557482,1.0
2025-03-08 13:57:54.544,-0.0013493492345781,-0.827988192109701,1.0
2025-03-08 13:57:54.564,-0.0013672177454649,-0.7980023362405629,1.0
2025-03-08 13:57:54.583,-0.0013796232619899,-0.7838913894539405,1.0
2025-03-08 13:57:54.603,-0.0013809977697248,-0.7882177365228277,1.0
2025-03-08 13:57:54.623,-0.0013660407065334,-0.8086104846489279,1.0
2025-03-08 13:57:54.642,-0.0013312226174049,-0.8366520189900432,1.0
2025-03-08 13:57:54.662,-0.0012758631949706,-0.8585206843630075,1.0
2025-03-08 13:57:54.681,-0.0012024615875717,-0.8573087733362372,1.0
2025-03-08 13:57:54.701,-0.0011161485328405,-0.8164725834034909,1.0
2025-03-08 13:57:54.720,-0.0010233942820432,-0.7235550471904559,1.0
2025-03-08 13:57:54.740,-0.0009303588339293,-0.5732032086398201,1.0
2025-03-08 13:57:54.759,-0.0008414023976105,-0.3686241901666496,1.0
2025-03-08 13:57:54.779,-0.0007582188444425,-0.1210070558752135,1.0
2025-03-08 13:57:54.798,-0.0006798284981046,0.1529770917720123,1.0
2025-03-08 13:57:54.818,-0.0006033626453319,0.4348793804168994,1.0
2025-03-08 13:57:54.837,-0.0005253212933319,0.7082728041366818,1.0
2025-03-08 13:57:54.857,-0.0004428799318604,0.9615214852046744,1.0
2025-03-08 13:57:54.876,-0.0003548687433569,1.18876659080632,1.0
2025-03-08 13:57:54.896,-0.000262195436733,1.3890171159953253,1.0
2025-03-08 13:57:54.916,-0.0001676618514677,1.5639324796745424,1.0
2025-03-08 13:57:54.935,-7.528591529515615e-05,1.715387707724512,1.0
2025-03-08 13:57:54.955,1.0640657669489445e-05,1.844000598283104,1.0
2025-03-08 13:57:54.974,8.648114298196415e-05,1.949394368590866,1.0
2025-03-08 13:57:54.994,0.0001499425214673,2.0322081993374272,1.0
2025-03-08 13:57:55.013,0.0002004217065334,2.097065878966444,1.0
2025-03-08 13:57:55.033,0.0002390223038629,2.1551993628319592,1.0
2025-03-08 13:57:55.052,0.0002682995821098,2.225389426062266,1.0
2025-03-08 13:57:55.072,0.00029177544781,2.332328334614755,1.0
2025-03-08 13:57:55.091,0.0003132492149883,2.502284127265048,1.0
2025-03-08 13:57:55.111,0.0003359715668971,2.7568301115919684,1.0
2025-03-08 13:57:55.130,0.0003618514495039,3.106135684739256,1.0
2025-03-08 13:57:55.150,0.0003909549572487,3.5436462437117915,1.0
2025-03-08 13:57:55.169,0.0004215300589571,4.043772588730299,1.0
2025-03-08 13:57:55.189,0.0004506126113274,4.5635201740806375,1.0
2025-03-08 13:57:55.209,0.0004750151117672,5.048038962212957,1.0
2025-03-08 13:57:55.228,0.0004923256040243,5.439137255623377,1.0
2025-03-08 13:57:55.248,0.0005015581264448,5.685096013950058,1.0
2025-03-08 13:57:55.267,0.0005032675952783,5.749777394665488,1.0
2025-03-08 13:57:55.287,0.0004991568001936,5.619099845837161,1.0
2025-03-08 13:57:55.306,0.0004913676667644,5.3034392804325,1.0
2025-03-08 13:57:55.326,0.0004817184121271,4.835326177067414,1.0
2025-03-08 13:57:55.345,0.0004711244048806,4.262785780904659,1.0
2025-03-08 13:57:55.365,0.0004593682912411,3.6396112252797583,1.0
2025-03-08 13:57:55.384,0.0004452994242911,3.014568585544779,1.0
2025-03-08 13:57:55.404,0.000427429124554,2.4218539491537485,1.0
2025-03-08 13:57:55.423,0.000404738637348,1.8749588096572296,1.0
2025-03-08 13:57:55.443,0.0003773931568084,1.3654280609291352,1.0
2025-03-08 13:57:55.462,0.0003470517290415,0.8669036717217558,1.0
2025-03-08 13:57:55.482,0.0003166119457395,0.3435621218558038,1.0
2025-03-08 13:57:55.501,0.0002894598332883,-0.2390989385831763,1.0
2025-03-08 13:57:55.521,0.0002684822611342,-0.90384757246199,1.0
2025-03-08 13:57:55.541,0.0002551577880097,-1.654353588914729,1.0
2025-03-08 13:57:55.560,0.0002489887454482,-2.4727259634949643,1.0
2025-03-08 13:57:55.580,0.0002474420289752,-3.322419995443768,1.0
2025-03-08 13:57:55.599,0.0002464633025508,-4.155479089599307,1.0
2025-03-08 13:57:55.619,0.0002414948604129,-4.921955474492254,1.0
2025-03-08 13:57:55.638,0.0002287440562328,-5.578967797832124,1.0
2025-03-08 13:57:55.658,0.0002062886235297,-6.097257573490153,1.0
2025-03-08 13:57:55.677,0.0001746017916006,-6.464066218177228,1.0
2025-03-08 13:57:55.697,0.0001362906365714,-6.682281642857915,1.0
2025-03-08 13:57:55.716,9.516043381915802e-05,-6.76673257662439,1.0
2025-03-08 13:57:55.736,5.496763054538495e-05,-6.739018867123424,1.0
2025-03-08 13:57:55.755,1.8298804409735013e-05,-6.62231309410158,1.0
2025-03-08 13:57:55.775,-1.408248437449784e-05,-6.437252061824824,1.0
2025-03-08 13:57:55.794,-4.327789747115025e-05,-6.199532952974717,1.0
2025-03-08 13:57:55.814,-7.175009551502676e-05,-5.919318692838743,1.0
2025-03-08 13:57:55.834,-0.0001024677536483,-5.602159405930954,1.0
2025-03-08 13:57:55.853,-0.000137942006011,-5.250887776753229,1.0
2025-03-08 13:57:55.873,-0.0001794130678884,-4.867837091168798,1.0
2025-03-08 13:57:55.892,-0.0002264310776061,-4.456754428708096,1.0
2025-03-08 13:57:55.912,-0.0002769575020663,-4.023925867055171,1.0
2025-03-08 13:57:55.931,-0.0003278996945772,-3.57825286196815,1.0
2025-03-08 13:57:55.951,-0.0003758164329628,-3.1302639539648967,1.0
2025-03-08 13:57:55.970,-0.0004175105856276,-2.6902823226537214,1.0
2025-03-08 13:57:55.990,-0.0004503435893332,-2.2661791200127945,1.0
2025-03-08 13:57:56.009,-0.0004722774823679,-1.861285258257756,1.0
2025-03-08 13:57:56.029,-0.0004817838217976,-1.47306008865589,1.0
2025-03-08 13:57:56.048,-0.0004777922718463,-1.0930052721547556,1.0
2025-03-08 13:57:56.068,-0.0004597811830057,-0.7080848509957317,1.0
2025-03-08 13:57:56.087,-0.0004280036556384,-0.3035956595878445,1.0
2025-03-08 13:57:56.107,-0.000383770338102,0.1329422361080688,1.0
2025-03-08 13:57:56.127,-0.0003296834921408,0.6076724164915568,1.0
2025-03-08 13:57:56.146,-0.0002696964348891,1.1171142752165322,1.0
2025-03-08 13:57:56.166,-0.0002088577596792,1.6467595468943108,1.0
2025-03-08 13:57:56.185,-0.0001526473496569,2.172298562899989,1.0
2025-03-08 13:57:56.205,-0.0001059584149013,2.663593059198716,1.0
2025-03-08 13:57:56.224,-7.197711479394684e-05,3.090712562141528,1.0
2025-03-08 13:57:56.244,-5.133874472710047e-05,3.4306328249887668,1.0
2025-03-08 13:57:56.263,-4.189550350383677e-05,3.672825592032075,1.0
2025-03-08 13:57:56.283,-3.921982848873572e-05,3.822124175836115,1.0
2025-03-08 13:57:56.302,-3.770133778713144e-05,3.8979329723592553,1.0
2025-03-08 13:57:56.322,-3.19104655606224e-05,3.929867367721692,1.0
2025-03-08 13:57:56.341,-1.7866240894381094e-05,3.95092728937086,1.0
2025-03-08 13:57:56.361,6.072410267611371e-06,3.9899819453804968,1.0
2025-03-08 13:57:56.380,3.8858604869250566e-05,4.065470526625155,1.0
2025-03-08 13:57:56.400,7.702168682633756e-05,4.181799114084404,1.0
2025-03-08 13:57:56.419,0.0001155058778499,4.329112123819871,1.0
2025-03-08 13:57:56.439,0.0001489037806215,4.486212397963526,1.0
2025-03-08 13:57:56.459,0.0001727743094397,4.62566479547252,1.0
2025-03-08 13:57:56.478,0.0001846997837485,4.7197158260730525,1.0
2025-03-08 13:57:56.498,0.0001848332671169,4.745647055382645,1.0
2025-03-08 13:57:56.517,0.0001758593500558,4.689501057158471,1.0
2025-03-08 13:57:56.537,0.0001624372844441,4.5476514320108965,1.0
2025-03-08 13:57:56.556,0.0001502599896316,4.32626872096839,1.0
2025-03-08 13:57:56.576,0.0001448849898873,4.039197549141843,1.0
2025-03-08 13:57:56.595,0.0001505396593205,3.7049876458276456,1.0
2025-03-08 13:57:56.615,0.0001691661835297,3.343785569174666,1.0
2025-03-08 13:57:56.634,0.0001999709471265,2.97458294436902,1.0
2025-03-08 13:57:56.654,0.0002396241082932,2.6130809272801927,1.0
2025-03-08 13:57:56.673,0.0002830572952737,2.270270517050613,1.0
2025-03-08 13:57:56.693,0.0003246233987944,1.95173831330315,1.0
2025-03-08 13:57:56.712,0.0003592819254889,1.6576343544444756,1.0
2025-03-08 13:57:56.732,0.0003834786321844,1.3831761105224976,1.0
2025-03-08 13:57:56.752,0.0003954924551251,1.1195570182520174,1.0
2025-03-08 13:57:56.771,0.000395203828294,0.8552006312636082,1.0
2025-03-08 13:57:56.791,0.0003834501840405,0.5773932643926363,1.0
2025-03-08 13:57:56.810,0.0003612931784654,0.2743354259948045,1.0
2025-03-08 13:57:56.830,0.0003295349990095,-0.0624871871036537,1.0
2025-03-08 13:57:56.849,0.0002886644013497,-0.4359671520399879,1.0
2025-03-08 13:57:56.869,0.0002391758177691,-0.8416775661446778,1.0
2025-03-08 13:57:56.888,0.0001820275146353,-1.2675088658466869,1.0
2025-03-08 13:57:56.908,0.0001189746930969,-1.6951582809973604,1.0
2025-03-08 13:57:56.927,5.261363447544478e-05,-2.103539432370503,1.0
2025-03-08 13:57:56.947,-1.3882637910762496e-05,-2.473571982290933,1.0
2025-03-08 13:57:56.966,-7.724377189256032e-05,-2.793246752490228,1.0
2025-03-08 13:57:56.986,-0.0001346497831619,-3.0615572231323647,1.0
2025-03-08 13:57:57.005,-0.0001842084090615,-3.289992778833639,1.0
2025-03-08 13:57:57.025,-0.0002252731182234,-3.5008194028412607,1.0
2025-03-08 13:57:57.044,-0.0002585554664276,-3.722209774746657,1.0
2025-03-08 13:57:57.064,-0.0002859937328181,-3.981208167369149,1.0
2025-03-08 13:57:57.084,-0.0003103477181929,-4.2962496053379535,1.0
2025-03-08 13:57:57.103,-0.000334543972005,-4.671226610104736,1.0
2025-03-08 13:57:57.123,-0.0003608924292672,-5.09276477462197,1.0
2025-03-08 13:57:57.142,-0.0003903834390702,-5.531515361081704,1.0
2025-03-08 13:57:57.162,-0.0004222956575253,-5.947191863899634,1.0
2025-03-08 13:57:57.181,-0.0004542730206968,-6.296120672340476,1.0
2025-03-08 13:57:57.201,-0.000482884501826,-6.539503644999707,1.0
2025-03-08 13:57:57.220,-0.0005045204976945,-6.650503617804929,1.0
2025-03-08 13:57:57.240,-0.0005163655617284,-6.618620536500762,1.0
2025-03-08 13:57:57.259,-0.0005171547973353,-6.450494187713026,1.0
2025-03-08 13:57:57.279,-0.0005074762112945,-6.167080020817002,1.0
2025-03-08 13:57:57.298,-0.0004895151947605,-5.797922972228049,1.0
2025-03-08 13:57:57.318,-0.0004663190672016,-5.373847308506076,1.0
2025-03-08 13:57:57.337,-0.000440822241459,-4.919689900333457,1.0
2025-03-08 13:57:57.357,-0.0004149513104112,-4.448697407085408,1.0
2025-03-08 13:57:57.377,-0.0003891002911908,-3.9598860754513767,1.0
2025-03-08 13:57:57.396,-0.0003621356684335,-3.4390472421311515,1.0
2025-03-08 13:57:57.416,-0.0003318971749181,-2.8632588132058987,1.0
2025-03-08 13:57:57.435,-0.0002959905429491,-2.2079173443518783,1.0
2025-03-08 13:57:57.455,-0.000252609444835,-1.4546634888265564,1.0
2025-03-08 13:57:57.474,-0.0002011789997519,-0.5983147673976996,1.0
2025-03-08 13:57:57.494,-0.0001427071597364,0.3488734821249166,1.0
2025-03-08 13:57:57.513,-7.9804207428931e-05,1.3566608778478713,1.0
2025-03-08 13:57:57.533,-1.6393019170942856e-05,2.3801270319141667,1.0
2025-03-08 13:57:57.552,4.280122077771843e-05,3.366053331209585,1.0
2025-03-08 13:57:57.572,9.285603729886436e-05,4.260933468796611,1.0
2025-03-08 13:57:57.591,0.0001292484146557,5.018891760231923,1.0
2025-03-08 13:57:57.611,0.0001484001463567,5.607941752426518,1.0
2025-03-08 13:57:57.630,0.000148185332509,6.013510410198693,1.0
2025-03-08 13:57:57.650,0.0001284433269787,6.238828708491865,1.0
2025-03-08 13:57:57.670,9.150950014954904e-05,6.302471961033317,1.0
2025-03-08 13:57:57.689,4.2660947026828304e-05,6.233869533766885,1.0
2025-03-08 13:57:57.709,-9.762248223454384e-06,6.067891812711553,1.0
2025-03-08 13:57:57.728,-5.482936642726333e-05,5.839627308764928,1.0
2025-03-08 13:57:57.748,-8.021651071079082e-05,5.580221214588007,1.0
2025-03-08 13:57:57.767,-7.403028748312523e-05,5.314255735751433,1.0
2025-03-08 13:57:57.787,-2.696490252251548e-05,5.058732112306791,1.0
2025-03-08 13:57:57.806,6.560109158226763e-05,4.823361670656516,1.0
2025-03-08 13:57:57.826,0.0002020058474456,4.6116504161029255,1.0
2025-03-08 13:57:57.845,0.0003736532961211,4.422209422968917,1.0
2025-03-08 13:57:57.865,0.0005656833895094,4.249852591267068,1.0
2025-03-08 13:57:57.884,0.0007590794908573,4.086306963453915,1.0
2025-03-08 13:57:57.904,0.0009338994287133,3.920658304953145,1.0
2025-03-08 13:57:57.923,0.0010728858839662,3.739873322309448,1.0
2025-03-08 13:57:57.943,0.0011645158704805,3.529790525988902,1.0
2025-03-08 13:57:57.962,0.0012047093408501,3.276814620904411,1.0
2025-03-08 13:57:57.982,0.0011968563603276,2.9702238567728063,1.0
2025-03-08 13:57:58.002,0.0011503278345014,2.604635664819517,1.0
2025-03-08 13:57:58.021,0.0010779938685327,2.1819490123470144,1.0
2025-03-08 13:57:58.041,0.0009934014783369,1.7121193260426042,1.0
2025-03-08 13:57:58.060,0.0009082200540946,1.212418281511453,1.0
2025-03-08 13:57:58.080,0.0008304431420594,0.7052493411475278,1.0
2025-03-08 13:57:58.099,0.0007636649088372,0.2149533000749097,1.0
2025-03-08 13:57:58.119,0.0007075066223932,-0.2357641064179808,1.0
2025-03-08 13:57:58.138,0.0006589647844087,-0.6291211846921275,1.0
2025-03-08 13:57:58.158,0.0006141773650702,-0.9546869693728924,1.0
2025-03-08 13:57:58.177,0.0005699914152858,-1.2105212393938587,1.0
2025-03-08 13:57:58.197,0.0005248500783863,-1.402827527208508,1.0
2025-03-08 13:57:58.216,0.0004788475438783,-1.544201798939296,1.0
2025-03-08 13:57:58.236,0.0004331425405748,-1.6508496069087124,1.0
2025-03-08 13:57:58.255,0.0003890937395912,-1.7393711265713778,1.0
2025-03-08 13:57:58.275,0.0003474537164241,-1.823819399652646,1.0
2025-03-08 13:57:58.295,0.0003078433548929,-1.9136801651731508,1.0
2025-03-08 13:57:58.314,0.0002686285324072,-2.013179063304303,1.0
2025-03-08 13:57:58.334,0.0002272342467797,-2.1219297267607766,1.0
2025-03-08 13:57:58.353,0.0001808139786986,-2.2365200263244205,1.0
2025-03-08 13:57:58.373,0.0001270629338345,-2.3523661673819936,1.0
2025-03-08 13:57:58.392,6.490668677492903e-05,-2.465161619263585,1.0
2025-03-08 13:57:58.412,-5.137202530772238e-06,-2.5714955634333614,1.0
2025-03-08 13:57:58.431,-8.098337395783496e-05,-2.668590253157094,1.0
2025-03-08 13:57:58.451,-0.0001593231848256,-2.7534612087281185,1.0
2025-03-08 13:57:58.470,-0.0002361843505892,-2.8220279291769805,1.0
2025-03-08 13:57:58.490,-0.0003076390266799,-2.8687265810774663,1.0
2025-03-08 13:57:58.509,-0.0003706371374727,-2.8869765484302428,1.0
2025-03-08 13:57:58.529,-0.0004238992025783,-2.8704853468971003,1.0
2025-03-08 13:57:58.548,-0.000468662946175,-2.814981758309541,1.0
2025-03-08 13:57:58.568,-0.0005089567938118,-2.7197136762028062,1.0
2025-03-08 13:57:58.588,-0.0005511154255688,-2.588056738752478,1.0
2025-03-08 13:57:58.607,-0.0006024839999419,-2.426876309007335,1.0
2025-03-08 13:57:58.627,-0.0006695702610204,-2.24476939504164,1.0
2025-03-08 13:57:58.646,-0.0007561512733962,-2.049780359413623,1.0
2025-03-08 13:57:58.666,-0.000861916828847,-1.8474155562372945,1.0
2025-03-08 13:57:58.685,-0.0009821035235058,-1.6396676873392624,1.0
2025-03-08 13:57:58.705,-0.0011082998764126,-1.4253647624837122,1.0
2025-03-08 13:57:58.724,-0.0012302887054768,-1.2016721253543847,1.0
2025-03-08 13:57:58.744,-0.0013385253046548,-0.9662038213784484,1.0
2025-03-08 13:57:58.763,-0.0014266769425921,-0.7190614074561142,1.0
2025-03-08 13:57:58.783,-0.0014935975041384,-0.4642113987465637,1.0
2025-03-08 13:57:58.802,-0.001544196011348,-0.2098427785812001,1.0
2025-03-08 13:57:58.822,-0.0015888683759466,0.0323952715498182,1.0
2025-03-08 13:57:58.841,-0.0016414412219835,0.2491464525857195,1.0
2025-03-08 13:57:58.861,-0.0017158506804094,0.4277692459576519,1.0
2025-03-08 13:57:58.880,-0.0018220280334424,0.5589459784598754,1.0
2025-03-08 13:57:58.900,-0.0019617214426694,0.6388951867401558,1.0
2025-03-08 13:57:58.920,-0.0021252295150272,0.6706063536895764,1.0
2025-03-08 13:57:58.939,-0.0022901335552397,0.6636666414991313,1.0
2025-03-08 13:57:58.959,-0.0024229368667874,0.6325515132194733,1.0
2025-03-08 13:57:58.978,-0.0024839696992387,0.5936503059143747,1.0
2025-03-08 13:57:58.998,-0.0024350541454448,0.5616857592171072,1.0
2025-03-08 13:57:59.017,-0.0022484606926631,0.5464371979324781,1.0
2025-03-08 13:57:59.037,-0.0019149468793438,0.5506927155191153,1.0
2025-03-08 13:57:59.056,-0.0014484690180216,0.5700969440607291,1.0
2025-03-08 13:57:59.076,-0.0008857320327835,0.5950607216611696,1.0
2025-03-08 13:57:59.095,-0.0002801158565172,0.6142751154891293,1.0
2025-03-08 13:57:59.115,0.0003086690441209,0.6188237412511498,1.0
2025-03-08 13:57:59.134,0.0008263541952823,0.6056322039805019,1.0
2025-03-08 13:57:59.154,0.0012340602515056,0.5791573980230617,1.0
2025-03-08 13:57:59.173,0.0015139877031142,0.5507550840546805,1.0
2025-03-08 13:57:59.193,0.001669938498361,0.5358722876277293,1.0
2025-03-08 13:57:59.213,0.001723257496125,0.5498433425834757,1.0
2025-03-08 13:57:59.232,0.0017058298632328,0.6034333330101673,1.0
2025-03-08 13:57:59.252,0.001652207601343,0.6992895043722142,1.0
2025-03-08 13:57:59.271,0.0015927587515493,0.8301666088070564,1.0
2025-03-08 13:57:59.291,0.0015490821814145,0.9793171858740018,1.0
2025-03-08 13:57:59.310,0.0015321132462042,1.1229479338032833,1.0
2025-03-08 13:57:59.330,0.001542673687241,1.2342549518272965,1.0
2025-03-08 13:57:59.349,0.0015738271848695,1.2882902364879198,1.0
2025-03-08 13:57:59.369,0.0016142338493661,1.266759124007496,1.0
2025-03-08 13:57:59.388,0.0016516601712326,1.1618083536634098,1.0
2025-03-08 13:57:59.408,0.0016758807806788,0.977985370333502,1.0
2025-03-08 13:57:59.427,0.0016804349253278,0.7318733406404436,1.0
2025-03-08 13:57:59.447,0.001663059839775,0.4494015368006122,1.0
2025-03-08 13:57:59.466,0.0016250187124355,0.1613688874437639,1.0
2025-03-08 13:57:59.486,0.0015698280163248,-0.1018735026134575,1.0
2025-03-08 13:57:59.505,0.0015019536189796,-0.3154824632243337,1.0
2025-03-08 13:57:59.525,0.0014258770999857,-0.4639496408252476,1.0
2025-03-08 13:57:59.545,0.0013456428647199,-0.5430416085567692,1.0
2025-03-08 13:57:59.564,0.0012647499159071,-0.5596033369764591,1.0
2025-03-08 13:57:59.584,0.0011861618603151,-0.5293591177707131,1.0
2025-03-08 13:57:59.603,0.0011122678431389,-0.4731654283522822,1.0
2025-03-08 13:57:59.623,0.0010447519279218,-0.412428169314237,1.0
2025-03-08 13:57:59.642,0.0009844397166988,-0.3645828996417122,1.0
2025-03-08 13:57:59.662,0.0009312454358545,-0.3395949247116551,1.0
2025-03-08 13:57:59.681,0.0008843226768085,-0.3382890628637339,1.0
2025-03-08 13:57:59.701,0.0008424286142947,-0.3529345064345808,1.0
2025-03-08 13:57:59.720,0.0008043771490268,-0.369953456294236,1.0
2025-03-08 13:57:59.740,0.0007693591573475,-0.3740485852661387,1.0
2025-03-08 13:57:59.759,0.0007369396288728,-0.3526318731377574,1.0
2025-03-08 13:57:59.779,0.0007067150447799,-0.2993146514144852,1.0
2025-03-08 13:57:59.798,0.0006778161481505,-0.2154434056435274,1.0
2025-03-08 13:57:59.818,0.0006485271459821,-0.1092233097450573,1.0
2025-03-08 13:57:59.838,0.0006162272913671,0.0072591174455817,1.0
2025-03-08 13:57:59.857,0.0005777173558818,0.1220722052181706,1.0
2025-03-08 13:57:59.877,0.0005298416305317,0.2271040011853309,1.0
2025-03-08 13:57:59.896,0.0004701874310847,0.3200706485797755,1.0
2025-03-08 13:57:59.916,0.0003975893977635,0.4042144899224392,1.0
2025-03-08 13:57:59.935,0.0003122513051499,0.4858940960580096,1.0
2025-03-08 13:57:59.955,0.000215503680578,0.5710137299341462,1.0
2025-03-08 13:57:59.974,0.0001094013002622,0.661614057006746,1.0
2025-03-08 13:57:59.994,-3.603457160797056e-06,0.7538436191069041,1.0
2025-03-08 13:58:00.013,-0.000120798000921,0.8380151783305843,1.0
2025-03-08 13:58:00.033,-0.0002392155387865,0.9007245457920404,1.0
2025-03-08 13:58:00.052,-0.0003556805440453,0.9283367181586516,1.0
2025-03-08 13:58:00.072,-0.0004670650732316,0.91074606817799,1.0
2025-03-08 13:58:00.091,-0.0005708202167008,0.8442882636422965,1.0
2025-03-08 13:58:00.111,-0.0006656892453027,0.7329805950911095,1.0
2025-03-08 13:58:00.131,-0.0007523760909436,0.5877739108546969,1.0
2025-03-08 13:58:00.150,-0.000833885009881,0.4240698087696217,1.0
2025-03-08 13:58:00.170,-0.0009152876221727,0.2582434722265517,1.0
2025-03-08 13:58:00.189,-0.0010028180571958,0.1041741033090191,1.0
2025-03-08 13:58:00.209,-0.0011024133123913,-0.0292692989265898,1.0
2025-03-08 13:58:00.228,-0.0012180272765575,-0.1391876241751114,1.0
2025-03-08 13:58:00.248,-0.0013501716683978,-0.2279600775472334,1.0
2025-03-08 13:58:00.267,-0.0014951260304699,-0.301277716193496,1.0
2025-03-08 13:58:00.287,-0.0016451104567976,-0.3655881335762578,1.0
2025-03-08 13:58:00.306,-0.0017894868939614,-0.425727888375065,1.0
2025-03-08 13:58:00.326,-0.0019168413291187,-0.4833920797234515,1.0
2025-03-08 13:58:00.345,-0.002017654874286,-0.5367912530534029,1.0
2025-03-08 13:58:00.365,-0.0020871694574444,-0.5814661553643486,1.0
2025-03-08 13:58:00.384,-0.0021279358516455,-0.6118874607755419,1.0
2025-03-08 13:58:00.404,-0.002151390640544,-0.623258325106217,1.0
2025-03-08 13:58:00.423,-0.0021777163918586,-0.6129147085985818,1.0
2025-03-08 13:58:00.443,-0.0022333260455402,-0.5808913034483205,1.0
2025-03-08 13:58:00.463,-0.0023456996997657,-0.5295514688410301,1.0
2025-03-08 13:58:00.482,-0.0025359959013878,-0.462560182387383,1.0
2025-03-08 13:58:00.502,-0.0028106933161638,-0.3837492437519493,1.0
2025-03-08 13:58:00.521,-0.0031542147541133,-0.296452315837234,1.0
2025-03-08 13:58:00.541,-0.0035247829944414,-0.2036532284925095,1.0
2025-03-08 13:58:00.560,-0.0038555056993577,-0.1088934348002461,1.0
2025-03-08 13:58:00.580,-0.0040618616182804,-0.0174870417393574,1.0
2025-03-08 13:58:00.599,-0.0040554308059841,0.0626423060899403,1.0
2025-03-08 13:58:00.619,-0.0037620315731946,0.1211488839238483,1.0
2025-03-08 13:58:00.638,-0.0031407074692003,0.1467983681393694,1.0
2025-03-08 13:58:00.658,-0.0021987748636465,0.1301648173501365,1.0
2025-03-08 13:58:00.677,-0.000998043837057,0.0668111710523537,1.0
2025-03-08 13:58:00.697,0.0003511235740328,-0.0400227563188213,1.0
2025-03-08 13:58:00.716,0.0017080285449219,-0.1781732435056275,1.0
2025-03-08 13:58:00.736,0.0029281817604287,-0.3273510320492974,1.0
2025-03-08 13:58:00.756,0.0038910947464381,-0.4620562175456417,1.0
2025-03-08 13:58:00.775,0.0045217133168009,-0.5561291571088148,1.0
2025-03-08 13:58:00.795,0.0048003155295699,-0.5880243374375379,1.0
2025-03-08 13:58:00.814,0.0047596722256961,-0.5456599608422866,1.0
2025-03-08 13:58:00.834,0.0044718956240937,-0.429698211108366,1.0
2025-03-08 13:58:00.853,0.0040295362049588,-0.2543623335633434,1.0
2025-03-08 13:58:00.873,0.003525959249919,-0.0453766614120913,1.0
2025-03-08 13:58:00.892,0.0030392122335318,0.1647466122362494,1.0
2025-03-08 13:58:00.912,0.0026220140901309,0.3431845488566701,1.0
2025-03-08 13:58:00.931,0.0022986764748925,0.4636364717907456,1.0
2025-03-08 13:58:00.951,0.0020681487783364,0.5119078835687622,1.0
2025-03-08 13:58:00.970,0.0019112744896676,0.4888646993074371,1.0
2025-03-08 13:58:00.990,0.0017998837588065,0.4099891406620347,1.0
2025-03-08 13:58:01.009,0.001705472296588,0.3016054055935676,1.0
2025-03-08 13:58:01.029,0.0016057620489277,0.1946708366474659,1.0
2025-03-08 13:58:01.049,0.0014882069387206,0.1176155313579498,1.0
2025-03-08 13:58:01.068,0.0013503297428738,0.0899040101184352,1.0
2025-03-08 13:58:01.088,0.0011975109912713,0.1177574121955758,1.0
2025-03-08 13:58:01.107,0.0010393450515926,0.1929136445360288,1.0
2025-03-08 13:58:01.127,0.0008858070910308,0.294591642907039,1.0
2025-03-08 13:58:01.146,0.0007442404252988,0.3941414086547848,1.0
2025-03-08 13:58:01.166,0.0006177341868598,0.4613351984430875,1.0
2025-03-08 13:58:01.185,0.0005050160846084,0.4709691301319022,1.0
2025-03-08 13:58:01.205,0.0004016352194325,0.4084385633622263,1.0
2025-03-08 13:58:01.224,0.0003019470594998,0.27321308239071,1.0
2025-03-08 13:58:01.244,0.0002012412050634,0.0795916036292995,1.0
2025-03-08 13:58:01.263,9.734895162244095e-05,-0.1453587133937034,1.0
2025-03-08 13:58:01.283,-8.71744384285076e-06,-0.3663040398781894,1.0
2025-03-08 13:58:01.302,-0.0001131780244956,-0.5458465415026569,1.0
2025-03-08 13:58:01.322,-0.00021067820799,-0.6514164111176046,1.0
2025-03-08 13:58:01.341,-0.0002957891534783,-0.6616361905179157,1.0
2025-03-08 13:58:01.361,-0.0003643658837745,-0.57086228085318,1.0
2025-03-08 13:58:01.381,-0.0004144927021543,-0.3908020557116922,1.0
2025-03-08 13:58:01.400,-0.0004469272471642,-0.148663164150129,1.0
2025-03-08 13:58:01.420,-0.0004650360758847,0.1178857398386783,1.0
2025-03-08 13:58:01.439,-0.000474224590086,0.3678561276100885,1.0
2025-03-08 13:58:01.459,-0.0004809011706992,0.5645963269498606,1.0
2025-03-08 13:58:01.478,-0.0004911343763866,0.6823298598207173,1.0
2025-03-08 13:58:01.498,-0.0005093174116235,0.7102983364453266,1.0
2025-03-08 13:58:01.517,-0.0005372283572259,0.6538222243990566,1.0
2025-03-08 13:58:01.537,-0.0005737727262007,0.5322321920076302,1.0
2025-03-08 13:58:01.556,-0.0006154413324488,0.3741997316255669,1.0
2025-03-08 13:58:01.576,-0.0006572591944682,0.2114660925449163,1.0
2025-03-08 13:58:01.595,-0.0006938890262256,0.0722863562032682,1.0
2025-03-08 13:58:01.615,-0.0007206075298423,-0.024020838553628,1.0
2025-03-08 13:58:01.634,-0.000734005535171,-0.0702749483670726,1.0
2025-03-08 13:58:01.654,-0.0007323865306639,-0.0717873730050104,1.0
2025-03-08 13:58:01.674,-0.0007159132022064,-0.0439661857681425,1.0
2025-03-08 13:58:01.693,-0.0006865689748992,-0.0079239706792581,1.0
2025-03-08 13:58:01.713,-0.0006479752966374,0.0147277847565189,1.0
2025-03-08 13:58:01.732,-0.000605064045698,0.0066119877108236,1.0
2025-03-08 13:58:01.752,-0.0005635737072828,-0.042195562283802,1.0
2025-03-08 13:58:01.771,-0.0005293411529332,-0.132989792643737,1.0
2025-03-08 13:58:01.791,-0.0005074115764057,-0.2592023132559598,1.0
2025-03-08 13:58:01.810,-0.0005010778416176,-0.4084902927489587,1.0
2025-03-08 13:58:01.830,-0.0005110603351776,-0.5653114727876154,1.0
2025-03-08 13:58:01.849,-0.0005350989069504,-0.7132886913175434,1.0
2025-03-08 13:58:01.869,-0.0005681760014731,-0.8370321997424622,1.0
2025-03-08 13:58:01.888,-0.0006033999434496,-0.9234428863330012,1.0
2025-03-08 13:58:01.908,-0.0006333398437629,-0.9626912050717268,1.0
2025-03-08 13:58:01.927,-0.0006514594297137,-0.9490406495156362,1.0
2025-03-08 13:58:01.947,-0.0006533109571158,-0.8815563387106411,1.0
2025-03-08 13:58:01.966,-0.0006372752092166,-0.7646020955812327,1.0
2025-03-08 13:58:01.986,-0.0006047726993954,-0.6079278417478658,1.0
2025-03-08 13:58:02.006,-0.0005599567052239,-0.4261084547643677,1.0
2025-03-08 13:58:02.025,-0.00050893627242,-0.2371485261730477,1.0
2025-03-08 13:58:02.045,-0.0004586252483194,-0.0602377196350662,1.0
2025-03-08 13:58:02.064,-0.000415408277807,0.0870955064954138,1.0
2025-03-08 13:58:02.084,-0.0003839159964878,0.1919121130816398,1.0
2025-03-08 13:58:02.103,-0.0003662195712834,0.2481877367141609,1.0
2025-03-08 13:58:02.123,-0.0003616414391491,0.257888052798539,1.0
2025-03-08 13:58:02.142,-0.0003671824747631,0.2304185516895115,1.0
2025-03-08 13:58:02.162,-0.0003783832739234,0.1805149967777362,1.0
2025-03-08 13:58:02.181,-0.0003903377289512,0.1251046028026866,1.0
2025-03-08 13:58:02.201,-0.0003985774015538,0.0799680632765036,1.0
2025-03-08 13:58:02.220,-0.0003996303564787,0.0570368297912733,1.0
2025-03-08 13:58:02.240,-0.0003911980754425,0.0628760956090566,1.0
2025-03-08 13:58:02.259,-0.0003720418492821,0.0984844446610037,1.0
2025-03-08 13:58:02.279,-0.0003417617429059,0.1601799886091505,1.0
2025-03-08 13:58:02.299,-0.0003006398420929,0.241146940663867,1.0
2025-03-08 13:58:02.318,-0.0002496220700027,0.3331726156146981,1.0
2025-03-08 13:58:02.338,-0.0001904023101341,0.4281523920425211,1.0
2025-03-08 13:58:02.357,-0.0001255104187888,0.519047297848614,1.0
2025-03-08 13:58:02.377,-5.8297542717577714e-05,0.600143643072439,1.0
2025-03-08 13:58:02.396,7.265755526441356e-06,0.6666762616209738,1.0
2025-03-08 13:58:02.416,6.701996019125923e-05,0.714097198803326,1.0
2025-03-08 13:58:02.435,0.0001172525197183,0.7374317668978523,1.0
2025-03-08 13:58:02.455,0.0001554415205,0.7311825587175836,1.0
2025-03-08 13:58:02.474,0.0001809416900935,0.6900703035495748,1.0
2025-03-08 13:58:02.494,0.00019540623698,0.6105725334560005,1.0
2025-03-08 13:58:02.513,0.0002027505030886,0.4928584469021625,1.0
2025-03-08 13:58:02.533,0.0002085475667967,0.3424740761873635,1.0
2025-03-08 13:58:02.552,0.0002189012336228,0.1711114298981331,1.0
2025-03-08 13:58:02.572,0.0002390389166286,-0.0039953886927032,1.0
2025-03-08 13:58:02.592,0.0002720210387265,-0.1621513446151415,1.0
2025-03-08 13:58:02.611,0.0003179663192689,-0.2824840557621755,1.0
2025-03-08 13:58:02.631,0.000374014995384,-0.3478361144704584,1.0
2025-03-08 13:58:02.650,0.0004349928969009,-0.3484632713051537,1.0
2025-03-08 13:58:02.670,0.0004945443988485,-0.2846765387323827,1.0
2025-03-08 13:58:02.689,0.0005464439383774,-0.1676957796931847,1.0
2025-03-08 13:58:02.709,0.0005858318603165,-0.0183123394615717,1.0
2025-03-08 13:58:02.728,0.0006101698441596,0.1365531967643786,1.0
2025-03-08 13:58:02.748,0.0006197471792813,0.268773634214184,1.0
2025-03-08 13:58:02.767,0.0006176188620709,0.3543666262604151,1.0
2025-03-08 13:58:02.787,0.0006089447348385,0.3780653289931108,1.0
2025-03-08 13:58:02.806,0.0005998297474876,0.336080770975693,1.0
2025-03-08 13:58:02.826,0.0005959185832876,0.2364874761915423,1.0
2025-03-08 13:58:02.845,0.0006011053279299,0.0972390990765976,1.0
2025-03-08 13:58:02.865,0.0006167008981199,-0.0576571082388807,1.0
2025-03-08 13:58:02.884,0.0006412574865135,-0.2029245129076593,1.0
2025-03-08 13:58:02.904,0.0006710607191882,-0.3167392746613122,1.0
2025-03-08 13:58:02.924,0.0007011376647985,-0.384442374154998,1.0
2025-03-08 13:58:02.943,0.0007265185208499,-0.4005540128557912,1.0
2025-03-08 13:58:02.963,0.0007434383271812,-0.3688180755753091,1.0
2025-03-08 13:58:02.982,0.0007501711939796,-0.3004853268262059,1.0
2025-03-08 13:58:03.002,0.0007472610974947,-0.2114309166738795,1.0
2025-03-08 13:58:03.021,0.0007370762197616,-0.1188564088330665,1.0
2025-03-08 13:58:03.041,0.000722850060988,-0.0382446117857253,1.0
2025-03-08 13:58:03.060,0.000707566091531,0.0189651075963987,1.0
2025-03-08 13:58:03.080,0.0006930644681065,0.0467111095879652,1.0
2025-03-08 13:58:03.099,0.0006795995629617,0.0445418637966733,1.0
2025-03-08 13:58:03.119,0.0006658836975463,0.016788851418834,1.0
2025-03-08 13:58:03.138,0.0006495262286087,-0.0290949495662735,1.0
2025-03-08 13:58:03.158,0.0006277254523287,-0.0846188668394024,1.0
2025-03-08 13:58:03.177,0.0005980532004789,-0.1422360955889645,1.0
2025-03-08 13:58:03.197,0.0005591657746943,-0.196738561908613,1.0
2025-03-08 13:58:03.217,0.0005112740192064,-0.2457830646664236,1.0
2025-03-08 13:58:03.236,0.0004562227123415,-0.2895550528540953,1.0
2025-03-08 13:58:03.256,0.0003971041653028,-0.3298369466820006,1.0
2025-03-08 13:58:03.275,0.0003374753062855,-0.3688939401949809,1.0
2025-03-08 13:58:03.295,0.0002803963345224,-0.4085841569906603,1.0
2025-03-08 13:58:03.314,0.000227572253816,-0.4499444563466797,1.0
2025-03-08 13:58:03.334,0.0001788369734034,-0.4932441406837828,1.0
2025-03-08 13:58:03.353,0.0001321275923713,-0.5382378859922532,1.0
2025-03-08 13:58:03.373,8.399230363543417e-05,-0.5842218272734805,1.0
2025-03-08 13:58:03.392,3.053933687976576e-05,-0.6296006503973899,1.0
2025-03-08 13:58:03.412,-3.14325702364794e-05,-0.6709902673364909,1.0
2025-03-08 13:58:03.431,-0.0001034864631301,-0.702259001554215,1.0
2025-03-08 13:58:03.451,-0.0001850829606743,-0.7141407238899282,1.0
2025-03-08 13:58:03.470,-0.0002736893224707,-0.6949851098651565,1.0
2025-03-08 13:58:03.490,-0.0003653382465565,-0.6328327527525907,1.0
2025-03-08 13:58:03.510,-0.0004554173987803,-0.5184585629625456,1.0
2025-03-08 13:58:03.529,-0.0005394907653575,-0.3485538493749336,1.0
2025-03-08 13:58:03.549,-0.0006140130734337,-0.1280354026944932,1.0
2025-03-08 13:58:03.568,-0.000676842376336,0.1293382150020147,1.0
2025-03-08 13:58:03.588,-0.0007274764244227,0.4023867876576829,1.0
2025-03-08 13:58:03.607,-0.0007669591507265,0.6657396428106946,1.0
2025-03-08 13:58:03.627,-0.000797454506832,0.8941777635127893,1.0
2025-03-08 13:58:03.646,-0.0008215762021915,1.067122914014658,1.0
2025-03-08 13:58:03.666,-0.0008416589534457,1.172290641422037,1.0
2025-03-08 13:58:03.685,-0.0008591959051855,1.207713976554511,1.0
2025-03-08 13:58:03.705,-0.0008746146318637,1.1816744329466904,1.0
2025-03-08 13:58:03.724,-0.0008874438836672,1.110483101660616,1.0
2025-03-08 13:58:03.744,-0.0008967826887757,1.01449448387855,1.0
2025-03-08 13:58:03.763,-0.000901872325685,0.9131629611781408,1.0
2025-03-08 13:58:03.783,-0.0009025363935433,0.8202792355188112,1.0
2025-03-08 13:58:03.802,-0.0008993101407212,0.7406207225688328,1.0
2025-03-08 13:58:03.822,-0.0008932009292234,0.6690032329171816,1.0
2025-03-08 13:58:03.842,-0.0008851691676256,0.5921321275035499,1.0
2025-03-08 13:58:03.861,-0.0008755553885779,0.4928794130601334,1.0
2025-03-08 13:58:03.881,-0.0008637444853095,0.3559190913984871,1.0
2025-03-08 13:58:03.900,-0.0008482847791838,0.1732667281198081,1.0
2025-03-08 13:58:03.920,-0.0008274658749442,-0.051713253955458,1.0
2025-03-08 13:58:03.939,-0.0008001109715314,-0.3028988573216138,1.0
2025-03-08 13:58:03.959,-0.0007662073729453,-0.5530801763101245,1.0
2025-03-08 13:58:03.978,-0.0007270703749378,-0.7685242687000547,1.0
2025-03-08 13:58:03.998,-0.0006849677322297,-0.9156096888593144,1.0
2025-03-08 13:58:04.017,-0.0006423743714372,-0.9681608172735424,1.0
2025-03-08 13:58:04.037,-0.0006011394255804,-0.9137829742845822,1.0
2025-03-08 13:58:04.056,-0.0005618162806375,-0.7575462195369619,1.0
2025-03-08 13:58:04.076,-0.000523321880558,-0.5218986018985116,1.0
2025-03-08 13:58:04.095,-0.0004830244738064,-0.2426432562133073,1.0
2025-03-08 13:58:04.115,-0.0004372972832267,0.0380910178879375,1.0
2025-03-08 13:58:04.135,-0.0003824695475138,0.2801113349104387,1.0
2025-03-08 13:58:04.154,-0.0003159508242202,0.4526020383773113,1.0
2025-03-08 13:58:04.174,-0.0002371828011958,0.5390656980511445,1.0
2025-03-08 13:58:04.193,-0.0001480936195505,0.5389242440052047,1.0
2025-03-08 13:58:04.213,-5.29020110383e-05,0.4658968781004732,1.0
2025-03-08 13:58:04.232,4.266303672472336e-05,0.3439967540322327,1.0
2025-03-08 13:58:04.252,0.0001325025016362,0.2023084909744461,1.0
2025-03-08 13:58:04.271,0.0002113580518034,0.0696667746564289,1.0
2025-03-08 13:58:04.291,0.0002758246490988,-0.02988689749412,1.0
2025-03-08 13:58:04.310,0.0003249703567886,-0.0802958856165629,1.0
2025-03-08 13:58:04.330,0.0003604421431699,-0.0750525784550239,1.0
2025-03-08 13:58:04.349,0.0003859951666233,-0.0171340411249011,1.0
2025-03-08 13:58:04.369,0.0004064905726987,0.0824464788948606,1.0
2025-03-08 13:58:04.388,0.0004266014078247,0.2070364102031403,1.0
2025-03-08 13:58:04.408,0.000449642980538,0.3371621351062435,1.0
2025-03-08 13:58:04.427,0.0004769353303321,0.4532857413474266,1.0
2025-03-08 13:58:04.447,0.0005078758236007,0.538173788106485,1.0
2025-03-08 13:58:04.467,0.0005405909256864,0.5787330755712694,1.0
2025-03-08 13:58:04.486,0.0005728297101415,0.5672743528749047,1.0
2025-03-08 13:58:04.506,0.0006027433829301,0.5021584340553406,1.0
2025-03-08 13:58:04.525,0.0006293233432977,0.3877226494163296,1.0
2025-03-08 13:58:04.545,0.0006524355312202,0.2333920794696113,1.0
2025-03-08 13:58:04.564,0.0006725136460356,0.0520172044083754,1.0
2025-03-08 13:58:04.584,0.0006900561989872,-0.1422872612262958,1.0
2025-03-08 13:58:04.603,0.0007051242765987,-0.3363144051170911,1.0
2025-03-08 13:58:04.623,0.00071703156992,-0.5193976020644776,1.0
2025-03-08 13:58:04.642,0.0007243394595698,-0.6841120194815724,1.0
2025-03-08 13:58:04.662,0.0007251605566149,-0.825989369219314,1.0
2025-03-08 13:58:04.681,0.0007176830502519,-0.9425499440801116,1.0
2025-03-08 13:58:04.701,0.0007007571898107,-1.0321673585298283,1.0
2025-03-08 13:58:04.720,0.0006743353255907,-1.0932592301176296,1.0
2025-03-08 13:58:04.740,0.0006395747060454,-1.124086662954734,1.0
2025-03-08 13:58:04.760,0.000598531837548,-1.1231730778060198,1.0
2025-03-08 13:58:04.779,0.0005535524292913,-1.0901339142673103,1.0
2025-03-08 13:58:04.799,0.000506597708858,-1.0265928711199603,1.0
2025-03-08 13:58:04.818,0.000458780768359,-0.9368445767953628,1.0
2025-03-08 13:58:04.838,0.0004103049054808,-0.8279909085163878,1.0
2025-03-08 13:58:04.857,0.0003608286233502,-0.7094147296338852,1.0
2025-03-08 13:58:04.877,0.0003100897652549,-0.5916342561002289,1.0
2025-03-08 13:58:04.896,0.0002584915450259,-0.484744614972469,1.0
2025-03-08 13:58:04.916,0.0002073611327701,-0.3967326094470205,1.0
2025-03-08 13:58:04.935,0.0001587429271002,-0.3319376534418976,1.0
2025-03-08 13:58:04.955,0.0001148076120452,-0.2898969245475141,1.0
2025-03-08 13:58:04.974,7.713192942471444e-05,-0.2648195347990209,1.0
2025-03-08 13:58:04.994,4.615036013172425e-05,-0.2459468600315333,1.0
2025-03-08 13:58:05.013,2.0992921816308963e-05,-0.2189692222438987,1.0
2025-03-08 13:58:05.033,-2.3663120403980305e-07,-0.1684312313370491,1.0
2025-03-08 13:58:05.053,-1.9848516345237848e-05,-0.0807427738911682,1.0
2025-03-08 13:58:05.072,-3.98393335137626e-05,0.0528272567512909,1.0
2025-03-08 13:58:05.092,-6.130589497155976e-05,0.2338393949015225,1.0
2025-03-08 13:58:05.111,-8.420832676376445e-05,0.4555531720397966,1.0
2025-03-08 13:58:05.131,-0.000107558396285,0.7031999413252373,1.0
2025-03-08 13:58:05.150,-0.0001299281920362,0.9556121506456988,1.0
2025-03-08 13:58:05.170,-0.0001500237959948,1.1879603405072483,1.0
2025-03-08 13:58:05.189,-0.0001670444989915,1.3752130638224866,1.0
2025-03-08 13:58:05.209,-0.0001806826730949,1.4958521053035756,1.0
2025-03-08 13:58:05.228,-0.0001908353301879,1.535335454376032,1.0
2025-03-08 13:58:05.248,-0.0001972639402812,1.4887801193954249,1.0
2025-03-08 13:58:05.267,-0.0001994596174757,1.3623272449201815,1.0
2025-03-08 13:58:05.287,-0.0001968360131898,1.1727118357396555,1.0
2025-03-08 13:58:05.306,-0.0001891609046556,0.944794215376523,1.0
2025-03-08 13:58:05.326,-0.0001769839865096,0.7072606431288374,1.0
2025-03-08 13:58:05.345,-0.0001618259400556,0.4872516630453766,1.0
2025-03-08 13:58:05.365,-0.0001460425852196,0.3050981975601224,1.0
2025-03-08 13:58:05.385,-0.0001324347285254,0.1704355262551401,1.0
2025-03-08 13:58:05.404,-0.0001237273499605,0.0806747255854454,1.0
2025-03-08 13:58:05.424,-0.0001220125272245,0.0222462723662917,1.0
2025-03-08 13:58:05.443,-0.0001282364748806,-0.0256377096709204,1.0
2025-03-08 13:58:05.463,-0.0001418423842458,-0.0855707451637482,1.0
2025-03-08 13:58:05.482,-0.0001606909251812,-0.1761818249027206,1.0
2025-03-08 13:58:05.502,-0.0001813118513181,-0.3074086005106562,1.0
2025-03-08 13:58:05.521,-0.0001994241201737,-0.4779369111416123,1.0
2025-03-08 13:58:05.541,-0.000210580145378,-0.6753350190355136,1.0
2025-03-08 13:58:05.560,-0.0002107952372923,-0.8787050983535104,1.0
2025-03-08 13:58:05.580,-0.0001971025566076,-1.0630876684399222,1.0
2025-03-08 13:58:05.599,-0.0001680514059281,-1.2045263629240583,1.0
2025-03-08 13:58:05.619,-0.0001241524534173,-1.2846542936339622,1.0
2025-03-08 13:58:05.638,-6.815818362229515e-05,-1.2938533734423614,1.0
2025-03-08 13:58:05.658,-4.967396500606911e-06,-1.2323997751208189,1.0
2025-03-08 13:58:05.678,5.900155293343438e-05,-1.1094747999739392,1.0
2025-03-08 13:58:05.697,0.0001169079773493,-0.9404054540417702,1.0
2025-03-08 13:58:05.717,0.0001627655307827,-0.7428942435248505,1.0
2025-03-08 13:58:05.736,0.0001925200740732,-0.5332034152525791,1.0
2025-03-08 13:58:05.756,0.000204644777421,-0.3232284027017275,1.0
2025-03-08 13:58:05.775,0.0002001627444175,-0.1191462648766395,1.0
2025-03-08 13:58:05.795,0.0001821891511892,0.0780831296281149,1.0
2025-03-08 13:58:05.814,0.0001551876809199,0.270571576159884,1.0
2025-03-08 13:58:05.834,0.0001241518047186,0.4603824896260658,1.0
2025-03-08 13:58:05.853,9.387476969903108e-05,0.6464199884641373,1.0
2025-03-08 13:58:05.873,6.839713573178888e-05,0.8223644374387347,1.0
2025-03-08 13:58:05.892,5.064894714508461e-05,0.9764339024126256,1.0
2025-03-08 13:58:05.912,4.225712012467063e-05,1.0932304486176725,1.0
2025-03-08 13:58:05.931,4.347594981115162e-05,1.1572940028841352,1.0
2025-03-08 13:58:05.951,5.321471886957356e-05,1.157428854492597,1.0
2025-03-08 13:58:05.971,6.91654465038305e-05,1.0905604396150284,1.0
2025-03-08 13:58:05.990,8.805469113655916e-05,0.9639226989383732,1.0
2025-03-08 13:58:06.010,0.0001060359786788,0.7947762598934398,1.0
2025-03-08 13:58:06.029,0.0001191941466659,0.6075229765092669,1.0
2025-03-08 13:58:06.049,0.0001240656271961,0.4288322343483151,1.0
2025-03-08 13:58:06.068,0.0001180377362805,0.282001864323162,1.0
2025-03-08 13:58:06.088,9.952406724780306e-05,0.1820410391870224,1.0
2025-03-08 13:58:06.107,6.791844116385054e-05,0.1327874444033095,1.0
2025-03-08 13:58:06.127,2.3439103697441805e-05,0.1268041453813376,1.0
2025-03-08 13:58:06.146,-3.2996484045552955e-05,0.1480179312238335,1.0
2025-03-08 13:58:06.166,-9.980645382990424e-05,0.1763055938742408,1.0
2025-03-08 13:58:06.185,-0.0001747504166475,0.1927463728272705,1.0
2025-03-08 13:58:06.205,-0.000255025313005,0.1841782738134561,1.0
2025-03-08 13:58:06.224,-0.0003375360932231,0.1459970616504271,1.0
2025-03-08 13:58:06.244,-0.0004193567308591,0.082652879190112,1.0
2025-03-08 13:58:06.263,-0.0004983336926239,0.0058455230531211,1.0
2025-03-08 13:58:06.283,-0.0005737144810404,-0.0690995560739739,1.0
2025-03-08 13:58:06.303,-0.0006466027977227,-0.1277890419265708,1.0
2025-03-08 13:58:06.322,-0.0007199946351151,-0.161073991283827,1.0
2025-03-08 13:58:06.342,-0.000798196859525,-0.1678733815881131,1.0
2025-03-08 13:58:06.361,-0.0008855901229462,-0.1555768163125553,1.0
2025-03-08 13:58:06.381,-0.0009849315162065,-0.1377918327011908,1.0
2025-03-08 13:58:06.400,-0.0010956057177256,-0.1300753134335574,1.0
2025-03-08 13:58:06.420,-0.0012123073857738,-0.1449919207896149,1.0
2025-03-08 13:58:06.439,-0.001324525131109,-0.1880803054314066,1.0
2025-03-08 13:58:06.459,-0.0014169889019348,-0.2559845865258327,1.0
2025-03-08 13:58:06.478,-0.0014710697013887,-0.3372587264970051,1.0
2025-03-08 13:58:06.498,-0.0014670230143045,-0.4154652072846553,1.0
2025-03-08 13:58:06.517,-0.001386893220978,-0.4734893972697472,1.0
2025-03-08 13:58:06.537,-0.001217780914817,-0.4977163164660905,1.0
2025-03-08 13:58:06.556,-0.0009550011270754,-0.4809387624073793,1.0
2025-03-08 13:58:06.576,-0.0006044932237416,-0.4234512472350998,1.0
2025-03-08 13:58:06.596,-0.0001838035727186,-0.3324451735869994,1.0
2025-03-08 13:58:06.615,0.0002788711380899,-0.2202668547946236,1.0
2025-03-08 13:58:06.635,0.0007477341605293,-0.1021998934709947,1.0
2025-03-08 13:58:06.654,0.0011842028584014,0.0057384892779192,1.0
2025-03-08 13:58:06.674,0.0015526380471869,0.0887534436437735,1.0
2025-03-08 13:58:06.693,0.0018257504510864,0.1349255881586117,1.0
2025-03-08 13:58:06.713,0.0019884080710701,0.1365541668201694,1.0
2025-03-08 13:58:06.732,0.0020389934751928,0.0911455291394111,1.0
2025-03-08 13:58:06.752,0.0019882068526212,0.0019537258549557,1.0
2025-03-08 13:58:06.771,0.0018559431716387,-0.122035037399061,1.0
2025-03-08 13:58:06.791,0.0016672672488402,-0.2667632085647889,1.0
2025-03-08 13:58:06.810,0.0014484482468962,-0.4144546659546892,1.0
2025-03-08 13:58:06.830,0.0012236400054793,-0.5456342835500236,1.0
2025-03-08 13:58:06.849,0.001012402451267,-0.6416771470806872,1.0
2025-03-08 13:58:06.869,0.0008280720273997,-0.6876140454515643,1.0
2025-03-08 13:58:06.888,0.0006770027682176,-0.6747968746062599,1.0
2025-03-08 13:58:06.908,0.0005587537003748,-0.6029457914830921,1.0
2025-03-08 13:58:06.928,0.0004672526120752,-0.4810780636764714,1.0
2025-03-08 13:58:06.947,0.0003928011605747,-0.3268945854355665,1.0
2025-03-08 13:58:06.967,0.0003245728396085,-0.164423319227194,1.0
2025-03-08 13:58:06.986,0.0002530945605845,-0.0200941572324133,1.0
2025-03-08 13:58:07.006,0.0001721819414267,0.0821353549174735,1.0
2025-03-08 13:58:07.025,7.993952032235685e-05,0.125620171201872,1.0
2025-03-08 13:58:07.045,-2.1320934754845944e-05,0.1047181665379305,1.0
2025-03-08 13:58:07.064,-0.000126130752316,0.0263858399664582,1.0
2025-03-08 13:58:07.084,-0.0002275456645331,-0.0908323686604148,1.0
2025-03-08 13:58:07.103,-0.0003189789381291,-0.2203500194147093,1.0
2025-03-08 13:58:07.123,-0.0003957038073045,-0.3329449121219446,1.0
2025-03-08 13:58:07.142,-0.0004556951271847,-0.4028599437927599,1.0
2025-03-08 13:58:07.162,-0.0004997244884323,-0.4132007866344848,1.0
2025-03-08 13:58:07.181,-0.0005308372462082,-0.3593614218568748,1.0
2025-03-08 13:58:07.201,-0.0005534308768759,-0.2496776279647069,1.0
2025-03-08 13:58:07.221,-0.0005721340284077,-0.1031751967584283,1.0
2025-03-08 13:58:07.240,-0.0005906500468294,0.0550355694256424,1.0
2025-03-08 13:58:07.260,-0.0006107470478858,0.1996130061047657,1.0
2025-03-08 13:58:07.279,-0.0006316212296484,0.3106681308126379,1.0
2025-03-08 13:58:07.299,-0.0006498488526538,0.3778863142113138,1.0
2025-03-08 13:58:07.318,-0.0006600226544409,0.4020911454356,1.0
2025-03-08 13:58:07.338,-0.0006559610519939,0.3939593585043933,1.0
2025-03-08 13:58:07.357,-0.000632177565252,0.3704010019930815,1.0
2025-03-08 13:58:07.377,-0.0005852248269901,0.3497423006770578,1.0
2025-03-08 13:58:07.396,-0.0005146294548727,0.3470714904247864,1.0
2025-03-08 13:58:07.416,-0.0004233162052635,0.3709001818948281,1.0
2025-03-08 13:58:07.435,-0.0003175215083849,0.4218055181092264,1.0
2025-03-08 13:58:07.455,-0.0002061605039211,0.4931548289235793,1.0
2025-03-08 13:58:07.474,-9.956203509330683e-05,0.5735132342070705,1.0
2025-03-08 13:58:07.494,-7.604733563258129e-06,0.6499631717466012,1.0
2025-03-08 13:58:07.514,6.240320154274758e-05,0.7113787545300806,1.0
2025-03-08 13:58:07.533,0.0001074671385171,0.7507593022594182,1.0
2025-03-08 13:58:07.553,0.000129628085137,0.7660514244489898,1.0
2025-03-08 13:58:07.572,0.0001353546340943,0.7593920810302192,1.0
2025-03-08 13:58:07.592,0.0001337898324648,0.7352134433945535,1.0
2025-03-08 13:58:07.611,0.0001344205392954,0.6979855226810338,1.0
2025-03-08 13:58:07.631,0.0001448529730466,0.6504293165900924,1.0
2025-03-08 13:58:07.650,0.0001692501672512,0.592805471601081,1.0
2025-03-08 13:58:07.670,0.0002077307289997,0.523450410126197,1.0
2025-03-08 13:58:07.689,0.0002567486138738,0.4402441942766799,1.0
2025-03-08 13:58:07.709,0.0003102324111139,0.3423458958012199,1.0
2025-03-08 13:58:07.728,0.0003611037439618,0.2314772574272266,1.0
2025-03-08 13:58:07.748,0.0004027623020466,0.1122864794479844,1.0
2025-03-08 13:58:07.767,0.0004302311076489,-0.0082672148794139,1.0
2025-03-08 13:58:07.787,0.0004408320269341,-0.1222091472596803,1.0
2025-03-08 13:58:07.806,0.0004343993964933,-0.2220558239904523,1.0
2025-03-08 13:58:07.826,0.0004130896182402,-0.3020972874241368,1.0
2025-03-08 13:58:07.846,0.0003808465536658,-0.3591820451348259,1.0
2025-03-08 13:58:07.865,0.0003426018728518,-0.3929193286597753,1.0
2025-03-08 13:58:07.885,0.0003033503905707,-0.405353396242553,1.0
2025-03-08 13:58:07.904,0.0002673026390976,-0.4002437147733819,1.0
2025-03-08 13:58:07.924,0.00023730722533,-0.3821341550741542,1.0
2025-03-08 13:58:07.943,0.0002146269760173,-0.3554378033170787,1.0
2025-03-08 13:58:07.963,0.0001990104602981,-0.3237849491538506,1.0
2025-03-08 13:58:07.982,0.0001889264647697,-0.2898337975800661,1.0
2025-03-08 13:58:08.002,0.0001818672612746,-0.2555935990705913,1.0
2025-03-08 13:58:08.021,0.0001747218760808,-0.223089816469066,1.0
2025-03-08 13:58:08.041,0.0001642669848561,-0.1950208434324118,1.0
2025-03-08 13:58:08.060,0.0001477645587679,-0.1750402830880914,1.0
2025-03-08 13:58:08.080,0.0001235419674148,-0.1674811195849723,1.0
2025-03-08 13:58:08.099,9.136584838325696e-05,-0.1766173515109638,1.0
2025-03-08 13:58:08.119,5.2465373687151135e-05,-0.2057717299210497,1.0
2025-03-08 13:58:08.139,9.18166245928185e-06,-0.2566199955481634,1.0
2025-03-08 13:58:08.158,-3.566649851096766e-05,-0.3289223175201735,1.0
2025-03-08 13:58:08.178,-7.955299253189669e-05,-0.4207136850947661,1.0
2025-03-08 13:58:08.197,-0.0001209780026708,-0.5287872795479441,1.0
2025-03-08 13:58:08.217,-0.000159970651192,-0.6491630503140283,1.0
2025-03-08 13:58:08.236,-0.000198172848838,-0.7771990079436429,1.0
2025-03-08 13:58:08.256,-0.0002383893348789,-0.907128391372639,1.0
2025-03-08 13:58:08.275,-0.0002836305299104,-1.0311029475376996,1.0
2025-03-08 13:58:08.295,-0.0003358593179996,-1.1382004212176264,1.0
2025-03-08 13:58:08.314,-0.0003948245411843,-1.2141212385656828,1.0
2025-03-08 13:58:08.334,-0.0004574239988808,-1.2422602021016715,1.0
2025-03-08 13:58:08.353,-0.0005179030564604,-1.2064261147335282,1.0
2025-03-08 13:58:08.373,-0.0005688920448,-1.0948169867056303,1.0
2025-03-08 13:58:08.392,-0.0006029771093307,-0.9042093770282892,1.0
2025-03-08 13:58:08.412,-0.0006143513587195,-0.6429849170874598,1.0
2025-03-08 13:58:08.432,-0.0006001353492612,-0.3317763335549665,1.0
2025-03-08 13:58:08.451,-0.000561089125946,-0.0011402886893104,1.0
2025-03-08 13:58:08.471,-0.0005015778789188,0.3134636567930672,1.0
2025-03-08 13:58:08.490,-0.0004288071327128,0.5782883177868681,1.0
2025-03-08 13:58:08.510,-0.000351532427571,0.767902464034892,1.0
2025-03-08 13:58:08.529,-0.0002786112242168,0.8701356206381763,1.0
2025-03-08 13:58:08.549,-0.0002177833075432,0.888143466442261,1.0
2025-03-08 13:58:08.568,-0.0001748935203322,0.839125254871059,1.0
2025-03-08 13:58:08.588,-0.0001535213237735,0.7500760075806677,1.0
2025-03-08 13:58:08.607,-0.000154849946895,0.6516808818930183,1.0
2025-03-08 13:58:08.627,-0.0001776742602618,0.571882093431045,1.0
2025-03-08 13:58:08.646,-0.0002186016236069,0.5306620541988708,1.0
2025-03-08 13:58:08.666,-0.0002725731955897,0.5371744469072152,1.0
2025-03-08 13:58:08.685,-0.0003337515707182,0.5896281445946387,1.0
2025-03-08 13:58:08.705,-0.000396639684298,0.6775155478745178,1.0
2025-03-08 13:58:08.724,-0.0004571323773858,0.785153370158635,1.0
2025-03-08 13:58:08.744,-0.0005131607300868,0.8952871143310968,1.0
2025-03-08 13:58:08.764,-0.0005647057916264,0.9917578878327205,1.0
2025-03-08 13:58:08.783,-0.0006131657046649,1.0608051711675202,1.0
2025-03-08 13:58:08.803,-0.0006602377831508,1.091219149655545,1.0
2025-03-08 13:58:08.822,-0.0007065571271153,1.0740023267128505,1.0
2025-03-08 13:58:08.842,-0.0007503452059621,1.002300361991407,1.0
2025-03-08 13:58:08.861,-0.0007863399043003,0.8721072094671675,1.0
2025-03-08 13:58:08.881,-0.0008053339776315,0.6837605365818513,1.0
2025-03-08 13:58:08.900,-0.0007946703193564,0.4437267495245043,1.0
2025-03-08 13:58:08.920,-0.0007399033363043,0.1658475306467882,1.0
2025-03-08 13:58:08.939,-0.0006275033101791,-0.1287755561502021,1.0
2025-03-08 13:58:08.959,-0.000448095347946,-0.4137282649109218,1.0
2025-03-08 13:58:08.978,-0.0001994815196312,-0.6609448966773945,1.0
2025-03-08 13:58:08.998,0.0001113337782767,-0.8453550721754058,1.0
2025-03-08 13:58:09.017,0.0004677581538173,-0.9493832316632372,1.0
2025-03-08 13:58:09.037,0.0008452270057316,-0.9661213571945634,1.0
2025-03-08 13:58:09.057,0.0012147223585308,-0.9003219304435044,1.0
2025-03-08 13:58:09.076,0.0015475116688439,-0.7669480270104181,1.0
2025-03-08 13:58:09.096,0.0018199414937997,-0.5876839532653579,1.0
2025-03-08 13:58:09.115,0.0020170183738666,-0.3863442728116244,1.0
2025-03-08 13:58:09.135,0.0021338986936383,-0.1843559870682662,1.0
2025-03-08 13:58:09.154,0.0021751236813698,0.0026259243723193,1.0
2025-03-08 13:58:09.174,0.0021521222210299,0.1662970951895523,1.0
2025-03-08 13:58:09.193,0.0020798744520751,0.3053091183309827,1.0
2025-03-08 13:58:09.213,0.0019736424600598,0.4232081065375419,1.0
2025-03-08 13:58:09.232,0.0018464721667402,0.5253654688559825,1.0
2025-03-08 13:58:09.252,0.0017078763728734,0.6157586590708571,1.0
2025-03-08 13:58:09.271,0.0015637579082312,0.6944884149249394,1.0
2025-03-08 13:58:09.291,0.0014172696095078,0.7567436704827928,1.0
2025-03-08 13:58:09.310,0.0012700579191191,0.7935287663350331,1.0
2025-03-08 13:58:09.330,0.0011233204784417,0.7939346142392014,1.0
2025-03-08 13:58:09.349,0.0009783207268744,0.7482654627746738,1.0
2025-03-08 13:58:09.369,0.0008363051520703,0.6511181246125629,1.0
2025-03-08 13:58:09.389,0.0006980088763268,0.5035971384783279,1.0
2025-03-08 13:58:09.408,0.0005630513594774,0.3141333201482106,1.0
2025-03-08 13:58:09.428,0.000429531748142,0.0977189571491606,1.0
2025-03-08 13:58:09.447,0.0002940668056347,-0.1262901685295139,1.0
2025-03-08 13:58:09.467,0.0001523987265565,-0.3373497404350776,1.0
2025-03-08 13:58:09.486,5.404228203777732e-07,-0.517192107764472,1.0
2025-03-08 13:58:09.506,-0.0001637736213925,-0.6528188943993258,1.0
2025-03-08 13:58:09.525,-0.0003397445132996,-0.7383837513279022,1.0
2025-03-08 13:58:09.545,-0.0005227445200097,-0.7756161670170332,1.0
2025-03-08 13:58:09.564,-0.0007044695284482,-0.772787443329458,1.0
2025-03-08 13:58:09.584,-0.0008740727146083,-0.7425351656583973,1.0
2025-03-08 13:58:09.603,-0.0010200430655652,-0.6990803026175942,1.0
2025-03-08 13:58:09.623,-0.0011323710199634,-0.6554531324136437,1.0
2025-03-08 13:58:09.642,-0.0012044650892656,-0.6212757725090138,1.0
2025-03-08 13:58:09.662,-0.0012343668195104,-0.6014607899034334,1.0
2025-03-08 13:58:09.682,-0.0012250202965464,-0.5959503203467422,1.0
2025-03-08 13:58:09.701,-0.0011836026041275,-0.6004085645289368,1.0
2025-03-08 13:58:09.721,-0.0011201326804745,-0.6076211808288783,1.0
2025-03-08 13:58:09.740,-0.0010457156338302,-0.609248942790596,1.0
2025-03-08 13:58:09.760,-0.0009708471359228,-0.5975445426839687,1.0
2025-03-08 13:58:09.779,-0.0009041790146809,-0.5667024888368504,1.0
2025-03-08 13:58:09.799,-0.0008519946757808,-0.5136741540224419,1.0
2025-03-08 13:58:09.818,-0.0008183711282003,-0.4384767440777928,1.0
2025-03-08 13:58:09.838,-0.0008057133041232,-0.3441526116491269,1.0
2025-03-08 13:58:09.857,-0.0008151819335285,-0.2365302211220391,1.0
2025-03-08 13:58:09.877,-0.0008466074598774,-0.1238245852629834,1.0
2025-03-08 13:58:09.896,-0.0008977909186531,-0.0159816205490584,1.0
2025-03-08 13:58:09.916,-0.0009634943265982,0.076391880989391,1.0
2025-03-08 13:58:09.935,-0.0010346904398563,0.1436076919416222,1.0
2025-03-08 13:58:09.955,-0.0010986279773107,0.1788776312952107,1.0
2025-03-08 13:58:09.975,-0.001140010902694,0.180298672279372,1.0
2025-03-08 13:58:09.994,-0.0011432363188721,0.1522021363326368,1.0
2025-03-08 13:58:10.014,-0.0010953046435124,0.1052140780206719,1.0
2025-03-08 13:58:10.033,-0.0009887656457267,0.0546761839106397,1.0
2025-03-08 13:58:10.053,-0.0008239438425396,0.0175995311870271,1.0
2025-03-08 13:58:10.072,-0.0006097636085004,0.0088384014888023,1.0
2025-03-08 13:58:10.092,-0.0003628098164806,0.0374627529410023,1.0
2025-03-08 13:58:10.111,-0.0001047525627919,0.1042871507595854,1.0
2025-03-08 13:58:10.131,0.0001412591073159,0.2012226958998336,1.0
2025-03-08 13:58:10.150,0.0003543827707383,0.3126672473078848,1.0
2025-03-08 13:58:10.170,0.000519233890739,0.418659923209179,1.0
2025-03-08 13:58:10.189,0.0006278020072931,0.4991024307222668,1.0
2025-03-08 13:58:10.209,0.0006798158910592,0.5380744504418651,1.0
2025-03-08 13:58:10.228,0.0006815824154225,0.5272134953310685,1.0
2025-03-08 13:58:10.248,0.0006436908420673,0.4673396232465279,1.0
2025-03-08 13:58:10.267,0.000578259450409,0.3679614968144004,1.0
2025-03-08 13:58:10.287,0.0004964862328965,0.2448760270582573,1.0
2025-03-08 13:58:10.307,0.0004070989058698,0.1165725932434122,1.0
2025-03-08 13:58:10.326,0.0003159315611666,0.0004095961313189,1.0
2025-03-08 13:58:10.346,0.0002264387693796,-0.0905043078846462,1.0
2025-03-08 13:58:10.365,0.0001406801184979,-0.1490607619972112,1.0
2025-03-08 13:58:10.385,6.0272207018898336e-05,-0.1742761877027663,1.0
2025-03-08 13:58:10.404,-1.302256684078377e-05,-0.1699870821448826,1.0
2025-03-08 13:58:10.424,-7.715111229162212e-05,-0.1427159950116444,1.0
2025-03-08 13:58:10.443,-0.0001299687782896,-0.0995200810654332,1.0
2025-03-08 13:58:10.463,-0.0001696361852437,-0.0465368829500057,1.0
2025-03-08 13:58:10.482,-0.0001950916883236,0.0114508830976069,1.0
2025-03-08 13:58:10.502,-0.0002064725069608,0.07061646585144,1.0
2025-03-08 13:58:10.521,-0.0002053194442143,0.1274050599332655,1.0
2025-03-08 13:58:10.541,-0.0001944126801016,0.1781541278537202,1.0
2025-03-08 13:58:10.560,-0.0001772000916524,0.2193253020425798,1.0
2025-03-08 13:58:10.580,-0.0001569508767382,0.2482302518602621,1.0
2025-03-08 13:58:10.600,-0.0001358999648646,0.2638116398092345,1.0
2025-03-08 13:58:10.619,-0.0001146691563537,0.2669830379097219,1.0
2025-03-08 13:58:10.639,-9.21558854680776e-05,0.2602386734585831,1.0
2025-03-08 13:58:10.658,-6.592658014345416e-05,0.2465981374197392,1.0
2025-03-08 13:58:10.678,-3.3002855728025285e-05,0.2283025883092741,1.0
2025-03-08 13:58:10.697,9.176214661463304e-06,0.2058891049297818,1.0
2025-03-08 13:58:10.717,6.187679180568096e-05,0.1782286009795572,1.0
2025-03-08 13:58:10.736,0.0001245164596738,0.1437762032170079,1.0
2025-03-08 13:58:10.756,0.0001945851631686,0.1027326954676369,1.0
2025-03-08 13:58:10.775,0.0002680534505077,0.0592763900618379,1.0
2025-03-08 13:58:10.795,0.0003401264340555,0.0227757921249544,1.0
2025-03-08 13:58:10.814,0.0004060954185941,0.0071027405496805,1.0
2025-03-08 13:58:10.834,0.0004620383632326,0.0277812098932836,1.0
2025-03-08 13:58:10.853,0.000505226195636,0.0974925897562321,1.0
2025-03-08 13:58:10.873,0.0005342380143657,0.2211243566933531,1.0
2025-03-08 13:58:10.893,0.000548885226689,0.3918689596754972,1.0
2025-03-08 13:58:10.912,0.0005500433330915,0.5897455016134093,1.0
2025-03-08 13:58:10.932,0.0005394201115405,0.7833536151454737,1.0
2025-03-08 13:58:10.951,0.0005192362245232,0.9348276936192847,1.0
2025-03-08 13:58:10.971,0.0004918237148757,1.0070756013371025,1.0
2025-03-08 13:58:10.990,0.0004592425834352,0.9717033424408748,1.0
2025-03-08 13:58:11.010,0.0004230876028524,0.8157299371701757,1.0
2025-03-08 13:58:11.029,0.0003846192843984,0.5453775473368989,1.0
2025-03-08 13:58:11.049,0.0003451930376198,0.1858686857748808,1.0
2025-03-08 13:58:11.068,0.0003067668043109,-0.2228620126449606,1.0
2025-03-08 13:58:11.088,0.0002721726367193,-0.6335892095861722,1.0
2025-03-08 13:58:11.107,0.0002449161692653,-1.0005950630653624,1.0
2025-03-08 13:58:11.127,0.0002284773366343,-1.2877645449815025,1.0
2025-03-08 13:58:11.146,0.0002253140176283,-1.4741377884436992,1.0
2025-03-08 13:58:11.166,0.0002359194715974,-1.5557908633253328,1.0
2025-03-08 13:58:11.185,0.0002583031903101,-1.5438854623872678,1.0
2025-03-08 13:58:11.205,0.0002881417873288,-1.4596957551994754,1.0
2025-03-08 13:58:11.225,0.0003196142638714,-1.3281472811447192,1.0
2025-03-08 13:58:11.244,0.0003466843650373,-1.1716964431660166,1.0
2025-03-08 13:58:11.264,0.0003644409045838,-1.0061326622911964,1.0
2025-03-08 13:58:11.283,0.0003701206883607,-0.8391538977859035,1.0
2025-03-08 13:58:11.303,0.0003635802538081,-0.6716138944121045,1.0
2025-03-08 13:58:11.322,0.0003471589101445,-0.5005438168286879,1.0
2025-03-08 13:58:11.342,0.0003250177495543,-0.3226968745559552,1.0
2025-03-08 13:58:11.361,0.0003021276319661,-0.13748986275609,1.0
2025-03-08 13:58:11.381,0.0002831220955381,0.0513671547886796,1.0
2025-03-08 13:58:11.400,0.0002712444917887,0.2357976519529783,1.0
2025-03-08 13:58:11.420,0.0002676128086717,0.4047179171729622,1.0
2025-03-08 13:58:11.439,0.0002709906658286,0.5464418709703012,1.0
2025-03-08 13:58:11.459,0.0002781559181437,0.6515475592130552,1.0
2025-03-08 13:58:11.478,0.0002847871724071,0.7154852651436737,1.0
2025-03-08 13:58:11.498,0.0002866069515122,0.7401834978867738,1.0
2025-03-08 13:58:11.518,0.0002804359569165,0.7340730790312898,1.0
2025-03-08 13:58:11.537,0.0002648766786646,0.7103326596620444,1.0
2025-03-08 13:58:11.557,0.0002405075376914,0.6836824270960201,1.0
2025-03-08 13:58:11.576,0.0002096317683601,0.66652871482363,1.0
2025-03-08 13:58:11.596,0.0001757145975237,0.6654999443704152,1.0
2025-03-08 13:58:11.615,0.0001426555192482,0.6793418551770152,1.0
2025-03-08 13:58:11.635,0.0001140309187048,0.6988133660187745,1.0
2025-03-08 13:58:11.654,9.24431251804057e-05,0.7087393992663992,1.0
2025-03-08 13:58:11.674,7.910719531706493e-05,0.6918149434375312,1.0
2025-03-08 13:58:11.693,7.375763258445843e-05,0.6332193640614882,1.0
2025-03-08 13:58:11.713,7.4864434858517e-05,0.5247641866915493,1.0
2025-03-08 13:58:11.732,8.005609371718663e-05,0.3673521800578438,1.0
2025-03-08 13:58:11.752,8.659910127063289e-05,0.1710362453415552,1.0
2025-03-08 13:58:11.771,9.17907227943314e-05,-0.047231533571005,1.0
2025-03-08 13:58:11.791,9.317289098020862e-05,-0.2673173833429401,1.0
2025-03-08 13:58:11.811,8.855073125714106e-05,-0.4698644572357032,1.0
2025-03-08 13:58:11.830,7.587926556818402e-05,-0.6393779429898301,1.0
2025-03-08 13:58:11.850,5.314601698251419e-05,-0.7658095175984582,1.0
2025-03-08 13:58:11.869,1.8397279040577262e-05,-0.8446264910906166,1.0
2025-03-08 13:58:11.889,-3.000470935121211e-05,-0.8758396783834799,1.0
2025-03-08 13:58:11.908,-9.295038192769536e-05,-0.8626710137719131,1.0
2025-03-08 13:58:11.928,-0.0001701815575074,-0.8104343341718961,1.0
2025-03-08 13:58:11.947,-0.0002601554381677,-0.7258765322532881,1.0
2025-03-08 13:58:11.967,-0.0003602811791085,-0.6168665444599245,1.0
2025-03-08 13:58:11.986,-0.0004674383152678,-0.4921071892192011,1.0
2025-03-08 13:58:12.006,-0.0005785588217494,-0.3605604588537801,1.0
2025-03-08 13:58:12.025,-0.0006910665663745,-0.2304755775807518,1.0
2025-03-08 13:58:12.045,-0.0008030703776284,-0.1081718492907025,1.0
2025-03-08 13:58:12.064,-0.0009132982964227,0.0030661165635541,1.0
2025-03-08 13:58:12.084,-0.001020787477489,0.1035534099842151,1.0
2025-03-08 13:58:12.103,-0.0011243457869499,0.1968926138951389,1.0
2025-03-08 13:58:12.123,-0.0012218619245431,0.2886714056549573,1.0
2025-03-08 13:58:12.143,-0.0013096803144112,0.3843551465673835,1.0
2025-03-08 13:58:12.162,-0.0013823647739387,0.4868515002939642,1.0
2025-03-08 13:58:12.182,-0.0014331025406891,0.5944234369733047,1.0
2025-03-08 13:58:12.201,-0.0014547381099486,0.6996537623061733,1.0
2025-03-08 13:58:12.221,-0.001441145790431,0.789969851269044,1.0
2025-03-08 13:58:12.240,-0.0013885347118357,0.8498390230894077,1.0
2025-03-08 13:58:12.260,-0.0012963549402893,0.8642415240536908,1.0
2025-03-08 13:58:12.279,-0.0011676336855292,0.822574446001181,1.0
2025-03-08 13:58:12.299,-0.0010087298773072,0.7218991503836998,1.0
2025-03-08 13:58:12.318,-0.000828633605995,0.5685328882516097,1.0
2025-03-08 13:58:12.338,-0.0006380338200987,0.3774157864999728,1.0
2025-03-08 13:58:12.357,-0.0004483933966707,0.1693374066894124,1.0
2025-03-08 13:58:12.377,-0.0002711989909207,-0.0332428245387856,1.0
2025-03-08 13:58:12.396,-0.0001174298989508,-0.2106408266919251,1.0
2025-03-08 13:58:12.416,2.841143462777513e-06,-0.3494961945006652,1.0
2025-03-08 13:58:12.436,8.089493527860661e-05,-0.4445948938910705,1.0
2025-03-08 13:58:12.455,0.0001100473429833,-0.4986667897558135,1.0
2025-03-08 13:58:12.475,8.666060982733921e-05,-0.5203932402390226,1.0
2025-03-08 13:58:12.494,1.1419982443227687e-05,-0.5212622503734878,1.0
2025-03-08 13:58:12.514,-0.0001093671711404,-0.5121179614607614,1.0
2025-03-08 13:58:12.533,-0.0002628282193678,-0.500266074251959,1.0
2025-03-08 13:58:12.553,-0.0004293441799405,-0.487833497728143,1.0
2025-03-08 13:58:12.572,-0.0005834458417927,-0.4717549411495905,1.0
2025-03-08 13:58:12.592,-0.0006959580880996,-0.4453200911868776,1.0
2025-03-08 13:58:12.611,-0.0007374044505512,-0.4007798792269097,1.0
2025-03-08 13:58:12.631,-0.0006824516629227,-0.3322327778308231,1.0
2025-03-08 13:58:12.650,-0.0005148238417511,-0.2379935596684626,1.0
2025-03-08 13:58:12.670,-0.0002317424861904,-0.1218717527713937,1.0
2025-03-08 13:58:12.689,0.0001532646939583,0.0068668440429673,1.0
2025-03-08 13:58:12.709,0.0006102482843084,0.1347635102408174,1.0
2025-03-08 13:58:12.728,0.0010960128425869,0.2463560060194348,1.0
2025-03-08 13:58:12.748,0.001560391221897,0.3268931515772603,1.0
2025-03-08 13:58:12.768,0.0019544994084921,0.3651285171062352,1.0
2025-03-08 13:58:12.787,0.0022391212027522,0.3557310498872156,1.0
2025-03-08 13:58:12.807,0.0023911697682856,0.3008667290837962,1.0
2025-03-08 13:58:12.826,0.0024066568170292,0.2105713876652751,1.0
2025-03-08 13:58:12.846,0.0022996193339099,0.1016742963526732,1.0
2025-03-08 13:58:12.865,0.0020975993523737,-0.0047339821262168,1.0
2025-03-08 13:58:12.885,0.0018351033559277,-0.0869789230953735,1.0
2025-03-08 13:58:12.904,0.0015467527823254,-0.1269852591352877,1.0
2025-03-08 13:58:12.924,0.001261609310384,-0.1140993385110952,1.0
2025-03-08 13:58:12.943,0.0009996012952892,-0.0476522671506709,1.0
2025-03-08 13:58:12.963,0.0007703177372686,0.0624387053307165,1.0
2025-03-08 13:58:12.982,0.0005738897762984,0.1973379056997172,1.0
2025-03-08 13:58:13.002,0.0004033742800787,0.3330059324536154,1.0
2025-03-08 13:58:13.021,0.0002479715309093,0.4451777113303488,1.0
2025-03-08 13:58:13.041,9.643976789531942e-05,0.5143863923550883,1.0
2025-03-08 13:58:13.061,-5.9874630182304685e-05,0.5297062258292836,1.0
2025-03-08 13:58:13.080,-0.0002248940335031,0.4902300440554264,1.0
2025-03-08 13:58:13.100,-0.0003969012743242,0.4040191865727539,1.0
2025-03-08 13:58:13.119,-0.0005689605887264,0.2850821661507136,1.0
2025-03-08 13:58:13.139,-0.0007304735400562,0.1495097399503998,1.0
2025-03-08 13:58:13.158,-0.0008694532535714,0.0120109575417393,1.0
2025-03-08 13:58:13.178,-0.0009749994196286,-0.1162287888552972,1.0
2025-03-08 13:58:13.197,-0.0010394613426455,-0.2280347913253798,1.0
2025-03-08 13:58:13.217,-0.0010598492022558,-0.3193678338187632,1.0
2025-03-08 13:58:13.236,-0.0010381879304681,-0.3878339830492631,1.0
2025-03-08 13:58:13.256,-0.0009807184706356,-0.4314557630078587,1.0
2025-03-08 13:58:13.275,-0.0008961302496013,-0.4483361950429947,1.0
2025-03-08 13:58:13.295,-0.0007933019162999,-0.4373342480728289,1.0
2025-03-08 13:58:13.314,-0.0006792318151858,-0.3993326082308213,1.0
2025-03-08 13:58:13.334,-0.0005578401949039,-0.3383812869613523,1.0
2025-03-08 13:58:13.354,-0.0004300683601721,-0.262072943818586,1.0
2025-03-08 13:58:13.373,-0.0002952483283481,-0.1808667587011724,1.0
2025-03-08 13:58:13.393,-0.0001532373761042,-0.1065123932455114,1.0
2025-03-08 13:58:13.412,-6.4958411259084815e-06,-0.0500356330566711,1.0
2025-03-08 13:58:13.432,0.0001387445613665,-0.0198408263722267,1.0
2025-03-08 13:58:13.451,0.0002727870823488,-0.0203750076253263,1.0
2025-03-08 13:58:13.471,0.0003842642141435,-0.0515662567868067,1.0
2025-03-08 13:58:13.490,0.0004628186704523,-0.1090082335871206,1.0
2025-03-08 13:58:13.510,0.0005017103483389,-0.1847096151500561,1.0
2025-03-08 13:58:13.529,0.0004994832145434,-0.2681892800467877,1.0
2025-03-08 13:58:13.549,0.0004602764912526,-0.3477358051732679,1.0
2025-03-08 13:58:13.568,0.0003928870901887,-0.4117051235886784,1.0
2025-03-08 13:58:13.588,0.000309044345406,-0.449766940540269,1.0
2025-03-08 13:58:13.607,0.0002214519774702,-0.4540194271436755,1.0
2025-03-08 13:58:13.627,0.0001420317542936,-0.4198819669232372,1.0
2025-03-08 13:58:13.646,8.059093499221774e-05,-0.3466678250211535,1.0
2025-03-08 13:58:13.666,4.395133868593951e-05,-0.2377555139417244,1.0
2025-03-08 13:58:13.686,3.548766271332523e-05,-0.1003306671499172,1.0
2025-03-08 13:58:13.705,5.5023798817237e-05,0.0552568359793138,1.0
2025-03-08 13:58:13.725,9.906786698211328e-05,0.2164236088548881,1.0
2025-03-08 13:58:13.744,0.0001613661625698,0.3694735313380778,1.0
2025-03-08 13:58:13.764,0.0002337237953553,0.5008472267688917,1.0
2025-03-08 13:58:13.783,0.0003070224547889,0.5984637305671608,1.0
2025-03-08 13:58:13.803,0.0003723726049073,0.6530910140263044,1.0
2025-03-08 13:58:13.822,0.000422322241712,0.6596082683360244,1.0
2025-03-08 13:58:13.842,0.0004519777627306,0.6179479466749891,1.0
2025-03-08 13:58:13.861,0.0004598125344689,0.5334828952103635,1.0
2025-03-08 13:58:13.881,0.0004479175464256,0.4166808926576,1.0
2025-03-08 13:58:13.900,0.0004215326292666,0.2819734426335779,1.0
2025-03-08 13:58:13.920,0.0003878841977207,0.1459367099316675,1.0
2025-03-08 13:58:13.939,0.0003545876278375,0.0250169142740229,1.0
2025-03-08 13:58:13.959,0.0003280368782894,-0.0668734600106662,1.0
2025-03-08 13:58:13.979,0.0003122066161762,-0.1205131115634982,1.0
2025-03-08 13:58:13.998,0.0003081407475309,-0.1329023189801993,1.0
2025-03-08 13:58:14.018,0.0003141837044327,-0.1078315376814796,1.0
2025-03-08 13:58:14.037,0.0003268082856391,-0.0552723923785122,1.0
2025-03-08 13:58:14.057,0.0003417459288531,0.0104122104188683,1.0
2025-03-08 13:58:14.076,0.0003550558836266,0.0731607499723622,1.0
2025-03-08 13:58:14.096,0.0003638097490437,0.1182745591824121,1.0
2025-03-08 13:58:14.115,0.0003662319740559,0.1351993181096326,1.0
2025-03-08 13:58:14.135,0.0003613787518531,0.1194545936533356,1.0
2025-03-08 13:58:14.154,0.0003486464582021,0.0733595155113932,1.0
2025-03-08 13:58:14.174,0.0003274558977503,0.0054661507773092,1.0
2025-03-08 13:58:14.193,0.000297312510186,-0.0711605276413723,1.0
2025-03-08 13:58:14.213,0.0002581802072205,-0.1415092757675499,1.0
2025-03-08 13:58:14.232,0.0002109014841945,-0.1916023680684127,1.0
2025-03-08 13:58:14.252,0.0001573711295862,-0.2113558767080942,1.0
2025-03-08 13:58:14.272,0.0001003085417113,-0.1967438475580075,1.0
2025-03-08 13:58:14.291,4.26698673122792e-05,-0.1507603794380353,1.0
2025-03-08 13:58:14.311,-1.310228034579339e-05,-0.0828932092824918,1.0
2025-03-08 13:58:14.330,-6.573033165606104e-05,-0.0071528533830502,1.0
2025-03-08 13:58:14.350,-0.000115430994109,0.0609544884779351,1.0
2025-03-08 13:58:14.369,-0.0001638052451399,0.1078574283628607,1.0
2025-03-08 13:58:14.389,-0.0002133037267478,0.124964636193962,1.0
2025-03-08 13:58:14.408,-0.0002664156902536,0.1105580713914383,1.0
2025-03-08 13:58:14.428,-0.0003248414432345,0.0699851971310745,1.0
2025-03-08 13:58:14.447,-0.0003889396052815,0.014023871176988,1.0
2025-03-08 13:58:14.467,-0.0004576392148241,-0.0441704755718801,1.0
2025-03-08 13:58:14.486,-0.0005288060729168,-0.0926683243161674,1.0
2025-03-08 13:58:14.506,-0.0005998660768231,-0.1238672693871945,1.0
2025-03-08 13:58:14.525,-0.0006684175364706,-0.1362056378651856,1.0
2025-03-08 13:58:14.545,-0.0007326329819938,-0.1340549017958746,1.0
2025-03-08 13:58:14.564,-0.0007914034097275,-0.125918106689372,1.0
2025-03-08 13:58:14.584,-0.0008443096858793,-0.1215415847157422,1.0
2025-03-08 13:58:14.604,-0.0008915328739944,-0.1288148041079942,1.0
2025-03-08 13:58:14.623,-0.0009337552647939,-0.1513382407865691,1.0
2025-03-08 13:58:14.643,-0.0009720454414185,-0.18730229050369,1.0
2025-03-08 13:58:14.662,-0.0010077045188331,-0.2299195916554064,1.0
2025-03-08 13:58:14.682,-0.0010420488119486,-0.2692110595435132,1.0
2025-03-08 13:58:14.701,-0.0010761070895795,-0.2945961261376356,1.0
2025-03-08 13:58:14.721,-0.0011102484790599,-0.2975720795963807,1.0
2025-03-08 13:58:14.740,-0.001143828288338,-0.2737991851097119,1.0
2025-03-08 13:58:14.760,-0.0011749872937432,-0.224087846219196,1.0
2025-03-08 13:58:14.779,-0.0012007202560776,-0.1540526727514021,1.0
2025-03-08 13:58:14.799,-0.0012172490888251,-0.072518426486465,1.0
2025-03-08 13:58:14.818,-0.0012206302603695,0.0109072946435772,1.0
2025-03-08 13:58:14.838,-0.0012074378559023,0.0884247742187395,1.0
2025-03-08 13:58:14.857,-0.0011753402145041,0.1560555376096967,1.0
2025-03-08 13:58:14.877,-0.0011234487941777,0.2145038043699207,1.0
2025-03-08 13:58:14.897,-0.0010524286684826,0.268632757451191,1.0
2025-03-08 13:58:14.916,-0.0009644475326896,0.3256994905336922,1.0
2025-03-08 13:58:14.936,-0.0008630396341373,0.392788949332909,1.0
2025-03-08 13:58:14.955,-0.0007528788267178,0.4740673965631227,1.0
2025-03-08 13:58:14.975,-0.0006393782398521,0.5685523649617416,1.0
2025-03-08 13:58:14.994,-0.0005280453677172,0.6690573959849878,1.0
2025-03-08 13:58:15.014,-0.0004236167643645,0.7627630978138303,1.0
2025-03-08 13:58:15.033,-0.0003291098060992,0.8334638961110999,1.0
2025-03-08 13:58:15.053,-0.0002450036368455,0.8650235610530674,1.0
2025-03-08 13:58:15.072,-0.0001687761549255,0.8451338689812492,1.0
2025-03-08 13:58:15.092,-9.497810845525131e-05,0.7683130994312706,1.0
2025-03-08 13:58:15.111,-1.5927369776493837e-05,0.6372942056503631,1.0
2025-03-08 13:58:15.131,7.702704847011747e-05,0.4624582284179286,1.0
2025-03-08 13:58:15.150,0.0001918639104887,0.2595740730570363,1.0
2025-03-08 13:58:15.170,0.00033417860756,0.0466022955754476,1.0
2025-03-08 13:58:15.189,0.0005057550890149,-0.1594533949702572,1.0
2025-03-08 13:58:15.209,0.0007037285894591,-0.3447886413085102,1.0
2025-03-08 13:58:15.229,0.0009205286782659,-0.4997112173149659,1.0
2025-03-08 13:58:15.248,0.0011446506748214,-0.6183591880646382,1.0
2025-03-08 13:58:15.268,0.0013621668432015,-0.6977874398914271,1.0
2025-03-08 13:58:15.287,0.0015587491925171,-0.7370984018786159,1.0
2025-03-08 13:58:15.307,0.0017218391032256,-0.7370810688896018,1.0
2025-03-08 13:58:15.326,0.0018425137572949,-0.7004368350375673,1.0
2025-03-08 13:58:15.346,0.0019166252651909,-0.632312361140603,1.0
2025-03-08 13:58:15.365,0.0019449590982209,-0.5406701558783519,1.0
2025-03-08 13:58:15.385,0.0019324508034107,-0.4360525839183906,1.0
2025-03-08 13:58:15.404,0.0018868010232925,-0.3305123828687179,1.0
2025-03-08 13:58:15.424,0.0018169709611615,-0.2358226381838719,1.0
2025-03-08 13:58:15.443,0.0017319412563074,-0.1614147424121945,1.0
2025-03-08 13:58:15.463,0.0016398747783229,-0.1126633056796855,1.0
2025-03-08 13:58:15.482,0.0015476182000398,-0.0900402280690746,1.0
2025-03-08 13:58:15.502,0.0014603984518685,-0.0893434951776392,1.0
2025-03-08 13:58:15.522,0.0013815916205948,-0.1028512487646267,1.0
2025-03-08 13:58:15.541,0.0013125124480162,-0.1210440221464597,1.0
2025-03-08 13:58:15.561,0.0012522584580244,-0.134529024671108,1.0
2025-03-08 13:58:15.580,0.0011977114073318,-0.1358876786194035,1.0
2025-03-08 13:58:15.600,0.0011438223481816,-0.1212137172976614,1.0
2025-03-08 13:58:15.619,0.001084267438365,-0.0910762046899227,1.0
2025-03-08 13:58:15.639,0.0010124536769853,-0.0506148717416569,1.0
2025-03-08 13:58:15.658,0.0009227072931623,-0.0085711560903176,1.0
2025-03-08 13:58:15.678,0.0008113648585194,0.0246846102290726,1.0
2025-03-08 13:58:15.697,0.0006774788332714,0.0397348431377429,1.0
2025-03-08 13:58:15.717,0.0005229657413717,0.030651192909078,1.0
2025-03-08 13:58:15.736,0.00035221704607,-0.0032270814446271,1.0
2025-03-08 13:58:15.756,0.0001713589034106,-0.0568106137275764,1.0
2025-03-08 13:58:15.775,-1.2603588698687828e-05,-0.1202523289162467,1.0
2025-03-08 13:58:15.795,-0.0001926018070915,-0.1811563669731643,1.0
2025-03-08 13:58:15.815,-0.0003622478267292,-0.2273699875405746,1.0
2025-03-08 13:58:15.834,-0.000516526602365,-0.2495600462778894,1.0
2025-03-08 13:58:15.854,-0.0006523884910783,-0.2429035805717106,1.0
2025-03-08 13:58:15.873,-0.000769104149026,-0.207586333608249,1.0
2025-03-08 13:58:15.893,-0.0008682605435595,-0.1482249608556634,1.0
2025-03-08 13:58:15.912,-0.000953414168241,-0.0726187334978023,1.0
2025-03-08 13:58:15.932,-0.0010295545944194,0.0096971312311787,1.0
2025-03-08 13:58:15.951,-0.0011025478259497,0.0887492125474269,1.0
2025-03-08 13:58:15.971,-0.0011786229256447,0.1551360599821,1.0
2025-03-08 13:58:15.990,-0.0012638349654369,0.2007963906924715,1.0
2025-03-08 13:58:16.010,-0.0013633754397333,0.219674786838213,1.0
2025-03-08 13:58:16.029,-0.0014806382542812,0.2084052322026488,1.0
2025-03-08 13:58:16.049,-0.0016160715165255,0.1670143246566853,1.0
2025-03-08 13:58:16.068,-0.0017660118211359,0.0994829055749415,1.0
2025-03-08 13:58:16.088,-0.0019218443200341,0.0138853190928069,1.0
2025-03-08 13:58:16.107,-0.0020698945130364,-0.0781677483092805,1.0
2025-03-08 13:58:16.127,-0.0021923895298789,-0.1628950376568945,1.0
2025-03-08 13:58:16.147,-0.002269608390003,-0.2263626636142102,1.0
2025-03-08 13:58:16.166,-0.0022830126021625,-0.2567325947629634,1.0
2025-03-08 13:58:16.186,-0.0022188167250028,-0.2461842421129607,1.0
2025-03-08 13:58:16.205,-0.0020712389665439,-0.1920269061607456,1.0
2025-03-08 13:58:16.225,-0.0018446284118171,-0.0967919806435026,1.0
2025-03-08 13:58:16.244,-0.0015538048806098,0.0325597764428013,1.0
2025-03-08 13:58:16.264,-0.0012222593849816,0.1859250943580783,1.0
2025-03-08 13:58:16.283,-0.0008783342238925,0.3513930532478094,1.0
2025-03-08 13:58:16.303,-0.0005500630473856,0.516318028005252,1.0
2025-03-08 13:58:16.322,-0.0002598307860749,0.6680539276168297,1.0
2025-03-08 13:58:16.342,-2.0195043552832465e-05,0.7944958107997385,1.0
2025-03-08 13:58:16.361,0.000168028405668,0.884699060856548,1.0
2025-03-08 13:58:16.381,0.0003149198159958,0.9298039068840876,1.0
2025-03-08 13:58:16.400,0.0004381240993704,0.9242749958651396,1.0
2025-03-08 13:58:16.420,0.0005579722009312,0.8671722355363363,1.0
2025-03-08 13:58:16.440,0.0006923181241672,0.7629782449946962,1.0
2025-03-08 13:58:16.459,0.0008522702478768,0.6215509405338184,1.0
2025-03-08 13:58:16.479,0.0010396287943431,0.4570317814599221,1.0
2025-03-08 13:58:16.498,0.0012463953325483,0.2858784003481388,1.0
2025-03-08 13:58:16.518,0.0014563216242055,0.1244406973137941,1.0
2025-03-08 13:58:16.537,0.0016481331831932,-0.0134245571885629,1.0
2025-03-08 13:58:16.557,0.0017997827192344,-0.1182785903901569,1.0
2025-03-08 13:58:16.576,0.0018928726960851,-0.1862706178879932,1.0
2025-03-08 13:58:16.596,0.0019162929939135,-0.2193690770452446,1.0
2025-03-08 13:58:16.615,0.0018682413573691,-0.2245758185000611,1.0
2025-03-08 13:58:16.635,0.0017561841978539,-0.2122066511399848,1.0
2025-03-08 13:58:16.654,0.0015948841150746,-0.193550539850632,1.0
2025-03-08 13:58:16.674,0.0014031412925792,-0.1784317273979151,1.0
2025-03-08 13:58:16.693,0.0012001562468218,-0.1732755890992467,1.0
2025-03-08 13:58:16.713,0.0010023643952955,-0.1801585320930292,1.0
2025-03-08 13:58:16.733,0.0008213165338939,-0.1970328937694612,1.0
2025-03-08 13:58:16.752,0.0006628328820309,-0.2189578934553163,1.0
2025-03-08 13:58:16.772,0.0005273519721731,-0.2398742950992919,1.0
2025-03-08 13:58:16.791,0.0004111859605683,-0.2543606543466645,1.0
2025-03-08 13:58:16.811,0.0003082988953025,-0.2589425643676117,1.0
2025-03-08 13:58:16.830,0.0002122165370853,-0.2527924292939403,1.0
2025-03-08 13:58:16.850,0.0001177035887248,-0.2378698164550653,1.0
2025-03-08 13:58:16.869,2.1896024062735723e-05,-0.2185924784397788,1.0
2025-03-08 13:58:16.889,-7.530585494001983e-05,-0.2010506275745414,1.0
2025-03-08 13:58:16.908,-0.0001715801119911,-0.1917486407887043,1.0
2025-03-08 13:58:16.928,-0.0002630511024848,-0.1959857416799811,1.0
2025-03-08 13:58:16.947,-0.0003453618880257,-0.2162137800845558,1.0
2025-03-08 13:58:16.967,-0.0004146641603984,-0.2508734209681612,1.0
2025-03-08 13:58:16.986,-0.0004683651670484,-0.2941769951568013,1.0
2025-03-08 13:58:17.006,-0.0005055877689936,-0.3370565965275852,1.0
2025-03-08 13:58:17.025,-0.0005273483763565,-0.3691191039227002,1.0
2025-03-08 13:58:17.045,-0.0005364634107939,-0.3810974349251482,1.0
2025-03-08 13:58:17.065,-0.0005371998477375,-0.3671055813544288,1.0
2025-03-08 13:58:17.084,-0.000534687626635,-0.326065235793237,1.0
2025-03-08 13:58:17.104,-0.0005341085893593,-0.2619433831192084,1.0
2025-03-08 13:58:17.123,-0.0005397071864204,-0.182816694011224,1.0
2025-03-08 13:58:17.143,-0.000553757534373,-0.0991231683184511,1.0
2025-03-08 13:58:17.162,-0.0005757255381329,-0.0216504464955105,1.0
2025-03-08 13:58:17.182,-0.0006019130760299,0.0402180092715638,1.0
2025-03-08 13:58:17.201,-0.0006258218857447,0.0796842519294907,1.0
2025-03-08 13:58:17.221,-0.000639315651721,0.0930919352948573,1.0
2025-03-08 13:58:17.240,-0.000634417741152,0.0799866634486939,1.0
2025-03-08 13:58:17.260,-0.0006053493728115,0.0428443843070783,1.0
2025-03-08 13:58:17.279,-0.0005502941194674,-0.0134494006776506,1.0
2025-03-08 13:58:17.299,-0.0004724039639302,-0.0823750401889701,1.0
2025-03-08 13:58:17.318,-0.0003796994587912,-0.1568037131878012,1.0
2025-03-08 13:58:17.338,-0.0002837312864031,-0.2301363072265168,1.0
2025-03-08 13:58:17.358,-0.0001971774967576,-0.2972529780040591,1.0
2025-03-08 13:58:17.377,-0.0001309236606694,-0.3548987276590366,1.0
2025-03-08 13:58:17.397,-9.145843605281868e-05,-0.4012557096738293,1.0
2025-03-08 13:58:17.416,-7.940401286711453e-05,-0.434776963273857,1.0
2025-03-08 13:58:17.436,-8.961422076677021e-05,-0.4527521065610483,1.0
2025-03-08 13:58:17.455,-0.000112688291395,-0.4503282241141642,1.0
2025-03-08 13:58:17.475,-0.0001372868439499,-0.4206363134708387,1.0
2025-03-08 13:58:17.494,-0.0001525169904482,-0.3562561543026298,1.0
2025-03-08 13:58:17.514,-0.0001498396530083,-0.2516681238555364,1.0
2025-03-08 13:58:17.533,-0.0001242430505351,-0.1058653950592144,1.0
2025-03-08 13:58:17.553,-7.465935760530228e-05,0.0758464803755342,1.0
2025-03-08 13:58:17.572,-3.742329855203311e-06,0.2815949374467151,1.0
2025-03-08 13:58:17.592,8.280826079501241e-05,0.4944442032896725,1.0
2025-03-08 13:58:17.611,0.0001771940320596,0.6952834400912554,1.0
2025-03-08 13:58:17.631,0.0002706169297055,0.8662859685784359,1.0
2025-03-08 13:58:17.650,0.0003544594907241,0.993980822791566,1.0
2025-03-08 13:58:17.670,0.0004214603015478,1.07115652326848,1.0
2025-03-08 13:58:17.690,0.000466736537059,1.0972319879110226,1.0
2025-03-08 13:58:17.709,0.0004884559463763,1.077208152323898,1.0
2025-03-08 13:58:17.729,0.0004879684881732,1.0196719161538434,1.0
2025-03-08 13:58:17.748,0.0004693035610857,0.934456122718062,1.0
2025-03-08 13:58:17.768,0.0004381223003856,0.8304864988146494,1.0
2025-03-08 13:58:17.787,0.000400412978568,0.7141822696362187,1.0
2025-03-08 13:58:17.807,0.0003613097957939,0.5886339142023598,1.0
2025-03-08 13:58:17.826,0.0003243342562439,0.4536869480380057,1.0
2025-03-08 13:58:17.846,0.0002911619813366,0.3069550234710297,1.0
2025-03-08 13:58:17.865,0.0002618344324812,0.1456070969192018,1.0
2025-03-08 13:58:17.885,0.0002352445341511,-0.0314548983881761,1.0
2025-03-08 13:58:17.904,0.0002097201156675,-0.2215862474905598,1.0
2025-03-08 13:58:17.924,0.0001835676796134,-0.4171405637539939,1.0
2025-03-08 13:58:17.943,0.0001554910767404,-0.6053982832739631,1.0
2025-03-08 13:58:17.963,0.0001248492517667,-0.7698477362296566,1.0
2025-03-08 13:58:17.983,9.175513411868532e-05,-0.892658197791385,1.0
2025-03-08 13:58:18.002,5.70401753940421e-05,-0.9578759278111398,1.0
2025-03-08 13:58:18.022,2.211731101186563e-05,-0.9546555604941784,1.0
2025-03-08 13:58:18.041,-1.1225826536149148e-05,-0.8797746841764799,1.0
2025-03-08 13:58:18.061,-4.1075563439221903e-05,-0.7388069557931226,1.0
2025-03-08 13:58:18.080,-6.56566577436167e-05,-0.5456388413894939,1.0
2025-03-08 13:58:18.100,-8.358415791793797e-05,-0.320431156742009,1.0
2025-03-08 13:58:18.119,-9.406952696277064e-05,-0.0865147186503214,1.0
2025-03-08 13:58:18.139,-9.704654415924686e-05,0.1330667107593276,1.0
2025-03-08 13:58:18.158,-9.31923108832964e-05,0.3186557242631871,1.0
2025-03-08 13:58:18.178,-8.384455026074041e-05,0.4562006135879495,1.0
2025-03-08 13:58:18.197,-7.084685750302907e-05,0.5383447136542353,1.0
2025-03-08 13:58:18.217,-5.635667483556915e-05,0.5643988140583723,1.0
2025-03-08 13:58:18.236,-4.26136928474547e-05,0.5394168330656212,1.0
2025-03-08 13:58:18.256,-3.164201714235976e-05,0.4727331104882807,1.0
2025-03-08 13:58:18.276,-2.4917270456353533e-05,0.3763724454895905,1.0
2025-03-08 13:58:18.295,-2.3141575684791508e-05,0.263679707255726,1.0
2025-03-08 13:58:18.315,-2.6306431103764512e-05,0.1483304004402238,1.0
2025-03-08 13:58:18.334,-3.409763583416835e-05,0.0436453276696045,1.0
2025-03-08 13:58:18.354,-4.646771677110125e-05,-0.0380439594962385,1.0
2025-03-08 13:58:18.373,-6.403900749964214e-05,-0.0862614620909181,1.0
2025-03-08 13:58:18.393,-8.804680810647131e-05,-0.0936367410388892,1.0
2025-03-08 13:58:18.412,-0.0001197734032538,-0.0574497087091284,1.0
2025-03-08 13:58:18.432,-0.0001596904086397,0.0188836578855312,1.0
2025-03-08 13:58:18.451,-0.000206654396467,0.1249236420942494,1.0
2025-03-08 13:58:18.471,-0.0002574726107769,0.2434705177607897,1.0
2025-03-08 13:58:18.490,-0.0003070496026044,0.3523407195501228,1.0
2025-03-08 13:58:18.510,-0.0003491795932335,0.4276518614942329,1.0
2025-03-08 13:58:18.529,-0.0003778587270633,0.4481617484567266,1.0
2025-03-08 13:58:18.549,-0.0003887907074193,0.3997878077646233,1.0
2025-03-08 13:58:18.568,-0.0003806283788074,0.2791930048542773,1.0
2025-03-08 13:58:18.588,-0.0003555070801583,0.0953963606982709,1.0
2025-03-08 13:58:18.608,-0.0003186165877379,-0.131208836848523,1.0
2025-03-08 13:58:18.627,-0.0002768840139534,-0.3723778582628623,1.0
2025-03-08 13:58:18.647,-0.0002371666287933,-0.5973370400354263,1.0
2025-03-08 13:58:18.666,-0.0002045238606575,-0.7786772446975064,1.0
2025-03-08 13:58:18.686,-0.0001810794614703,-0.8974441256384534,1.0
2025-03-08 13:58:18.705,-0.0001657536071525,-0.9462751880396344,1.0
2025-03-08 13:58:18.725,-0.0001548615370721,-0.9299525133961296,1.0
2025-03-08 13:58:18.744,-0.0001433396690806,-0.8633963418937631,1.0
2025-03-08 13:58:18.764,-0.0001262207537593,-0.767722515877896,1.0
2025-03-08 13:58:18.783,-9.995080844806704e-05,-0.6653651348176456,1.0
2025-03-08 13:58:18.803,-6.321845786807015e-05,-0.5753616299204869,1.0
2025-03-08 13:58:18.822,-1.7133230369480135e-05,-0.5097486960680582,1.0
2025-03-08 13:58:18.842,3.5201140367868334e-05,-0.4717106580650753,1.0
2025-03-08 13:58:18.861,8.950026938958725e-05,-0.4557358262126529,1.0
2025-03-08 13:58:18.881,0.000141226213345,-0.449625389028021,1.0
2025-03-08 13:58:18.901,0.0001864147345184,-0.4378172481025505,1.0
2025-03-08 13:58:18.920,0.0002222799028546,-0.4052139206675499,1.0
2025-03-08 13:58:18.940,0.0002475342750319,-0.3406284524640592,1.0
2025-03-08 13:58:18.959,0.0002624111802893,-0.2391265050267222,1.0
2025-03-08 13:58:18.979,0.0002684346659498,-0.1028959090262301,1.0
2025-03-08 13:58:18.998,0.0002680328331331,0.0593129322238645,1.0
2025-03-08 13:58:19.018,0.000264103981763,0.2338104033256106,1.0
2025-03-08 13:58:19.037,0.0002596208697076,0.4041540694101241,1.0
2025-03-08 13:58:19.057,0.0002573142892525,0.5534468316821287,1.0
2025-03-08 13:58:19.076,0.0002594337589189,0.6664428684436363,1.0
2025-03-08 13:58:19.096,0.0002675562893523,0.7313005906831141,1.0
2025-03-08 13:58:19.115,0.0002824117751973,0.7409077648040429,1.0
2025-03-08 13:58:19.135,0.000303714361311,0.6937309332445629,1.0
2025-03-08 13:58:19.154,0.000330023822581,0.5941289912613665,1.0
2025-03-08 13:58:19.174,0.0003586950234378,0.4520518171826492,1.0
2025-03-08 13:58:19.194,0.0003859911704928,0.2820704143825845,1.0
2025-03-08 13:58:19.213,0.0004074255736849,0.1017978898027382,1.0
2025-03-08 13:58:19.233,0.0004183524059365,-0.0700630313485831,1.0
2025-03-08 13:58:19.252,0.0004147555322102,-0.2156792054186445,1.0
2025-03-08 13:58:19.272,0.0003941032931838,-0.3197183212200465,1.0
2025-03-08 13:58:19.291,0.0003560730181872,-0.3705224916479868,1.0
2025-03-08 13:58:19.311,0.0003029333538945,-0.3609406124484904,1.0
2025-03-08 13:58:19.330,0.0002394308970046,-0.2890465970641305,1.0
2025-03-08 13:58:19.350,0.0001721581354634,-0.1588587064244863,1.0
2025-03-08 13:58:19.369,0.0001085296538403,0.0190980727039075,1.0
2025-03-08 13:58:19.389,5.558047161261695e-05,0.2278088489049798,1.0
2025-03-08 13:58:19.408,1.8787273089769485e-05,0.4448561488014867,1.0
2025-03-08 13:58:19.428,1.0526035416751318e-06,0.6448465920772803,1.0
2025-03-08 13:58:19.447,1.9704121390478623e-06,0.8029938758538557,1.0
2025-03-08 13:58:19.467,1.753473126672613e-05,0.8991892581370158,1.0
2025-03-08 13:58:19.486,4.049021489642818e-05,0.9215883054458394,1.0
2025-03-08 13:58:19.506,6.144078572401971e-05,0.8687537004773951,1.0
2025-03-08 13:58:19.526,7.059684400670926e-05,0.7497251710315177,1.0
2025-03-08 13:58:19.545,5.977044982068457e-05,0.5819407922089229,1.0
2025-03-08 13:58:19.565,2.4104717846805468e-05,0.3875372588516692,1.0
2025-03-08 13:58:19.584,-3.688222483237951e-05,0.1890103717639648,1.0
2025-03-08 13:58:19.604,-0.0001191443637034,0.0053624641863632,1.0
2025-03-08 13:58:19.623,-0.0002148452823939,-0.1503484952091539,1.0
2025-03-08 13:58:19.643,-0.0003138213726719,-0.2716288841636473,1.0
2025-03-08 13:58:19.662,-0.0004054696116686,-0.3574861371235478,1.0
2025-03-08 13:58:19.682,-0.0004806669752815,-0.4102948508072196,1.0
2025-03-08 13:58:19.701,-0.0005333152813904,-0.4334171451129363,1.0
2025-03-08 13:58:19.721,-0.0005611811001977,-0.4293325935137415,1.0
2025-03-08 13:58:19.740,-0.0005658621750834,-0.398758916289029,1.0
2025-03-08 13:58:19.760,-0.0005519372785984,-0.3408975024836715,1.0
2025-03-08 13:58:19.779,-0.0005255776312121,-0.254634143643363,1.0
2025-03-08 13:58:19.799,-0.0004930280748059,-0.1403139081374744,1.0
2025-03-08 13:58:19.819,-0.0004593586143625,-0.0015756706537746,1.0
2025-03-08 13:58:19.838,-0.0004277544207196,0.1533351248644296,1.0
2025-03-08 13:58:19.858,-0.0003994133136964,0.3113124194767191,1.0
2025-03-08 13:58:19.877,-0.0003739377809914,0.455511483011549,1.0
2025-03-08 13:58:19.897,-0.0003500039786983,0.5677836614123491,1.0
2025-03-08 13:58:19.916,-0.0003260574780862,0.631945844109699,1.0
2025-03-08 13:58:19.936,-0.0003008012448188,0.6371160708890758,1.0
2025-03-08 13:58:19.955,-0.0002733333976875,0.5802722511195622,1.0
2025-03-08 13:58:19.975,-0.0002429813461857,0.4673372305050233,1.0
2025-03-08 13:58:19.994,-0.0002090690407974,0.312418978140724,1.0
2025-03-08 13:58:20.014,-0.0001708858273708,0.1352765127965712,1.0
2025-03-08 13:58:20.033,-0.0001279580915798,-0.0424541118549305,1.0
2025-03-08 13:58:20.053,-8.04957495326561e-05,-0.2013824117648463,1.0
2025-03-08 13:58:20.072,-2.9762688276253405e-05,-0.327818754555258,1.0
2025-03-08 13:58:20.092,2.184850686244734e-05,-0.4157160350093094,1.0
2025-03-08 13:58:20.111,7.113131957130081e-05,-0.4666726566831874,1.0
2025-03-08 13:58:20.131,0.0001147161844032,-0.4881106661368498,1.0
2025-03-08 13:58:20.151,0.0001498808140437,-0.4902310832806612,1.0
2025-03-08 13:58:20.170,0.000175270705549,-0.4826467951688687,1.0
2025-03-08 13:58:20.190,0.0001912779150182,-0.471633477403178,1.0
2025-03-08 13:58:20.209,0.0001999048868564,-0.458730454756784,1.0
2025-03-08 13:58:20.229,0.000204097301555,-0.4410336855382129,1.0
2025-03-08 13:58:20.248,0.0002067319503214,-0.4130524031809549,1.0
2025-03-08 13:58:20.268,0.0002096116907528,-0.3695643727205226,1.0
2025-03-08 13:58:20.287,0.0002128492514126,-0.3086084301894982,1.0
2025-03-08 13:58:20.307,0.0002148765683716,-0.2336655298657844,1.0
2025-03-08 13:58:20.326,0.0002130676715541,-0.1542275846700742,1.0
2025-03-08 13:58:20.346,0.0002047395137342,-0.0843386694006612,1.0
2025-03-08 13:58:20.365,0.0001881939277802,-0.0392765438788721,1.0
2025-03-08 13:58:20.385,0.000163505865604,-0.0311901155647634,1.0
2025-03-08 13:58:20.404,0.0001328904640128,-0.0649866098045134,1.0
2025-03-08 13:58:20.424,0.000100599233001,-0.1358398275229967,1.0
2025-03-08 13:58:20.444,7.235489434940082e-05,-0.2292824871791816,1.0
2025-03-08 13:58:20.463,5.4375967585414366e-05,-0.3240735803150073,1.0
2025-03-08 13:58:20.483,5.212997174609432e-05,-0.3971672369071741,1.0
2025-03-08 13:58:20.502,6.907532818682919e-05,-0.4294507944653004,1.0
2025-03-08 13:58:20.522,0.0001057169846199,-0.4106787522167983,1.0
2025-03-08 13:58:20.541,0.0001592425151703,-0.3422658116528879,1.0
2025-03-08 13:58:20.561,0.0002238489669221,-0.2372149726443687,1.0
2025-03-08 13:58:20.580,0.0002916944839651,-0.117234679923444,1.0
2025-03-08 13:58:20.600,0.0003542711986616,-0.0078100024210844,1.0
2025-03-08 13:58:20.619,0.0004039149599904,0.0675389115085489,1.0
2025-03-08 13:58:20.639,0.0004351421851837,0.0924404393211616,1.0
2025-03-08 13:58:20.658,0.0004455329734877,0.0611293920589052,1.0
2025-03-08 13:58:20.678,0.0004359651208363,-0.0205035571016114,1.0
2025-03-08 13:58:20.697,0.0004101472795246,-0.1363186223452944,1.0
2025-03-08 13:58:20.717,0.000373582846297,-0.2632489627800995,1.0
2025-03-08 13:58:20.737,0.0003322593093193,-0.3756480847614435,1.0
2025-03-08 13:58:20.756,0.0002914200111617,-0.4497440997460977,1.0
2025-03-08 13:58:20.776,0.000254706334262,-0.4674886658575473,1.0
2025-03-08 13:58:20.795,0.0002238099726971,-0.4193465544461653,1.0
2025-03-08 13:58:20.815,0.0001986216823566,-0.3057475837633887,1.0
2025-03-08 13:58:20.834,0.0001777455769054,-0.1370211248055075,1.0
2025-03-08 13:58:20.854,0.0001591827188159,0.0682446249627698,1.0
2025-03-08 13:58:20.873,0.0001409776163793,0.286252830546051,1.0
2025-03-08 13:58:20.893,0.0001216566380094,0.4919902188441225,1.0
2025-03-08 13:58:20.912,0.0001003667637386,0.6634273525629544,1.0
2025-03-08 13:58:20.932,7.674803725987332e-05,0.7850932487952853,1.0
2025-03-08 13:58:20.951,5.069902504504384e-05,0.8503251090258006,1.0
2025-03-08 13:58:20.971,2.2233376646855346e-05,0.8618201315613127,1.0
2025-03-08 13:58:20.990,-8.466607355750018e-06,0.8305086956622909,1.0
2025-03-08 13:58:21.010,-4.08566920077839e-05,0.773099608291889,1.0
2025-03-08 13:58:21.029,-7.3874835976955e-05,0.7088488675061942,1.0
2025-03-08 13:58:21.049,-0.0001059965694674,0.656158083747718,1.0
2025-03-08 13:58:21.069,-0.0001355492572612,0.6295346832948312,1.0
2025-03-08 13:58:21.088,-0.0001611644478588,0.6372921558175788,1.0
2025-03-08 13:58:21.108,-0.000182153490264,0.6802069743676317,1.0
2025-03-08 13:58:21.127,-0.00019863588395,0.7512323471838279,1.0
2025-03-08 13:58:21.147,-0.0002113909614435,0.8362921766932666,1.0
2025-03-08 13:58:21.166,-0.000221542507745,0.9160934845936676,1.0
2025-03-08 13:58:21.186,-0.0002302481076344,0.96877188195042,1.0
2025-03-08 13:58:21.205,-0.0002385312513724,0.9730499456160956,1.0
2025-03-08 13:58:21.225,-0.0002472952025459,0.9115017717808088,1.0
2025-03-08 13:58:21.244,-0.000257458064618,0.7735057043893708,1.0
2025-03-08 13:58:21.264,-0.0002700997075912,0.5575029531915332,1.0
2025-03-08 13:58:21.283,-0.0002865073259852,0.2722230808172256,1.0
2025-03-08 13:58:21.303,-0.0003080257050763,-0.0634106475169485,1.0
2025-03-08 13:58:21.322,-0.0003356814729069,-0.421881212981692,1.0
2025-03-08 13:58:21.342,-0.000369667955356,-0.7701763320464345,1.0
2025-03-08 13:58:21.362,-0.000408880713008,-1.0740959580872955,1.0
2025-03-08 13:58:21.381,-0.0004506988354338,-1.303163722587135,1.0
2025-03-08 13:58:21.401,-0.0004911095553938,-1.435298076122968,1.0
2025-03-08 13:58:21.420,-0.0005251467690158,-1.4603454303888774,1.0
2025-03-08 13:58:21.440,-0.0005475323118103,-1.381745986182319,1.0
2025-03-08 13:58:21.459,-0.0005533903421497,-1.2159355932297693,1.0
2025-03-08 13:58:21.479,-0.0005389185270586,-0.9894959940132964,1.0
2025-03-08 13:58:21.498,-0.0005019150949729,-0.734496486386585,1.0
2025-03-08 13:58:21.518,-0.0004420796345831,-0.4828800954351337,1.0
2025-03-08 13:58:21.537,-0.0003610480295679,-0.2610456011762169,1.0
2025-03-08 13:58:21.557,-0.0002621952844579,-0.0858290511696874,1.0
2025-03-08 13:58:21.576,-0.0001503111926113,0.037192868379711,1.0
2025-03-08 13:58:21.596,-3.126476078168039e-05,0.1127294595494936,1.0
2025-03-08 13:58:21.615,8.829887517300438e-05,0.1524872159741351,1.0
2025-03-08 13:58:21.635,0.0002012948469538,0.170535357413044,1.0
2025-03-08 13:58:21.655,0.0003006977695196,0.1786354172033458,1.0
2025-03-08 13:58:21.674,0.0003802865280912,0.1828081703667545,1.0
2025-03-08 13:58:21.694,0.0004355659638972,0.1820152311109427,1.0
2025-03-08 13:58:21.713,0.000464633556232,0.169205817807422,1.0
2025-03-08 13:58:21.733,0.0004686995487783,0.1343123793192814,1.0
2025-03-08 13:58:21.752,0.0004520521537441,0.0682561518036019,1.0
2025-03-08 13:58:21.772,0.0004214265766858,-0.0332279756699158,1.0
2025-03-08 13:58:21.791,0.0003848982287456,-0.1670657347826845,1.0
2025-03-08 13:58:21.811,0.0003505240643261,-0.322358776371976,1.0
2025-03-08 13:58:21.830,0.0003249942264042,-0.4820956747549614,1.0
2025-03-08 13:58:21.850,0.0003125413908784,-0.6265795532348014,1.0
2025-03-08 13:58:21.869,0.0003142997759803,-0.7376063545534143,1.0
2025-03-08 13:58:21.889,0.0003282167201924,-0.8022363995721713,1.0
2025-03-08 13:58:21.908,0.000349502610675,-0.8151549117063243,1.0
2025-03-08 13:58:21.928,0.000371481473743,-0.7790572678356608,1.0
2025-03-08 13:58:21.947,0.0003866302754064,-0.7030798387175533,1.0
2025-03-08 13:58:21.967,0.000387624475065,-0.5998414564999369,1.0
2025-03-08 13:58:21.987,0.0003683080599717,-0.481999788333705,1.0
2025-03-08 13:58:22.006,0.00032455736299,-0.3592809182909019,1.0
2025-03-08 13:58:22.026,0.0002549487680088,-0.2367293238647579,1.0
2025-03-08 13:58:22.045,0.0001610673952399,-0.1145397214947161,1.0
2025-03-08 13:58:22.065,4.733644683938968e-05,0.0106132882389277,1.0
2025-03-08 13:58:22.084,-7.960461656067215e-05,0.1432300505076551,1.0
2025-03-08 13:58:22.104,-0.0002118164205146,0.2863677826859181,1.0
2025-03-08 13:58:22.123,-0.0003410874078892,0.4395477297165828,1.0
2025-03-08 13:58:22.143,-0.0004599339425541,0.5978136317708198,1.0
2025-03-08 13:58:22.162,-0.0005624788815497,0.7522078795506792,1.0
2025-03-08 13:58:22.182,-0.0006451266183422,0.8914842617521793,1.0
2025-03-08 13:58:22.201,-0.0007069322273682,1.004481480200223,1.0
2025-03-08 13:58:22.221,-0.0007495443609516,1.0823847625798215,1.0
2025-03-08 13:58:22.240,-0.0007766524434406,1.1201905125352358,1.0
2025-03-08 13:58:22.260,-0.0007930149593174,1.1170261494407512,1.0
2025-03-08 13:58:22.280,-0.0008033071968227,1.0754130292745718,1.0
2025-03-08 13:58:22.299,-0.0008110833259214,0.9999148380754254,1.0
2025-03-08 13:58:22.319,-0.0008180705764737,0.8957685951830383,1.0
2025-03-08 13:58:22.338,-0.0008238896400576,0.7680186150681615,1.0
2025-03-08 13:58:22.358,-0.0008262164316909,0.621408004994344,1.0
2025-03-08 13:58:22.377,-0.0008213592789173,0.4609333596914562,1.0
2025-03-08 13:58:22.397,-0.0008051538709464,0.2926754738737622,1.0
2025-03-08 13:58:22.416,-0.0007739658655384,0.1243933377847923,1.0
2025-03-08 13:58:22.436,-0.0007255233703271,-0.0345531237068873,1.0
2025-03-08 13:58:22.455,-0.0006593618898936,-0.1741395949142589,1.0
2025-03-08 13:58:22.475,-0.000576831976042,-0.2853267378069308,1.0
2025-03-08 13:58:22.494,-0.000480786985986,-0.3619597852195635,1.0
2025-03-08 13:58:22.514,-0.0003751340565198,-0.402274266246587,1.0
2025-03-08 13:58:22.533,-0.0002643707311517,-0.4094102747139138,1.0
2025-03-08 13:58:22.553,-0.0001531157330615,-0.3906321543772385,1.0
2025-03-08 13:58:22.572,-4.559688392751482e-05,-0.3554040647106944,1.0
2025-03-08 13:58:22.592,5.4871129188602216e-05,-0.3129087570334709,1.0
2025-03-08 13:58:22.612,0.0001462883953065,-0.2698346171687663,1.0
2025-03-08 13:58:22.631,0.0002281137347608,-0.2291919691146901,1.0
2025-03-08 13:58:22.651,0.0003011214497728,-0.1905676045507129,1.0
2025-03-08 13:58:22.670,0.0003670751329428,-0.1517015548017335,1.0
2025-03-08 13:58:22.690,0.0004283750538737,-0.1107543467208217,1.0
2025-03-08 13:58:22.709,0.0004877700524596,-0.0683286356145905,1.0
2025-03-08 13:58:22.729,0.0005481048459355,-0.028363474650178,1.0
2025-03-08 13:58:22.748,0.0006120105062816,0.0025564217921955,1.0
2025-03-08 13:58:22.768,0.0006814977631212,0.0172948259212378,1.0
2025-03-08 13:58:22.787,0.0007575295129767,0.0108883013655374,1.0
2025-03-08 13:58:22.807,0.0008397247186154,-0.0171658819963593,1.0
2025-03-08 13:58:22.826,0.0009263185392682,-0.0619934528804877,1.0
2025-03-08 13:58:22.846,0.0010144023557519,-0.1142245178283068,1.0
2025-03-08 13:58:22.865,0.0011003745457377,-0.1624142628967199,1.0
2025-03-08 13:58:22.885,0.0011804948067864,-0.1961719779088466,1.0
2025-03-08 13:58:22.905,0.0012514265660604,-0.2089504956950707,1.0
2025-03-08 13:58:22.924,0.0013106440433886,-0.1996564641068595,1.0
2025-03-08 13:58:22.944,0.0013565971666723,-0.172736532657536,1.0
2025-03-08 13:58:22.963,0.0013886052131906,-0.1369236786151423,1.0
2025-03-08 13:58:22.983,0.0014065747105093,-0.1031730123683331,1.0
2025-03-08 13:58:23.002,0.0014107394940732,-0.0823909887721939,1.0
2025-03-08 13:58:23.022,0.0014016146868547,-0.0834209252601637,1.0
2025-03-08 13:58:23.041,0.001380212212873,-0.1115249560914748,1.0
2025-03-08 13:58:23.061,0.0013483641632275,-0.1674229133241408,1.0
2025-03-08 13:58:23.080,0.0013088766815281,-0.2468665322366195,1.0
2025-03-08 13:58:23.100,0.0012652777681199,-0.3407245630417118,1.0
2025-03-08 13:58:23.119,0.001221124296064,-0.4355814426026423,1.0
2025-03-08 13:58:23.139,0.0011790911856068,-0.514867557894982,1.0
2025-03-08 13:58:23.158,0.0011402062243751,-0.5605224652093161,1.0
2025-03-08 13:58:23.178,0.0011035193104595,-0.5551394412014434,1.0
2025-03-08 13:58:23.198,0.001066286274356,-0.4844516248868222,1.0
2025-03-08 13:58:23.217,0.0010245677922509,-0.3399048926047023,1.0
2025-03-08 13:58:23.237,0.0009740649510904,-0.120949325551748,1.0
2025-03-08 13:58:23.256,0.0009109898852838,0.1633847288712664,1.0
2025-03-08 13:58:23.276,0.0008327560945978,0.4940439315339858,1.0
2025-03-08 13:58:23.295,0.0007382979061724,0.8429535417964783,1.0
2025-03-08 13:58:23.315,0.0006279435496872,1.1755805034463365,1.0
2025-03-08 13:58:23.334,0.0005029479737535,1.4549062419915086,1.0
2025-03-08 13:58:23.354,0.0003649322366435,1.6463512809471124,1.0
2025-03-08 13:58:23.373,0.0002154775642876,1.7229216355904315,1.0
2025-03-08 13:58:23.393,5.598931269011139e-05,1.6696828331016114,1.0
2025-03-08 13:58:23.412,-0.0001122143367633,1.4866608924301246,1.0
2025-03-08 13:58:23.432,-0.0002877135101248,1.189455341134008,1.0
2025-03-08 13:58:23.451,-0.0004688058347825,0.8072497236575643,1.0
2025-03-08 13:58:23.471,-0.0006533998680542,0.3784789069450407,1.0
2025-03-08 13:58:23.490,-0.000839035508489,-0.0549968440647304,1.0
2025-03-08 13:58:23.510,-0.0010230756881597,-0.4539823100279027,1.0
2025-03-08 13:58:23.530,-0.0012030621612931,-0.7870698706246366,1.0
2025-03-08 13:58:23.549,-0.0013771432270312,-1.0339191136860857,1.0
2025-03-08 13:58:23.569,-0.0015444205901554,-1.1863646956747709,1.0
2025-03-08 13:58:23.588,-0.0017050616685048,-1.247546259520376,1.0
2025-03-08 13:58:23.608,-0.0018600737435573,-1.2296060334558347,1.0
2025-03-08 13:58:23.627,-0.0020107192202277,-1.1506347140650195,1.0
2025-03-08 13:58:23.647,-0.0021576527133406,-1.0314997299574291,1.0
2025-03-08 13:58:23.666,-0.0022999544697713,-0.8930312374657535,1.0
2025-03-08 13:58:23.686,-0.0024342943305159,-0.7538295137549258,1.0
2025-03-08 13:58:23.705,-0.0025544860559366,-0.6287394810303426,1.0
2025-03-08 13:58:23.725,-0.0026516872915391,-0.5278758669097685,1.0
2025-03-08 13:58:23.744,-0.0027154351837336,-0.4560450450065851,1.0
2025-03-08 13:58:23.764,-0.0027355438385494,-0.4125106756460057,1.0
2025-03-08 13:58:23.783,-0.0027046435049272,-0.3912095973183772,1.0
2025-03-08 13:58:23.803,-0.0026208930082629,-0.3816147314371845,1.0
2025-03-08 13:58:23.823,-0.0024902417628889,-0.3703777229173179,1.0
2025-03-08 13:58:23.842,-0.0023275987864395,-0.3436719825563332,1.0
2025-03-08 13:58:23.862,-0.0021563545011985,-0.289884646343116,1.0
2025-03-08 13:58:23.881,-0.0020058678417662,-0.2021018669471228,1.0
2025-03-08 13:58:23.901,-0.0019068261378657,-0.0798066090512562,1.0
2025-03-08 13:58:23.920,-0.0018848740887147,0.0706103104640867,1.0
2025-03-08 13:58:23.940,-0.0019535207924629,0.2366187210643948,1.0
2025-03-08 13:58:23.959,-0.0021078431679554,0.4013967783257133,1.0
2025-03-08 13:58:23.979,-0.0023206779447402,0.5463781956514608,1.0
2025-03-08 13:58:23.998,-0.0025427363693641,0.6540664201097068,1.0
2025-03-08 13:58:24.018,-0.0027074374989285,0.7107054520742154,1.0
2025-03-08 13:58:24.037,-0.0027403675538398,0.7084417057497683,1.0
2025-03-08 13:58:24.057,-0.002572271475049,0.6466635702237076,1.0
2025-03-08 13:58:24.076,-0.0021534938408857,0.5322823726497843,1.0
2025-03-08 13:58:24.096,-0.0014669773923516,0.3788445779277527,1.0
2025-03-08 13:58:24.116,-0.000536576047026,0.2045557576922039,1.0
2025-03-08 13:58:24.135,0.000572108827654,0.0295388664814673,1.0
2025-03-08 13:58:24.155,0.0017596991035634,-0.1271280792368054,1.0
2025-03-08 13:58:24.174,0.0029088732834459,-0.2499666543773439,1.0
2025-03-08 13:58:24.194,0.0039047232503383,-0.328762060955632,1.0
2025-03-08 13:58:24.213,0.0046547509332907,-0.359188539634787,1.0
2025-03-08 13:58:24.233,0.0051036802987326,-0.342600221304154,1.0
2025-03-08 13:58:24.252,0.0052399502647842,-0.2853714707732956,1.0
2025-03-08 13:58:24.272,0.0050932940277827,-0.1981083073572613,1.0
2025-03-08 13:58:24.291,0.004725107639214,-0.0948270544720834,1.0
2025-03-08 13:58:24.311,0.0042146440255358,0.0080407950895686,1.0
2025-03-08 13:58:24.330,0.003644345633622,0.0930799118268686,1.0
2025-03-08 13:58:24.350,0.003087127918532,0.1439659145708293,1.0
2025-03-08 13:58:24.369,0.0025974710846596,0.1481614390761464,1.0
2025-03-08 13:58:24.389,0.00220706037046,0.0998655993645841,1.0
2025-03-08 13:58:24.408,0.0019247218719854,0.00250639030111,1.0
2025-03-08 13:58:24.428,0.0017397495576471,-0.1301077231107504,1.0
2025-03-08 13:58:24.448,0.0016274651116984,-0.2747247570752176,1.0
2025-03-08 13:58:24.467,0.0015558802252005,-0.4019564329066381,1.0
2025-03-08 13:58:24.487,0.0014924458395909,-0.4815679782265198,1.0
2025-03-08 13:58:24.506,0.0014099539010536,-0.4887067914418452,1.0
2025-03-08 13:58:24.526,0.001290760255839,-0.4096092096256377,1.0
2025-03-08 13:58:24.545,0.0011287558271683,-0.2453095091843404,1.0
2025-03-08 13:58:24.565,0.0009289414353065,-0.012298943576621,1.0
2025-03-08 13:58:24.584,0.0007049347227233,0.2601697409689796,1.0
2025-03-08 13:58:24.604,0.0004751246584794,0.5355852428606162,1.0
2025-03-08 13:58:24.623,0.0002584031351389,0.7772259520096564,1.0
2025-03-08 13:58:24.643,7.038436672503636e-05,0.9551072129603508,1.0
2025-03-08 13:58:24.662,-7.921806114637668e-05,1.0512312584965051,1.0
2025-03-08 13:58:24.682,-0.0001877435947546,1.0620081653334452,1.0
2025-03-08 13:58:24.701,-0.000259295273331,0.997459177972793,1.0
2025-03-08 13:58:24.721,-0.0003032807740497,0.8776284617188312,1.0
2025-03-08 13:58:24.741,-0.0003321884051615,0.7272968941842136,1.0
2025-03-08 13:58:24.760,-0.0003590545175826,0.5704339560116508,1.0
2025-03-08 13:58:24.780,-0.000395074601881,0.4257544508332027,1.0
2025-03-08 13:58:24.799,-0.0004477443176378,0.3043006164644883,1.0
2025-03-08 13:58:24.819,-0.0005197900107125,0.209295705896185,1.0
2025-03-08 13:58:24.838,-0.0006089967547243,0.137834199128125,1.0
2025-03-08 13:58:24.858,-0.0007089042789066,0.0835176050958364,1.0
2025-03-08 13:58:24.877,-0.0008102208410747,0.0390636443657929,1.0
2025-03-08 13:58:24.897,-0.0009026951484904,-0.0018053942787419,1.0
2025-03-08 13:58:24.916,-0.0009771074929417,-0.0434371320056067,1.0
2025-03-08 13:58:24.936,-0.0010270193447961,-0.0881414153713344,1.0
2025-03-08 13:58:24.955,-0.0010499581946645,-0.1365776163268713,1.0
2025-03-08 13:58:24.975,-0.001047808167818,-0.1883302577560808,1.0
2025-03-08 13:58:24.994,-0.00102632504687,-0.24246065207838,1.0
2025-03-08 13:58:25.014,-0.0009938749181788,-0.2978958605046258,1.0
2025-03-08 13:58:25.033,-0.0009596641539609,-0.3535626683637236,1.0
2025-03-08 13:58:25.053,-0.0009318389427445,-0.4082488569706949,1.0
2025-03-08 13:58:25.073,-0.0009158602698424,-0.4603028627083927,1.0
2025-03-08 13:58:25.092,-0.0009135019640259,-0.5074129531022123,1.0
2025-03-08 13:58:25.112,-0.000922676128723,-0.546738589142089,1.0
2025-03-08 13:58:25.131,-0.0009380804192489,-0.5755325957740866,1.0
2025-03-08 13:58:25.151,-0.0009524506376045,-0.5921277789331386,1.0
2025-03-08 13:58:25.170,-0.0009580757078775,-0.5969016996387828,1.0
2025-03-08 13:58:25.190,-0.0009482342922266,-0.5927307854859657,1.0
2025-03-08 13:58:25.209,-0.0009183162372219,-0.5845691852763408,1.0
2025-03-08 13:58:25.229,-0.00086651189171,-0.5780955007943612,1.0
2025-03-08 13:58:25.248,-0.0007940048314333,-0.5777453037804093,1.0
2025-03-08 13:58:25.268,-0.0007046054378555,-0.5847490409167082,1.0
2025-03-08 13:58:25.287,-0.0006038313954831,-0.59589693182747,1.0
2025-03-08 13:58:25.307,-0.0004976312022452,-0.6035860861522214,1.0
2025-03-08 13:58:25.326,-0.0003911372208253,-0.5973024098637414,1.0
