Timestamp,ECG_test1_ECGtoHR_LA_RA_CAL,Lead I (LA-RA),Lead II (LL-LA),Lead III (LL-RA),Vx-RL
2025-03-05 13:33:03.030,67.36842105263158,-0.03567393901708487,0.03176984007601534,-0.0039040412124064987,-0.06515910568126598
2025-03-05 13:33:03.032,67.36842105263158,-0.03867244752796274,0.039327918297650366,0.000655530020570211,-0.05745384756599329
2025-03-05 13:33:03.034,67.36842105263158,-0.041569037744800856,0.04683810318269296,0.0052691262341100316,-0.05198472763831591
2025-03-05 13:33:03.036,67.36842105263158,-0.044213194737269056,0.05446004514252861,0.010246912791519736,-0.050269258507050704
2025-03-05 13:33:03.038,67.36842105263158,-0.046292321191819016,0.06196738739998364,0.01567513023016554,-0.052485023629124966
2025-03-05 13:33:03.040,67.36842105263158,-0.04739708048011865,0.06888600189587195,0.021488987099669,-0.057502402065135357
2025-03-05 13:33:03.042,67.36842105263158,-0.047194064935546745,0.07481666495623399,0.02762266736333207,-0.0634789195648826
2025-03-05 13:33:03.044,67.36842105263158,-0.04563390657973928,0.07972918675799268,0.03409534915267739,-0.06869382243621291
2025-03-05 13:33:03.046,67.36842105263158,-0.04305920472772871,0.08405778695065122,0.040998652796062685,-0.07218598809659701
2025-03-05 13:33:03.048,67.36842105263158,-0.040089390256670895,0.08851173645259895,0.04842241834881762,-0.07394181212863471
2025-03-05 13:33:03.050,67.36842105263158,-0.03730262694517947,0.09366834104527812,0.05636578784012269,-0.07467454853818022
2025-03-05 13:33:03.052,67.36842105263158,-0.03490393472653478,0.09959940792295578,0.06469554855556073,-0.07541539129031112
2025-03-05 13:33:03.054,67.36842105263158,-0.03261021287409054,0.10581912987291257,0.07320899401926799,-0.07713269348997275
2025-03-05 13:33:03.055,67.36842105263158,-0.029852621948966353,0.11163383579056232,0.08178129255658029,-0.08049319440535652
2025-03-05 13:33:03.057,67.36842105263158,-0.026183589923813963,0.11668056364929963,0.09049705414537508,-0.08577666849968388
2025-03-05 13:33:03.059,67.36842105263158,-0.021628198461005915,0.12130184505177996,0.09967372870139454,-0.09287893315548541
2025-03-05 13:33:03.061,67.36842105263158,-0.016745109931823456,0.12649532958398385,0.10975030342576568,-0.10131376662021246
2025-03-05 13:33:03.063,67.36842105263158,-0.012351691397925272,0.13342762406257255,0.12107601807741322,-0.11021233796521261
2025-03-05 13:33:03.065,67.36842105263158,-0.009093264037001083,0.14278769443914122,0.13369451744894065,-0.11845355771864802
2025-03-05 13:33:03.067,67.36842105263158,-0.007131599686074706,0.15439126067829304,0.14725974969120098,-0.12502550656585693
2025-03-05 13:33:03.069,67.36842105263158,-0.006127426758637311,0.16728659188658154,0.16115925551297364,-0.12947516815529547
2025-03-05 13:33:03.071,67.36842105263158,-0.005487520022225714,0.18025337056816107,0.174765942651292,-0.13213293310298008
2025-03-05 13:33:03.073,67.36842105263158,-0.0046884563765950665,0.19233406669153588,0.18764570416045687,-0.133933793517918
2025-03-05 13:33:03.075,67.36842105263158,-0.0034716852310327498,0.20309158480843087,0.19961999516161866,-0.13595937891879925
2025-03-05 13:33:03.077,67.36842105263158,-0.0018294160874096166,0.2125540586448981,0.2107247398619679,-0.1389871244897669
2025-03-05 13:33:03.079,67.36842105263158,0.00013918142200345892,0.22102202392697542,0.22116130435096723,-0.14325615376459228
2025-03-05 13:33:03.081,67.36842105263158,0.0023646224234581364,0.22891245067339927,0.2312771737834815,-0.14849235011181436
2025-03-05 13:33:03.083,67.36842105263158,0.004859014076077958,0.23667734839600305,0.24153646484873237,-0.15411883176198807
2025-03-05 13:33:03.085,67.36842105263158,0.007676932514843897,0.2447414818156314,0.252418518419473,-0.15951861085516977
2025-03-05 13:33:03.087,67.36842105263158,0.010812145744719837,0.25341483331397274,0.2642270848894659,-0.16421670446573783
2025-03-05 13:33:03.089,67.36842105263158,0.01409469713805662,0.2627846854837298,0.2768794902180558,-0.16795234634765027
2025-03-05 13:33:03.091,67.36842105263158,0.017186613094290325,0.2726324473529005,0.2898191698178011,-0.17073784266984357
2025-03-05 13:33:03.093,67.36842105263158,0.019723128144188674,0.2824444301355621,0.30216766941752926,-0.17296045480124164
2025-03-05 13:33:03.095,67.36842105263158,0.02151910102020323,0.2915501063295776,0.31306932023843886,-0.17537675436252834
2025-03-05 13:33:03.096,67.36842105263158,0.022692123442210985,0.2993166534858704,0.3220088915531211,-0.17877593969717775
2025-03-05 13:33:03.098,67.36842105263158,0.02362222704235923,0.30527450049190596,0.32889684389214013,-0.18338228922517408
2025-03-05 13:33:03.100,67.36842105263158,0.02479342995518137,0.3091403085578173,0.33393385661410263,-0.18846968866336963
2025-03-05 13:33:03.102,67.36842105263158,0.02662378582043301,0.3108302304949193,0.33745413617986386,-0.19264495972257914
2025-03-05 13:33:03.104,67.36842105263158,0.029353548872912777,0.3105396891844272,0.3398933597066027,-0.19471850293256207
2025-03-05 13:33:03.106,67.36842105263158,0.032986357599486066,0.3088241440447528,0.34181062509234467,-0.19453326535642798
2025-03-05 13:33:03.108,67.36842105263158,0.03725610068680232,0.30653484336333936,0.3437910692998431,-0.19310804924541664
2025-03-05 13:33:03.110,67.36842105263158,0.04164265301967294,0.3045434249464037,0.3461862050105893,-0.19197882198573935
2025-03-05 13:33:03.112,67.36842105263158,0.04549676209987118,0.30334580654771864,0.34884269747675667,-0.1922203679946519
2025-03-05 13:33:03.114,67.36842105263158,0.04827614693278317,0.3027453228650102,0.3510216004050871,-0.19381614083162907
2025-03-05 13:33:03.116,67.36842105263158,0.04978104899196401,0.3018193174032287,0.3516004987820315,-0.19573023536742304
2025-03-05 13:33:03.118,67.36842105263158,0.050228152760753916,0.29925480080870637,0.3494830877450938,-0.1965337789748508
2025-03-05 13:33:03.120,67.36842105263158,0.05008832384213396,0.2939280592358126,0.34401651905560693,-0.19512504237651898
2025-03-05 13:33:03.122,67.36842105263158,0.04978171546264501,0.28542924494818656,0.33521109820259454,-0.19112464307006932
2025-03-05 13:33:03.124,67.36842105263158,0.04943179276363637,0.27424657225911486,0.3236785046358124,-0.1848297414022138
2025-03-05 13:33:03.126,67.36842105263158,0.04883454471532763,0.26152608189856796,0.3103607680498068,-0.17691480086971978
2025-03-05 13:33:03.128,67.36842105263158,0.0476455382160897,0.24854862658350713,0.2961943080562385,-0.1681526440815389
2025-03-05 13:33:03.130,67.36842105263158,0.045645600759852425,0.2361769434479772,0.2818226892825517,-0.15929660767770165
2025-03-05 13:33:03.132,67.36842105263158,0.04290612321309526,0.2245193672208909,0.26742563732609154,-0.15108289729707938
2025-03-05 13:33:03.134,67.36842105263158,0.0397562748991535,0.21297060609758195,0.2527270297082613,-0.14422562898628377
2025-03-05 13:33:03.135,67.36842105263158,0.036592365217391204,0.200626949201502,0.23721946495385074,-0.1392986843089633
2025-03-05 13:33:03.137,67.36842105263158,0.033657029584681065,0.1868750745125881,0.22053225646034755,-0.1364892909916835
2025-03-05 13:33:03.139,67.36842105263158,0.030909097850571308,0.17184084092848567,0.20275009297481944,-0.1353427021415735
2025-03-05 13:33:03.141,67.36842105263158,0.028049546165048147,0.15644868471989512,0.18449838691785533,-0.1347071426092876
2025-03-05 13:33:03.143,67.36842105263158,0.024705326925098664,0.1420462084086157,0.1667516932085164,-0.13301503605737608
2025-03-05 13:33:03.145,67.36842105263158,0.0206915348698411,0.12977778638223159,0.15046948097366736,-0.12884705083433623
2025-03-05 13:33:03.147,67.36842105263158,0.01619003594962863,0.12004558504619786,0.13623578256825591,-0.12157746430314559
2025-03-05 13:33:03.149,67.36842105263158,0.011693427444886266,0.11238072483504852,0.12407431570489426,-0.11182732604651889
2025-03-05 13:33:03.151,67.36842105263158,0.007725365982631158,0.10580292784169863,0.11352845910034695,-0.10144014179378416
2025-03-05 13:33:03.153,67.36842105263158,0.0045378487582892835,0.09941065251171798,0.10394866839332746,-0.09284554385751709
2025-03-05 13:33:03.155,67.36842105263158,0.002000914540837173,0.09280760089127824,0.09480868439938976,-0.08802993278599577
2025-03-05 13:33:03.157,67.36842105263158,-0.00026919573168751577,0.08615059744513633,0.08588157252504626,-0.08765931374937713
2025-03-05 13:33:03.159,67.36842105263158,-0.002658716953257884,0.07989427812196367,0.07723573383070677,-0.09087269581964864
2025-03-05 13:33:03.161,67.36842105263158,-0.005328158221410324,0.07445929173382597,0.06913130803571473,-0.09582397394532044
2025-03-05 13:33:03.163,67.36842105263158,-0.008113662727979967,0.07002083203424884,0.0619073457026807,-0.10055165246969877
2025-03-05 13:33:03.165,67.36842105263158,-0.010616724615478636,0.06649771846139896,0.05588117212299297,-0.10365438357488299
2025-03-05 13:33:03.167,67.36842105263158,-0.012449022422881035,0.06369193178032126,0.05124308951475243,-0.10456017913524829
2025-03-05 13:33:03.169,67.36842105263158,-0.013477296252744627,0.061440181497412885,0.0479630672739561,-0.10347327266475502
2025-03-05 13:33:03.171,67.36842105263158,-0.013895949786681612,0.059657816526878994,0.04576205062977688,-0.10111150378005156
2025-03-05 13:33:03.173,67.36842105263158,-0.014092211946538057,0.05827043680171795,0.04417841059674203,-0.09829418585868713
2025-03-05 13:33:03.174,67.36842105263158,-0.01442161622792534,0.05712964469495078,0.04270821606131621,-0.09551790092465876
2025-03-05 13:33:03.176,67.36842105263158,-0.015047425198206038,0.05601489607357565,0.0409676603335178,-0.09276664914615346
2025-03-05 13:33:03.178,67.36842105263158,-0.01592626776775629,0.05475188630899691,0.03882580988059234,-0.08972230940680287
2025-03-05 13:33:03.180,67.36842105263158,-0.01691679693545741,0.0533820909281192,0.03646548722890124,-0.08625450860600477
2025-03-05 13:33:03.182,67.36842105263158,-0.017915681586230216,0.052250479541231194,0.03433499309451386,-0.08280873954261538
2025-03-05 13:33:03.184,67.36842105263158,-0.018929344055038946,0.05190168693817253,0.03297253991973628,-0.08034471620873922
2025-03-05 13:33:03.186,67.36842105263158,-0.020052570514128874,0.05279912148629522,0.032746749890245376,-0.07982452520569919
2025-03-05 13:33:03.188,67.36842105263158,-0.021388663110074806,0.05501883220899361,0.03363036988170005,-0.08161284663200728
2025-03-05 13:33:03.190,67.36842105263158,-0.022977326882796332,0.05811588320865622,0.03513875896470002,-0.08520418052009815
2025-03-05 13:33:03.192,67.36842105263158,-0.024784372582750045,0.06127792096972051,0.036493752886798785,-0.08942923970825284
2025-03-05 13:33:03.194,67.36842105263158,-0.02675036643631399,0.06370732717465395,0.036957167116196385,-0.09298708067250855
2025-03-05 13:33:03.196,67.36842105263158,-0.028839372961783193,0.0650189151863498,0.03617975050171605,-0.0950137767544662
2025-03-05 13:33:03.198,67.36842105263158,-0.031035151209677116,0.06542359111026778,0.03438865009211522,-0.09541586695850846
2025-03-05 13:33:03.200,67.36842105263158,-0.03328873767982812,0.06560289778452276,0.03231437221193484,-0.0947985004283714
2025-03-05 13:33:03.202,67.36842105263158,-0.03546588500992014,0.06635833288183172,0.030892661881794785,-0.09402007855789977
2025-03-05 13:33:03.204,67.36842105263158,-0.037346512809957225,0.06822539053717286,0.030879093619000635,-0.09364958386747159
2025-03-05 13:33:03.206,67.36842105263158,-0.03869141160016145,0.07122850667035514,0.03253731282628643,-0.09369324061149928
2025-03-05 13:33:03.208,67.36842105263158,-0.03933461351635026,0.07485308742317746,0.03551869352212596,-0.09377954586801814
2025-03-05 13:33:03.210,67.36842105263158,-0.039244865546159496,0.07820959888908519,0.03896495482782569,-0.09364569024149201
2025-03-05 13:33:03.212,67.36842105263158,-0.03854838504726845,0.08032074809084652,0.041772586418999724,-0.09349378591128064
2025-03-05 13:33:03.214,67.36842105263158,-0.037537466197254836,0.08045184003167419,0.0429145991213519,-0.09384715092128297
2025-03-05 13:33:03.215,67.36842105263158,-0.036650745809288995,0.07838196058368205,0.041731441983310635,-0.09499005348912011
2025-03-05 13:33:03.217,67.36842105263158,-0.036375057292128116,0.07450307589666887,0.03812824773014275,-0.09653126988355326
2025-03-05 13:33:03.219,67.36842105263158,-0.03707091806809342,0.06969353492177043,0.032622847877665534,-0.09756625141716573
2025-03-05 13:33:03.221,67.36842105263158,-0.038815670990037104,0.06502834883739944,0.026212910747815364,-0.09734485827050764
2025-03-05 13:33:03.223,67.36842105263158,-0.04136584354762998,0.06146020666761216,0.02009459788248051,-0.0958856990033363
2025-03-05 13:33:03.225,67.36842105263158,-0.04424152092656393,0.05956995265427022,0.015328668352497648,-0.09405309723957252
2025-03-05 13:33:03.227,67.36842105263158,-0.04685492549827125,0.05941722114924057,0.012562534152541945,-0.09307174684526337
2025-03-05 13:33:03.229,67.36842105263158,-0.04863995793348238,0.06051881942158485,0.011879101887486691,-0.0938521918477891
2025-03-05 13:33:03.231,67.36842105263158,-0.049211109658510846,0.0620037595300368,0.012792892185376568,-0.09654459294134402
2025-03-05 13:33:03.233,67.36842105263158,-0.04855167276521355,0.06294038981287682,0.014388961279759837,-0.1004949967837754
2025-03-05 13:33:03.235,67.36842105263158,-0.04712112548228059,0.0627208309207693,0.015599951577936096,-0.1045441529186763
2025-03-05 13:33:03.237,67.36842105263158,-0.045736711172372733,0.06131749628777778,0.01558103314228094,-0.10752244550412911
2025-03-05 13:33:03.239,67.36842105263158,-0.045204922918803854,0.05924768984836235,0.014043016824916895,-0.1087427984886431
2025-03-05 13:33:03.241,67.36842105263158,-0.04586920059198662,0.05721287176033307,0.011343922923344244,-0.10824436554416007
2025-03-05 13:33:03.243,67.36842105263158,-0.04735314322304121,0.05559665907940445,0.008243769475896619,-0.10664317108022298
2025-03-05 13:33:03.245,67.36842105263158,-0.04871038553297332,0.054161751857031405,0.005451621823275063,-0.10471770891217373
2025-03-05 13:33:03.247,67.36842105263158,-0.04894416419820968,0.05219504455479955,0.0032511377523599086,-0.10304053069700593
2025-03-05 13:33:03.249,67.36842105263158,-0.04758700238547893,0.04903279785440383,0.0014460547708391846,-0.1018606191994936
2025-03-05 13:33:03.251,67.36842105263158,-0.044965780750619556,0.04461273508630252,-0.00035278445882006547,-0.10119957180767424
2025-03-05 13:33:03.253,67.36842105263158,-0.042001876964815714,0.0396839902182644,-0.002317623650694104,-0.10100763655298131
2025-03-05 13:33:03.254,67.36842105263158,-0.03972122264157591,0.03554601508886607,-0.004174942583667635,-0.1012456179822685
2025-03-05 13:33:03.256,67.36842105263158,-0.03879327664106239,0.03347159325728394,-0.005321416554509455,-0.10182913257415789
2025-03-05 13:33:03.258,67.36842105263158,-0.039305905326700315,0.03411362842217107,-0.005192008218397526,-0.10250170706807632
2025-03-05 13:33:03.260,67.36842105263158,-0.04079540730528112,0.03717378916132363,-0.0036213475946592828,-0.1028064918376141
2025-03-05 13:33:03.262,67.36842105263158,-0.04245991682591531,0.04147887063517416,-0.0009807737671173927,-0.10223925481061585
2025-03-05 13:33:03.264,67.36842105263158,-0.043469056311761754,0.0454186106138433,0.001949828609250035,-0.10047838217051051
2025-03-05 13:33:03.266,65.78158458244111,-0.04326353393242327,0.04752653197122941,0.004263274231684086,-0.09754503851144669
2025-03-05 13:33:03.268,65.78158458244111,-0.041736653614887556,0.046947031433324675,0.005210655891127449,-0.09384053337902783
2025-03-05 13:33:03.270,65.78158458244111,-0.03924485497644123,0.0436502262169139,0.004405651182139491,-0.09006152849349634
2025-03-05 13:33:03.272,65.78158458244111,-0.036462659498044794,0.038401032403444064,0.0019386547053713587,-0.08700874607896827
2025-03-05 13:33:03.274,65.78158458244111,-0.03413524656427331,0.03253586226988619,-0.0015991006424619148,-0.08535568834214752
2025-03-05 13:33:03.276,65.78158458244111,-0.03281045989046199,0.027587121210291027,-0.005223053177144435,-0.08545338142310956
2025-03-05 13:33:03.278,65.78158458244111,-0.03265270209504566,0.0248245881564152,-0.007827826581757083,-0.08719513042109096
2025-03-05 13:33:03.280,65.78158458244111,-0.03341095076236787,0.02484997387158165,-0.008560687677094437,-0.08998379914211473
2025-03-05 13:33:03.282,65.78158458244111,-0.03453518598471753,0.027401902482482903,-0.007132992431186476,-0.09289219227771321
2025-03-05 13:33:03.284,65.78158458244111,-0.035367786169325094,0.031455717738407996,-0.003911775504981329,-0.09499940167495935
2025-03-05 13:33:03.286,65.78158458244111,-0.035319489881454565,0.03557116052770022,0.0002519654229460556,-0.09571228420562931
2025-03-05 13:33:03.288,65.78158458244111,-0.03397645278013553,0.03834359496115834,0.004367438804596502,-0.09490935921327351
2025-03-05 13:33:03.290,65.78158458244111,-0.031150479148185566,0.038814216602835475,0.007664035922309488,-0.09293248917839488
2025-03-05 13:33:03.292,65.78158458244111,-0.026925712295028544,0.03675291695072992,0.009827504965024596,-0.09050497206585181
2025-03-05 13:33:03.294,65.78158458244111,-0.02172297679524573,0.03275886800803987,0.01103619336012622,-0.08853501688089457
2025-03-05 13:33:03.295,65.78158458244111,-0.01631392560582422,0.028115733957761208,0.011802112331470105,-0.08774940635367469
2025-03-05 13:33:03.297,65.78158458244111,-0.011671480283740442,0.024371063827741003,0.012699889348693993,-0.0883074641288535
2025-03-05 13:33:03.299,65.78158458244111,-0.00863008832190739,0.02273932844236132,0.014109547744623065,-0.08970065121873004
2025-03-05 13:33:03.301,65.78158458244111,-0.0075002346177910975,0.023578366443101035,0.016078441267298633,-0.09107650375922899
2025-03-05 13:33:03.303,65.78158458244111,-0.007879425576484656,0.02621274521628498,0.018333630902674376,-0.09176638898145947
2025-03-05 13:33:03.305,65.78158458244111,-0.008823695807249975,0.029223403091606582,0.02040002037349258,-0.09162820791633759
2025-03-05 13:33:03.307,65.78158458244111,-0.009324390320681424,0.031082561256093356,0.021758485853771884,-0.09099937898669842
2025-03-05 13:33:03.309,65.78158458244111,-0.008817481480921076,0.030826563127692334,0.022009398390403164,-0.09037258522602777
2025-03-05 13:33:03.311,65.78158458244111,-0.007414747510872395,0.028434246067879775,0.021019817113704018,-0.0900638449793144
2025-03-05 13:33:03.313,65.78158458244111,-0.005743952831737209,0.02474546683122101,0.019001834352100237,-0.09007244825655089
2025-03-05 13:33:03.315,65.78158458244111,-0.00454552585051115,0.02101402193080158,0.016468818213594767,-0.09015774247119171
2025-03-05 13:33:03.317,65.78158458244111,-0.004276914515651718,0.018355717435045382,0.014079126826974566,-0.09001521207562731
2025-03-05 13:33:03.319,65.78158458244111,-0.004907704706260855,0.01733415943080751,0.012426780411710707,-0.08940199349734637
2025-03-05 13:33:03.321,65.78158458244111,-0.005972308734345746,0.01780740220209056,0.011835420948104403,-0.08815273620392675
2025-03-05 13:33:03.323,65.78158458244111,-0.006842713321378868,0.019056797282854233,0.012214413248298415,-0.0861702551593446
2025-03-05 13:33:03.325,65.78158458244111,-0.007085501741869926,0.020148288357071643,0.013063117711768976,-0.08352702816473005
2025-03-05 13:33:03.327,65.78158458244111,-0.006709640192185698,0.02039167181574328,0.01368236451786794,-0.080662448736703
2025-03-05 13:33:03.329,65.78158458244111,-0.00616119900847295,0.019689980101205554,0.013529115760044385,-0.0784245217980922
2025-03-05 13:33:03.331,65.78158458244111,-0.006072043882180514,0.018594747880105917,0.012523040410575122,-0.07771569309368397
2025-03-05 13:33:03.333,65.78158458244111,-0.0069164140749915694,0.018023515506964394,0.011107439571764728,-0.0788726112964267
2025-03-05 13:33:03.334,65.78158458244111,-0.008767420608356618,0.018767798463073238,0.010000717721275289,-0.08124667411330024
2025-03-05 13:33:03.336,65.78158458244111,-0.0112602816791147,0.021023772519350812,0.009763832450342045,-0.08334201157877259
2025-03-05 13:33:03.338,65.78158458244111,-0.013738955450335507,0.024176199285554353,0.010437587212697823,-0.08345174669052101
2025-03-05 13:33:03.340,65.78158458244111,-0.015487506940248294,0.026965483838403276,0.011478322059065267,-0.0804415543275627
2025-03-05 13:33:03.342,65.78158458244111,-0.015954156671083426,0.0279951345648673,0.012041324834608966,-0.07429553269449655
2025-03-05 13:33:03.344,65.78158458244111,-0.014910771689714674,0.026358484973878136,0.011448061979658336,-0.0661531672240373
2025-03-05 13:33:03.346,65.78158458244111,-0.012506031468667933,0.022080262483229127,0.00957458142711106,-0.057800708400769854
2025-03-05 13:33:03.348,65.78158458244111,-0.009186726175195744,0.016146315811683756,0.006959941732699137,-0.05089019157329281
2025-03-05 13:33:03.350,65.78158458244111,-0.005521115405711544,0.010099970816303025,0.004579209176625748,-0.04631619503406532
2025-03-05 13:33:03.352,65.78158458244111,-0.0020289131138663953,0.005402321151823765,0.003373763485271585,-0.04402646674066261
2025-03-05 13:33:03.354,65.78158458244111,0.0008853380563873544,0.0028749538155231867,0.0037606490297501325,-0.043234027230399555
2025-03-05 13:33:03.356,65.78158458244111,0.0028955767553314644,0.0025087264924929394,0.005404662145758439,-0.042824078470958926
2025-03-05 13:33:03.358,65.78158458244111,0.0037028666367980353,0.003727180866753539,0.007430408152876137,-0.04179547920055486
2025-03-05 13:33:03.360,65.78158458244111,0.0030554935019967526,0.005918899264827077,0.008974755150724625,-0.03965020479829354
2025-03-05 13:33:03.362,65.78158458244111,0.0008460310910635264,0.008875332610075327,0.009721727779289282,-0.036585019407018395
2025-03-05 13:33:03.364,65.78158458244111,-0.0027850708015243245,0.012833592023830947,0.0100488869481079,-0.03331342381829288
2025-03-05 13:33:03.366,65.78158458244111,-0.007409897559510743,0.01809605323807112,0.010686523020386331,-0.030561335155091574
2025-03-05 13:33:03.368,65.78158458244111,-0.012352572355621483,0.02449715540428121,0.012144952003964801,-0.028560125030314083
2025-03-05 13:33:03.370,65.78158458244111,-0.01679559083479945,0.031112937583020958,0.0143177173427336,-0.02687300296727093
2025-03-05 13:33:03.372,65.78158458244111,-0.01995747704019814,0.03646496398300012,0.016507859214677963,-0.024633470692433775
2025-03-05 13:33:03.374,65.78158458244111,-0.021328246590136664,0.039141062302218206,0.01781318968890608,-0.021006877965711178
2025-03-05 13:33:03.375,65.78158458244111,-0.020863443511362354,0.03847103925424781,0.017607971423468198,-0.015575013639226719
2025-03-05 13:33:03.377,65.78158458244111,-0.018987292387841564,0.0348558752332178,0.01586896019613512,-0.00842219675851576
2025-03-05 13:33:03.379,65.78158458244111,-0.016358512319446076,0.02956660871684796,0.013208475365670701,5.273362462837605e-05
2025-03-05 13:33:03.381,65.78158458244111,-0.013549889878837727,0.024149208416228137,0.010599699075077294,0.009329318337852078
2025-03-05 13:33:03.383,65.78158458244111,-0.010872000952409285,0.019786271698809626,0.008914652831764203,0.01872626285370515
2025-03-05 13:33:03.385,65.78158458244111,-0.008427034428662246,0.01693565252061252,0.00850900173795694,0.02723876024418735
2025-03-05 13:33:03.387,65.78158458244111,-0.0062664027952687214,0.015338583654382064,0.009072566103669275,0.03363460947776315
2025-03-05 13:33:03.389,65.78158458244111,-0.004473198001312505,0.01427924209667205,0.009806430978203136,0.03698691210691243
2025-03-05 13:33:03.391,65.78158458244111,-0.003121635225393761,0.012931375716536594,0.009810129029317171,0.03730066751946149
2025-03-05 13:33:03.393,65.78158458244111,-0.0022059817746491192,0.01068381599882292,0.00847822439896849,0.03568636180161672
2025-03-05 13:33:03.395,65.78158458244111,-0.0016401414668292865,0.0073736265371084925,0.0057338768326864005,0.03390899933017567
2025-03-05 13:33:03.397,65.78158458244111,-0.001334982727677298,0.0033645610182921138,0.002029971582681875,0.033622752908028734
2025-03-05 13:33:03.399,65.78158458244111,-0.0012810001635489973,-0.0005565322402391196,-0.0018371376227430466,0.035706136707856655
2025-03-05 13:33:03.401,65.78158458244111,-0.001567782954564134,-0.0034316421313470716,-0.004999028821944931,0.039951534207536006
2025-03-05 13:33:03.403,65.78158458244111,-0.0023376668254653484,-0.004453780149796469,-0.006791049200505826,0.04521651868339966
2025-03-05 13:33:03.405,65.78158458244111,-0.003723581696293714,-0.003269663398161856,-0.006992845765631493,0.04998662418407156
2025-03-05 13:33:03.407,65.78158458244111,-0.005805497082137261,-0.0001726594121336483,-0.005977755579402273,0.053079699341331624
2025-03-05 13:33:03.409,65.78158458244111,-0.008569531605101988,0.0039074889630337185,-0.00466164014140456,0.05412956935452341
2025-03-05 13:33:03.411,65.78158458244111,-0.011848048371276763,0.007681564700782326,-0.00416607962065723,0.05363837427973073
2025-03-05 13:33:03.413,65.78158458244111,-0.015270016766635627,0.009991305711108091,-0.005278305514691033,0.0526324678584881
2025-03-05 13:33:03.414,65.78158458244111,-0.01829038033904688,0.01029482908335154,-0.007995144277587058,0.05213537695045959
2025-03-05 13:33:03.416,65.78158458244111,-0.020335716316104126,0.008865241862841315,-0.011470066063641093,0.05274136108251541
2025-03-05 13:33:03.418,65.78158458244111,-0.021016757002397655,0.00656508965204575,-0.014451257538279362,0.054498406486041824
2025-03-05 13:33:03.420,65.78158458244111,-0.020289917654756275,0.00431999745904312,-0.015969508924115187,0.05710150550276319
2025-03-05 13:33:03.422,65.78158458244111,-0.018459237615756352,0.002587638411536017,-0.015871186434054503,0.0601985824548445
2025-03-05 13:33:03.424,65.78158458244111,-0.015998163568727363,0.0011015524117353704,-0.014896196872242095,0.06356766776375428
2025-03-05 13:33:03.426,65.78158458244111,-0.013290218817070676,-0.0009803699369773703,-0.014270172974438833,0.06705916318067598
2025-03-05 13:33:03.428,65.78158458244111,-0.010460626531422854,-0.004584457969208249,-0.01504466727555304,0.07041941095036978
2025-03-05 13:33:03.430,65.78158458244111,-0.007425206337911435,-0.010119630010598442,-0.017544417735600296,0.07323054910156741
2025-03-05 13:33:03.432,65.78158458244111,-0.004127589250016414,-0.01707692771256195,-0.021204097002423955,0.075077178620279
2025-03-05 13:33:03.434,65.78158458244111,-0.0007839754448190632,-0.024065225101242167,-0.02484877924634876,0.07581606846582857
2025-03-05 13:33:03.436,65.78158458244111,0.002067538449153695,-0.02930742471129456,-0.027239463599385217,0.07573935030645076
2025-03-05 13:33:03.438,65.78158458244111,0.0037814473730476816,-0.03138261696288434,-0.027600745527414216,0.07551013217958004
2025-03-05 13:33:03.440,65.78158458244111,0.003956096728147087,-0.029856915053642134,-0.025900392838154058,0.07587374940920373
2025-03-05 13:33:03.442,65.78158458244111,0.0026857653045584385,-0.02547981856351861,-0.02279362635078663,0.07727316732656046
2025-03-05 13:33:03.444,65.78158458244111,0.0005420955266510711,-0.019835347443000216,-0.01929282362292592,0.07959200720196974
2025-03-05 13:33:03.446,65.78158458244111,-0.0017013923226475306,-0.01463111367349288,-0.016332076370208646,0.08219268807406703
2025-03-05 13:33:03.448,65.78158458244111,-0.003433509911387002,-0.011011240640174308,-0.014444319640217446,0.0842279486523716
2025-03-05 13:33:03.450,65.78158458244111,-0.00446618559192722,-0.009242974433777638,-0.013708727851403561,0.0850515170828769
2025-03-05 13:33:03.452,65.78158458244111,-0.0050759506801684616,-0.008868285631219242,-0.01394380286663061,0.08451515963739344
2025-03-05 13:33:03.454,65.78158458244111,-0.005817797531280745,-0.009131371419425296,-0.014948734208730998,0.08299924529676815
2025-03-05 13:33:03.455,65.78158458244111,-0.007212308779054599,-0.009396010513524598,-0.016607883227806618,0.08117448800023387
2025-03-05 13:33:03.457,65.78158458244111,-0.009473165824331548,-0.009368034198113682,-0.018840762629486085,0.0796546788180948
2025-03-05 13:33:03.459,65.78158458244111,-0.01239998379388299,-0.009093290257946852,-0.021492835353048165,0.0787386097802551
2025-03-05 13:33:03.461,65.78158458244111,-0.015443857479274813,-0.008796287069365763,-0.024239704586753064,0.07834675149859625
2025-03-05 13:33:03.463,65.78158458244111,-0.01788476568446717,-0.008662826145332652,-0.02654715065012219,0.07815694103282597
2025-03-05 13:33:03.465,65.78158458244111,-0.01906914576519346,-0.008690300796817065,-0.02775900419429693,0.07787866695007475
2025-03-05 13:33:03.467,65.78158458244111,-0.01864715448172749,-0.008709245362632187,-0.027355956293955555,0.07751623456368499
2025-03-05 13:33:03.469,65.78158458244111,-0.01670558186239053,-0.008570697855601609,-0.025275834970567214,0.07740299446348405
2025-03-05 13:33:03.471,65.78158458244111,-0.01371342128348068,-0.00834587472023668,-0.022058850040323295,0.07791131684072215
2025-03-05 13:33:03.473,65.78158458244111,-0.0103082721915356,-0.00834721234205793,-0.018655037347368793,0.07903299627827844
2025-03-05 13:33:03.475,65.78158458244111,-0.007053922868895904,-0.008924385827159887,-0.015977860301444387,0.08018539999808204
2025-03-05 13:33:03.477,65.78158458244111,-0.0043011041872525945,-0.010192791950124144,-0.014493446567276686,0.08044286559244948
2025-03-05 13:33:03.479,65.78158458244111,-0.002179945963576806,-0.011919958744619472,-0.014099454001298275,0.07906652960376007
2025-03-05 13:33:03.481,65.78158458244111,-0.0006341183713494721,-0.013664429141077595,-0.014298095698274973,0.0759717145772824
2025-03-05 13:33:03.483,65.78158458244111,0.0005949910248073025,-0.015054080128521092,-0.01445863619387034,0.07179675676772314
2025-03-05 13:33:03.485,65.78158458244111,0.0019950350257031653,-0.01598267437000756,-0.013987185334159807,0.06752597130884003
2025-03-05 13:33:03.487,65.78158458244111,0.004182748253795206,-0.016569357031813607,-0.012386153657588437,0.06396107027963159
2025-03-05 13:33:03.489,65.78158458244111,0.007619781509605643,-0.016909461578230228,-0.009289223835720494,0.06142899813194948
2025-03-05 13:33:03.491,65.78158458244111,0.012276654467124998,-0.01682047132776628,-0.004543359528799646,0.059888989190073995
2025-03-05 13:33:03.493,65.78158458244111,0.017473869479754878,-0.01582190378055614,0.0016524241022648704,0.05928607363948838
2025-03-05 13:33:03.494,65.78158458244111,0.022035421520804364,-0.013429136202635186,0.008606744760191845,0.0598382318559881
2025-03-05 13:33:03.496,65.78158458244111,0.024703658225721393,-0.009590544284077436,0.015113574397489728,0.06200686317292903
2025-03-05 13:33:03.498,65.78158458244111,0.024635882209541046,-0.004947362652940039,0.019688981015078377,0.06612292675513103
2025-03-05 13:33:03.500,65.78158458244111,0.021778030728492354,-0.0006644594761974409,0.021114033714262407,0.07190341042948711
2025-03-05 13:33:03.502,65.78158458244111,0.016957073384638404,0.0021679922487742418,0.019125529102634188,0.07823966194970662
2025-03-05 13:33:03.504,65.78158458244111,0.011639021794402231,0.0032682930999397165,0.014907779366798147,0.08352680643738204
2025-03-05 13:33:03.506,65.78158458244111,0.007452894373292678,0.0035773703434967934,0.011030730174937674,0.08641517976098928
2025-03-05 13:33:03.508,65.78158458244111,0.005700622724829341,0.005008613152774241,0.01070970229299199,0.08647788770352177
2025-03-05 13:33:03.510,65.78158458244111,0.007056058090244491,0.009568352381446373,0.016624877814258667,0.08432742148905738
2025-03-05 13:33:03.512,65.78158458244111,0.011516804234971973,0.018304973848521183,0.029822246331861275,0.0811823192836216
2025-03-05 13:33:03.514,65.78158458244111,0.01854150499817831,0.030686791370173543,0.04922876551481349,0.07826139591078017
2025-03-05 13:33:03.516,65.78158458244111,0.02727136463173949,0.0447535072713464,0.07202534195018438,0.07634302348406402
2025-03-05 13:33:03.518,65.78158458244111,0.03676354384824805,0.05794384837521145,0.09470786317409968,0.0756110443415483
2025-03-05 13:33:03.520,65.78158458244111,0.0461889087464117,0.0681651756871686,0.11435455628055359,0.07578520196965431
2025-03-05 13:33:03.522,65.78158458244111,0.0549590587571156,0.07457043337427281,0.12952996485264917,0.0764355249343538
2025-03-05 13:33:03.524,65.78158458244111,0.06277084435414024,0.07765263828056142,0.1404239561974093,0.07726177941067786
2025-03-05 13:33:03.526,65.78158458244111,0.06958761064037064,0.07862092655554717,0.14820901156708519,0.07816061634786856
2025-03-05 13:33:03.528,65.78158458244111,0.07558237073849187,0.0784368584123661,0.15401970430845943,0.07913425434320683
2025-03-05 13:33:03.530,65.78158458244111,0.08103168420821788,0.07711424202022767,0.15814640216640957,0.08022190647827633
2025-03-05 13:33:03.532,65.78158458244111,0.08612540705875242,0.0737455428807689,0.1598714266634716,0.08148712794492732
2025-03-05 13:33:03.534,65.78158458244111,0.09073435237551106,0.06726104367264357,0.15799587356411116,0.08292802217320205
2025-03-05 13:33:03.535,65.78158458244111,0.09431072830235875,0.057425307321054934,0.15173651392582488,0.08428210116102325
2025-03-05 13:33:03.537,65.78158458244111,0.09609141514753014,0.04538283028202296,0.14147472449555618,0.08494042626979907
2025-03-05 13:33:03.539,65.78158458244111,0.09555680436130923,0.03334428848653233,0.12890157264119204,0.08420625086270855
2025-03-05 13:33:03.541,65.78158458244111,0.09286687716673761,0.023555738700240064,0.1164230963496068,0.0818369651058133
2025-03-05 13:33:03.543,65.78158458244111,0.08898045123487543,0.017127839203777237,0.1061087715834398,0.07847427184345375
2025-03-05 13:33:03.545,65.78158458244111,0.08534994066953552,0.013380956092566506,0.09873137855968997,0.07554516845576309
2025-03-05 13:33:03.547,65.78158458244111,0.08330387538844879,0.010098911190198791,0.09340326903442503,0.07458892136683318
2025-03-05 13:33:03.549,65.78158458244111,0.08338636589837348,0.004624713361799588,0.08801156238304318,0.07643234177745958
2025-03-05 13:33:03.551,65.78158458244111,0.08499116014759131,-0.004727859480852924,0.08026378445588002,0.08076148282458254
2025-03-05 13:33:03.553,65.78158458244111,0.08654013606119562,-0.017697505277047974,0.06884311522107664,0.08633086245024384
2025-03-05 13:33:03.555,65.78158458244111,0.08617949366973703,-0.032103058162476134,0.05407692055751532,0.09163211794460938
2025-03-05 13:33:03.557,65.78158458244111,0.08264693637075879,-0.04490900744990596,0.037738414544270654,0.09560233938127814
2025-03-05 13:33:03.559,65.78158458244111,0.07584234589654971,-0.05377313341281819,0.02206969864758271,0.09795924164618768
2025-03-05 13:33:03.561,65.78158458244111,0.06682348955026021,-0.05825609112479058,0.008567885113253095,0.09901342082609309
2025-03-05 13:33:03.563,65.78158458244111,0.05730952492320227,-0.06009210841246934,-0.002782096278002113,0.09919952131198605
2025-03-05 13:33:03.565,65.78158458244111,0.04903113458580657,-0.06242860936099264,-0.013396987033597213,0.09874799619652348
2025-03-05 13:33:03.567,65.78158458244111,0.04324599385028987,-0.06840450097454934,-0.025158018850490474,0.0976929105056549
2025-03-05 13:33:03.569,65.78158458244111,0.040525469264296676,-0.07967266570993153,-0.0391467076518549,0.09604237703872835
2025-03-05 13:33:03.571,65.78158458244111,0.04073874137972263,-0.09548957480786419,-0.054750344141669655,0.09384311287685232
2025-03-05 13:33:03.573,65.78158458244111,0.04314250575430011,-0.11281936241750444,-0.06967636691960852,0.09110074329888786
2025-03-05 13:33:03.574,65.78158458244111,0.04656571097634522,-0.12751865736643064,-0.08095245622252381,0.08774899551550706
2025-03-05 13:33:03.576,65.78158458244111,0.049721647877723964,-0.1361610131394126,-0.08643887469251108,0.08381441660164667
2025-03-05 13:33:03.578,65.78158458244111,0.05161832968051206,-0.1376674962677813,-0.0860486756261902,0.07965211831760641
2025-03-05 13:33:03.580,65.78158458244111,0.05192175026055556,-0.13389693396045413,-0.08197469234906235,0.0759565214710318
2025-03-05 13:33:03.582,65.78158458244111,0.05107183198738309,-0.128802974613717,-0.07773065088874063,0.07342162980793257
2025-03-05 13:33:03.584,65.78158458244111,0.050043926882401744,-0.12650534060524943,-0.07646092160909668,0.07227507557717454
2025-03-05 13:33:03.586,65.78158458244111,0.04985171756714506,-0.1292512885952762,-0.07939907855796711,0.0720624536732454
2025-03-05 13:33:03.588,65.78158458244111,0.05104904611701378,-0.13635555294683713,-0.08530601402840907,0.07188742937004967
2025-03-05 13:33:03.590,65.78158458244111,0.05348196789611298,-0.1446902609542893,-0.09120779995015756,0.0709889506678852
2025-03-05 13:33:03.592,65.78158458244111,0.056389606047048825,-0.15045376198676486,-0.09406366254508722,0.06928099618832993
2025-03-05 13:33:03.594,65.78158458244111,0.05877997530422679,-0.15127521529198876,-0.0924947463218592,0.06746886264411464
2025-03-05 13:33:03.596,65.78158458244111,0.05990155072515904,-0.1475483374959162,-0.0876462928476418,0.06663242285935612
2025-03-05 13:33:03.598,65.78158458244111,0.059598847046052436,-0.14228266232140818,-0.08268332111150298,0.0675331677439327
2025-03-05 13:33:03.600,65.78158458244111,0.05838189044908893,-0.13953252193682164,-0.08115013710287708,0.07007235809520708
2025-03-05 13:33:03.602,65.78158458244111,0.057166733425687975,-0.14223250406093824,-0.08506527604949783,0.07320802018658967
2025-03-05 13:33:03.604,65.78158458244111,0.05681385654821226,-0.15058603111167482,-0.09377167979280258,0.07537484123749026
2025-03-05 13:33:03.606,65.78158458244111,0.05770082119143096,-0.1618353259223325,-0.10413400978489872,0.07524107333209268
2025-03-05 13:33:03.608,65.78158458244111,0.059542282738363435,-0.1715190330113186,-0.11197625515735918,0.07252361438981615
2025-03-05 13:33:03.610,65.78158458244111,0.061540380784356315,-0.1756128275486216,-0.11407195148798235,0.06848134028934064
2025-03-05 13:33:03.612,65.78158458244111,0.06279304102642891,-0.1725543245916991,-0.1097607881476616,0.06567868358801712
2025-03-05 13:33:03.614,65.78158458244111,0.06276752404740901,-0.1641964439230542,-0.10142842434888574,0.06688837757925532
2025-03-05 13:33:03.615,65.78158458244111,0.06160219209035736,-0.15517416902300307,-0.09357148133611054,0.07355696051285467
2025-03-05 13:33:03.617,65.78158458244111,0.060067185742157025,-0.15084456833105422,-0.09077688695730478,0.08465972582340985
2025-03-05 13:33:03.619,65.78158458244111,0.05918144194866016,-0.15463189016520465,-0.09544995256810225,0.09668829580035045
2025-03-05 13:33:03.621,65.78158458244111,0.05966605491328253,-0.16601088017897395,-0.10634432959777235,0.10500017997051637
2025-03-05 13:33:03.623,65.78158458244111,0.06151759115354369,-0.18024706383094563,-0.11872897697397487,0.10601254397138439
2025-03-05 13:33:03.625,65.78158458244111,0.06395609687662883,-0.19030015069455056,-0.1263435580664291,0.09905860536913652
2025-03-05 13:33:03.627,65.78158458244111,0.0658416103099421,-0.19024193080275037,-0.12439982470202145,0.08674013529217245
2025-03-05 13:33:03.629,65.78158458244111,0.06642439433812458,-0.17870841277077362,-0.11228352264108257,0.07358741182629049
2025-03-05 13:33:03.631,65.78158458244111,0.06610269510570743,-0.16079788065522638,-0.09469468981802305,0.06404166871655617
2025-03-05 13:33:03.633,65.78158458244111,0.066789125941002,-0.14747037558688897,-0.08068075403642835,0.06110141235999064
2025-03-05 13:33:03.635,65.78158458244111,0.07157108835869305,-0.15249296944976773,-0.08092138564202032,0.06623466820923415
2025-03-05 13:33:03.637,65.78158458244111,0.08361056317596328,-0.18787420005799452,-0.10426314159356975,0.08013503677582204
2025-03-05 13:33:03.639,65.78158458244111,0.10463112715241792,-0.2593189205710157,-0.15468729825775807,0.10339332482364633
2025-03-05 13:33:03.641,65.78158458244111,0.13372037450697183,-0.36338590770978174,-0.22966503812746278,0.13642220094558044
2025-03-05 13:33:03.643,65.78158458244111,0.1672517994479924,-0.48758148344505414,-0.3203291889874998,0.17872512276663996
2025-03-05 13:33:03.645,65.78158458244111,0.20029199511127102,-0.6135338822176686,-0.4132413921876861,0.2282493468253968
2025-03-05 13:33:03.647,65.78158458244111,0.22901431852915718,-0.7220478764554705,-0.4930330631681674,0.2816002606384522
2025-03-05 13:33:03.649,65.78158458244111,0.2528901984935429,-0.7980124456022002,-0.5451217526009251,0.33527670482978505
2025-03-05 13:33:03.651,65.78158458244111,0.27540258330465417,-0.8334261961901783,-0.5580231187007075,0.3872614479320229
2025-03-05 13:33:03.653,65.78158458244111,0.30289338517160314,-0.8279789005630824,-0.5250850215537777,0.43786076466706614
2025-03-05 13:33:03.654,65.78158458244111,0.34225897309975434,-0.787668753017237,-0.44540928639571276,0.48895133853592515
2025-03-05 13:33:03.656,65.78158458244111,0.39858375609544755,-0.7220494926117415,-0.3234652432461848,0.5416541835072726
2025-03-05 13:33:03.658,65.78158458244111,0.47325440157395215,-0.6402541562360198,-0.1669992615877434,0.5934899370463732
2025-03-05 13:33:03.660,65.78158458244111,0.5624631582662111,-0.5460980566432732,0.016365594509540712,0.6366882016709705
2025-03-05 13:33:03.662,65.78158458244111,0.6561605401506463,-0.4338353407178588,0.22232569207592467,0.6590094859098532
2025-03-05 13:33:03.664,65.78158458244111,0.7382720374513826,-0.2874988268935395,0.4507737028552198,0.6471886865207572
2025-03-05 13:33:03.666,65.78158458244111,0.7892833120821366,-0.08638257393949395,0.7029012299882919,0.5916425818976542
2025-03-05 13:33:03.668,65.78158458244111,0.791381694490218,0.18370979045448568,0.9750919762756801,0.4903173396103081
2025-03-05 13:33:03.670,65.78158458244111,0.7345946257830714,0.5180075261963358,1.2526026428014816,0.3498702125419267
2025-03-05 13:33:03.672,65.78158458244111,0.6210294267129971,0.8861154871576247,1.5071454042484596,0.18356093443023924
2025-03-05 13:33:03.674,65.78158458244111,0.46472046493648717,1.2364574974142317,1.7011784523665776,0.006789191864257249
2025-03-05 13:33:03.676,65.78158458244111,0.28701318505041573,1.5115077205283338,1.7985213952807264,-0.16750606369744253
2025-03-05 13:33:03.678,65.78158458244111,0.11017708026893056,1.6672008960033424,1.7773784656393097,-0.3311828913700477
2025-03-05 13:33:03.680,65.78158458244111,-0.04748428072984533,1.6871444111415452,1.6396606193542576,-0.4799206201298727
2025-03-05 13:33:03.682,65.78158458244111,-0.1737984241250267,1.585141146816486,1.4113432110881599,-0.6101475097649476
2025-03-05 13:33:03.684,65.78158458244111,-0.2631324762774938,1.3962167403269305,1.1330847518008484,-0.7165861047009454
2025-03-05 13:33:03.686,65.78158458244111,-0.3161454592848756,1.1622593220624389,0.8461143498489817,-0.7924929413022955
2025-03-05 13:33:03.688,65.78158458244111,-0.33879355242333603,0.9198008001462962,0.5810077341536197,-0.8323668421999862
2025-03-05 13:33:03.690,65.78158458244111,-0.34010698717389537,0.6942366172371673,0.35413011593704086,-0.8349664735612962
2025-03-05 13:33:03.692,65.78158458244111,-0.3291362461620773,0.49998010376403784,0.17084434299484885,-0.804419204086891
2025-03-05 13:33:03.693,65.78158458244111,-0.3123223741262916,0.34320162756502054,0.03087973837069246,-0.748700712565572
2025-03-05 13:33:03.695,65.78158458244111,-0.292391811061844,0.22420005656510275,-0.06819127008061486,-0.6764841777308678
2025-03-05 13:33:03.697,65.78158458244111,-0.2689848343866722,0.13872244712848364,-0.13026190346759964,-0.5942650487977137
2025-03-05 13:33:03.699,65.78158458244111,-0.24041680904386706,0.07929056977551914,-0.16112575621968747,-0.505405403856125
2025-03-05 13:33:03.701,65.78158458244111,-0.2056948977022944,0.03747837728738796,-0.16821603818044772,-0.4115007081988403
2025-03-05 13:33:03.703,65.78158458244111,-0.16603603483524518,0.006724659548974159,-0.15931089386692882,-0.31494603161783696
2025-03-05 13:33:03.705,65.78158458244111,-0.12532922632114657,-0.01576642045540199,-0.14109516611175477,-0.22074604189982935
2025-03-05 13:33:03.707,65.78158458244111,-0.08923442404396575,-0.029248594964313993,-0.11848253901702963,-0.1361215055384614
2025-03-05 13:33:03.709,65.78158458244111,-0.06313858283881348,-0.031742341860368145,-0.09488044533037368,-0.06803916871133223
2025-03-05 13:33:03.711,65.78158458244111,-0.049899267363805205,-0.02306539960054141,-0.07296418823036416,-0.020278270891218295
2025-03-05 13:33:03.713,65.78158458244111,-0.04860953276196972,-0.006724027723224654,-0.05533308246208389,0.008083680006240202
2025-03-05 13:33:03.715,65.78158458244111,-0.05509169530997314,0.01053252775700016,-0.04455869034825246,0.021930981047826092
2025-03-05 13:33:03.717,65.78158458244111,-0.06379507082384211,0.021292523031254278,-0.04250207149824805,0.027725516983570554
2025-03-05 13:33:03.719,65.78158458244111,-0.07000802040052276,0.0207418947892515,-0.049265650266426805,0.03091949095464347
2025-03-05 13:33:03.721,65.78158458244111,-0.07129012940629645,0.008793309299613028,-0.06249634568841423,0.03446170420577589
2025-03-05 13:33:03.723,65.78158458244111,-0.067657968101137,-0.010037778919400954,-0.07769527346631425,0.0388809061778522
2025-03-05 13:33:03.725,65.78158458244111,-0.060796663453612385,-0.02888492560806463,-0.08968111631056934,0.04352778380184916
2025-03-05 13:33:03.727,65.78158458244111,-0.05294928534475317,-0.04170767353262713,-0.09465648690835934,0.048015454053207944
2025-03-05 13:33:03.729,65.78158458244111,-0.04603612211139554,-0.04582112361423265,-0.09185677457384411,0.0529125009161908
2025-03-05 13:33:03.731,65.78158458244111,-0.041203656172944504,-0.042660207774446256,-0.08386339369146457,0.059307330623218885
2025-03-05 13:33:03.733,65.78158458244111,-0.03872898997362077,-0.036611676557686185,-0.07534019725965543,0.06768584026816615
2025-03-05 13:33:03.734,65.78158458244111,-0.03815586319859406,-0.03264827710128782,-0.07080367207415075,0.077070001103935
2025-03-05 13:33:03.736,65.78158458244111,-0.038598098613477044,-0.033943991777486394,-0.07254162322496174,0.08515873206490786
2025-03-05 13:33:03.738,65.78158458244111,-0.039140780387213796,-0.040539983570323054,-0.07968029782111422,0.08950059056218848
2025-03-05 13:33:03.740,65.78158458244111,-0.039192162329826946,-0.049599010237257365,-0.0887907074113133,0.08903117788346876
2025-03-05 13:33:03.742,65.78158458244111,-0.038629420647838274,-0.05704722453802326,-0.09567618097555974,0.08498343982621455
2025-03-05 13:33:03.744,65.78158458244111,-0.03770587097265017,-0.059734369968967,-0.09743977767865435,0.08043353183286099
2025-03-05 13:33:03.746,65.78158458244111,-0.03683405348683054,-0.056991517348454215,-0.09382510856196902,0.07861028978720208
2025-03-05 13:33:03.748,65.78158458244111,-0.036390040405395306,-0.050826792931202125,-0.08721637211912163,0.08104183708324313
2025-03-05 13:33:03.750,65.78158458244111,-0.03660925095647173,-0.04475831598604941,-0.08136710684423654,0.08678651610357493
2025-03-05 13:33:03.752,65.78158458244111,-0.037563285799465836,-0.041958167875580446,-0.07952099473342975,0.0931931125228002
2025-03-05 13:33:03.754,65.78158458244111,-0.039170093009641256,-0.0436508058094682,-0.08282044103719029,0.0975696280920616
2025-03-05 13:33:03.756,65.78158458244111,-0.04119694612267513,-0.04854661633317474,-0.08974310581079344,0.09864820897742987
2025-03-05 13:33:03.758,65.78158458244111,-0.04326660318291073,-0.05358882922983041,-0.09685497687573351,0.09704977483749737
2025-03-05 13:33:03.760,65.78158458244111,-0.0449312053912008,-0.05562248259124597,-0.10055323353924016,0.09468532678792316
2025-03-05 13:33:03.762,65.78158458244111,-0.0458524902430484,-0.05309061300783912,-0.0989426499132627,0.09361546613007231
2025-03-05 13:33:03.764,65.78158458244111,-0.04600359323000721,-0.04685658899456325,-0.09285973002843757,0.0950279601854373
2025-03-05 13:33:03.766,65.78158458244111,-0.04571389850542801,-0.03975296521824806,-0.08546641271634907,0.09876251029729054
2025-03-05 13:33:03.768,65.78158458244111,-0.04546726752493653,-0.03513076760150798,-0.08059758535032661,0.1034706326252803
2025-03-05 13:33:03.770,65.78158458244111,-0.04558649075396527,-0.03515953281403623,-0.08074557504855395,0.10725326607738564
2025-03-05 13:33:03.772,65.78158458244111,-0.04604760261002669,-0.0397285180972614,-0.08577567345003154,0.10850317564661902
2025-03-05 13:33:03.773,65.78158458244111,-0.04653942653968367,-0.046504224647062685,-0.09304320518324274,0.10662144971495269
2025-03-05 13:33:03.775,65.78158458244111,-0.04667449851209269,-0.05212243908095106,-0.09879649283186018,0.10228564120450644
2025-03-05 13:33:03.777,65.78158458244111,-0.04618343322338136,-0.05390723084971552,-0.10009022055032248,0.09712022663100499
2025-03-05 13:33:03.779,65.78158458244111,-0.04500348979794502,-0.05123183455632153,-0.09623488207937915,0.09293253682590738
2025-03-05 13:33:03.781,65.78158458244111,-0.04326816732316272,-0.04582079560381999,-0.08908852192260243,0.09092106215671347
2025-03-05 13:33:03.783,65.78158458244111,-0.041234154887731064,-0.04083787304444535,-0.08207158822892695,0.09126604154619587
2025-03-05 13:33:03.785,65.78158458244111,-0.03918051381264969,-0.039225854557934724,-0.07840592999978938,0.09328263001519783
2025-03-05 13:33:03.787,65.78158458244111,-0.03732441908289787,-0.04215387300714909,-0.07947785507707955,0.09598485904358824
2025-03-05 13:33:03.789,65.78158458244111,-0.03578867665545261,-0.04839441110030637,-0.08418265211602104,0.09866250260986491
2025-03-05 13:33:03.791,65.78158458244111,-0.03460764184166525,-0.054989811009366146,-0.08959701858943794,0.1010915750851511
2025-03-05 13:33:03.793,65.78158458244111,-0.03372463519922438,-0.05887433649341496,-0.0925985388065374,0.1032982174247343
2025-03-05 13:33:03.795,65.78158458244111,-0.03296561380698772,-0.05856024538664517,-0.091525427678311,0.10515424202658623
2025-03-05 13:33:03.797,65.78158458244111,-0.032033557037536665,-0.05493267892609744,-0.08696580581886336,0.1062025751889091
2025-03-05 13:33:03.799,65.78158458244111,-0.030579428689050704,-0.05070905689890848,-0.08128805682341257,0.10588357830875432
2025-03-05 13:33:03.801,65.78158458244111,-0.028343888533615927,-0.04890405480673618,-0.07724751597764458,0.10395800240698617
2025-03-05 13:33:03.803,65.78158458244111,-0.02528212948621207,-0.05120611930987072,-0.07648782286599076,0.10074482071754497
2025-03-05 13:33:03.805,65.78158458244111,-0.02157327082398067,-0.057166344848374594,-0.07873919120757929,0.09697505430405798
2025-03-05 13:33:03.807,65.78158458244111,-0.01751355181620062,-0.06456327391157218,-0.08207640275380604,0.09340894712646697
2025-03-05 13:33:03.809,65.78158458244111,-0.013409323387137342,-0.07061636304047533,-0.084025264955755,0.09052849687011881
2025-03-05 13:33:03.811,65.78158458244111,-0.00958133667207614,-0.07330861142854228,-0.08288952812687886,0.08848360767951459
2025-03-05 13:33:03.813,65.78158458244111,-0.006454694438193902,-0.07214483719101664,-0.07859911314049267,0.0872290129930093
2025-03-05 13:33:03.814,65.78158458244111,-0.004583443653697253,-0.06809088354753365,-0.07267391018666626,0.08667068916389657
2025-03-05 13:33:03.816,65.78158458244111,-0.004481834037020599,-0.06289423732564288,-0.06737565582498282,0.08668971305070744
2025-03-05 13:33:03.818,65.78158458244111,-0.006303359456330855,-0.05821985398674183,-0.06452279940421753,0.08704466652451219
2025-03-05 13:33:03.820,65.78158458244111,-0.00958696014827412,-0.05500311084793638,-0.06458965849370225,0.08728275641325234
2025-03-05 13:33:03.822,65.78158458244111,-0.013306906267320605,-0.05324053786145095,-0.06654703320381056,0.08682300779511616
2025-03-05 13:33:03.824,65.78158458244111,-0.01626729439490667,-0.05222857824137625,-0.0684954633189791,0.08525060967351851
2025-03-05 13:33:03.826,65.78158458244111,-0.017622079898940664,-0.05108025383261723,-0.06870192603069333,0.08265510824180257
2025-03-05 13:33:03.828,65.78158458244111,-0.01720558363392079,-0.04923948414773941,-0.06644466168463051,0.07973502188796801
2025-03-05 13:33:03.830,65.78158458244111,-0.01550256205787617,-0.04672961265874342,-0.06223177020030126,0.07750014152481388
2025-03-05 13:33:03.832,65.78158458244111,-0.013323808122584099,-0.04404041773761746,-0.057363822907821375,0.07668700982792055
2025-03-05 13:33:03.834,65.78158458244111,-0.011395111764995998,-0.04178402937448147,-0.05317873975509538,0.07725156190819536
2025-03-05 13:33:03.836,65.78158458244111,-0.010068325492587894,-0.04036067016421462,-0.05042859586976385,0.07829507960288651
2025-03-05 13:33:03.838,65.78158458244111,-0.009277534431012681,-0.03979726706636353,-0.04907440335391258,0.0785076173045156
2025-03-05 13:33:03.840,65.78158458244111,-0.008724462154863211,-0.03977506692541092,-0.04849913262600617,0.07688615681519262
2025-03-05 13:33:03.842,65.78158458244111,-0.008129287141789059,-0.0397912862989952,-0.0479201787028043,0.07332281757988653
2025-03-05 13:33:03.844,65.78158458244111,-0.007351173319305552,-0.039393002512955536,-0.04674378281006197,0.06874540727133432
2025-03-05 13:33:03.846,65.78158458244111,-0.006335591372518496,-0.0383952382313366,-0.044730438274118746,0.06475472500061165
2025-03-05 13:33:03.848,65.78158458244111,-0.005027053861622685,-0.036969192021024354,-0.04199585621586471,0.06295239866794737
2025-03-05 13:33:03.850,65.78158458244111,-0.0033810001328073167,-0.035537600967571435,-0.03891821308105442,0.06423782792925552
2025-03-05 13:33:03.852,65.78158458244111,-0.0014458136830541425,-0.03452434614184344,-0.03596977346498749,0.06831029857374751
2025-03-05 13:33:03.853,65.78158458244111,0.0006089307379053337,-0.03408380940826342,-0.033474494008847736,0.07357766579940327
2025-03-05 13:33:03.855,65.78158458244111,0.0025660111236245906,-0.033943744815944095,-0.031377350780868916,0.07763557325540964
2025-03-05 13:33:03.857,65.78158458244111,0.004264844611917192,-0.03345775063374042,-0.02919252490362875,0.07827189933034946
2025-03-05 13:33:03.859,65.78158458244111,0.0056521471082805076,-0.03188266507288247,-0.026230138657257353,0.07455096688124775
2025-03-05 13:33:03.861,65.78158458244111,0.006771568472423758,-0.028759821359229137,-0.021987875378035752,0.06729642882323787
2025-03-05 13:33:03.863,65.78158458244111,0.007735466001068406,-0.024165791553803988,-0.016429949811336546,0.05861263756755092
2025-03-05 13:33:03.865,65.78158458244111,0.00869804105697828,-0.018650937160621883,-0.009952522100134765,0.0507808642949824
2025-03-05 13:33:03.867,65.78158458244111,0.009812970142017211,-0.012905467084162691,-0.003092124668598123,0.04527581186571991
2025-03-05 13:33:03.869,65.78158458244111,0.011173960900498622,-0.007387319887829702,0.003787011533801052,0.04242032802697865
2025-03-05 13:33:03.871,65.78158458244111,0.012774647532116275,-0.002140826989963809,0.010634189264746246,0.041646034683941846
2025-03-05 13:33:03.873,65.78158458244111,0.014517268634187843,0.0031321040443616143,0.01764973955163441,0.04197637680562673
2025-03-05 13:33:03.875,65.78158458244111,0.016254115121869278,0.008846910414417175,0.025101390525328747,0.04239700195883048
2025-03-05 13:33:03.877,65.78158458244111,0.017829023782733242,0.01530727803967898,0.03313666492217967,0.04202240554136901
2025-03-05 13:33:03.879,65.78158458244111,0.019113984225846547,0.022582547108535467,0.04169689256687471,0.04013348205354724
2025-03-05 13:33:03.881,65.78158458244111,0.0200519007953563,0.030524062431685053,0.05057632262565823,0.036204275996902416
2025-03-05 13:33:03.883,65.78158458244111,0.02068649639242632,0.03887495767578748,0.05956181165634901,0.03002093832339007
2025-03-05 13:33:03.885,65.78158458244111,0.02113155297929228,0.047389617951278745,0.06852152670558948,0.02189737252249294
2025-03-05 13:33:03.887,65.78158458244111,0.021470222937743384,0.0558971816245908,0.07736775849299654,0.012823709151925778
2025-03-05 13:33:03.889,65.78158458244111,0.02165766429231166,0.0642948158215178,0.08595283215227409,0.004317483452217264
2025-03-05 13:33:03.891,65.78158458244111,0.021525299392891783,0.07251334242244499,0.09403899191730507,-0.0020829186325197254
2025-03-05 13:33:03.893,65.78158458244111,0.02091094871597763,0.08052887372804302,0.10144017058693683,-0.005466877565630774
2025-03-05 13:33:03.894,65.78158458244111,0.019837036132812225,0.08845097321488646,0.1082883555375032,-0.0060008235151525705
2025-03-05 13:33:03.896,65.78158458244111,0.018616008689562584,0.09660695991300518,0.11522331286609046,-0.004931311960919034
2025-03-05 13:33:03.898,65.78158458244111,0.017802836704967802,0.10547867873499611,0.12328185780701327,-0.00409313578542128
2025-03-05 13:33:03.900,65.78158458244111,0.018004603819109847,0.11543837664006977,0.133443320943623,-0.005094028910159894
2025-03-05 13:33:03.902,65.78158458244111,0.019635320322353385,0.12641733709048034,0.1460529960022173,-0.008543855127227672
2025-03-05 13:33:03.904,65.78158458244111,0.02272806432164869,0.13774981791655155,0.16047821889689498,-0.013748700618147555
2025-03-05 13:33:03.906,65.78158458244111,0.026887012805783535,0.1483586485452812,0.17524599603497182,-0.01909727892663403
2025-03-05 13:33:03.908,65.78158458244111,0.031399829339939976,0.15724025845207296,0.18864042046711185,-0.022988186461670248
2025-03-05 13:33:03.910,65.78158458244111,0.035461663805170365,0.16401099366785477,0.19947298812836103,-0.024792726341975196
2025-03-05 13:33:03.912,65.78158458244111,0.038422649246632426,0.16921337923318155,0.2076363571286172,-0.025269312493144742
2025-03-05 13:33:03.914,65.78158458244111,0.03998387423441059,0.17418156282130243,0.21416576372449672,-0.026159719727460798
2025-03-05 13:33:03.916,65.78158458244111,0.04029715433751557,0.18048127570022066,0.22077875474922476,-0.02922605302476298
2025-03-05 13:33:03.918,65.78158458244111,0.039926139489317405,0.18917328592457364,0.229099748172487,-0.035330136915096726
2025-03-05 13:33:03.920,65.78158458244111,0.039637270604680606,0.20027497626785637,0.23991256765944435,-0.044053014160524644
2025-03-05 13:33:03.922,65.78158458244111,0.04007261598701412,0.21271725308188663,0.252790187848962,-0.0539462601674782
2025-03-05 13:33:03.924,65.78158458244111,0.04146755494143162,0.22483326570446904,0.26630113738232725,-0.06317635269725679
2025-03-05 13:33:03.926,65.78158458244111,0.043592323174668234,0.23512148007453293,0.2787141179186253,-0.07025009225562365
2025-03-05 13:33:03.928,65.78158458244111,0.04596566152370811,0.24288317425924896,0.2888491483833631,-0.07454864521183259
2025-03-05 13:33:03.930,65.78158458244111,0.04818971909755473,0.248426767284545,0.2966167969299835,-0.07642807557930151
2025-03-05 13:33:03.932,65.78158458244111,0.05015485659098654,0.252778614345896,0.30293377945542804,-0.07680361191184203
2025-03-05 13:33:03.933,65.78158458244111,0.05198149026474426,0.2570769648124145,0.30905876158157525,-0.0764855024603121
2025-03-05 13:33:03.935,65.78158458244111,0.05381138232946892,0.26194004113971925,0.3157517279565334,-0.07575177186306417
2025-03-05 13:33:03.937,65.78158458244111,0.055683239279434846,0.2670789295887769,0.32276247131657587,-0.074421231816145
2025-03-05 13:33:03.939,65.78158458244111,0.05760190332142884,0.2713197512042337,0.3289219549028259,-0.07224767091665407
2025-03-05 13:33:03.941,65.78158458244111,0.05968073553198527,0.27305516876528446,0.33273620257426273,-0.06925434804583991
2025-03-05 13:33:03.943,65.78158458244111,0.0621552962532143,0.2709643791944082,0.33311997161030976,-0.06577871028998426
2025-03-05 13:33:03.945,65.78158458244111,0.06521498379728433,0.26465332604940967,0.32986860389966316,-0.06226006774590999
2025-03-05 13:33:03.947,65.78158458244111,0.06879514396688133,0.25483921545702903,0.3236346513849238,-0.05896037660564866
2025-03-05 13:33:03.949,65.78158458244111,0.07250328579691982,0.24296630492113688,0.31546988060609127,-0.055811636881270575
2025-03-05 13:33:03.951,65.78158458244111,0.07573137522745689,0.2305132988901675,0.30624496194067335,-0.05246740357970087
2025-03-05 13:33:03.953,65.78158458244111,0.07787969286146526,0.21840375821513872,0.2962837368253903,-0.04848123635700064
2025-03-05 13:33:03.955,65.78158458244111,0.0785647058370347,0.20678501055128443,0.28535000003894495,-0.0434733605243444
2025-03-05 13:33:03.957,65.78158458244111,0.07770677734559994,0.19520016039369423,0.2729072192632747,-0.03722671071905222
2025-03-05 13:33:03.959,65.78158458244111,0.07547864119428516,0.18300704457800904,0.2584859651487163,-0.029735309868040752
2025-03-05 13:33:03.961,65.78158458244111,0.07219122934423232,0.16981381179323596,0.2420053183610427,-0.021204629521904907
2025-03-05 13:33:03.963,65.78158458244111,0.06821963196056516,0.15570334015815718,0.22392324719971599,-0.011985778214605431
2025-03-05 13:33:03.965,65.78158458244111,0.06399443226346478,0.14113820463401994,0.20513290985374066,-0.002494247315916331
2025-03-05 13:33:03.967,65.78158458244111,0.05997611360228397,0.12663664618151824,0.18661303062909812,0.006803687777044978
2025-03-05 13:33:03.969,65.78158458244111,0.05652849010873649,0.11245021713669233,0.16897897598022144,0.015334603251678701
2025-03-05 13:33:03.971,65.78158458244111,0.05374248849327175,0.0984465340313928,0.1521892891339291,0.02238702857205446
2025-03-05 13:33:03.973,65.78158458244111,0.05137228299574064,0.08424859645970965,0.13562114391459196,0.027236243276857492
2025-03-05 13:33:03.974,65.78158458244111,0.04896588650935861,0.06953449966259828,0.11850064845759824,0.029494424564401225
2025-03-05 13:33:03.976,65.78158458244111,0.04608553209723675,0.054332183968474425,0.10041797616569377,0.02954845611757649
2025-03-05 13:33:03.978,65.78158458244111,0.04245613519093144,0.03915621422463802,0.0816126073329982,0.028719182042317673
2025-03-05 13:33:03.980,65.78158458244111,0.038002734702243746,0.024907406415251594,0.06291039686681259,0.028856837418642478
2025-03-05 13:33:03.982,65.78158458244111,0.032853214835140955,0.012558220916284762,0.04541168934866771,0.0315203729632309
2025-03-05 13:33:03.984,65.78158458244111,0.027356548942648884,0.0027464701143122116,0.030103270509352964,0.03724113415746387
2025-03-05 13:33:03.986,65.78158458244111,0.02207315346763636,-0.004533589977965112,0.017539812790008588,0.045304062120189635
2025-03-05 13:33:03.988,65.78158458244111,0.01766926486459292,-0.009978261883539046,0.007691250109767071,0.05411589900777235
2025-03-05 13:33:03.990,65.78158458244111,0.0147184303717118,-0.014731503429337729,-1.2828123874923875e-05,0.06188555229407024
2025-03-05 13:33:03.992,65.78158458244111,0.013494732468123244,-0.01997515531648014,-0.006480180126117114,0.06723961307562731
2025-03-05 13:33:03.994,65.78158458244111,0.013854825451743838,-0.0265272844229253,-0.012672218463273873,0.06956216463951811
2025-03-05 13:33:03.996,65.78158458244111,0.015260394263788786,-0.03458733947647559,-0.019326706908534535,0.06907291522320703
2025-03-05 13:33:03.998,65.78158458244111,0.0169414383607255,-0.04370596489508375,-0.026764290417390615,0.0667179325056268
2025-03-05 13:33:04.000,65.78158458244111,0.01815239842719356,-0.05297475734344837,-0.03482212497444835,0.0638832875261684
2025-03-05 13:33:04.002,65.78158458244111,0.018421309745462647,-0.0613370655136146,-0.04291552400210715,0.061938652003414196
2025-03-05 13:33:04.004,65.78158458244111,0.017678771394026457,-0.06789102693313714,-0.0502120259633605,0.06172647502136106
2025-03-05 13:33:04.006,65.78158458244111,0.016214558233203263,-0.07211423361509207,-0.05589944801871998,0.0632286422658817
2025-03-05 13:33:04.008,65.78158458244111,0.014499858748288283,-0.07399361932513994,-0.059493535445903856,0.06562544947786808
2025-03-05 13:33:04.010,65.78158458244111,0.012962076656363975,-0.07403014022784649,-0.061067840680660714,0.06775457029336535
2025-03-05 13:33:04.012,65.78158458244111,0.01179802272683819,-0.07307209385003403,-0.06127385046576894,0.06871872111391508
2025-03-05 13:33:04.013,65.78158458244111,0.010891567950777828,-0.07199463400314675,-0.06110284761185956,0.0683092040222027
2025-03-05 13:33:04.015,65.78158458244111,0.009874412044100002,-0.07135051898614744,-0.06147589070236287,0.06705894645297333
2025-03-05 13:33:04.017,65.78158458244111,0.008317798949139458,-0.0711628280998771,-0.06284481510615864,0.065951253289842
2025-03-05 13:33:04.019,65.78158458244111,0.005968239646553184,-0.07096728983600269,-0.06499883834911241,0.06594594394903729
2025-03-05 13:33:04.021,65.78158458244111,0.0028925882579030923,-0.07008817870887421,-0.06719538083536851,0.06753625515057632
2025-03-05 13:33:04.023,65.78158458244111,-0.0005592419000058693,-0.06802136970064052,-0.06858040423192319,0.07053496250157926
2025-03-05 13:33:04.025,65.78158458244111,-0.00394651213767433,-0.06474460797390762,-0.06869091500275624,0.07417336317833659
2025-03-05 13:33:04.027,65.78158458244111,-0.006957789976699328,-0.0608007789622121,-0.06775836608779653,0.07741289136532435
2025-03-05 13:33:04.029,65.78158458244111,-0.009523202924742527,-0.057106505853065884,-0.06662950816897346,0.07927094247823821
2025-03-05 13:33:04.031,65.78158458244111,-0.011756334215638809,-0.05457914566386076,-0.06633528149334011,0.07904784945187325
2025-03-05 13:33:04.033,65.78158458244111,-0.01377365363561331,-0.05376785469846191,-0.0675413121582352,0.07648480851032569
2025-03-05 13:33:04.035,65.78158458244111,-0.01552990668526641,-0.05466060579630446,-0.07019031851862143,0.07188652183219815
2025-03-05 13:33:04.037,65.78158458244111,-0.016804512942944314,-0.05673611632181099,-0.07354043753194935,0.06613020322670105
2025-03-05 13:33:04.039,65.78158458244111,-0.017354163159105006,-0.05921219894887345,-0.07656617262908666,0.06045573267296931
2025-03-05 13:33:04.041,65.78158458244111,-0.017107251159468352,-0.06136545535957947,-0.07847251931252953,0.05605350124326312
2025-03-05 13:33:04.043,65.78158458244111,-0.016247155720521114,-0.06277553980875106,-0.0790225105990645,0.053605257694233965
2025-03-05 13:33:04.045,65.78158458244111,-0.01513316431219817,-0.06339177818683459,-0.0785247598329327,0.05299117884227897
2025-03-05 13:33:04.047,65.78158458244111,-0.014138905980281056,-0.06342122671918181,-0.07755995227608108,0.053347025346149796
2025-03-05 13:33:04.049,65.78158458244111,-0.013535842123234526,-0.06313050289951463,-0.07666616682343548,0.053515676686899216
2025-03-05 13:33:04.051,65.78158458244111,-0.013481856963000726,-0.06267666950872702,-0.07615835049115718,0.05269547087903797
2025-03-05 13:33:04.053,65.78158458244111,-0.014059843718758958,-0.062043784433878216,-0.07610345440238032,0.050896505273557394
2025-03-05 13:33:04.054,65.78158458244111,-0.015264782950002382,-0.0611071895000006,-0.07637180095308803,0.048883281193283945
2025-03-05 13:33:04.056,65.78158458244111,-0.016919250711571136,-0.059790976577107455,-0.07671005806794419,0.04763216151047284
2025-03-05 13:33:04.058,65.78158458244111,-0.018620237327178397,-0.05822420006428602,-0.07684427045785128,0.04769953172623151
2025-03-05 13:33:04.060,65.78158458244111,-0.019830653962083097,-0.05677975044529705,-0.07661023975440498,0.048940899311550046
2025-03-05 13:33:04.062,65.78158458244111,-0.02010588831801496,-0.05594363708527832,-0.07604936301070853,0.05069924468528728
2025-03-05 13:33:04.064,65.78158458244111,-0.01932621757183635,-0.056079145343003935,-0.07540520275960458,0.05221449008146066
2025-03-05 13:33:04.066,65.78158458244111,-0.017794756974977628,-0.05722536025824367,-0.07501995930198455,0.05292599352463138
2025-03-05 13:33:04.068,65.78158458244111,-0.01613768220093425,-0.059049044339007505,-0.07518657083639539,0.05256036475599003
2025-03-05 13:33:04.070,65.78158458244111,-0.0150471307865593,-0.060980630890312464,-0.07602760822001439,0.05114453271441351
2025-03-05 13:33:04.072,65.78158458244111,-0.014991271267429355,-0.06246390634064854,-0.07745502642228137,0.049079452756912445
2025-03-05 13:33:04.074,65.78158458244111,-0.0160364009867299,-0.06318062975414004,-0.07921688184302485,0.04717484967476442
2025-03-05 13:33:04.076,65.78158458244111,-0.017860103833552868,-0.0631265885276728,-0.08098654575182695,0.046422702514724815
2025-03-05 13:33:04.078,65.78158458244111,-0.01992292339310359,-0.06252440412099472,-0.08244718317703677,0.04751510176254089
2025-03-05 13:33:04.080,65.78158458244111,-0.021690120474519476,-0.061669784395624164,-0.08335976278130425,0.05044900801146238
2025-03-05 13:33:04.082,65.78158458244111,-0.02280034829854027,-0.060814703330035205,-0.08361491176861699,0.05455434336514334
2025-03-05 13:33:04.084,65.78158458244111,-0.023137277930612946,-0.06010921124087333,-0.08324635153594034,0.05888586666079214
2025-03-05 13:33:04.086,65.78158458244111,-0.022814791933124363,-0.05957167648136353,-0.08238633301578192,0.06259444647079776
2025-03-05 13:33:04.088,65.78158458244111,-0.022104164019690332,-0.05909641515149635,-0.0812004460315643,0.06502448906080294
2025-03-05 13:33:04.090,65.78158458244111,-0.021323896119983525,-0.058552654970735606,-0.07987642022993609,0.06568516496239198
2025-03-05 13:33:04.092,65.78158458244111,-0.02071325873363172,-0.05796316136862115,-0.0786762915267097,0.06438721853253757
2025-03-05 13:33:04.093,65.78158458244111,-0.020337586718738112,-0.05761684799721487,-0.07795430841509068,0.061524739960542224
2025-03-05 13:33:04.095,65.78158458244111,-0.020095518098109947,-0.05795145390250102,-0.0780468479524155,0.05813573907998415
2025-03-05 13:33:04.097,65.78158458244111,-0.019853263944578918,-0.05922462590716917,-0.07907776803426507,0.05550677935297711
2025-03-05 13:33:04.099,65.78158458244111,-0.01962233376083272,-0.06121577520438562,-0.08083798936776246,0.05455839800620943
2025-03-05 13:33:04.101,65.78158458244111,-0.019633621286708678,-0.06322581995962945,-0.08285932387433177,0.05546530345542624
2025-03-05 13:33:04.103,65.78158458244111,-0.02022815553114497,-0.06441771856451346,-0.08464575896658802,0.05771486082398518
2025-03-05 13:33:04.105,65.78158458244111,-0.021628825215621712,-0.06426693092100949,-0.0858956432694911,0.06044707277558708
2025-03-05 13:33:04.107,65.78158458244111,-0.02375009467617214,-0.06281049741171413,-0.08656048149200048,0.06281483696735261
2025-03-05 13:33:04.109,65.78158458244111,-0.026175287059258565,-0.06055583774203052,-0.08673101647064109,0.06423648373674336
2025-03-05 13:33:04.111,65.78158458244111,-0.028318236622185328,-0.058168816494078325,-0.08648694703232901,0.06453809431138324
2025-03-05 13:33:04.113,65.78158458244111,-0.029674883524137285,-0.05617817119078206,-0.08585295085624992,0.0639821031743468
2025-03-05 13:33:04.115,71.77570093457943,-0.030024415425684296,-0.05484744665897138,-0.08487176043775826,0.06315340151809519
2025-03-05 13:33:04.117,71.77570093457943,-0.02947797196806906,-0.054206939068774496,-0.08368481160227458,0.06272459228038621
2025-03-05 13:33:04.119,71.77570093457943,-0.028374747835438915,-0.0541488277216719,-0.08252347834748745,0.06319660098437463
2025-03-05 13:33:04.121,71.77570093457943,-0.02711654610327171,-0.0544990441284679,-0.08161549526295978,0.06472478012001942
2025-03-05 13:33:04.123,71.77570093457943,-0.026034410919361997,-0.0550451323771701,-0.08107945057730347,0.0670842874754737
2025-03-05 13:33:04.125,71.77570093457943,-0.025314314226629154,-0.05556021038357969,-0.08087443413586956,0.06974397257815995
2025-03-05 13:33:04.127,71.77570093457943,-0.024968478135026007,-0.05587134924067573,-0.08083973912978837,0.07198166856884378
2025-03-05 13:33:04.129,71.77570093457943,-0.02485382966158977,-0.05596887910639147,-0.08082262273051648,0.0730241159079672
2025-03-05 13:33:04.131,71.77570093457943,-0.02474222761315514,-0.05608631326107278,-0.08082845703183399,0.07224705085459374
2025-03-05 13:33:04.133,71.77570093457943,-0.024408488008164593,-0.05666587840555365,-0.08107428476563644,0.06943401489372292
2025-03-05 13:33:04.134,71.77570093457943,-0.023686371805110018,-0.0581894284921424,-0.08187572085376266,0.0650002687454895
2025-03-05 13:33:04.136,71.77570093457943,-0.022489404574361983,-0.06095002788261002,-0.08343935523116712,0.06002920061882258
2025-03-05 13:33:04.138,71.77570093457943,-0.02083456267535181,-0.06488322695397712,-0.0857177146271217,0.056004250346561646
2025-03-05 13:33:04.140,71.77570093457943,-0.018871222142158674,-0.06953711941359242,-0.08840826877007801,0.054263161410870495
2025-03-05 13:33:04.142,71.77570093457943,-0.01686065043964917,-0.07418261280555592,-0.09104319265796834,0.05538395232501876
2025-03-05 13:33:04.144,71.77570093457943,-0.015081841486164982,-0.0780151292612472,-0.09309690233813495,0.05882337315529248
2025-03-05 13:33:04.146,71.77570093457943,-0.013732673553480044,-0.08039080665297081,-0.09412341396256683,0.06308302905574942
2025-03-05 13:33:04.148,71.77570093457943,-0.012909189825958785,-0.08103619178620515,-0.09394531753473444,0.06641579420460608
2025-03-05 13:33:04.150,71.77570093457943,-0.012649940784247873,-0.08015106633977105,-0.09280094522522228,0.0676893958908841
2025-03-05 13:33:04.152,71.77570093457943,-0.012964351996167162,-0.07833501426076359,-0.09129930655049918,0.06684089926742756
2025-03-05 13:33:04.154,71.77570093457943,-0.013810610598730103,-0.07634788287631479,-0.09015843596513554,0.06466856937667002
2025-03-05 13:33:04.156,71.77570093457943,-0.015065831962868797,-0.07481208443277855,-0.08987786107084317,0.06225273686225897
2025-03-05 13:33:04.158,71.77570093457943,-0.01653677520887094,-0.07399802167015725,-0.09053474371542072,0.0604863650639446
2025-03-05 13:33:04.160,71.77570093457943,-0.018007905144136995,-0.07378540103721866,-0.09179325515341132,0.05989746447186481
2025-03-05 13:33:04.162,71.77570093457943,-0.019287804819576433,-0.07380702604977228,-0.09309478196250408,0.060633935774919705
2025-03-05 13:33:04.164,71.77570093457943,-0.020228114288128103,-0.07370076087166161,-0.0939288283773097,0.06249797651881453
2025-03-05 13:33:04.166,71.77570093457943,-0.02072877436681652,-0.07334037082062932,-0.09406910054702575,0.06504599173401458
2025-03-05 13:33:04.168,71.77570093457943,-0.020761021032534573,-0.07291469569654235,-0.09367567425047349,0.06774770630070989
2025-03-05 13:33:04.170,71.77570093457943,-0.020409635842165562,-0.07280793745657779,-0.09321753298912142,0.0701372721948419
2025-03-05 13:33:04.172,71.77570093457943,-0.01988800574325368,-0.07336369230717463,-0.09325165989591158,0.07192317738913874
2025-03-05 13:33:04.173,71.77570093457943,-0.019474408554170732,-0.07467789717060101,-0.09415226969362463,0.07304458373412023
2025-03-05 13:33:04.175,71.77570093457943,-0.019379629482079507,-0.07651098611488104,-0.09589058165340214,0.07362846416225834
2025-03-05 13:33:04.177,71.77570093457943,-0.019626914419115474,-0.07833027191406017,-0.09795715445457247,0.07383848617209023
2025-03-05 13:33:04.179,71.77570093457943,-0.02002584055489813,-0.07947805368178515,-0.09950386442441703,0.07371578613873422
2025-03-05 13:33:04.181,71.77570093457943,-0.020253915932541437,-0.0794532772024581,-0.09970716541229842,0.07314469256426795
2025-03-05 13:33:04.183,71.77570093457943,-0.019994218545307103,-0.07821246466492769,-0.09820665760729154,0.07196230528847532
2025-03-05 13:33:04.185,71.77570093457943,-0.019062325271283806,-0.07630317465474516,-0.09536547646001299,0.07008837298292342
2025-03-05 13:33:04.187,71.77570093457943,-0.017485437868368585,-0.07468199315817428,-0.09216740968750767,0.06756419848422737
2025-03-05 13:33:04.189,71.77570093457943,-0.015525151577945137,-0.07426036243029992,-0.08978549475928597,0.06453491006762944
2025-03-05 13:33:04.191,71.77570093457943,-0.013625942072493432,-0.07542477036463632,-0.08905069522962529,0.06126930562459992
2025-03-05 13:33:04.193,71.77570093457943,-0.012268118579958341,-0.07782097022083048,-0.09008907359713371,0.058218826854041617
2025-03-05 13:33:04.195,71.77570093457943,-0.011768789689889057,-0.08052649106121522,-0.09229526754270212,0.05602431628213179
2025-03-05 13:33:04.197,71.77570093457943,-0.012145049620793326,-0.08249661408649492,-0.09464165251751543,0.05538482872916311
2025-03-05 13:33:04.199,71.77570093457943,-0.013117192059116736,-0.08304541335162481,-0.09616259628037115,0.056777416892495006
2025-03-05 13:33:04.201,71.77570093457943,-0.014224202634348829,-0.08215483993086024,-0.09637903552735887,0.06011367522465774
2025-03-05 13:33:04.203,71.77570093457943,-0.014986471042622409,-0.08049114278605116,-0.09547760888649455,0.06451030480228065
2025-03-05 13:33:04.205,71.77570093457943,-0.015087746826976776,-0.07909979510971929,-0.09418753905618472,0.06839003172705398
2025-03-05 13:33:04.207,71.77570093457943,-0.014541668199979551,-0.07888335540226034,-0.09342502272487992,0.07002364473161268
2025-03-05 13:33:04.209,71.77570093457943,-0.013747357710033936,-0.08011530091657966,-0.09386265969593761,0.06834503219092108
2025-03-05 13:33:04.211,71.77570093457943,-0.013352192356192776,-0.082278237028536,-0.09563043237302374,0.0635946561371393
2025-03-05 13:33:04.212,71.77570093457943,-0.013965172167695506,-0.08434991324944527,-0.0983150903378172,0.05734501930448905
2025-03-05 13:33:04.214,71.77570093457943,-0.015867838226068083,-0.08538284138519898,-0.10125068650955288,0.05180956041336624
2025-03-05 13:33:04.216,71.77570093457943,-0.01885267251069777,-0.08504060035370425,-0.10389328179044031,0.04879322239336787
2025-03-05 13:33:04.218,71.77570093457943,-0.022246820482427997,-0.0837897535351096,-0.10603658499563405,0.04887010248738028
2025-03-05 13:33:04.220,71.77570093457943,-0.02513385975111716,-0.08264523412715724,-0.10777910688866084,0.05122840287534646
2025-03-05 13:33:04.222,71.77570093457943,-0.026727755237659325,-0.08260659004241476,-0.10933436026345944,0.0542155398002996
2025-03-05 13:33:04.224,71.77570093457943,-0.026739309335532372,-0.0840953663953888,-0.1108346926142646,0.05621075200403674
2025-03-05 13:33:04.226,71.77570093457943,-0.025513457551332202,-0.08670681539083337,-0.1122202916726897,0.05632537815609573
2025-03-05 13:33:04.228,71.77570093457943,-0.023833602835559495,-0.0894016276700397,-0.11323525107520349,0.05464055307852936
2025-03-05 13:33:04.230,71.77570093457943,-0.02251691365281076,-0.09101531516855066,-0.11353225126811398,0.052004276279941974
2025-03-05 13:33:04.232,71.77570093457943,-0.022054515762696476,-0.0908119533526689,-0.11286649350052211,0.049578806220075045
2025-03-05 13:33:04.234,71.77570093457943,-0.02248173949886701,-0.08881538663496723,-0.11129715250579608,0.048342898533777455
2025-03-05 13:33:04.236,71.77570093457943,-0.023481734731376443,-0.08578961573769076,-0.109271378832964,0.04872260087829811
2025-03-05 13:33:04.238,71.77570093457943,-0.024588911615234316,-0.08292119532702619,-0.10751013725141653,0.05047961343226652
2025-03-05 13:33:04.240,71.77570093457943,-0.02536218497169564,-0.08136310492682078,-0.10672532207293077,0.052882912088335836
2025-03-05 13:33:04.242,71.77570093457943,-0.025496311250653814,-0.0818023073530919,-0.10729865256658007,0.05505144649875855
2025-03-05 13:33:04.244,71.77570093457943,-0.024897026562982,-0.0841867068656349,-0.10908376914193861,0.0562924103947696
2025-03-05 13:33:04.246,71.77570093457943,-0.02371022004200959,-0.08772858406324704,-0.11143884158620695,0.056309552008101775
2025-03-05 13:33:04.248,71.77570093457943,-0.022258009660836176,-0.09123282928225405,-0.11349087825150785,0.05523973421984064
2025-03-05 13:33:04.250,71.77570093457943,-0.02087697373725347,-0.09364625794898576,-0.11452327288958489,0.05354016524470185
2025-03-05 13:33:04.252,71.77570093457943,-0.019739008571323054,-0.09456988192543085,-0.11430893363024017,0.05181036294593031
2025-03-05 13:33:04.253,71.77570093457943,-0.018775035396804085,-0.09444652623072931,-0.11322160667025113,0.050656681904465824
2025-03-05 13:33:04.255,71.77570093457943,-0.017766090355597904,-0.0942899688000449,-0.11205610603548957,0.050622058251623615
2025-03-05 13:33:04.257,71.77570093457943,-0.016542984809515278,-0.09509160887353185,-0.11163464230840711,0.052080265774794667
2025-03-05 13:33:04.259,71.77570093457943,-0.015145658471791428,-0.09725443673310978,-0.11240014550699173,0.05501811117523726
2025-03-05 13:33:04.261,71.77570093457943,-0.013819147564528598,-0.10039860620124567,-0.11421780572973944,0.05882786729664552
2025-03-05 13:33:04.263,71.77570093457943,-0.01284331833337686,-0.10364357412335348,-0.11648694612510897,0.06237691851483458
2025-03-05 13:33:04.265,71.77570093457943,-0.012320409507140676,-0.10615757199837475,-0.11847803695189486,0.0644820191737536
2025-03-05 13:33:04.267,71.77570093457943,-0.012092534338739844,-0.10759823389378415,-0.11969082551870137,0.06454909245281683
2025-03-05 13:33:04.269,71.77570093457943,-0.011877979297412288,-0.10817419883419692,-0.12005223727032693,0.06289753481756663
2025-03-05 13:33:04.271,71.77570093457943,-0.011536601363958324,-0.10835442981083268,-0.11989109211745363,0.060490815994160625
2025-03-05 13:33:04.273,71.77570093457943,-0.011246251054233523,-0.1084977071083627,-0.11974402081858493,0.05830954028526331
2025-03-05 13:33:04.275,71.77570093457943,-0.011425197688987355,-0.10867598189817168,-0.1201012438650117,0.05688229367622409
2025-03-05 13:33:04.277,71.77570093457943,-0.012439169687266298,-0.10875525019673256,-0.12119448573329955,0.0562380631767877
2025-03-05 13:33:04.279,71.77570093457943,-0.014310396955836283,-0.10859253503436837,-0.12290299942251008,0.056126104254833026
2025-03-05 13:33:04.281,71.77570093457943,-0.016643796025742952,-0.10817805971017581,-0.12482192481378053,0.05625114243675165
2025-03-05 13:33:04.283,71.77570093457943,-0.018808677308664083,-0.10765887663339209,-0.12646762474166112,0.05643792346491858
2025-03-05 13:33:04.285,71.77570093457943,-0.020226526718106125,-0.10727347823268499,-0.1275000775174125,0.05671938476934922
2025-03-05 13:33:04.287,71.77570093457943,-0.020577329884167113,-0.10725008432133232,-0.12782748852472559,0.05730491744299409
2025-03-05 13:33:04.289,71.77570093457943,-0.019845833948269564,-0.10772084379702908,-0.1275667537449,0.058421244028815204
2025-03-05 13:33:04.291,71.77570093457943,-0.018248022790968703,-0.10869370064320047,-0.12694180101566505,0.060112075317765704
2025-03-05 13:33:04.292,71.77570093457943,-0.016115625848296893,-0.1100797312365835,-0.12619543616855036,0.06210661753423108
2025-03-05 13:33:04.294,71.77570093457943,-0.013800888015546511,-0.11172445895419408,-0.12552542752991072,0.0638436751828448
2025-03-05 13:33:04.296,71.77570093457943,-0.011635801716180314,-0.11339575412681009,-0.1250316379154711,0.06469304568873144
2025-03-05 13:33:04.298,71.77570093457943,-0.00993250083909301,-0.11474123243818282,-0.12467381693520967,0.06428384053551414
2025-03-05 13:33:04.300,71.77570093457943,-0.008966360017634827,-0.11528635743712821,-0.1242528027654044,0.06271555844836915
2025-03-05 13:33:04.302,71.77570093457943,-0.008897676883002576,-0.11454715865134404,-0.12344492251904217,0.060498486362501776
2025-03-05 13:33:04.304,71.77570093457943,-0.009655460465643775,-0.11226314613970577,-0.12191869522322489,0.05829682904373225
2025-03-05 13:33:04.306,71.77570093457943,-0.010862781797136718,-0.1086384689093606,-0.11950134087005367,0.056662184728726896
2025-03-05 13:33:04.308,71.77570093457943,-0.011887711044964914,-0.1043985027565482,-0.11628630541590768,0.05587703376042025
2025-03-05 13:33:04.310,71.77570093457943,-0.012047375509900267,-0.10054236621834842,-0.11258983473395917,0.055934903500173806
2025-03-05 13:33:04.312,71.77570093457943,-0.01088792311659028,-0.09788936379453227,-0.10877738130814851,0.05664198303944994
2025-03-05 13:33:04.314,71.77570093457943,-0.008380131741020418,-0.0966888319570194,-0.10506905953946626,0.05778275562460758
2025-03-05 13:33:04.316,71.77570093457943,-0.0048991640391136656,-0.09652385269955495,-0.10142311409722161,0.05924175569452069
2025-03-05 13:33:04.318,71.77570093457943,-0.0010034018711464684,-0.09653634941862202,-0.09753985021475109,0.06098850027480155
2025-03-05 13:33:04.320,71.77570093457943,0.0028227368325503092,-0.09581658076540113,-0.09299394441953795,0.06294468605276266
2025-03-05 13:33:04.322,71.77570093457943,0.006285178149301581,-0.09376178801610865,-0.0874767118537164,0.06486648024746297
2025-03-05 13:33:04.324,71.77570093457943,0.00922092608899902,-0.09029124999484911,-0.08107042730086504,0.0663676301307572
2025-03-05 13:33:04.326,71.77570093457943,0.011477393136754726,-0.08588863427615032,-0.07441134586100022,0.06708767160273857
2025-03-05 13:33:04.328,71.77570093457943,0.012860812340945231,-0.08146641373288288,-0.06860570740436116,0.06689153280239482
2025-03-05 13:33:04.330,71.77570093457943,0.013194650813388933,-0.07805862370179434,-0.06486408021294676,0.06596331791254845
2025-03-05 13:33:04.332,71.77570093457943,0.01244812490152791,-0.0763956672588617,-0.06394765105456748,0.06472917742853515
2025-03-05 13:33:04.333,71.77570093457943,0.010861958896668656,-0.07648210406899952,-0.0656202553047731,0.0636481204097142
2025-03-05 13:33:04.335,71.77570093457943,0.008990707101963629,-0.07735061474486384,-0.06836001923742512,0.06297788683952273
2025-03-05 13:33:04.337,71.77570093457943,0.0076111958374485995,-0.07717553954464082,-0.06956445673620448,0.0626461699781175
2025-03-05 13:33:04.339,71.77570093457943,0.00753047619932714,-0.07385287978005702,-0.06632251797119126,0.06234115501369211
2025-03-05 13:33:04.341,71.77570093457943,0.009399635997196383,-0.06594347567554104,-0.05654395534346762,0.06182392583870474
2025-03-05 13:33:04.343,71.77570093457943,0.013617210807927282,-0.05358374027033423,-0.03996664633951028,0.06125783567024822
2025-03-05 13:33:04.345,71.77570093457943,0.020308846870530507,-0.038805068268970636,-0.018496339473760517,0.06123989131770121
2025-03-05 13:33:04.347,71.77570093457943,0.029307539621474178,-0.02489410814628703,0.004413312166871535,0.062405297348971156
2025-03-05 13:33:04.349,71.77570093457943,0.04009466224107802,-0.0149615210722146,0.0251330205689487,0.06485440085343416
2025-03-05 13:33:04.351,71.77570093457943,0.05175479745399818,-0.010449257910899864,0.0413054176051561,0.06786438586305979
2025-03-05 13:33:04.353,71.77570093457943,0.06305473504199198,-0.010469642825512666,0.05258496893519466,0.07016836155872919
2025-03-05 13:33:04.355,71.77570093457943,0.07271084498573091,-0.012433252325162479,0.06027746807933622,0.07066702567222552
2025-03-05 13:33:04.357,71.77570093457943,0.07977304401100171,-0.013624986490191542,0.0661479317148157,0.06913465437328371
2025-03-05 13:33:04.359,71.77570093457943,0.08393403464221542,-0.012773936820408782,0.07115997086576353,0.06647678743142224
2025-03-05 13:33:04.361,71.77570093457943,0.08558088627652045,-0.01067449982805065,0.07490625838555924,0.06434503624802182
2025-03-05 13:33:04.363,71.77570093457943,0.08554306294633338,-0.009541567989863107,0.07600136578390147,0.06428002713044303
2025-03-05 13:33:04.365,71.77570093457943,0.08465702974217898,-0.011571227172762384,0.07308567224726006,0.06685406920154524
2025-03-05 13:33:04.367,71.77570093457943,0.0833694520906042,-0.01760961047961414,0.06575971008915305,0.07133259360334883
2025-03-05 13:33:04.369,71.77570093457943,0.08159213519231012,-0.02667928711570016,0.05491271532599134,0.07609416731621671
2025-03-05 13:33:04.371,71.77570093457943,0.07888956587830696,-0.03653358934330546,0.04235584256726267,0.07957089232918307
2025-03-05 13:33:04.372,71.77570093457943,0.07488196915903736,-0.04481351000819145,0.03006832401740025,0.08111624732972084
2025-03-05 13:33:04.374,71.77570093457943,0.06961563889593136,-0.05013969665431413,0.019475806013035564,0.08125535039589815
2025-03-05 13:33:04.376,71.77570093457943,0.06367829226302293,-0.05263670040548504,0.0110414545941914,0.0811751137142247
2025-03-05 13:33:04.378,71.77570093457943,0.057980462948911154,-0.05373022703748349,0.004250097640133406,0.08179556800990351
2025-03-05 13:33:04.380,71.77570093457943,0.05329381966956921,-0.055368772908268915,-0.0020750925307348603,0.08306840396569373
2025-03-05 13:33:04.382,71.77570093457943,0.04978151345675855,-0.05904228790757409,-0.009260914802357939,0.08403276590135088
2025-03-05 13:33:04.384,71.77570093457943,0.04680659746926356,-0.0650709194905131,-0.018264463471076686,0.08357420497969911
2025-03-05 13:33:04.386,71.77570093457943,0.04317227398638504,-0.07252150657005202,-0.02934937514544939,0.08124673733703246
2025-03-05 13:33:04.388,71.77570093457943,0.037681634687603965,-0.07976853503314128,-0.042087043995870065,0.07754114908860867
2025-03-05 13:33:04.390,71.77570093457943,0.029717073006558837,-0.08535993868138907,-0.05564301035985369,0.0735479585396145
2025-03-05 13:33:04.392,71.77570093457943,0.01955913051871288,-0.0887313064322271,-0.06917232157026632,0.07039132477070173
2025-03-05 13:33:04.394,71.77570093457943,0.008313228634727858,-0.0904578053271282,-0.08214472327394895,0.06875983501977193
2025-03-05 13:33:04.396,71.77570093457943,-0.0025223378740925322,-0.09196432405624545,-0.09448680942224467,0.06865005712029529
2025-03-05 13:33:04.398,71.77570093457943,-0.011664951302713847,-0.0948102066952732,-0.10647530641829801,0.06937333689494858
2025-03-05 13:33:04.400,71.77570093457943,-0.0185544324594425,-0.09983272617031479,-0.11838730801303637,0.06984558459479187
2025-03-05 13:33:04.402,71.77570093457943,-0.023512083401623723,-0.10655161929260924,-0.13006385306796525,0.06904987866355629
2025-03-05 13:33:04.404,71.77570093457943,-0.027480168162853844,-0.11319583378611527,-0.14067615331416158,0.06645709909139333
2025-03-05 13:33:04.406,71.77570093457943,-0.031484347590352776,-0.11745532427278928,-0.1489398241885419,0.062233008697323684
2025-03-05 13:33:04.408,71.77570093457943,-0.03609037185152113,-0.1176815060606764,-0.15377203114458535,0.05718512060563339
2025-03-05 13:33:04.410,71.77570093457943,-0.04112103159805523,-0.11395050224644598,-0.15507168792953407,0.05249837829825216
2025-03-05 13:33:04.412,71.77570093457943,-0.045780535988291626,-0.10835163919569586,-0.1541323300870156,0.04933894613274599
2025-03-05 13:33:04.413,71.77570093457943,-0.04913946321631302,-0.104178466295874,-0.153318085228761,0.04841164139785514
2025-03-05 13:33:04.415,71.77570093457943,-0.05073309294112654,-0.10429670674184648,-0.15502995623411758,0.04960205774313916
2025-03-05 13:33:04.417,71.77570093457943,-0.05093577457205113,-0.10951394199645802,-0.1604498739835017,0.051893946324082285
2025-03-05 13:33:04.419,71.77570093457943,-0.05087728966445973,-0.11789284907309398,-0.16877029703307223,0.05371117951086951
2025-03-05 13:33:04.421,71.77570093457943,-0.0519160638971945,-0.12549969084607743,-0.17741591390937397,0.053631221862973394
2025-03-05 13:33:04.423,71.77570093457943,-0.05492888182468207,-0.12829959408857552,-0.18322863591301827,0.051144261414505926
2025-03-05 13:33:04.425,71.77570093457943,-0.059784176618409686,-0.12424927732523453,-0.18403361472631896,0.04699725115981107
2025-03-05 13:33:04.427,71.77570093457943,-0.06528904258734275,-0.11448443384047644,-0.17977363794863954,0.04284210704785459
2025-03-05 13:33:04.429,71.77570093457943,-0.06967509605753981,-0.10294987464578279,-0.1726251329398491,0.040348078073319055
2025-03-05 13:33:04.431,71.77570093457943,-0.07141596113890779,-0.09461700231773848,-0.1660331264135296,0.04031431601971018
2025-03-05 13:33:04.433,71.77570093457943,-0.06998650019982061,-0.09313635391658427,-0.16312301781639782,0.04230453771870194
2025-03-05 13:33:04.435,71.77570093457943,-0.06618513678173774,-0.09905201048922847,-0.16523731173700631,0.04494296454774166
2025-03-05 13:33:04.437,71.77570093457943,-0.06184731585359754,-0.10946632838976258,-0.1713138094809754,0.04661243413581446
2025-03-05 13:33:04.439,71.77570093457943,-0.05907702447593291,-0.11937642056947478,-0.17845361103437762,0.04617535561306489
2025-03-05 13:33:04.441,71.77570093457943,-0.05935800839003063,-0.12406800030307223,-0.1834261753924561,0.0434534911048213
2025-03-05 13:33:04.443,71.77570093457943,-0.06295037287955457,-0.12137772254456809,-0.18432826278768627,0.039324224266878025
2025-03-05 13:33:04.445,71.77570093457943,-0.06882452737752096,-0.11268793944064809,-0.1815126348125233,0.035356004642359724
2025-03-05 13:33:04.447,71.77570093457943,-0.07513925975986357,-0.10218322053909708,-0.17732264891453056,0.03307582137859447
2025-03-05 13:33:04.449,71.77570093457943,-0.08004665300487707,-0.09477639549520837,-0.17482321774975293,0.03323428250515494
2025-03-05 13:33:04.451,71.77570093457943,-0.0824702036280147,-0.09372625077915964,-0.17619662431331443,0.035486794586074746
2025-03-05 13:33:04.452,71.77570093457943,-0.08250926276913549,-0.09905204757777919,-0.18156148092375746,0.038612165637886796
2025-03-05 13:33:04.454,71.77570093457943,-0.08129935316213496,-0.10743069510765378,-0.18873021951037208,0.041069189169570065
2025-03-05 13:33:04.456,71.77570093457943,-0.08042328060745073,-0.11359859498655031,-0.19402204746848373,0.04160897905603845
2025-03-05 13:33:04.458,71.77570093457943,-0.08115372440203034,-0.11269922375032888,-0.19385312061843643,0.03971194572243522
2025-03-05 13:33:04.460,71.77570093457943,-0.08381214329239259,-0.10272791613966595,-0.18654023245184123,0.035706417825727844
2025-03-05 13:33:04.462,71.77570093457943,-0.08741871944534309,-0.08623163510708926,-0.1736505281067855,0.030611527707471588
2025-03-05 13:33:04.464,71.77570093457943,-0.08971931822109766,-0.07062153686446379,-0.1603410291783149,0.02594085533715236
2025-03-05 13:33:04.466,71.77570093457943,-0.08763981527319073,-0.06679245364693823,-0.15443244357002062,0.023670621198331934
2025-03-05 13:33:04.468,71.77570093457943,-0.07815760350273974,-0.0862136655896512,-0.16437144431717116,0.026307766868899764
2025-03-05 13:33:04.470,71.77570093457943,-0.059430647352645596,-0.13720493951451698,-0.19663576266845845,0.036753231975892184
2025-03-05 13:33:04.472,71.77570093457943,-0.03180444651728698,-0.2215779764424851,-0.25338259931685725,0.0576879455087848
2025-03-05 13:33:04.474,71.77570093457943,0.0018519030456460913,-0.3329596641310717,-0.3311079379612046,0.09056179735030957
2025-03-05 13:33:04.476,71.77570093457943,0.036935915786053125,-0.45768389364418555,-0.420748155214028,0.1347290618304886
2025-03-05 13:33:04.478,71.77570093457943,0.06899677341010246,-0.5781504861488902,-0.5091538905503936,0.18742369553797109
2025-03-05 13:33:04.480,71.77570093457943,0.09599620689712116,-0.6774547332605357,-0.581458704628359,0.24482949734768938
2025-03-05 13:33:04.482,71.77570093457943,0.119828250563142,-0.7435584873625526,-0.6237304155331308,0.3037053732827521
2025-03-05 13:33:04.484,71.77570093457943,0.1462476786922152,-0.7715948482439975,-0.6253473487735395,0.36248014262597894
2025-03-05 13:33:04.486,71.77570093457943,0.1831265136793397,-0.7637078473741575,-0.5805815134116614,0.42092590483315245
2025-03-05 13:33:04.488,71.77570093457943,0.2376476572313051,-0.7265548763327375,-0.48890739929898436,0.47841741509131297
2025-03-05 13:33:04.490,71.77570093457943,0.31325194419053753,-0.6670936772063933,-0.3538419136610582,0.5317877248300568
2025-03-05 13:33:04.492,71.77570093457943,0.40703892843811257,-0.5878060794554432,-0.18076733207169546,0.5741757381380597
2025-03-05 13:33:04.493,71.77570093457943,0.508329112238446,-0.4831869546726963,0.02514197612971711,0.5957465208250664
2025-03-05 13:33:04.495,71.77570093457943,0.5993282533948635,-0.33969888649263175,0.25962918509058935,0.586112558286004
2025-03-05 13:33:04.497,71.77570093457943,0.6587393966513595,-0.1406810354176298,0.5180581790325033,0.5374375521351739
2025-03-05 13:33:04.499,71.77570093457943,0.668060711995971,0.12446563788668155,0.7925261672703703,0.44705778046069
2025-03-05 13:33:04.501,71.77570093457943,0.6183927474945501,0.4503567137562847,1.0687492782152552,0.3187659869249529
2025-03-05 13:33:04.503,71.77570093457943,0.5142934277051255,0.8102359395347047,1.3245291837895403,0.16217361490395554
2025-03-05 13:33:04.505,71.77570093457943,0.37216002360443623,1.1592462658906024,1.5314061056593986,-0.009991530516756351
2025-03-05 13:33:04.507,71.77570093457943,0.21378548792814162,1.4463854259446745,1.6601707296902082,-0.18567429631596183
2025-03-05 13:33:04.509,71.77570093457943,0.05887840691612231,1.6303193234389701,1.689197545855976,-0.3562450917238793
2025-03-05 13:33:04.511,71.77570093457943,-0.07931837346348067,1.6918167401147641,1.612498181845531,-0.5164571963594775
2025-03-05 13:33:04.513,71.77570093457943,-0.19402201410397868,1.6373271322531664,1.443304933024879,-0.6619425049947378
2025-03-05 13:33:04.515,71.77570093457943,-0.282582474747792,1.493067318988963,1.2104846587756393,-0.7866042045641031
2025-03-05 13:33:04.517,71.77570093457943,-0.34472289940639256,1.293814864848792,0.9490917796194265,-0.8823093004764148
2025-03-05 13:33:04.519,71.77570093457943,-0.3823108421950023,1.072410014871147,0.6900989864996473,-0.9413001427922486
2025-03-05 13:33:04.521,71.77570093457943,-0.39947272352619034,0.8539696358573574,0.45449672582758915,-0.9595084511898616
2025-03-05 13:33:04.523,71.77570093457943,-0.4016683387945793,0.6550319198394121,0.25336339425278714,-0.938348389865674
2025-03-05 13:33:04.525,71.77570093457943,-0.39374676880070575,0.48519212479127855,0.09144516894351534,-0.8838991204705883
2025-03-05 13:33:04.527,71.77570093457943,-0.37819954669792116,0.34866433633933996,-0.029535397646809555,-0.8043443756126879
2025-03-05 13:33:04.529,71.77570093457943,-0.3548045154060208,0.24490952108575892,-0.10989518185873204,-0.7075522301368357
2025-03-05 13:33:04.531,71.77570093457943,-0.32196926820372085,0.16920738882400868,-0.15276206719057506,-0.600197272614106
2025-03-05 13:33:04.532,71.77570093457943,-0.27909288663632215,0.11433991024340562,-0.1647531644940019,-0.4884507692369721
2025-03-05 13:33:04.534,71.77570093457943,-0.22862888706064363,0.07334475717891613,-0.15528431827154338,-0.3790788398351643
2025-03-05 13:33:04.536,71.77570093457943,-0.17652469697371095,0.04194278026375303,-0.13458210536376297,-0.27958310397224906
2025-03-05 13:33:04.538,71.77570093457943,-0.1305207529171069,0.019132136067361978,-0.11138880572905822,-0.19685961341023345
2025-03-05 13:33:04.540,71.77570093457943,-0.09712105973974415,0.005662324143382098,-0.09145892466653767,-0.13509927916075026
2025-03-05 13:33:04.542,71.77570093457943,-0.07897445808117126,0.0015527441420169312,-0.07742190318493564,-0.09433522867319195
2025-03-05 13:33:04.544,71.77570093457943,-0.07414255264285247,0.004362748925806258,-0.06977999314706244,-0.07062149851356267
2025-03-05 13:33:04.546,71.77570093457943,-0.07747989809632638,0.009283527255124921,-0.06819656047864535,-0.05775076205485726
2025-03-05 13:33:04.548,71.77570093457943,-0.08312134588920964,0.010906790989287027,-0.07221474476460035,-0.049588720971171917
2025-03-05 13:33:04.550,71.77570093457943,-0.08668755112320885,0.005571455274814195,-0.08111628594041037,-0.04194647033054093
2025-03-05 13:33:04.552,71.77570093457943,-0.0863116363826984,-0.00702440378129723,-0.09333623045856446,-0.03329514073751197
2025-03-05 13:33:04.554,71.77570093457943,-0.08240724639280195,-0.023779863871280546,-0.10618730072071285,-0.02425028762314962
2025-03-05 13:33:04.556,71.77570093457943,-0.07668196845860878,-0.03973393597143832,-0.11641609501109654,-0.0163068122379042
2025-03-05 13:33:04.558,71.77570093457943,-0.07103300040055849,-0.05045297520193664,-0.12148616629058531,-0.010550576681478744
2025-03-05 13:33:04.560,71.77570093457943,-0.06676470142401447,-0.054114823443092916,-0.1208797156713006,-0.006958146035874654
2025-03-05 13:33:04.562,71.77570093457943,-0.0642903387206229,-0.05226633282992947,-0.1165568624974197,-0.004523505072028026
2025-03-05 13:33:04.564,71.77570093457943,-0.06327692477735916,-0.04887753195984191,-0.11215464785150084,-0.0019826429057441777
2025-03-05 13:33:04.566,71.77570093457943,-0.06306147727843717,-0.04820343590080633,-0.11126510446501682,0.001426175771125123
2025-03-05 13:33:04.568,71.77570093457943,-0.06308724994334201,-0.05260280899354116,-0.11569025036983237,0.005674494850801752
2025-03-05 13:33:04.570,71.77570093457943,-0.0631303346452194,-0.061452217549187685,-0.12458274373027421,0.010204586267711173
2025-03-05 13:33:04.572,71.77570093457943,-0.06323814110672063,-0.07164207203984334,-0.13488040474122887,0.0144017031065869
2025-03-05 13:33:04.573,71.77570093457943,-0.06349176329807306,-0.0792770374956383,-0.14276899242393135,0.01791342720526191
2025-03-05 13:33:04.575,71.77570093457943,-0.06379982321452703,-0.08164218900769146,-0.14544220389524587,0.020728032762930407
2025-03-05 13:33:04.577,71.77570093457943,-0.0638729513357631,-0.07847927582653373,-0.14235241890856865,0.023122801516442054
2025-03-05 13:33:04.579,71.77570093457943,-0.06337409184893678,-0.07203381892685,-0.13540810262827113,0.02554127245623499
2025-03-05 13:33:04.581,71.77570093457943,-0.0621239231857853,-0.0659134888332872,-0.12803760399047512,0.028358661320705233
2025-03-05 13:33:04.583,71.77570093457943,-0.06024660542549967,-0.06330442085012945,-0.12355121834619054,0.03157127718772213
2025-03-05 13:33:04.585,71.77570093457943,-0.0582085441525848,-0.06537319761567106,-0.12358193389130626,0.03461050629119603
2025-03-05 13:33:04.587,71.77570093457943,-0.05672729825711653,-0.0706416971103938,-0.12736918749023302,0.03649654997724191
2025-03-05 13:33:04.589,71.77570093457943,-0.056526501585381826,-0.07571666038099747,-0.1322433540546864,0.036352126923921715
2025-03-05 13:33:04.591,71.77570093457943,-0.057979041530254787,-0.07708595998904212,-0.13506519357312707,0.034026885354278225
2025-03-05 13:33:04.593,71.77570093457943,-0.06080339016027648,-0.07307406404160487,-0.13387764625217,0.030416286266398192
2025-03-05 13:33:04.595,71.77570093457943,-0.06402999259545258,-0.06487269785069298,-0.12890288253462992,0.02715412397318451
2025-03-05 13:33:04.597,71.77570093457943,-0.0663474988302741,-0.056011393787121624,-0.12235908476991829,0.025747521322426695
2025-03-05 13:33:04.599,71.77570093457943,-0.06671282275260382,-0.05050230211541361,-0.11721531707582707,0.026664718016592166
2025-03-05 13:33:04.601,71.77570093457943,-0.06490754953394703,-0.05068045234297474,-0.11558819409641606,0.029013734076938413
2025-03-05 13:33:04.603,71.77570093457943,-0.06170533578722118,-0.055963441208977394,-0.11766896916768081,0.031117130616916663
2025-03-05 13:33:04.605,71.77570093457943,-0.058527193509518446,-0.06321715917960438,-0.12174454476477296,0.03168466944358323
2025-03-05 13:33:04.607,71.77570093457943,-0.056765007739165416,-0.06846711765658736,-0.12523231736179807,0.030807298240898742
2025-03-05 13:33:04.609,71.77570093457943,-0.057131308607899285,-0.0689479600286414,-0.12607946051748573,0.03001641401788396
2025-03-05 13:33:04.611,71.77570093457943,-0.05934660143768629,-0.06438657041682676,-0.12373336369680618,0.031254076923436874
2025-03-05 13:33:04.612,71.77570093457943,-0.062283156762520844,-0.056940837212524825,-0.11922418581864355,0.035413702729450845
2025-03-05 13:33:04.614,71.77570093457943,-0.06447806919756224,-0.049959717975850484,-0.11443797902636793,0.04149840986985377
2025-03-05 13:33:04.616,71.77570093457943,-0.06477656004056354,-0.046277286818088806,-0.111054038688432,0.04703119532396961
2025-03-05 13:33:04.618,71.77570093457943,-0.06280264314164231,-0.04691133967193061,-0.10971417455999356,0.04944249716905534
2025-03-05 13:33:04.620,71.77570093457943,-0.05903531279888014,-0.05078068494077108,-0.10981618934277027,0.04749285786590441
2025-03-05 13:33:04.622,71.77570093457943,-0.05449545465923089,-0.0554871594907871,-0.10998280557824223,0.04185107778296298
2025-03-05 13:33:04.624,71.77570093457943,-0.05027497227231045,-0.058629839726154535,-0.1089050032618897,0.034608679960703076
2025-03-05 13:33:04.626,71.77570093457943,-0.04718190510144013,-0.05890420526382169,-0.10608630150702421,0.02819317284621626
2025-03-05 13:33:04.628,71.77570093457943,-0.045617027580054564,-0.05649555016322793,-0.10211276881337891,0.024350415275839487
2025-03-05 13:33:04.630,71.77570093457943,-0.04560713968206454,-0.05273773269960578,-0.09834506340702814,0.02361684566195839
2025-03-05 13:33:04.632,71.77570093457943,-0.04686915114126974,-0.049334680084538535,-0.09620402219243405,0.02535980413358287
2025-03-05 13:33:04.634,71.77570093457943,-0.04887142585868915,-0.04752954528348936,-0.09640116199883672,0.028238867007564887
2025-03-05 13:33:04.636,71.77570093457943,-0.050950121558794546,-0.04755413815604097,-0.09850445039633343,0.030813038662791677
2025-03-05 13:33:04.638,71.77570093457943,-0.052513884692920586,-0.04856939680605677,-0.10108347195678993,0.032014947361982404
2025-03-05 13:33:04.640,71.77570093457943,-0.05326816524790273,-0.049108237229378945,-0.10237659270141562,0.03138174156162184
2025-03-05 13:33:04.642,71.77570093457943,-0.05332844423441421,-0.047807257415696094,-0.10113589167077786,0.029111953696807677
2025-03-05 13:33:04.644,71.77570093457943,-0.053131047841127266,-0.04408824647457306,-0.09721948418403241,0.025998245170520663
2025-03-05 13:33:04.646,71.77570093457943,-0.05316433955483086,-0.0384813195055682,-0.09164584881841484,0.023168439887453336
2025-03-05 13:33:04.648,71.77570093457943,-0.053663261083085154,-0.03242810855921306,-0.08609155929788141,0.021626493344500872
2025-03-05 13:33:04.650,71.77570093457943,-0.05445865560464965,-0.027620429402466853,-0.0820792745269796,0.021803532738505525
2025-03-05 13:33:04.652,71.77570093457943,-0.0550957874534112,-0.025169702229860945,-0.08026567900736478,0.023399734020463775
2025-03-05 13:33:04.653,71.77570093457943,-0.05515735180505652,-0.025043836688603025,-0.080201377563271,0.025590221793044692
2025-03-05 13:33:04.655,71.77570093457943,-0.05456449116080142,-0.026106848089242365,-0.08067152803484609,0.027409862363631323
2025-03-05 13:33:04.657,71.77570093457943,-0.053632135116968724,-0.026752700266950945,-0.08038502389398197,0.028089065443607085
2025-03-05 13:33:04.659,71.77570093457943,-0.0528514893332179,-0.02575553715084485,-0.0786072147608933,0.027265158282634667
2025-03-05 13:33:04.661,71.77570093457943,-0.052589665667663224,-0.022841763330000833,-0.07543161708929143,0.02510333019900991
2025-03-05 13:33:04.663,71.77570093457943,-0.052919012646538054,-0.01870984584009804,-0.07162904641987637,0.02231408977814522
2025-03-05 13:33:04.665,71.77570093457943,-0.05362480217484106,-0.014586135098334535,-0.06821112503739209,0.019992769812148075
2025-03-05 13:33:04.667,71.77570093457943,-0.05430183254554621,-0.011630229166559251,-0.06593224926251848,0.019264339609858763
2025-03-05 13:33:04.669,71.77570093457943,-0.05446156994315931,-0.010486558144305807,-0.06494831536582941,0.020829200028845463
2025-03-05 13:33:04.671,71.77570093457943,-0.05364528161244268,-0.011120582716240477,-0.06476605129030763,0.024578432520079015
2025-03-05 13:33:04.673,71.77570093457943,-0.05155917034443952,-0.012918711402835766,-0.06447806838042756,0.02947427623438033
2025-03-05 13:33:04.675,71.77570093457943,-0.048212355543266416,-0.014941928831939885,-0.06315447070325161,0.03383680002957275
2025-03-05 13:33:04.677,71.77570093457943,-0.0439996221208428,-0.01621757959495666,-0.0602173877815267,0.03598108469649115
2025-03-05 13:33:04.679,71.77570093457943,-0.03965754373678901,-0.016000623552106602,-0.05565835312956204,0.03490576837960643
2025-03-05 13:33:04.681,71.77570093457943,-0.03605322226890231,-0.01396967183465167,-0.050023079729594556,0.03066480438736857
2025-03-05 13:33:04.683,71.77570093457943,-0.03385254903412224,-0.010312098789138035,-0.04416483321128011,0.02425055897786895
2025-03-05 13:33:04.685,71.77570093457943,-0.03322250122549416,-0.005644664656633649,-0.038867350985171335,0.01712689317334457
2025-03-05 13:33:04.687,71.77570093457943,-0.0337526783742745,-0.0007706125979269132,-0.034523475741459,0.010731852017152205
2025-03-05 13:33:04.689,71.77570093457943,-0.03466664683441194,0.003633954173739594,-0.03103287706727336,0.0061779885808393034
2025-03-05 13:33:04.691,71.77570093457943,-0.035197553895827786,0.007265624050381916,-0.027932113891433616,0.004112787667167212
2025-03-05 13:33:04.692,71.77570093457943,-0.03489481177949057,0.010272967393082793,-0.024622028099897567,0.0045759461148036015
2025-03-05 13:33:04.694,71.77570093457943,-0.033713416990769005,0.013163775676515162,-0.020549824731905312,0.006865825209085486
2025-03-05 13:33:04.696,71.77570093457943,-0.03192022127852749,0.01660943488260814,-0.015310969542018197,0.009639287771783389
2025-03-05 13:33:04.698,71.77570093457943,-0.029942343431466276,0.021227456744901597,-0.008715069559227436,0.011383322501408897
2025-03-05 13:33:04.700,71.77570093457943,-0.028232027064109915,0.02739341355717607,-0.0008387960778805034,0.01107804668502165
2025-03-05 13:33:04.702,71.77570093457943,-0.02715414005340917,0.03512290506037724,0.007968582779664777,0.00864753942155592
2025-03-05 13:33:04.704,71.77570093457943,-0.026906122613311923,0.044081251401821835,0.017174946941634947,0.004872827918887435
2025-03-05 13:33:04.706,71.77570093457943,-0.027500921356586727,0.05375917798663516,0.026258075179915435,0.0007957370107013733
2025-03-05 13:33:04.708,71.77570093457943,-0.028817683737057877,0.06375958548213378,0.03494172068291726,-0.00296401987306926
2025-03-05 13:33:04.710,71.77570093457943,-0.030683786802778654,0.07403551542148015,0.04335154791839451,-0.006481695939801516
2025-03-05 13:33:04.712,71.77570093457943,-0.032941006409564016,0.08490266825956386,0.05196148148368045,-0.010254191744891051
2025-03-05 13:33:04.714,71.77570093457943,-0.035458558145160926,0.09676681645164051,0.061308078260076705,-0.014694123700176392
2025-03-05 13:33:04.716,71.77570093457943,-0.038076942088145424,0.10971467661279974,0.07163755480592368,-0.01981344367251298
2025-03-05 13:33:04.718,71.77570093457943,-0.04051672003805397,0.12327132648659365,0.08275442708423088,-0.025261080360247257
2025-03-05 13:33:04.720,71.77570093457943,-0.04233883238922819,0.13654953485253207,0.09421052348746875,-0.03057818180144211
2025-03-05 13:33:04.722,71.77570093457943,-0.043027167553846724,0.14871011402025186,0.10568276790590408,-0.03543064776999456
2025-03-05 13:33:04.724,71.77570093457943,-0.04217365509055617,0.1593873355477838,0.11721350232140677,-0.03965809969064906
2025-03-05 13:33:04.726,71.77570093457943,-0.03966268364549023,0.16877104538740856,0.12910818402102267,-0.04315841003062916
2025-03-05 13:33:04.728,71.77570093457943,-0.03574629133957111,0.17733293734389013,0.14158646867684885,-0.045809933918543
2025-03-05 13:33:04.730,71.77570093457943,-0.030971042400162803,0.18545744922646754,0.15448622987137825,-0.04762959031208807
2025-03-05 13:33:04.731,71.77570093457943,-0.026004441405683663,0.1932656338637733,0.16726101586682623,-0.0490880207854433
2025-03-05 13:33:04.733,71.77570093457943,-0.02145158831956197,0.2007152714441889,0.1792635069053859,-0.051207999411747064
2025-03-05 13:33:04.735,71.77570093457943,-0.017731071712513466,0.20782117261404115,0.1900899250769435,-0.055150205315473926
2025-03-05 13:33:04.737,71.77570093457943,-0.015025691208354272,0.21477194719981552,0.19974608058905244,-0.06147858938085317
2025-03-05 13:33:04.739,71.77570093457943,-0.013289045212156002,0.22186291453174928,0.20857369436052173,-0.06969927116390184
2025-03-05 13:33:04.741,71.77570093457943,-0.012291336671740273,0.22935569274321735,0.21706418156262938,-0.07848258534839452
2025-03-05 13:33:04.743,71.77570093457943,-0.01169866703600726,0.23741035863094767,0.22571151752776863,-0.08639253703637542
2025-03-05 13:33:04.745,71.77570093457943,-0.011170538703572739,0.24610583160689464,0.23493511925970934,-0.09259605747532533
2025-03-05 13:33:04.747,71.77570093457943,-0.01044754402161103,0.2554572272503777,0.24500950999102977,-0.09714468066501632
2025-03-05 13:33:04.749,71.77570093457943,-0.00941316868077492,0.26538291609045384,0.25596957457005665,-0.10074689287366835
2025-03-05 13:33:04.751,71.77570093457943,-0.008129626726999503,0.2756759518304496,0.26754615266879533,-0.10423327826686866
2025-03-05 13:33:04.753,71.77570093457943,-0.006835187446639459,0.2860406980558554,0.2792053385988656,-0.10806110164793112
2025-03-05 13:33:04.755,71.77570093457943,-0.00587278620596113,0.2961701596438022,0.29029720187575847,-0.11213776193323906
2025-03-05 13:33:04.757,71.77570093457943,-0.00554470794836495,0.3057955239369501,0.3002506448934341,-0.11600846564159382
2025-03-05 13:33:04.759,71.77570093457943,-0.005949155821862125,0.31469194189686517,0.30874261545270576,-0.11922221221394586
2025-03-05 13:33:04.761,71.77570093457943,-0.00689030040438326,0.3226828584048269,0.31579238784261626,-0.12160137847153295
2025-03-05 13:33:04.763,71.77570093457943,-0.007922714370534923,0.3296687567991136,0.3217458727175647,-0.12324825566336747
2025-03-05 13:33:04.765,71.77570093457943,-0.00851544530221242,0.33565305766912135,0.3271374430851175,-0.12434884468096531
2025-03-05 13:33:04.767,71.77570093457943,-0.008252987067933593,0.34071616928472404,0.3324630133560427,-0.12497655796095813
2025-03-05 13:33:04.769,71.77570093457943,-0.006968944044755181,0.3449138787083517,0.3379447662301145,-0.12505527656342727
2025-03-05 13:33:04.771,71.77570093457943,-0.00474646860410812,0.3481351190578462,0.34338848246634623,-0.12450278818713116
2025-03-05 13:33:04.772,71.77570093457943,-0.0018067894445034146,0.3500138873501041,0.34820693038784456,-0.12343406469318131
2025-03-05 13:33:04.774,71.77570093457943,0.0016058902578883658,0.3499974892768724,0.351603212504566,-0.12222437278221689
2025-03-05 13:33:04.776,71.77570093457943,0.005236687412778678,0.3475952336108967,0.35283175448547377,-0.12131661161647553
2025-03-05 13:33:04.778,71.77570093457943,0.008748332556115773,0.3426902122857587,0.35143837878510015,-0.12087698303101199
2025-03-05 13:33:04.780,71.77570093457943,0.01170800123706189,0.3356908581790201,0.3473986938209578,-0.12055077707262812
2025-03-05 13:33:04.782,71.77570093457943,0.013726892147102198,0.3273609252984306,0.3410876522935,-0.11951705110296408
2025-03-05 13:33:04.784,71.77570093457943,0.014658216974724378,0.31839836457834864,0.3330564168368191,-0.11685339712274363
2025-03-05 13:33:04.786,71.77570093457943,0.014660519745014658,0.30903824608065594,0.3236986015537405,-0.11203137718664423
2025-03-05 13:33:04.788,71.77570093457943,0.014055592845185585,0.2989396914589327,0.3129951204976664,-0.10526924662817509
2025-03-05 13:33:04.790,71.77570093457943,0.013109614521705247,0.28741216720038726,0.30052161840522995,-0.097517282351662
2025-03-05 13:33:04.792,71.77570093457943,0.011916731928807954,0.2738348101510201,0.2857513792683185,-0.09003968895670866
2025-03-05 13:33:04.794,71.77570093457943,0.010441118491009167,0.2580528211242642,0.26849377730928664,-0.08381506892414692
2025-03-05 13:33:04.796,71.77570093457943,0.008636393174527043,0.24057618793949276,0.24921241929869087,-0.07912010617802961
2025-03-05 13:33:04.798,71.77570093457943,0.006530429081998726,0.22249355073137445,0.22902381846697076,-0.07553022041936266
2025-03-05 13:33:04.800,71.77570093457943,0.004225271048355008,0.20512933188481466,0.20935444203875772,-0.0722774879454633
2025-03-05 13:33:04.802,71.77570093457943,0.0018406082044671484,0.18959405838422505,0.19143450614332985,-0.0687189347936148
2025-03-05 13:33:04.804,71.77570093457943,-0.0005374509032172344,0.17643618517621965,0.17589857428975983,-0.06467681021085
2025-03-05 13:33:04.806,71.77570093457943,-0.0028706857011074017,0.1655485803717037,0.16267773517236664,-0.060513532857747625
2025-03-05 13:33:04.808,71.77570093457943,-0.0051697089186157185,0.15634975720747915,0.1511798892971988,-0.056923966628101265
2025-03-05 13:33:04.810,71.77570093457943,-0.007515926979469213,0.14813078871109123,0.1406147032563845,-0.05456024260771644
2025-03-05 13:33:04.811,71.77570093457943,-0.010084950519820092,0.14039290122233145,0.13030779273766113,-0.0537009170827954
2025-03-05 13:33:04.813,71.77570093457943,-0.013108022636877941,0.1330167083850253,0.11990852827574733,-0.05414108057323041
2025-03-05 13:33:04.815,71.77570093457943,-0.016749509588640868,0.1261910609351154,0.10944139434669539,-0.05530776708470819
2025-03-05 13:33:04.817,71.77570093457943,-0.020963222598060705,0.120149833484919,0.09918645434868853,-0.05645368561021532
2025-03-05 13:33:04.819,71.77570093457943,-0.025416488346865433,0.11486323681010335,0.08944659239034412,-0.05681168872301832
2025-03-05 13:33:04.821,71.77570093457943,-0.029522343275440226,0.10986598042031598,0.08034348155371383,-0.05574565299564831
2025-03-05 13:33:04.823,71.77570093457943,-0.03257086687469136,0.10436080628861605,0.07178978432531892,-0.05297950856535464
2025-03-05 13:33:04.825,71.77570093457943,-0.03394062433681927,0.09759917703913519,0.06365839813109492,-0.048827855867418765
2025-03-05 13:33:04.827,71.77570093457943,-0.033355725483557266,0.08934554232446296,0.055989662789047,-0.04420456739551028
2025-03-05 13:33:04.829,71.77570093457943,-0.031093719674102495,0.08011803040549155,0.049024157188091146,-0.04029888860490868
2025-03-05 13:33:04.831,71.77570093457943,-0.028001087557447568,0.07100742826117729,0.04300618765206926,-0.03808150552823243
2025-03-05 13:33:04.833,71.77570093457943,-0.02523496985535019,0.06315865394458002,0.03792353151562739,-0.03792903469864502
2025-03-05 13:33:04.835,71.77570093457943,-0.02381727908639947,0.05722616120676141,0.033408730021779715,-0.0395519903513926
2025-03-05 13:33:04.837,71.77570093457943,-0.024224887100453257,0.053111890476579084,0.02888685176136062,-0.0422220764892552
2025-03-05 13:33:04.839,71.77570093457943,-0.026229446711008575,0.05010183320403398,0.023872235377759378,-0.04512971237101659
2025-03-05 13:33:04.841,71.77570093457943,-0.029058893509547414,0.047299302082095845,0.01824025797113114,-0.04764595650482613
2025-03-05 13:33:04.843,71.77570093457943,-0.03177941626343371,0.04411793296041255,0.012338366615466367,-0.04938854969970222
2025-03-05 13:33:04.845,71.77570093457943,-0.03368973474250541,0.04057267653641957,0.00688279222794381,-0.05019018741029318
2025-03-05 13:33:04.847,71.77570093457943,-0.03454108140242289,0.03721202570692441,0.00267079524277602,-0.05011912026982787
2025-03-05 13:33:04.849,71.77570093457943,-0.03452361759086361,0.03474533622922964,0.0002215700694765295,-0.04956559185152977
2025-03-05 13:33:04.851,71.77570093457943,-0.03408438964395105,0.033601840607584435,-0.00048269711767240896,-0.049238483730538816
2025-03-05 13:33:04.852,71.77570093457943,-0.033688863259076864,0.03367709043621583,-1.192041326597516e-05,-0.049905904319998244
2025-03-05 13:33:04.854,71.77570093457943,-0.0336297145915809,0.03438914236169429,0.0007592806800983197,-0.05194724315359231
2025-03-05 13:33:04.856,71.77570093457943,-0.033953481875684276,0.03499418097736583,0.0010405525222480566,-0.05506395617554478
2025-03-05 13:33:04.858,71.77570093457943,-0.034514830624727606,0.034981855705871284,0.0004668790179163367,-0.05844401770162978
2025-03-05 13:33:04.860,71.77570093457943,-0.03509956076698176,0.034320407855109286,-0.0007792984600376611,-0.061271329530939854
2025-03-05 13:33:04.862,71.77570093457943,-0.03552715179116878,0.03339129564838898,-0.002136001182031648,-0.06318231009665282
2025-03-05 13:33:04.864,71.77570093457943,-0.035674490604256044,0.032651610537497634,-0.0030230246039402954,-0.06439042850712537
2025-03-05 13:33:04.866,71.77570093457943,-0.035436605294427125,0.03227281873480226,-0.0031639305981488912,-0.0654781083944886
2025-03-05 13:33:04.868,71.77570093457943,-0.03470364861712833,0.032029737200221245,-0.0026740549551710416,-0.06699910339808658
2025-03-05 13:33:04.870,71.77570093457943,-0.033422254499858285,0.03150257577972288,-0.0019198217531212298,-0.06908631325815434
2025-03-05 13:33:04.872,71.77570093457943,-0.03171075008030533,0.030396732217140565,-0.0013141603859012627,-0.07130200853127669
2025-03-05 13:33:04.874,71.77570093457943,-0.02989410497651524,0.028710446093272293,-0.0011838008938048162,-0.0728797582274207
2025-03-05 13:33:04.876,71.77570093457943,-0.028350435382688586,0.026641592779919017,-0.0017089841029709982,-0.07323496531579524
2025-03-05 13:33:04.878,71.77570093457943,-0.027246494331045132,0.02437388283858843,-0.0028727524859964142,-0.07237649437462507
2025-03-05 13:33:04.880,71.77570093457943,-0.026399364962383064,0.021983008852887037,-0.004416496598972641,-0.07089300331151123
2025-03-05 13:33:04.882,71.77570093457943,-0.025415068064783154,0.019540339882244396,-0.0058748681674334145,-0.06952438081647869
2025-03-05 13:33:04.884,71.77570093457943,-0.023987703278481484,0.017244787790810748,-0.006743054964685691,-0.06868422383264855
2025-03-05 13:33:04.886,71.77570093457943,-0.022105467877706873,0.015384242001404359,-0.006721364841829757,-0.06832813012924151
2025-03-05 13:33:04.888,71.77570093457943,-0.020042743507302927,0.01415129874327768,-0.005891583217051098,-0.06820908285082805
2025-03-05 13:33:04.890,71.77570093457943,-0.01821798391578087,0.01352479155907205,-0.004693330300098687,-0.06819680444036225
2025-03-05 13:33:04.891,71.77570093457943,-0.01703827923063181,0.013351008039135614,-0.0036874086306092693,-0.0683566464984143
2025-03-05 13:33:04.893,71.77570093457943,-0.016772708495574357,0.013534369238955112,-0.0032384761959623606,-0.06880123051443907
2025-03-05 13:33:04.895,71.77570093457943,-0.017460874039673963,0.014147505348138429,-0.0033135051315595293,-0.06952928055250475
2025-03-05 13:33:04.897,71.77570093457943,-0.018887886652168555,0.015368243402009485,-0.0035197791864002223,-0.0703779636987519
2025-03-05 13:33:04.899,71.77570093457943,-0.020644193029883566,0.017295509076176628,-0.003348819379134523,-0.07105448729726248
2025-03-05 13:33:04.901,71.77570093457943,-0.02222832649265322,0.019756782067382867,-0.0024716793346856655,-0.0712013264200865
