Timestamp,ECG_test1_ECGtoHR_LA_RA_CAL,Lead I (LA-RA),Lead II (LL-LA),Lead III (LL-RA),Vx-RL
2025-03-07 14:04:37.048,-1.0,0.0710506565726213,-0.1281790038717103,-0.0571285055917119,4.90165205632059e-07
2025-03-07 14:04:37.050,-1.0,0.0773217694324878,-0.1418425652983834,-0.0645209536669653,5.042573011392757e-07
2025-03-07 14:04:37.052,-1.0,0.0835464090215749,-0.1512115509566768,-0.0676652992017726,5.183478435955397e-07
2025-03-07 14:04:37.053,-1.0,0.0896495064899615,-0.1587426980960739,-0.0690933482679785,5.325759510091284e-07
2025-03-07 14:04:37.055,-1.0,0.0960299308877775,-0.1682028361023954,-0.0721730612020469,5.469865697321054e-07
2025-03-07 14:04:37.057,-1.0,0.1033826790881938,-0.1828316230848968,-0.0794490992681602,5.615093304550217e-07
2025-03-07 14:04:37.059,-1.0,0.1121331633553145,-0.203430101221124,-0.0912970924214024,5.759970010714266e-07
2025-03-07 14:04:37.061,-1.0,0.1218376924841669,-0.2273726201205408,-0.1055350815115649,5.903022972253612e-07
2025-03-07 14:04:37.063,-1.0,0.1310243436680435,-0.249281797056269,-0.1182576066310409,6.043526587296577e-07
2025-03-07 14:04:37.065,-1.0,0.1377048216837934,-0.263303046486092,-0.1255983774450216,6.181847248499794e-07
2025-03-07 14:04:37.067,-1.0,0.1403137585034211,-0.2659554187250057,-0.1256418122603192,6.319219839205319e-07
2025-03-07 14:04:37.069,-1.0,0.1385084071694545,-0.2580517613930772,-0.1195435056152393,6.457086986614169e-07
2025-03-07 14:04:37.071,-1.0,0.1333647671692568,-0.2445694706559762,-0.1112048541644091,6.596352449576626e-07
2025-03-07 14:04:37.073,-1.0,0.1269256474607745,-0.2324378474654603,-0.1055123499045918,6.73693332461264e-07
2025-03-07 14:04:37.075,-1.0,0.1214167854279158,-0.2273413502010383,-0.1059247138593659,6.877830529699507e-07
2025-03-07 14:04:37.077,-1.0,0.1185001056569229,-0.2311487768299491,-0.1126488194492828,7.017664426087805e-07
2025-03-07 14:04:37.079,-1.0,0.1187715178388525,-0.241214486268533,-0.1224431159318886,7.155386043713723e-07
2025-03-07 14:04:37.081,-1.0,0.1215856012009098,-0.2518359355178298,-0.1302504810906647,7.290794459527465e-07
2025-03-07 14:04:37.083,-1.0,0.1252867606410284,-0.2571367285867164,-0.1318501140190864,7.424603150867092e-07
2025-03-07 14:04:37.085,-1.0,0.1278895654314311,-0.2540200461049978,-0.1261306260386177,7.558038200556763e-07
2025-03-07 14:04:37.087,-1.0,0.1280311142032449,-0.2437921004907454,-0.1157611308988332,7.692191213396439e-07
2025-03-07 14:04:37.089,-1.0,0.1257375788144548,-0.2316004073976074,-0.1058629723747995,7.827466559251949e-07
2025-03-07 14:04:37.091,-1.0,0.1225127799420356,-0.2238353864304476,-0.101322749400572,7.963400896106775e-07
2025-03-07 14:04:37.093,-1.0,0.1206017403329898,-0.2247238736214058,-0.1041222752913157,8.098931481290013e-07
2025-03-07 14:04:37.094,-1.0,0.1217845812454053,-0.2339009738227523,-0.1121165336806243,8.232957479119207e-07
2025-03-07 14:04:37.096,-1.0,0.1263508585525928,-0.2463464874731921,-0.1199957691635647,8.364895669174078e-07
2025-03-07 14:04:37.098,-1.0,0.1328098299755726,-0.2548555247993518,-0.1220458342511795,8.494948017633881e-07
2025-03-07 14:04:37.100,-1.0,0.1384959579738141,-0.2538535255428489,-0.1153577062040757,8.623958323008313e-07
2025-03-07 14:04:37.102,-1.0,0.1407533978288435,-0.242600368841327,-0.1018471088403366,8.752950324220461e-07
2025-03-07 14:04:37.104,-1.0,0.1380671706529692,-0.2260520974670418,-0.0879850637840655,8.882597538303701e-07
2025-03-07 14:04:37.106,-1.0,0.1305363084027155,-0.2127765256115034,-0.082240353254338,9.012897570126724e-07
2025-03-07 14:04:37.108,-1.0,0.1194619480579388,-0.2108078407554078,-0.0913460277640239,9.1432057725588e-07
2025-03-07 14:04:37.110,-1.0,0.1063184513180545,-0.2234113512919034,-0.1170930340410183,9.272592218993442e-07
2025-03-07 14:04:37.112,-1.0,0.091680770131252,-0.246851950494014,-0.1551713134495793,9.400323369104544e-07
2025-03-07 14:04:37.114,-1.0,0.0746642126987464,-0.2713535818447028,-0.1966895012965309,9.52621722665598e-07
2025-03-07 14:04:37.116,-1.0,0.0531790347038993,-0.2849131301057218,-0.2317342266584394,9.650699181396243e-07
2025-03-07 14:04:37.118,-1.0,0.024947083265904,-0.2781871311560357,-0.2532401782672199,9.774547797442128e-07
2025-03-07 14:04:37.120,-1.0,-0.0111452712902274,-0.2480282256170594,-0.2591736263793488,9.898477980763075e-07
2025-03-07 14:04:37.122,-1.0,-0.0540599261619703,-0.197810996115435,-0.2518710507870619,1.0022782614085504e-06
2025-03-07 14:04:37.124,-1.0,-0.1006499092707031,-0.1342334978942299,-0.2348835346471189,1.0147210279986558e-06
2025-03-07 14:04:37.126,-1.0,-0.1468757329832533,-0.0620515549585622,-0.2089274143519601,1.027112547388529e-06
2025-03-07 14:04:37.128,-1.0,-0.189519043131902,0.0206608521473261,-0.1688583163165004,1.039385129727023e-06
2025-03-07 14:04:37.130,-1.0,-0.2271993737112823,0.1241720350999666,-0.1030274628957189,1.051500881154006e-06
2025-03-07 14:04:37.132,-1.0,-0.2598317953631112,0.2643410684511383,0.0045091498037822,1.0634681862599814e-06
2025-03-07 14:04:37.134,-1.0,-0.2867623190431662,0.4559745764312712,0.1692121350686349,1.0753336951215889e-06
2025-03-07 14:04:37.136,-1.0,-0.3049590840367354,0.7045579631443502,0.3995987577519646,1.0871557106760837e-06
2025-03-07 14:04:37.137,-1.0,-0.308966605811001,0.9996940996241104,0.6907273734595167,1.0989738529472306e-06
2025-03-07 14:04:37.139,-1.0,-0.293367171498384,1.3133514370864847,1.0199841462986317,1.1107906001010458e-06
2025-03-07 14:04:37.141,-1.0,-0.2565003343542183,1.603937485964895,1.3474370334436252,1.1225730292395682e-06
2025-03-07 14:04:37.143,-1.0,-0.2024564194734983,1.8241218498009304,1.6216653133117056,1.1342721503482151e-06
2025-03-07 14:04:37.145,-1.0,-0.1387907749626731,1.92890986693092,1.790118976092958,1.1458485334864342e-06
2025-03-07 14:04:37.147,-1.0,-0.0707526237841341,1.8825030423089244,1.8117503037494087,1.157290740442254e-06
2025-03-07 14:04:37.149,-1.0,0.0032397344609177,1.665863660715961,1.669103281456624,1.16861795580661e-06
2025-03-07 14:04:37.151,-1.0,0.0899099498747483,1.2869299782036072,1.3768398153916193,1.1798670420840386e-06
2025-03-07 14:04:37.153,-1.0,0.1932974786938416,0.7901049927636139,0.9834023598210742,1.191072126180502e-06
2025-03-07 14:04:37.155,-1.0,0.307013643458676,0.2555661078074608,0.5625796407307089,1.2022477938737127e-06
2025-03-07 14:04:37.157,-1.0,0.4136953194876075,-0.2194935077951115,0.1942017023203064,1.2133839677899513e-06
2025-03-07 14:04:37.159,-1.0,0.492928462268139,-0.5536346729276841,-0.0607063188224643,1.2244537151904236e-06
2025-03-07 14:04:37.161,-1.0,0.5317747398261479,-0.7108752097025371,-0.179100576819611,1.2354285002547544e-06
2025-03-07 14:04:37.163,-1.0,0.5302990321493571,-0.7096351794531084,-0.1793362530533453,1.246292243215751e-06
2025-03-07 14:04:37.165,-1.0,0.4991731071726872,-0.6069658224332153,-0.1077928198612281,1.257047224436245e-06
2025-03-07 14:04:37.167,-1.0,0.4525184819698163,-0.4697796190807618,-0.0172612405989678,1.2677099539263497e-06
2025-03-07 14:04:37.169,-1.0,0.4014768369977874,-0.3498044548426791,0.0516722797745088,1.2783005507897718e-06
2025-03-07 14:04:37.171,-1.0,0.3518496362488014,-0.2723810180505582,0.0794685169569922,1.288832039842569e-06
2025-03-07 14:04:37.173,-1.0,0.3054846501838466,-0.2389962022648544,0.0664883478732173,1.2993050732380938e-06
2025-03-07 14:04:37.175,-1.0,0.2629408899257235,-0.2370817812884426,0.0258590098420875,1.309709887890526e-06
2025-03-07 14:04:37.177,-1.0,0.2251835588220207,-0.2501168665362957,-0.0249334052291371,1.3200331808674758e-06
2025-03-07 14:04:37.178,-1.0,0.1935844036533464,-0.2641664067195367,-0.0705820993073129,1.3302653368741245e-06
2025-03-07 14:04:37.180,-1.0,0.1688946433588247,-0.2704498088592832,-0.101555260503039,1.340404057187858e-06
2025-03-07 14:04:37.182,-1.0,0.1503660526990096,-0.265436413930893,-0.1150704550375934,1.350453170390384e-06
2025-03-07 14:04:37.184,-1.0,0.1358233959778192,-0.2500475857789757,-0.1142242824332185,1.3604183921390863e-06
2025-03-07 14:04:37.186,-1.0,0.122683810232797,-0.2286314992991909,-0.1059477805146363,1.3703032641787123e-06
2025-03-07 14:04:37.188,-1.0,0.1092519556125613,-0.2075546377987746,-0.0983027724094771,1.3801077732219335e-06
2025-03-07 14:04:37.190,-1.0,0.0954787064706213,-0.193163888508877,-0.0976852709824967,1.3898299561536866e-06
2025-03-07 14:04:37.192,-1.0,0.0827623969441501,-0.1894291190144859,-0.1066668096928218,1.3994686946649588e-06
2025-03-07 14:04:37.194,-1.0,0.0729785159544017,-0.1961942936617214,-0.1232158639944895,1.4090252493220942e-06
2025-03-07 14:04:37.196,-1.0,0.0673363690285898,-0.2090413749404282,-0.1417050908819609,1.4185022091942153e-06
2025-03-07 14:04:37.198,-1.0,0.065669768637262,-0.2211155560663852,-0.1554458711188522,1.4279005862487765e-06
2025-03-07 14:04:37.200,-1.0,0.066474168170544,-0.226225346024898,-0.1597512602964617,1.437217323496168e-06
2025-03-07 14:04:37.202,-1.0,0.0676237855417866,-0.2217512379473226,-0.1541275336093442,1.4464454288780317e-06
2025-03-07 14:04:37.204,-1.0,0.0673860785369333,-0.2098722373816299,-0.1424862387889893,1.4555772687222995e-06
2025-03-07 14:04:37.206,-1.0,0.065200452994764,-0.1964187982606081,-0.1312184239074093,1.464609316085394e-06
2025-03-07 14:04:37.208,-1.0,0.0617984840688584,-0.1878761112347406,-0.1260777044588339,1.4735453337854564e-06
2025-03-07 14:04:37.210,-1.0,0.0586037952671115,-0.1880417766454697,-0.1294380572941344,1.4823955428264114e-06
2025-03-07 14:04:37.212,-1.0,0.0567723432300918,-0.1960561219178518,-0.1392838532257332,1.4911715874876392e-06
2025-03-07 14:04:37.214,-1.0,0.0564456908798561,-0.206837223326028,-0.1503916056299173,1.4998797655783249e-06
2025-03-07 14:04:37.216,-1.0,0.0566416793684002,-0.2137027040875608,-0.1570610965808215,1.5085164045245356e-06
2025-03-07 14:04:37.218,-1.0,0.0558069280327452,-0.2118051184696383,-0.1559982609979533,1.5170684370103395e-06
2025-03-07 14:04:37.219,-1.0,0.0526828669808573,-0.2005824148477776,-0.1478996171251408,1.5255194663995848e-06
2025-03-07 14:04:37.221,-1.0,0.0470086695654492,-0.1839696873870479,-0.1369610857503724,1.5338584083697783e-06
2025-03-07 14:04:37.223,-1.0,0.0397150964110915,-0.1683251981206558,-0.1286101682694536,1.5420860176068396e-06
2025-03-07 14:04:37.225,-1.0,0.0325258839801865,-0.1592141888532943,-0.1266883700292586,1.5502154092703025e-06
2025-03-07 14:04:37.227,-1.0,0.0271485201903964,-0.1587231987777531,-0.1315747423238413,1.558265784663834e-06
2025-03-07 14:04:37.229,-1.0,0.0244300349940841,-0.1646127558979413,-0.1401827832279593,1.5662523417837913e-06
2025-03-07 14:04:37.231,-1.0,0.0239129506587548,-0.1716331528856345,-0.1477202631616946,1.574177687670054e-06
2025-03-07 14:04:37.233,-1.0,0.0240720530445791,-0.1742691829499575,-0.150197189475008,1.5820295673176698e-06
2025-03-07 14:04:37.235,-1.0,0.0231450280797013,-0.1695232317253842,-0.1463782618607699,1.589786513012197e-06
2025-03-07 14:04:37.237,-1.0,0.0200928567040535,-0.1583530496403702,-0.1382602497870762,1.597428754572176e-06
2025-03-07 14:04:37.239,-1.0,0.0151374476064001,-0.1450646129665487,-0.1299272208199219,1.6049487307967823e-06
2025-03-07 14:04:37.241,-1.0,0.0096021756029,-0.1350159689082843,-0.1254138473423348,1.6123555132688958e-06
2025-03-07 14:04:37.243,-1.0,0.0051854978058811,-0.1318469066983972,-0.1266614614831872,1.61967052579166e-06
2025-03-07 14:04:37.245,-1.0,0.0030565010968633,-0.1356416114200229,-0.1325851614610808,1.626916545700645e-06
2025-03-07 14:04:37.247,-1.0,0.0032089932493978,-0.1429100860749127,-0.1397011425209397,1.634105649868997e-06
2025-03-07 14:04:37.249,-1.0,0.0043948962951104,-0.1483585471518818,-0.143963699128284,1.641232497504032e-06
2025-03-07 14:04:37.251,-1.0,0.0047035662740294,-0.1475486066127214,-0.1428450872013871,1.6482766536800386e-06
2025-03-07 14:04:37.253,-1.0,0.0025236257045843,-0.1391112797575132,-0.1365876995092164,1.6552129223000848e-06
2025-03-07 14:04:37.255,-1.0,-0.0026168188995075,-0.1253986331591186,-0.1280154960959589,1.662024377752996e-06
2025-03-07 14:04:37.257,-1.0,-0.0098118124543452,-0.1112378489808717,-0.1210497040312893,1.6687112619824857e-06
2025-03-07 14:04:37.259,-1.0,-0.0173017841470531,-0.1014219903321949,-0.1187238156115047,1.6752910033648962e-06
2025-03-07 14:04:37.261,-1.0,-0.0234774625072713,-0.0982347762341796,-0.1217122783959071,1.6817892472645826e-06
2025-03-07 14:04:37.262,-1.0,-0.0277875251414829,-0.1003034387700796,-0.1280910020867367,1.6882265265651906e-06
2025-03-07 14:04:37.264,-1.0,-0.0310250264796121,-0.1033797215628405,-0.1344047847469951,1.6946075288753885e-06
2025-03-07 14:04:37.266,-1.0,-0.0348446244041596,-0.1026147316271183,-0.1374593912770768,1.7009185872773157e-06
2025-03-07 14:04:37.268,-1.0,-0.0408353352872614,-0.0950790929241737,-0.1359144620059732,1.7071347227919302e-06
2025-03-07 14:04:37.270,-1.0,-0.0497262945991374,-0.0811609973613864,-0.1308873243021923,1.7132325638045932e-06
2025-03-07 14:04:37.272,-1.0,-0.0611560322697706,-0.0641490141485706,-0.125305077296568,1.7192023982406863e-06
2025-03-07 14:04:37.274,-1.0,-0.0740183961591792,-0.0483641724490637,-0.1223825980077703,1.7250530898680158e-06
2025-03-07 14:04:37.276,-1.0,-0.0870550601850131,-0.0369616799829431,-0.1240167680747371,1.7308073462849427e-06
2025-03-07 14:04:37.278,-1.0,-0.0993295846733534,-0.0305464835461833,-0.1298760946253225,1.736489871810838e-06
2025-03-07 14:04:37.280,-1.0,-0.110421533048147,-0.0271686249603765,-0.1375901829122664,1.7421146186546933e-06
2025-03-07 14:04:37.282,-1.0,-0.1203895556412325,-0.0235289687461454,-0.1439185477933338,1.747677750746554e-06
2025-03-07 14:04:37.284,-1.0,-0.1296256046437264,-0.0166940848877183,-0.1463197114453619,1.75315988396514e-06
2025-03-07 14:04:37.286,-1.0,-0.1386822954092265,-0.0054573484493821,-0.1441396642839681,1.7585363027660392e-06
2025-03-07 14:04:37.288,-1.0,-0.1481013689284914,0.0092759788723813,-0.138825408991956,1.7637897409119656e-06
2025-03-07 14:04:37.290,-1.0,-0.158265506610272,0.0251757880887901,-0.133089735962381,1.768919083996356e-06
2025-03-07 14:04:37.292,-1.0,-0.1693258092716917,0.0398094314147439,-0.1295163937946435,1.7739395915828256e-06
2025-03-07 14:04:37.294,-1.0,-0.1812641748280216,0.0519084375019867,-0.1293557517518427,1.7788747127999773e-06
2025-03-07 14:04:37.296,-1.0,-0.19408222523331,0.061993263243597,-0.1320889748967105,1.7837439069984303e-06
2025-03-07 14:04:37.298,-1.0,-0.2079856102086692,0.0720980921472295,-0.135887529445834,1.7885528318874534e-06
2025-03-07 14:04:37.300,-1.0,-0.2233687093602817,0.0847273941270856,-0.1386413250946295,1.7932908730806903e-06
2025-03-07 14:04:37.302,-1.0,-0.2405182953997269,0.101526964563258,-0.138991339177299,1.797937069402627e-06
2025-03-07 14:04:37.303,-1.0,-0.2592099127711812,0.1223421710660476,-0.1368677485288957,1.802471138390092e-06
2025-03-07 14:04:37.305,-1.0,-0.2785431848491483,0.1452007134798605,-0.1333424766787147,1.8068837893930031e-06
2025-03-07 14:04:37.307,-1.0,-0.2972358747646194,0.167265685454607,-0.1299701931051773,1.8111810710749708e-06
2025-03-07 14:04:37.309,-1.0,-0.3142278686477882,0.1862199160036854,-0.1280079549213921,1.8153807451821885e-06
2025-03-07 14:04:37.311,-1.0,-0.3291698972812549,0.2012833859391977,-0.1278865120945649,1.819502840694472e-06
2025-03-07 14:04:37.313,-1.0,-0.3424611319919862,0.2133349626264178,-0.1291261685850356,1.823559441228017e-06
2025-03-07 14:04:37.315,-1.0,-0.3548618430037274,0.2241913937741429,-0.1306704469092861,1.8275489475284048e-06
2025-03-07 14:04:37.317,-1.0,-0.3669990097637258,0.2355604672622404,-0.1314385386388332,1.831457546728401e-06
2025-03-07 14:04:37.319,-1.0,-0.3790816552578245,0.2482609460273319,-0.1308207038280187,1.835266815563204e-06
2025-03-07 14:04:37.321,-1.0,-0.3909198271169141,0.2620349579552904,-0.1288848622256207,1.8389632999623648e-06
2025-03-07 14:04:37.323,-1.0,-0.402121240925481,0.2759042386683507,-0.1262169937943511,1.8425451025456693e-06
2025-03-07 14:04:37.325,-1.0,-0.4122801432506685,0.2887645167179985,-0.1235156165465677,1.8460222824806555e-06
2025-03-07 14:04:37.327,-1.0,-0.421064188259398,0.299874741859279,-0.1211894348885099,1.8494111915937151e-06
2025-03-07 14:04:37.329,-1.0,-0.4282220191606512,0.3090431741479698,-0.1191788319681362,1.8527259533629749e-06
2025-03-07 14:04:37.331,-1.0,-0.4335730886188655,0.3165132135819702,-0.1170598604498358,1.8559715676012864e-06
2025-03-07 14:04:37.333,-1.0,-0.4370101187631499,0.3226861581660181,-0.1143239444601927,1.8591420371848309e-06
2025-03-07 14:04:37.335,-1.0,-0.4385112036050984,0.3278465651607343,-0.1106646207558626,1.862224155254582e-06
2025-03-07 14:04:37.337,-1.0,-0.438145488047406,0.3320073411734829,-0.1061381276386507,1.865204674428144e-06
2025-03-07 14:04:37.339,-1.0,-0.4360466886267601,0.3349067630592776,-0.1011399047943494,1.8680770088984237e-06
2025-03-07 14:04:37.341,-1.0,-0.4323398880903656,0.3361177213802248,-0.0962221444077865,1.8708441160105268e-06
2025-03-07 14:04:37.343,-1.0,-0.4270553672281144,0.3352104912568862,-0.0918448521437589,1.8735163767166115e-06
2025-03-07 14:04:37.345,-1.0,-0.4200853446017579,0.3319119183366995,-0.0881734009100446,1.8761059168904567e-06
2025-03-07 14:04:37.346,-1.0,-0.4111867712843174,0.3261816316890141,-0.0850051127050752,1.8786205080512103e-06
2025-03-07 14:04:37.348,-1.0,-0.399990083933463,0.3181386309610043,-0.0818514245381087,1.881060154320106e-06
2025-03-07 14:04:37.350,-1.0,-0.3860252801523868,0.3078838419657168,-0.078141408202809,1.88341785906144e-06
2025-03-07 14:04:37.352,-1.0,-0.3688433123384465,0.2953826167521959,-0.0734606640541476,1.8856838208771532e-06
2025-03-07 14:04:37.354,-1.0,-0.3482614871905461,0.28054085593408,-0.0677205981839385,1.8878506371203985e-06
2025-03-07 14:04:37.356,-1.0,-0.3246187977612393,0.2634345336292881,-0.0611842295299685,1.889916804170356e-06
2025-03-07 14:04:37.358,-1.0,-0.298851120742327,0.2445077301943327,-0.0543433544256343,1.8918869250262715e-06
2025-03-07 14:04:37.360,-1.0,-0.2722884576312043,0.2245750087603553,-0.0477134112311448,1.8937688613015111e-06
2025-03-07 14:04:37.362,-1.0,-0.2462608206117631,0.2046115914588561,-0.0416491899917618,1.895569590905876e-06
2025-03-07 14:04:37.364,-1.0,-0.2217167049262454,0.1854530754516004,-0.0362635887834823,1.897291997839638e-06
2025-03-07 14:04:37.366,-1.0,-0.199029025177223,0.1675642043048363,-0.0314647786432829,1.898934094196212e-06
2025-03-07 14:04:37.368,-1.0,-0.1780318321952398,0.1509723131076001,-0.027059475318334,1.9004907594452423e-06
2025-03-07 14:04:37.370,-1.0,-0.1582091158956873,0.1353606356600234,-0.0228484349318008,1.901956789715081e-06
2025-03-07 14:04:37.372,-1.0,-0.1389316624813039,0.120253908982647,-0.0186777066719644,1.903329540095663e-06
2025-03-07 14:04:37.374,-1.0,-0.1196838861823732,0.105218906168967,-0.0144649316766037,1.904609889415595e-06
2025-03-07 14:04:37.376,-1.0,-0.1002469566451794,0.0900164256930936,-0.0102304811130804,1.905801305324928e-06
2025-03-07 14:04:37.378,-1.0,-0.0807850636055489,0.0746663134072633,-0.0061186988567106,1.906907803874336e-06
2025-03-07 14:04:37.380,-1.0,-0.0617833259354332,0.0594212170575981,-0.0023620560258913,1.907932042975727e-06
2025-03-07 14:04:37.382,-1.0,-0.0438512364896909,0.0446730647901578,0.0008218826731029,1.908874502490272e-06
2025-03-07 14:04:37.384,-1.0,-0.0274892059747398,0.0308295854143821,0.003340435339257,1.909733947767859e-06
2025-03-07 14:04:37.386,-1.0,-0.0129360519179394,0.0181994058475778,0.0052634113536873,1.910508637956742e-06
2025-03-07 14:04:37.387,-1.0,-0.0001531271770044,0.0069161480406494,0.0067630798003852,1.9111974385163003e-06
2025-03-07 14:04:37.389,-1.0,0.0110813685418972,-0.0030807091672328,0.008000719807652,1.9118002373017385e-06
2025-03-07 14:04:37.391,-1.0,0.0210352459796256,-0.0120025699245359,0.0090327379704093,1.9123176199430127e-06
2025-03-07 14:04:37.393,-1.0,0.0299072248379136,-0.0201154014633235,0.0097918867671061,1.912750244679855e-06
2025-03-07 14:04:37.395,-1.0,0.037774515512947,-0.0276195658221808,0.0101550145660022,1.913098470801831e-06
2025-03-07 14:04:37.397,-1.0,0.044605347904483,-0.0345501626959718,0.0100552515789017,1.9133625066591148e-06
2025-03-07 14:04:37.399,-1.0,0.0503040922691971,-0.0407434849809988,0.0095606751653824,1.9135428871486884e-06
2025-03-07 14:04:37.401,-1.0,0.0547582397541712,-0.0458988480232655,0.0088594611179329,1.913640799426619e-06
2025-03-07 14:04:37.403,-1.0,0.0578896279940523,-0.0497286383278868,0.008161060553749,1.913657858260816e-06
2025-03-07 14:04:37.405,-1.0,0.0597327171132141,-0.0521481597704134,0.0075846297118437,1.913595337861792e-06
2025-03-07 14:04:37.407,-1.0,0.0605436852015598,-0.0534376913866299,0.0071060676443521,1.913453318085202e-06
2025-03-07 14:04:37.409,-1.0,0.060888012800429,-0.054302626458446,0.0065854616180181,1.913230377153085e-06
2025-03-07 14:04:37.411,-1.0,0.0615916392374909,-0.0557409924216435,0.0058507235379876,1.91292420635742e-06
2025-03-07 14:04:37.413,-1.0,0.0634618865321893,-0.0586630409627692,0.0047989237496807,1.912532960081456e-06
2025-03-07 14:04:37.415,-1.0,0.0668591527297456,-0.0633825658321124,0.003476666553143,1.912056627625526e-06
2025-03-07 14:04:37.417,-1.0,0.0714014209058215,-0.0693042518535265,0.002097250194727,1.9114975723821223e-06
2025-03-07 14:04:37.419,-1.0,0.0760585923657548,-0.0750932041918929,0.0009654708010721,1.910859766351278e-06
2025-03-07 14:04:37.421,-1.0,0.079617218847043,-0.0792849968069331,0.0003323061344907,1.9101469750384794e-06
2025-03-07 14:04:37.423,-1.0,0.0812465143365099,-0.0809860539448763,0.0002605459264151,1.9093608101144738e-06
2025-03-07 14:04:37.425,-1.0,0.0808782540811618,-0.0802892647648646,0.0005890762669396,1.908499757039294e-06
2025-03-07 14:04:37.427,-1.0,0.0792426309087359,-0.0782183617710454,0.0010243574927017,1.90755984233933e-06
2025-03-07 14:04:37.428,-1.0,0.0775457602206629,-0.0762349746642448,0.0013108753219327,1.9065367325984e-06
2025-03-07 14:04:37.430,-1.0,0.0769267556461569,-0.0755393085335022,0.0013875383080682,1.9054282252427245e-06
2025-03-07 14:04:37.432,-1.0,0.0779643260217054,-0.0765272222026026,0.0014371964655622,1.904235782117093e-06
2025-03-07 14:04:37.434,-1.0,0.0804861194697883,-0.0787025757889588,0.0017836377881761,1.902964185672068e-06
2025-03-07 14:04:37.436,-1.0,0.0837374632781402,-0.0810566772921387,0.0026808815448373,1.9016193723147751e-06
2025-03-07 14:04:37.438,-1.0,0.0867576330770075,-0.0826326377766567,0.004125092283576,1.9002055054102365e-06
2025-03-07 14:04:37.440,-1.0,0.0887550942480859,-0.0829316664908262,0.0058235261307529,1.898722831243995e-06
2025-03-07 14:04:37.442,-1.0,0.0893428940040169,-0.0819900015978387,0.0073529921435624,1.8971675197560807e-06
2025-03-07 14:04:37.444,-1.0,0.0885783869557785,-0.0801801070632509,0.0083983809866294,1.89553367519542e-06
2025-03-07 14:04:37.446,-1.0,0.0868224670862552,-0.0779251817663509,0.0088973877848667,1.8938165368980532e-06
2025-03-07 14:04:37.448,-1.0,0.0845186137565052,-0.075520021545115,0.0089986960739234,1.892015207570996e-06
2025-03-07 14:04:37.450,-1.0,0.0820357412033241,-0.0731400929134378,0.0088957535736436,1.8901334361286991e-06
2025-03-07 14:04:37.452,-1.0,0.0796392259829468,-0.0709594477974405,0.0086798848962692,1.8881779721474544e-06
2025-03-07 14:04:37.454,-1.0,0.0775146643121376,-0.0692036042804968,0.0083111681509153,1.8861552901040483e-06
2025-03-07 14:04:37.456,-1.0,0.0757365667518849,-0.0680336287548409,0.0077030474877047,1.884068372403968e-06
2025-03-07 14:04:37.458,-1.0,0.0741862638016386,-0.0673478210427522,0.0068385535805091,1.881915252278242e-06
2025-03-07 14:04:37.460,-1.0,0.072529216127965,-0.066706982121565,0.0058223461328934,1.8796901237063637e-06
2025-03-07 14:04:37.462,-1.0,0.0703366739359699,-0.0655027697053248,0.0048340176613076,1.877386484050696e-06
2025-03-07 14:04:37.464,-1.0,0.0673235754043377,-0.0632836574754507,0.0040400326869933,1.875000692765482e-06
2025-03-07 14:04:37.466,-1.0,0.0635837151880774,-0.0600326929494187,0.0035511383577732,1.8725340861207385e-06
2025-03-07 14:04:37.468,-1.0,0.0596839163723549,-0.0562427879022717,0.0034412459745392,1.869992523919255e-06
2025-03-07 14:04:37.470,-1.0,0.0565264128860628,-0.0527702585902106,0.0037562731850648,1.8673835809476088e-06
2025-03-07 14:04:37.471,-1.0,0.054990968256813,-0.0505435779265457,0.0044475105749987,1.864712832273584e-06
2025-03-07 14:04:37.473,-1.0,0.0554976989232807,-0.0502340364096404,0.0052637840665989,1.8619811642508856e-06
2025-03-07 14:04:37.475,-1.0,0.0577151389042301,-0.051993507939092,0.0057217537811147,1.8591845139955527e-06
2025-03-07 14:04:37.477,-1.0,0.0605950766664476,-0.0553459126080411,0.0052492881141196,1.856316174557675e-06
2025-03-07 14:04:37.479,-1.0,0.062748455165,-0.0592768476415843,0.003471732826989,1.853370465254245e-06
2025-03-07 14:04:37.481,-1.0,0.0629921760472513,-0.0625094560691726,0.0004828465629333,1.8503458585312584e-06
2025-03-07 14:04:37.483,-1.0,0.0608148475595817,-0.0638999389367422,-0.0030849634715182,1.8472459454469064e-06
2025-03-07 14:04:37.485,-1.0,0.0565615981306823,-0.062835144503468,-0.0062734171238471,1.8440777546224303e-06
2025-03-07 14:04:37.487,-1.0,0.0512717324914036,-0.0594807794861199,-0.0082089164123605,1.8408483168611809e-06
2025-03-07 14:04:37.489,-1.0,0.0462532863983504,-0.0547567958067255,-0.0085033775344518,1.8375612686508357e-06
2025-03-07 14:04:37.491,-1.0,0.0425866433475042,-0.0500211812491414,-0.007434404793341,1.8342152474024545e-06
2025-03-07 14:04:37.493,-1.0,0.0407635807328078,-0.0465693934823435,-0.005805678454394,1.8308048813834437e-06
2025-03-07 14:04:37.495,-1.0,0.0405887668810223,-0.0451452176154306,-0.0045563152692784,1.8273238240912404e-06
2025-03-07 14:04:37.497,-1.0,0.0413549674845421,-0.0456822819351176,-0.0043271777954855,1.8237682358455503e-06
2025-03-07 14:04:37.499,-1.0,0.0422049642302359,-0.047421545729717,-0.0052164436100134,1.8201389134869749e-06
2025-03-07 14:04:37.501,-1.0,0.0425298329728263,-0.0493704432725886,-0.0068404711323742,1.8164410016077051e-06
2025-03-07 14:04:37.503,-1.0,0.0422283627682757,-0.0508630271456299,-0.008634523915216,1.812681487237838e-06
2025-03-07 14:04:37.505,-1.0,0.0416951247886453,-0.0518917237095329,-0.0101964571870819,1.80886581583215e-06
2025-03-07 14:04:37.507,-1.0,0.0415433689862248,-0.0530114812350562,-0.0114679692997167,1.8049953851424292e-06
2025-03-07 14:04:37.509,-1.0,0.0422342144369091,-0.0549008924678142,-0.0126665339323071,1.8010671763644558e-06
2025-03-07 14:04:37.511,-1.0,0.0438310360700227,-0.0578824314504556,-0.0140512501782131,1.7970756496818854e-06
2025-03-07 14:04:37.512,-1.0,0.0459886530947992,-0.0616918997242138,-0.015703100329264,1.793015866208438e-06
2025-03-07 14:04:37.514,-1.0,0.0481391758406797,-0.0655973414175656,-0.0174580181440082,1.788886202327505e-06
2025-03-07 14:04:37.516,-1.0,0.049756122345204,-0.0687636505524798,-0.0190073795868102,1.784689284898731e-06
2025-03-07 14:04:37.518,-1.0,0.0505620769622378,-0.0706462078868818,-0.020083981073071,1.7804307333171231e-06
2025-03-07 14:04:37.520,-1.0,0.0505779633267302,-0.0712067821007563,-0.0206286676858228,1.776116430318092e-06
2025-03-07 14:04:37.522,-1.0,0.0500132729245351,-0.0708692902030785,-0.0208558649942587,1.7717497673087652e-06
2025-03-07 14:04:37.524,-1.0,0.0491178929968195,-0.0702956757530358,-0.0211776293472184,1.767330265594905e-06
2025-03-07 14:04:37.526,-1.0,0.0481345723194732,-0.0701423874067946,-0.0220076606243089,1.762854215276811e-06
2025-03-07 14:04:37.528,-1.0,0.0473664610557767,-0.0709037108415805,-0.0235370943067626,1.7583169179032012e-06
2025-03-07 14:04:37.530,-1.0,0.047228829949943,-0.0728344700120059,-0.0256054835561288,1.7537153212491704e-06
2025-03-07 14:04:37.532,-1.0,0.0481512902286386,-0.0758967848027288,-0.0277453369900967,1.7490496922831156e-06
2025-03-07 14:04:37.534,-1.0,0.0503564783244251,-0.0797334347429834,-0.0293767976945826,1.744323529971483e-06
2025-03-07 14:04:37.536,-1.0,0.0536959830070553,-0.0837390776111026,-0.0300429347033226,1.7395418546587545e-06
2025-03-07 14:04:37.538,-1.0,0.057697160910905,-0.087268240387663,-0.0295709184116155,1.7347088275649191e-06
2025-03-07 14:04:37.540,-1.0,0.0617898903466399,-0.0899035818210625,-0.0281135293055979,1.7298259408750986e-06
2025-03-07 14:04:37.542,-1.0,0.0655346423303801,-0.0916323047772826,-0.0260974992579337,1.7248916582470558e-06
2025-03-07 14:04:37.544,-1.0,0.0686986507264749,-0.0928212318314397,-0.0241224169642878,1.7199025983615856e-06
2025-03-07 14:04:37.546,-1.0,0.0711786337602638,-0.0940032135327614,-0.0228244147025275,1.7148555674379448e-06
2025-03-07 14:04:37.548,-1.0,0.0728936499545549,-0.0955859997873798,-0.0226921838021577,1.7097493618278605e-06
2025-03-07 14:04:37.550,-1.0,0.0737615749124933,-0.0976028860098055,-0.0238411440405796,1.704585449756386e-06
2025-03-07 14:04:37.552,-1.0,0.0737635857930854,-0.0995799090481739,-0.0258161551107644,1.6993672687564718e-06
2025-03-07 14:04:37.553,-1.0,0.0730259673219134,-0.1005794495455968,-0.0275533129706405,1.6940985928121136e-06
2025-03-07 14:04:37.555,-1.0,0.0718702102391301,-0.0994861575215278,-0.0276157769562747,1.6887818586803789e-06
2025-03-07 14:04:37.557,-1.0,0.0708293008396186,-0.0955297130591136,-0.024700240900054,1.6834172927677823e-06
2025-03-07 14:04:37.559,-1.0,0.0706160367057743,-0.0888587329290038,-0.0182425239987677,1.6780032091865026e-06
2025-03-07 14:04:37.561,-1.0,0.0719826095733541,-0.0808193252825406,-0.0088365426360734,1.672537229195848e-06
2025-03-07 14:04:37.563,-1.0,0.0754347889992864,-0.0736457225363739,0.0017892403846904,1.6670177305506303e-06
2025-03-07 14:04:37.565,-1.0,0.0808983079876295,-0.0695929105211352,0.0113055722889012,1.6614447824526177e-06
2025-03-07 14:04:37.567,-1.0,0.0875566507325999,-0.0699176122392651,0.0176392142889001,1.6558201507036238e-06
2025-03-07 14:04:37.569,-1.0,0.0940243273966623,-0.074229614600522,0.0197948896155716,1.6501464656525442e-06
2025-03-07 14:04:37.571,-1.0,0.0988023827471479,-0.0805082446554595,0.0182943159323313,1.6444260561797808e-06
2025-03-07 14:04:37.573,-1.0,0.1007816609079516,-0.085732736048349,0.0150491036611976,1.6386600659995295e-06
2025-03-07 14:04:37.575,-1.0,0.0995699757449366,-0.0868672677576243,0.0127028876574907,1.6328482569196103e-06
2025-03-07 14:04:37.577,-1.0,0.095573089347531,-0.0819056136746727,0.0136676561293901,1.6269895108850862e-06
2025-03-07 14:04:37.579,-1.0,0.0898822692504945,-0.0706750710007293,0.0192073794577659,1.6210826906713942e-06
2025-03-07 14:04:37.581,-1.0,0.0840216209404347,-0.0550672240172818,0.028954578907919,1.6151273841417196e-06
2025-03-07 14:04:37.583,-1.0,0.079564086544454,-0.0384465840650312,0.0411176853081158,1.6091241818710278e-06
2025-03-07 14:04:37.585,-1.0,0.0776508424118029,-0.0243217343197132,0.0533292918336439,1.6030744246231544e-06
2025-03-07 14:04:37.587,-1.0,0.0785479119852455,-0.0148291495520664,0.063718947117169,1.5969796347765826e-06
2025-03-07 14:04:37.589,-1.0,0.0814517302448719,-0.0098408095576028,0.0716111062830832,1.5908409701176877e-06
2025-03-07 14:04:37.591,-1.0,0.0847109472243372,-0.0072703919523408,0.0774407416991606,1.584658966255398e-06
2025-03-07 14:04:37.593,-1.0,0.0864359466668308,-0.0044603439042539,0.0819757899268855,1.5784336341586504e-06
2025-03-07 14:04:37.595,-1.0,0.0852272868788256,0.0001648645361739,0.0853923392516865,1.57216478088031e-06
2025-03-07 14:04:37.596,-1.0,0.0806614841501534,0.0061669750267332,0.0868286476784049,1.5658523335827e-06
2025-03-07 14:04:37.598,-1.0,0.0733152336710085,0.0114016400513615,0.084717062936379,1.5594964996117318e-06
2025-03-07 14:04:37.600,-1.0,0.0643678481875627,0.0133466656062148,0.0777147037924608,1.553097732542128e-06
2025-03-07 14:04:37.602,-1.0,0.0550104512556614,0.0106992661142567,0.0657099082066758,1.5466565979550882e-06
2025-03-07 14:04:37.604,-1.0,0.0459479602461486,0.0043676773850264,0.0503158293072562,1.5401736681554584e-06
2025-03-07 14:04:37.606,-1.0,0.0372401106824558,-0.0027487433259834,0.034491559814855,1.5336495138342245e-06
2025-03-07 14:04:37.608,-1.0,0.0285836440800924,-0.0072040564299895,0.0213797807996576,1.52708475941556e-06
2025-03-07 14:04:37.610,-1.0,0.0198897159463665,-0.0069721100511701,0.0129177996523731,1.5204801060934778e-06
2025-03-07 14:04:37.612,-1.0,0.0117944733676533,-0.0028216933953665,0.0089729742985024,1.5138362488952075e-06
2025-03-07 14:04:37.614,-1.0,0.0057443787019138,0.001751671478216,0.007496245095415,1.5071537054041957e-06
2025-03-07 14:04:37.616,-1.0,0.0035522894434624,0.0020617857719611,0.005614270781407,1.5004326669411567e-06
2025-03-07 14:04:37.618,-1.0,0.0066437472281905,-0.0055790057998101,0.0010649377097468,1.4936730054230805e-06
2025-03-07 14:04:37.620,-1.0,0.0153715727174508,-0.0221354356681119,-0.0067636659259388,1.486874492700297e-06
2025-03-07 14:04:37.622,-1.0,0.0287038689294038,-0.0453744711915877,-0.01667040452307,1.4800371529039397e-06
2025-03-07 14:04:37.624,-1.0,0.0444155261410357,-0.0707924411726859,-0.0263767166543667,1.473161557717551e-06
2025-03-07 14:04:37.626,-1.0,0.0597564254979432,-0.0935345442182433,-0.0337779197941218,1.4662488688006057e-06
2025-03-07 14:04:37.628,-1.0,0.0724074106665718,-0.1105197866961875,-0.0381121766162955,1.4593005511701153e-06
2025-03-07 14:04:37.630,-1.0,0.0813484594305529,-0.1218082361023353,-0.040459576779907,1.4523178683917558e-06
2025-03-07 14:04:37.632,-1.0,0.087196229549945,-0.1304353675480187,-0.0432389375855941,1.4453014176487564e-06
2025-03-07 14:04:37.634,-1.0,0.0917805398016605,-0.1406307407849527,-0.0488499999865475,1.43825097527029e-06
2025-03-07 14:04:37.636,-1.0,0.0971377723684302,-0.1552664614630237,-0.0581284874682733,1.4311657779562506e-06
2025-03-07 14:04:37.637,-1.0,0.1044172038548692,-0.1739247957330044,-0.069507389625077,1.4240451306259672e-06
2025-03-07 14:04:37.639,-1.0,0.113230814275683,-0.1927166882045186,-0.0794856711041556,1.416889036226476e-06
2025-03-07 14:04:37.641,-1.0,0.121761538455745,-0.2060694924177482,-0.0843077506497499,1.409698502050836e-06
2025-03-07 14:04:37.643,-1.0,0.1276069222213111,-0.2096502683132078,-0.0820431423668873,1.4024753272316253e-06
2025-03-07 14:04:37.645,-1.0,0.128988737572258,-0.2029225169726065,-0.0739335752954715,1.3952214469029054e-06
2025-03-07 14:04:37.647,-1.0,0.1257414655258214,-0.1898949227233875,-0.0641532526936692,1.3879381569085369e-06
2025-03-07 14:04:37.649,-1.0,0.1195506871423476,-0.1774758110576788,-0.0579249189586687,1.380625629353088e-06
2025-03-07 14:04:37.651,-1.0,0.1132624825938923,-0.1721326848360274,-0.0588699967797574,1.3732829963126458e-06
2025-03-07 14:04:37.653,-1.0,0.1095574799489469,-0.1765576778435591,-0.0669999919087774,1.3659089875607051e-06
2025-03-07 14:04:37.655,-1.0,0.1096434738398964,-0.1881468616110806,-0.0785031812946843,1.3585028094557752e-06
2025-03-07 14:04:37.657,-1.0,0.1126738405059753,-0.2002186276048491,-0.0875445802035151,1.3510648084358591e-06
2025-03-07 14:04:37.659,-1.0,0.1162519266828278,-0.2054615428325902,-0.0892094089145063,1.3435965584799383e-06
2025-03-07 14:04:37.661,-1.0,0.117771112290264,-0.1998588787726441,-0.0820875589582686,1.3361003050726946e-06
2025-03-07 14:04:37.663,-1.0,0.1158414213840481,-0.1849878607710011,-0.0691462315773537,1.328578037929815e-06
2025-03-07 14:04:37.665,-1.0,0.1110045195958664,-0.1673860664376717,-0.0563813387081275,1.3210306702449543e-06
2025-03-07 14:04:37.667,-1.0,0.1053695031327438,-0.1552238416787521,-0.0498541300354465,1.3134577594519749e-06
2025-03-07 14:04:37.669,-1.0,0.1014305873890351,-0.1539939707206263,-0.0525631744119021,1.3058579294249804e-06
2025-03-07 14:04:37.671,-1.0,0.1007601691518918,-0.1635099044008685,-0.062749525931855,1.2982297875980123e-06
2025-03-07 14:04:37.673,-1.0,0.1032642036477993,-0.1778446050069972,-0.0745801917001454,1.2905728657738649e-06
2025-03-07 14:04:37.675,-1.0,0.1073092407193036,-0.1883003123131453,-0.0809908616690132,1.282888092883111e-06
2025-03-07 14:04:37.677,-1.0,0.1105574786723301,-0.1879235268368225,-0.0773658380370975,1.275177546346009e-06
2025-03-07 14:04:37.678,-1.0,0.1110294206485555,-0.1752913806654708,-0.0642617497110092,1.2674436034333205e-06
2025-03-07 14:04:37.680,-1.0,0.1078591642750335,-0.1556492831724352,-0.0477899083926907,1.259687928996694e-06
2025-03-07 14:04:37.682,-1.0,0.1013892547534657,-0.1387427997550263,-0.037353334251572,1.2519108247778298e-06
2025-03-07 14:04:37.684,-1.0,0.0925724432088337,-0.1342452797927441,-0.041672625547589,1.2441112798928663e-06
2025-03-07 14:04:37.686,-1.0,0.0819840497870153,-0.1468616297974585,-0.0648773686803944,1.2362876980560109e-06
2025-03-07 14:04:37.688,-1.0,0.0689656343101856,-0.1734686697178203,-0.1045028238203103,1.2284389250021585e-06
2025-03-07 14:04:37.690,-1.0,0.0513970781958296,-0.2038062100891813,-0.1524089201161895,1.2205650438377052e-06
2025-03-07 14:04:37.692,-1.0,0.0263148846623202,-0.224510949789109,-0.1981958532294344,1.2126675279674134e-06
2025-03-07 14:04:37.694,-1.0,-0.0087997176371736,-0.2245093355142473,-0.2333088411763136,1.2047486763073902e-06
2025-03-07 14:04:37.696,-1.0,-0.0545646195660146,-0.1989912028370391,-0.2535556103506813,1.1968106278423597e-06
2025-03-07 14:04:37.698,-1.0,-0.108726482000446,-0.1499029278856506,-0.2586291977223037,1.1888544678902692e-06
2025-03-07 14:04:37.700,-1.0,-0.1662324568078903,-0.0827450509646471,-0.2489772954536877,1.1808798859276014e-06
2025-03-07 14:04:37.702,-1.0,-0.2204818797150313,-0.0014258771604574,-0.2219075443781221,1.1728855545718734e-06
2025-03-07 14:04:37.704,-1.0,-0.2652762341140779,0.0960253904646489,-0.1692506309890048,1.1648700249498034e-06
2025-03-07 14:04:37.706,-1.0,-0.2965366312929295,0.218505985683512,-0.0780304328386847,1.1568326705921262e-06
2025-03-07 14:04:37.708,-1.0,-0.3129186248864921,0.3789302516994773,0.0660118396247627,1.1487741947868664e-06
2025-03-07 14:04:37.710,-1.0,-0.3150729266080537,0.5885614192291078,0.2734887054169796,1.14069644962426e-06
2025-03-07 14:04:37.712,-1.0,-0.3042292437738684,0.8508722819533461,0.546643250937044,1.1326016734385365e-06
2025-03-07 14:04:37.714,-1.0,-0.2814241055437843,1.1571071716321168,0.8756832788234475,1.1244915493970729e-06
2025-03-07 14:04:37.716,-1.0,-0.2482115710758692,1.4847379011577204,1.2365265428331853,1.116366570293349e-06
2025-03-07 14:04:37.718,-1.0,-0.2079491619200005,1.7987043351216725,1.590755386003732,1.1082260257362011e-06
2025-03-07 14:04:37.720,-1.0,-0.1653167759422534,2.054448686249412,1.8891321231660376,1.1000686011338996e-06
2025-03-07 14:04:37.721,-1.0,-0.1228265324107442,2.2023105552901576,2.079484235763481,1.0918932654640429e-06
2025-03-07 14:04:37.723,-1.0,-0.0765901775391358,2.1947888235551183,2.118198858865899,1.0836999869084094e-06
2025-03-07 14:04:37.725,-1.0,-0.0159889157335273,1.9990212589131864,1.983032555932157,1.0754899176638871e-06
2025-03-07 14:04:37.727,-1.0,0.070280698956485,1.613638521784543,1.6839194333540242,1.0672649717945802e-06
2025-03-07 14:04:37.729,-1.0,0.1848687367534927,1.082572204282214,1.2674411535019752,1.059027032182707e-06
2025-03-07 14:04:37.731,-1.0,0.316027125873987,0.4940748957135074,0.8101022339303932,1.0507772033707552e-06
2025-03-07 14:04:37.733,-1.0,0.4404958774583264,-0.0421129913061301,0.3983830984062777,1.0425154882488446e-06
2025-03-07 14:04:37.735,-1.0,0.533765105450246,-0.4326242586733029,0.1011410589638232,1.0342410360355535e-06
2025-03-07 14:04:37.737,-1.0,0.5809894015492276,-0.6337540881195682,-0.0527644744585774,1.025952812316932e-06
2025-03-07 14:04:37.739,-1.0,0.5818081901847356,-0.6614929505979599,-0.0796845484152245,1.0176503336865784e-06
2025-03-07 14:04:37.741,-1.0,0.5473581664620025,-0.5747289255691838,-0.027370547278371,1.009334092535411e-06
2025-03-07 14:04:37.743,-1.0,0.4930516712625501,-0.4443474019268433,0.04870448094448,1.0010054718907046e-06
2025-03-07 14:04:37.745,-1.0,0.4321506529510169,-0.3260470180709286,0.1061038462404232,9.926662179684428e-07
2025-03-07 14:04:37.747,-1.0,0.3729197659599059,-0.2478512561276311,0.1250687209441553,9.843177582858684e-07
2025-03-07 14:04:37.749,-1.0,0.3190812190779456,-0.212511154170754,0.1065702757909791,9.759607161379485e-07
2025-03-07 14:04:37.751,-1.0,0.2717167524654086,-0.2079299680915544,0.063786995053206,9.675948541533598e-07
2025-03-07 14:04:37.753,-1.0,0.2309316847131224,-0.2178874913476783,0.0130444038499865,9.592194502306124e-07
2025-03-07 14:04:37.755,-1.0,0.1965633983038242,-0.2287202090122968,-0.0321566004325178,9.508338911260632e-07
2025-03-07 14:04:37.757,-1.0,0.168116468992206,-0.2317045691875157,-0.0635878901628333,9.4243817243681e-07
2025-03-07 14:04:37.759,-1.0,0.1445607422836131,-0.223127123822326,-0.0785661717938554,9.34033060517828e-07
2025-03-07 14:04:37.761,-1.0,0.1245341999346026,-0.2038598830741303,-0.0793254737205717,9.256198579510524e-07
2025-03-07 14:04:37.762,-1.0,0.1069865395272747,-0.1788337662056376,-0.0718470176065441,9.171999173593536e-07
2025-03-07 14:04:37.764,-1.0,0.091800435856545,-0.155735629730573,-0.0639349851508925,9.08774164445551e-07
2025-03-07 14:04:37.766,-1.0,0.0798463866422908,-0.1424153720426382,-0.0625687770139553,9.00342867449493e-07
2025-03-07 14:04:37.768,-1.0,0.0723041311993374,-0.1435631466034885,-0.0712588073405056,8.919057488566185e-07
2025-03-07 14:04:37.770,-1.0,0.0696042646654903,-0.1581885810453837,-0.0885841086341455,8.834623564562609e-07
2025-03-07 14:04:37.772,-1.0,0.0706474901171538,-0.179458101598455,-0.1088104040640333,8.750124880874309e-07
2025-03-07 14:04:37.774,-1.0,0.0728626018574759,-0.197396335294137,-0.1245335263731688,8.665564552958686e-07
2025-03-07 14:04:37.776,-1.0,0.0732036962716077,-0.2034084990922841,-0.1302045961442449,8.580950707649653e-07
2025-03-07 14:04:37.778,-1.0,0.0696050115759927,-0.194434539993495,-0.1248293221599178,8.496293927822425e-07
2025-03-07 14:04:37.780,-1.0,0.0620684889131139,-0.1745346183371074,-0.1124659236072198,8.411603774730134e-07
2025-03-07 14:04:37.782,-1.0,0.0527091438503758,-0.1529447545929816,-0.1002354053747205,8.326886195020476e-07
2025-03-07 14:04:37.784,-1.0,0.0446700217690467,-0.1394968065987981,-0.0948265799064275,8.242142981431348e-07
2025-03-07 14:04:37.786,-1.0,0.0404830918823414,-0.1397276374828604,-0.0992443411112853,8.157373304284986e-07
2025-03-07 14:04:37.788,-1.0,0.0407698909888905,-0.1521875609961817,-0.1114174659441502,8.072576305849915e-07
2025-03-07 14:04:37.790,-1.0,0.0439546437913877,-0.1692947156221713,-0.1253398681959254,7.987753354781544e-07
2025-03-07 14:04:37.792,-1.0,0.0470789681645534,-0.1812331580994342,-0.1341539867444554,7.902908914624868e-07
2025-03-07 14:04:37.794,-1.0,0.0472468449455735,-0.1808664620610286,-0.1336194143976743,7.818049809975175e-07
2025-03-07 14:04:37.796,-1.0,0.0429820735993399,-0.1671997087958415,-0.1242174329844432,7.733183491359173e-07
2025-03-07 14:04:37.798,-1.0,0.0348886186884501,-0.1457236234642396,-0.1108348030975209,7.648316292507369e-07
2025-03-07 14:04:37.800,-1.0,0.0253456845939341,-0.1255615514673504,-0.1002156657435242,7.563452505884856e-07
2025-03-07 14:04:37.802,-1.0,0.0173960578056644,-0.1149166785546381,-0.0975204201654728,7.478594549163493e-07
2025-03-07 14:04:37.804,-1.0,0.0133463464097972,-0.1171111420634012,-0.1037645956022216,7.393743907160605e-07
2025-03-07 14:04:37.805,-1.0,0.0137335144293719,-0.1291413029485172,-0.1154075889837452,7.308902223781813e-07
2025-03-07 14:04:37.807,-1.0,0.0171396012012321,-0.1433675827717868,-0.1262277825453399,7.224071997768042e-07
2025-03-07 14:04:37.809,-1.0,0.0209236400742019,-0.1514030687502787,-0.1304792301738107,7.13925668281233e-07
2025-03-07 14:04:37.811,-1.0,0.0224870443149839,-0.1482238044331957,-0.1257365621700088,7.054460357065454e-07
2025-03-07 14:04:37.813,-1.0,0.0204339727401664,-0.1344722898194961,-0.1140381197253153,6.969687296139177e-07
2025-03-07 14:04:37.815,-1.0,0.0150746857880144,-0.11587479312761,-0.1007999106142926,6.884941702210946e-07
2025-03-07 14:04:37.817,-1.0,0.0080882928747373,-0.1001657049214267,-0.0920772159660517,6.800227621574679e-07
2025-03-07 14:04:37.819,-1.0,0.0015812237509928,-0.0931495663414872,-0.0915681471473082,6.715548908295536e-07
2025-03-07 14:04:37.821,-1.0,-0.0029710628180731,-0.0959031572929661,-0.0988740252816867,6.630909089342319e-07
2025-03-07 14:04:37.823,-1.0,-0.0054005038967497,-0.1044724765635347,-0.1098727862202527,6.546311142906287e-07
2025-03-07 14:04:37.825,-1.0,-0.0068348579254011,-0.1121178513860622,-0.1189525156522515,6.461757377841149e-07
2025-03-07 14:04:37.827,-1.0,-0.0090210101139178,-0.1128695068368979,-0.1218903238896329,6.377249637888102e-07
2025-03-07 14:04:37.829,-1.0,-0.0133429685563988,-0.1045313687736785,-0.1178741449068774,6.29278988753529e-07
2025-03-07 14:04:37.831,-1.0,-0.0200528543854922,-0.0896339422110884,-0.1096866048592157,6.208380957176961e-07
2025-03-07 14:04:37.833,-1.0,-0.028112702332585,-0.0739607174926145,-0.1020732288097121,6.124027024501653e-07
2025-03-07 14:04:37.835,-1.0,-0.0357245212387244,-0.0635111867201417,-0.0992355176748786,6.039733452409376e-07
2025-03-07 14:04:37.837,-1.0,-0.041281934053865,-0.061477744895137,-0.1027594893780439,5.955505913670249e-07
2025-03-07 14:04:37.839,-1.0,-0.0442621697812311,-0.066719813406897,-0.1109817942963866,5.871349155893068e-07
2025-03-07 14:04:37.841,-1.0,-0.045582410377711,-0.0744399767713889,-0.1200221989086083,5.787266046878381e-07
2025-03-07 14:04:37.843,-1.0,-0.0471928519774834,-0.0786818173841849,-0.1258744817692548,5.703257489054011e-07
2025-03-07 14:04:37.845,-1.0,-0.0510928068604101,-0.0753529406339323,-0.1264455605783648,5.619323381566547e-07
2025-03-07 14:04:37.846,-1.0,-0.0583184625240309,-0.0641888908414167,-0.1225071671763316,5.535464234924773e-07
2025-03-07 14:04:37.848,-1.0,-0.0684959202489555,-0.0486392476006677,-0.1171349824385604,5.451682624298359e-07
2025-03-07 14:04:37.850,-1.0,-0.0802059296324746,-0.0338064905155534,-0.1140122355445704,5.367983665864935e-07
2025-03-07 14:04:37.852,-1.0,-0.0918986241111297,-0.02362697313766,-0.1155254134490358,5.284374160284839e-07
2025-03-07 14:04:37.854,-1.0,-0.102775247538107,-0.018846358333755,-0.1216214228437561,5.200860750498366e-07
2025-03-07 14:04:37.856,-1.0,-0.1131120510459794,-0.0168441218751791,-0.1299559906246231,5.117448011707827e-07
2025-03-07 14:04:37.858,-1.0,-0.123882749699089,-0.0133023517195409,-0.1371849198303672,5.034137498782277e-07
2025-03-07 14:04:37.860,-1.0,-0.1359892721696256,-0.0046905967692693,-0.140679688068935,4.950928327019437e-07
2025-03-07 14:04:37.862,-1.0,-0.1496302701083362,0.0098522547326269,-0.1397778352667986,4.86781906882354e-07
2025-03-07 14:04:37.864,-1.0,-0.1641850284465124,0.0282111825213295,-0.1359736666349356,4.784810027447062e-07
2025-03-07 14:04:37.866,-1.0,-0.178619724798027,0.0465909616644001,-0.1320285847084697,4.701904697159511e-07
2025-03-07 14:04:37.868,-1.0,-0.1921194484638609,0.0615983536419927,-0.1305209172763481,4.619109596472581e-07
2025-03-07 14:04:37.870,-1.0,-0.2045760112895378,0.0719782313170123,-0.132597603284999,4.536432491760189e-07
2025-03-07 14:04:37.872,-1.0,-0.2166870857911935,0.0791521340070731,-0.1375347759113876,4.453879884217497e-07
2025-03-07 14:04:37.874,-1.0,-0.22963251286026,0.0863707612395648,-0.1432615765241628,4.371455055325546e-07
2025-03-07 14:04:37.876,-1.0,-0.2444948901298828,0.0969934020168457,-0.1475013137827619,4.289157714574977e-07
2025-03-07 14:04:37.878,-1.0,-0.2617116682271778,0.1128084581801557,-0.1489030365109018,4.2069854816599297e-07
2025-03-07 14:04:37.880,-1.0,-0.2808242536343184,0.1332224937998678,-0.1476015871475199,4.1249364786480826e-07
2025-03-07 14:04:37.882,-1.0,-0.30063075832694,0.1556475782990783,-0.1449830082471135,4.04301170855253e-07
2025-03-07 14:04:37.884,-1.0,-0.319650407615375,0.1768025829418396,-0.1428476538314136,3.96121598019644e-07
2025-03-07 14:04:37.886,-1.0,-0.3366805719839769,0.1942340641437867,-0.1424463379307479,3.8795568743310114e-07
2025-03-07 14:04:37.887,-1.0,-0.3512106672609377,0.207325071054187,-0.1438854271918977,3.798042256265793e-07
2025-03-07 14:04:37.889,-1.0,-0.363530094525113,0.2173643450285461,-0.1461655813292656,3.71667760060224e-07
2025-03-07 14:04:37.891,-1.0,-0.3745007891119278,0.2267251249962266,-0.1477754967679657,3.635464504890611e-07
2025-03-07 14:04:37.893,-1.0,-0.3851147057725753,0.2376241077643273,-0.1474904314891782,3.5544011665191495e-07
2025-03-07 14:04:37.895,-1.0,-0.3960487177746717,0.2510899298200239,-0.1449586223089274,3.4734845876931695e-07
2025-03-07 14:04:37.897,-1.0,-0.4074083764316158,0.2665958784584867,-0.1408123332607268,3.392713379215068e-07
2025-03-07 14:04:37.899,-1.0,-0.4187376273022102,0.2824320768813713,-0.1363053866886119,3.3120897210715617e-07
2025-03-07 14:04:37.901,-1.0,-0.4292428165926674,0.2965429514065709,-0.1326997024462979,3.2316194718142176e-07
2025-03-07 14:04:37.903,-1.0,-0.4381012121769194,0.3074001334737363,-0.1307009169302118,3.151310375644023e-07
2025-03-07 14:04:37.905,-1.0,-0.4447118162901129,0.3145322325445032,-0.1301794228926673,3.071169299039316e-07
2025-03-07 14:04:37.907,-1.0,-0.4487948285979513,0.3185237261100191,-0.1302709425147076,2.991199926587052e-07
2025-03-07 14:04:37.909,-1.0,-0.4503412399832821,0.3205494606959723,-0.1297916201840225,2.9114021000603015e-07
2025-03-07 14:04:37.911,-1.0,-0.4495013824769155,0.3217288997508505,-0.127772324521238,2.831773125888121e-07
2025-03-07 14:04:37.913,-1.0,-0.4465131216854794,0.3226474964433694,-0.1238654679901619,2.7523103550525865e-07
2025-03-07 14:04:37.915,-1.0,-0.4416978882305494,0.3232534130396746,-0.1184443189463211,2.673013690314051e-07
2025-03-07 14:04:37.917,-1.0,-0.4354614005376181,0.3230868343574316,-0.1123744109722047,2.593886732684086e-07
2025-03-07 14:04:37.919,-1.0,-0.4282116326026562,0.3216155948271601,-0.1065958835961917,2.514936001670241e-07
2025-03-07 14:04:37.921,-1.0,-0.4201794387721501,0.3184525405087189,-0.10172674507568,2.436168665033645e-07
2025-03-07 14:04:37.923,-1.0,-0.4112340535654047,0.313376037316308,-0.097857864009399,2.357589970537297e-07
2025-03-07 14:04:37.925,-1.0,-0.4008276869521351,0.306232646534791,-0.0945948891013292,2.2792016996941367e-07
2025-03-07 14:04:37.927,-1.0,-0.3881442940658876,0.2968691106242846,-0.0912750330587567,2.201002410514471e-07
2025-03-07 14:04:37.929,-1.0,-0.3724140338378902,0.2851908845074602,-0.0872229999206907,2.122989303237223e-07
2025-03-07 14:04:37.930,-1.0,-0.3532589466149072,0.2713131113325443,-0.0819456868970083,2.0451607189682522e-07
2025-03-07 14:04:37.932,-1.0,-0.3309063294140138,0.2556573793696209,-0.0752488027218135,1.9675179861671002e-07
2025-03-07 14:04:37.934,-1.0,-0.3061622411346869,0.2388650766583709,-0.0672970182255364,1.8900657002707027e-07
2025-03-07 14:04:37.936,-1.0,-0.2801580339354032,0.2215502163567329,-0.0586076723788539,1.8128103476382126e-07
2025-03-07 14:04:37.938,-1.0,-0.2539982985655787,0.2040603581810696,-0.0499377961998902,1.735758029047619e-07
2025-03-07 14:04:37.940,-1.0,-0.2284727388036042,0.186412109449168,-0.0420604861560501,1.658912467768149e-07
2025-03-07 14:04:37.942,-1.0,-0.2039427435600012,0.1684384626032912,-0.0355041387391979,1.582274297954323e-07
2025-03-07 14:04:37.944,-1.0,-0.1804314167524413,0.1500594398226128,-0.0303718357148888,1.505841940755765e-07
2025-03-07 14:04:37.946,-1.0,-0.1578558637624298,0.1315281808269103,-0.0263275427611537,1.429613558856604e-07
2025-03-07 14:04:37.948,-1.0,-0.13624676183447,0.1134942282186676,-0.0227523945180321,1.3535890563266118e-07
2025-03-07 14:04:37.950,-1.0,-0.1157843970303449,0.0967877405042613,-0.0189965185232798,1.2777711135497576e-07
2025-03-07 14:04:37.952,-1.0,-0.0966201638986403,0.0819953182364743,-0.0146247087499213,1.202164780427862e-07
2025-03-07 14:04:37.954,-1.0,-0.0786440195542897,0.0690722830226589,-0.0095716006898429,1.1267759003709907e-07
2025-03-07 14:04:37.956,-1.0,-0.0614060916844929,0.0572540840478939,-0.0041518728438075,1.0516092126315916e-07
2025-03-07 14:04:37.958,-1.0,-0.0442784543991579,0.0453658187216393,0.0010874980758207,9.766670991168264e-08
2025-03-07 14:04:37.960,-1.0,-0.0267891915174086,0.0324073530330113,0.0056182942217654,9.019495674860792e-08
2025-03-07 14:04:37.962,-1.0,-0.008966217443799,0.0181327005450131,0.0091666147395929,8.274554105129496e-08
2025-03-07 14:04:37.964,-1.0,0.0085014255740521,0.0033068335445395,0.0118083896661361,7.531838967512677e-08
2025-03-07 14:04:37.966,-1.0,0.0244245042807234,-0.010555456421884,0.0138691773000213,6.791361203419765e-08
2025-03-07 14:04:37.968,-1.0,0.037582894380144,-0.0218994190709803,0.0156836036400907,6.053153611595558e-08
2025-03-07 14:04:37.970,-1.0,0.0472947748184915,-0.0299340447813512,0.017360857262526,5.3172634026852326e-08
2025-03-07 14:04:37.971,-1.0,0.0537774531248069,-0.0350731112727777,0.0187044679780601,4.5837381204509436e-08
2025-03-07 14:04:37.973,-1.0,0.0580867443760553,-0.0387531514478868,0.0193337179562982,3.852612329761816e-08
2025-03-07 14:04:37.975,-1.0,0.0616647921777974,-0.042735618947685,0.0189292971554795,3.123901560192083e-08
2025-03-07 14:04:37.977,-1.0,0.0657480906869762,-0.0482803099715637,0.0174679035300527,2.3976059108123377e-08
2025-03-07 14:04:37.979,-1.0,0.0709395807522427,-0.0556119524626906,0.015327749987284,1.6737207401717455e-08
2025-03-07 14:04:37.981,-1.0,0.077111663787503,-0.0639132457595704,0.013198538606881,9.522485538893008e-09
2025-03-07 14:04:37.983,-1.0,0.0835962143818946,-0.0717918001446555,0.011804533697929,2.332060978747999e-09
2025-03-07 14:04:37.985,-1.0,0.0894949743610789,-0.0779450586882488,0.0115500340132372,-4.8337643431648244e-09
2025-03-07 14:04:37.987,-1.0,0.093972859962619,-0.0816963147527591,0.0122766624213378,-1.1974629740461378e-08
2025-03-07 14:04:37.989,-1.0,0.0964841485980568,-0.0831825648167305,0.0133016998491282,-1.9090215514244052e-08
2025-03-07 14:04:37.991,-1.0,0.0969103351161665,-0.0831536388660956,0.0137568111592143,-2.618031505743214e-08
2025-03-07 14:04:37.993,-1.0,0.0955713196587761,-0.0825215484035753,0.0130498849985254,-3.3244846343774914e-08
2025-03-07 14:04:37.995,-1.0,0.0930952909912446,-0.0819158252578785,0.0111795783164244,-4.028380311578989e-08
2025-03-07 14:04:37.997,-1.0,0.0902058160455869,-0.0814851123763465,0.0087208151078507,-4.7297175863152774e-08
2025-03-07 14:04:37.999,-1.0,0.0875307411318301,-0.081032045668446,0.0064988057738785,-5.428488429773564e-08
2025-03-07 14:04:38.001,-1.0,0.0855037445892256,-0.0803644813762704,0.0051393723999917,-6.124675249534876e-08
2025-03-07 14:04:38.003,-1.0,0.0843444733727782,-0.0796094390995873,0.0047351423223945,-6.81825329984609e-08
2025-03-07 14:04:38.005,-1.0,0.0840512545668202,-0.0792568083597498,0.0047945530879014,-7.50919613194695e-08
2025-03-07 14:04:38.007,-1.0,0.0843782929138814,-0.0798832290025792,0.0044951695900524,-8.197481007488093e-08
2025-03-07 14:04:38.009,-1.0,0.0848481697627619,-0.0817317398139588,0.0031165344054624,-8.883091685854007e-08
2025-03-07 14:04:38.011,-1.0,0.0848663503897207,-0.084425220205674,0.0004412334236289,-9.566017688016035e-08
2025-03-07 14:04:38.012,-1.0,0.0839342629697219,-0.0870129979275272,-0.0030786329068048,-1.0246250984973169e-07
2025-03-07 14:04:38.014,-1.0,0.0818740981963029,-0.0883631036551718,-0.0064889045595605,-1.0923782100830233e-07
2025-03-07 14:04:38.016,-1.0,0.0789483336635069,-0.0877233182415028,-0.0087748848066405,-1.1598597482134509e-07
2025-03-07 14:04:38.018,-1.0,0.0757939222168447,-0.0851621165248505,-0.0093680956704748,-1.2270678974505192e-07
2025-03-07 14:04:38.020,-1.0,0.0731763898968186,-0.0816279565379139,-0.0084514691744398,-1.294000507866062e-07
2025-03-07 14:04:38.022,-1.0,0.0716617567175254,-0.0785497768348467,-0.0068879238741403,-1.3606552980600302e-07
2025-03-07 14:04:38.024,-1.0,0.0713531411720019,-0.0771590315308797,-0.0058057953816395,-1.427030038666728e-07
2025-03-07 14:04:38.026,-1.0,0.0718162733272645,-0.0778847390853646,-0.0060683720568013,-1.493122669562093e-07
2025-03-07 14:04:38.028,-1.0,0.0722399402379733,-0.0801442791875093,-0.0079042464953199,-1.5589313550532608e-07
2025-03-07 14:04:38.030,-1.0,0.0717814022458101,-0.082643742730622,-0.0108622492242985,-1.624454500197569e-07
2025-03-07 14:04:38.032,-1.0,0.0699571276348318,-0.0840322466642664,-0.0140750289134434,-1.689690735808592e-07
2025-03-07 14:04:38.034,-1.0,0.0668844284811338,-0.0835616373685886,-0.0166771198994353,-1.754638855199571e-07
2025-03-07 14:04:38.036,-1.0,0.0632241399931372,-0.0813960534178997,-0.0181718255934153,-1.8192976848304197e-07
2025-03-07 14:04:38.038,-1.0,0.0598447456089459,-0.0784251455988686,-0.0185803133781277,-1.88366590647954e-07
2025-03-07 14:04:38.040,-1.0,0.0574137435055941,-0.0757390215593287,-0.0183251927283222,-1.9477418997990798e-07
2025-03-07 14:04:38.042,-1.0,0.0561552916606883,-0.0741007860267227,-0.0179454103636128,-2.011523699765528e-07
2025-03-07 14:04:38.044,-1.0,0.0558654599513552,-0.0736828000152633,-0.0178172573709686,-2.0750091321488053e-07
2025-03-07 14:04:38.046,-1.0,0.0560967188224311,-0.0741159967386018,-0.018019196474966,-2.1381961056080474e-07
2025-03-07 14:04:38.048,-1.0,0.0563669869351459,-0.0747394504346384,-0.0183723832378756,-2.201082942791188e-07
2025-03-07 14:04:38.050,-1.0,0.0563157884362274,-0.0749140721659607,-0.0185982046001448,-2.2636685832559067e-07
2025-03-07 14:04:38.052,-1.0,0.0558030816876819,-0.0742999332943102,-0.0184967736137851,-2.3259525298086687e-07
2025-03-07 14:04:38.054,-1.0,0.0549535414161811,-0.0730093231813555,-0.0180557049671273,-2.3879345310814934e-07
2025-03-07 14:04:38.055,-1.0,0.05412511892345,-0.0715633597638015,-0.01743816532117,-2.4496141381852964e-07
2025-03-07 14:04:38.057,-1.0,0.053779750207201,-0.0706466397556943,-0.0168668153759436,-2.5109903597907004e-07
2025-03-07 14:04:38.059,-1.0,0.0542711797999007,-0.0707511030568924,-0.0164798504471421,-2.572061609798477e-07
2025-03-07 14:04:38.061,-1.0,0.055628814088318,-0.0718765672379627,-0.0162476816574936,-2.6328259988517417e-07
2025-03-07 14:04:38.063,-1.0,0.0574638557714929,-0.073467801044903,-0.0160038750154877,-2.6932818354012164e-07
2025-03-07 14:04:38.065,-1.0,0.0590919761209217,-0.0746736010832283,-0.0155815558603911,-2.753428075128969e-07
2025-03-07 14:04:38.067,-1.0,0.0598488880522607,-0.0748255532286081,-0.0149765971998445,-2.813264465662339e-07
2025-03-07 14:04:38.069,-1.0,0.0594459617586223,-0.0738678009475379,-0.0144217723734202,-2.8727912823575185e-07
2025-03-07 14:04:38.071,-1.0,0.0581613016609714,-0.0724573000237385,-0.0142959327942581,-2.932008767571152e-07
2025-03-07 14:04:38.073,-1.0,0.0567334554757898,-0.0716342497436688,-0.0149007300398892,-2.990916555091192e-07
2025-03-07 14:04:38.075,-1.0,0.055996838081762,-0.0722389784839957,-0.0162420775678422,-3.0495133878984824e-07
2025-03-07 14:04:38.077,-1.0,0.0564648598344732,-0.074436872874251,-0.017971951583591,-3.107797299257903e-07
2025-03-07 14:04:38.079,-1.0,0.0581031717505405,-0.0776552169689684,-0.0195519850638013,-3.165766190695831e-07
2025-03-07 14:04:38.081,-1.0,0.0604069498154491,-0.0809595752019681,-0.0205525664350468,-3.223418527897211e-07
2025-03-07 14:04:38.083,-1.0,0.0626983952810459,-0.0836027611095007,-0.0209043080116875,-3.280753801099772e-07
2025-03-07 14:04:38.085,-1.0,0.0644429003145174,-0.085383675513106,-0.0209407185150807,-3.3377725046949945e-07
2025-03-07 14:04:38.087,-1.0,0.0654194591527649,-0.0866177520805604,-0.0211982374457698,-3.394475630817369e-07
2025-03-07 14:04:38.089,-1.0,0.0657127799914677,-0.0878055197503863,-0.0220926855825314,-3.45086392197002e-07
2025-03-07 14:04:38.091,-1.0,0.0655989783708536,-0.0892663866635357,-0.0236673555089474,-3.506937257120219e-07
2025-03-07 14:04:38.093,-1.0,0.06541083258274,-0.0909638111681343,-0.0255529272192347,-3.562694483065455e-07
2025-03-07 14:04:38.095,-1.0,0.0654290462862242,-0.0925714879185542,-0.027142391633361,-3.618133777030896e-07
2025-03-07 14:04:38.096,-1.0,0.0658200373100351,-0.0936937033997241,-0.0278736173580442,-3.6732533535160164e-07
2025-03-07 14:04:38.098,-1.0,0.0666366228841829,-0.0941235209193387,-0.0274868504733314,-3.728052151134647e-07
2025-03-07 14:04:38.100,-1.0,0.0678709176042238,-0.0940300014279376,-0.0261590373876803,-3.782530146503931e-07
2025-03-07 14:04:38.102,-1.0,0.0694977899110186,-0.0939650111361529,-0.0244671759480871,-3.83668813596187e-07
2025-03-07 14:04:38.104,-1.0,0.0714471723341279,-0.094634558408706,-0.0231873420507429,-3.890527101052082e-07
2025-03-07 14:04:38.106,-1.0,0.0735300712484108,-0.0965245932792205,-0.022994479367445,-3.944047487670308e-07
2025-03-07 14:04:38.108,-1.0,0.0754222942236378,-0.0995958343226528,-0.0241734988613643,-3.997248771449002e-07
2025-03-07 14:04:38.110,-1.0,0.0767704489112896,-0.1032346376490663,-0.02646414891553,-4.050129532674199e-07
2025-03-07 14:04:38.112,-1.0,0.0773596367510289,-0.1064902018810605,-0.0291305266427907,-4.102688000722362e-07
2025-03-07 14:04:38.114,-1.0,0.0772131473207624,-0.1084783113463861,-0.0312651267646456,-4.1549227860560804e-07
2025-03-07 14:04:38.116,-1.0,0.076559535786374,-0.1087758627827897,-0.0322162908810605,-4.206833421220562e-07
2025-03-07 14:04:38.118,-1.0,0.0757278442488451,-0.1076522090995988,-0.0319243298703987,-4.2584204306266e-07
2025-03-07 14:04:38.120,-1.0,0.0750726309206746,-0.1060320807132582,-0.0309594160123011,-4.309684891353692e-07
2025-03-07 14:04:38.122,-1.0,0.0749421315890631,-0.1051546756225464,-0.0302125115605852,-4.360627708188272e-07
2025-03-07 14:04:38.124,-1.0,0.0756100943167487,-0.1060179104662038,-0.0304077850782987,-4.4112489707926725e-07
2025-03-07 14:04:38.126,-1.0,0.0771363524912423,-0.1088570757573561,-0.0317206936297747,-4.461547715984699e-07
2025-03-07 14:04:38.128,-1.0,0.0792601732391969,-0.1129761956603761,-0.0337159941749385,-4.511522208987058e-07
2025-03-07 14:04:38.130,-1.0,0.0814737497833642,-0.1170955730663734,-0.0356217963280179,-4.561170592786325e-07
2025-03-07 14:04:38.132,-1.0,0.0832827583739316,-0.1200472754543037,-0.0367644913150249,-4.610491569722131e-07
2025-03-07 14:04:38.134,-1.0,0.0844771268244103,-0.1213919230188771,-0.0369147715667715,-4.659484768043562e-07
2025-03-07 14:04:38.136,-1.0,0.0852082251003764,-0.1215728671235002,-0.0363646185570467,-4.708150612867573e-07
2025-03-07 14:04:38.137,-1.0,0.0858255773889366,-0.1215433155863203,-0.0357177159798299,-4.756489777504645e-07
2025-03-07 14:04:38.139,-1.0,0.0866149600734207,-0.1221499475264681,-0.0355349665885942,-4.804502503278526e-07
2025-03-07 14:04:38.141,-1.0,0.0876397204463856,-0.1236806277536581,-0.0360408878643392,-4.852188135331611e-07
2025-03-07 14:04:38.143,-1.0,0.0887785113332752,-0.125815910230832,-0.0370373808738359,-4.89954510242992e-07
2025-03-07 14:04:38.145,-1.0,0.0898790013342838,-0.1279230266222099,-0.0380440086126111,-4.946571338280257e-07
2025-03-07 14:04:38.147,-1.0,0.0908701041887014,-0.1294431083270511,-0.0385729887094789,-4.993264922554528e-07
2025-03-07 14:04:38.149,-1.0,0.091753266487892,-0.1301510105571941,-0.0383977298064613,-5.039624620920508e-07
2025-03-07 14:04:38.151,-1.0,0.0925189841629311,-0.1302050152390707,-0.0376860179611658,-5.085650066752348e-07
2025-03-07 14:04:38.153,-1.0,0.093075398718359,-0.1300087482829448,-0.036933337649562,-5.131341513543463e-07
2025-03-07 14:04:38.155,-1.0,0.0932326766773808,-0.1299633796557845,-0.036730692357462,-5.176699300881623e-07
2025-03-07 14:04:38.157,-1.0,0.0927517895887651,-0.1302375039876126,-0.0374857051590051,-5.221723312873417e-07
2025-03-07 14:04:38.159,-1.0,0.0914640978589501,-0.1306949797060044,-0.0392308740237824,-5.266412700789926e-07
2025-03-07 14:04:38.161,-1.0,0.0894374828075141,-0.1310332308776032,-0.041595741630314,-5.31076599889365e-07
2025-03-07 14:04:38.163,-1.0,0.0870924786455855,-0.1310312757101967,-0.0439387919252001,-5.354781560155727e-07
2025-03-07 14:04:38.165,-1.0,0.0851457169366044,-0.1307201801040667,-0.0455744592387983,-5.398458080863727e-07
2025-03-07 14:04:38.167,-1.0,0.0843458067379434,-0.1303525067110923,-0.0460066972047654,-5.441794948044442e-07
2025-03-07 14:04:38.169,-1.0,0.0851126952038193,-0.1302055621300191,-0.0450928653310227,-5.484792245134977e-07
2025-03-07 14:04:38.171,-1.0,0.0872778221050235,-0.1303723912048607,-0.0430945687452601,-5.527450432815779e-07
2025-03-07 14:04:38.173,-1.0,0.0900845075344695,-0.1306864120788346,-0.0406019055157857,-5.569769886109659e-07
2025-03-07 14:04:38.175,-1.0,0.092468219549005,-0.1308077165834669,-0.0383394993908776,-5.611750530761337e-07
2025-03-07 14:04:38.177,-1.0,0.0934809928715393,-0.1303720557066039,-0.0368910665797403,-5.653391754352768e-07
2025-03-07 14:04:38.179,-1.0,0.0926558487135705,-0.1290777644292893,-0.036421920796377,-5.694692613250928e-07
2025-03-07 14:04:38.180,-1.0,0.0901615211087391,-0.1266813615731958,-0.0365198468017356,-5.735652201637385e-07
2025-03-07 14:04:38.182,-1.0,0.0867112045975685,-0.1229816902329307,-0.0362704931638176,-5.776269974457003e-07
2025-03-07 14:04:38.184,-1.0,0.0832832940136975,-0.1178764383934353,-0.0345931530798854,-5.816545854880373e-07
2025-03-07 14:04:38.186,-1.0,0.0807749610834938,-0.1114888402540137,-0.0307138890759602,-5.856480080583472e-07
2025-03-07 14:04:38.188,-1.0,0.0797453964503086,-0.1042962811440826,-0.0245508958709655,-5.896072881522394e-07
2025-03-07 14:04:38.190,-1.0,0.0803694413094533,-0.0971910865920872,-0.0168216577950259,-5.935324161638223e-07
2025-03-07 14:04:38.192,-1.0,0.0825815735833296,-0.0914123724587229,-0.0088308127510468,-5.974233342107841e-07
2025-03-07 14:04:38.194,-1.0,0.0862312114741972,-0.0882802657124482,-0.0020490694572481,-6.012799431782281e-07
2025-03-07 14:04:38.196,-1.0,0.0910584510356494,-0.0887150439985834,0.0023433905301933,-6.051021275153695e-07
2025-03-07 14:04:38.198,-1.0,0.0964871671522829,-0.0926843479867207,0.0038028014322722,-6.088897847298889e-07
2025-03-07 14:04:38.200,-1.0,0.1014572365867269,-0.0988764239840975,0.0025807936798325,-6.126428453743597e-07
2025-03-07 14:04:38.202,-1.0,0.1045588894967483,-0.1048696851437442,-0.0003108157628808,-6.163612750966157e-07
2025-03-07 14:04:38.204,-1.0,0.1045353143069121,-0.10783964114534,-0.0033043481858023,-6.200450597196136e-07
2025-03-07 14:04:38.206,-1.0,0.1009265323267881,-0.1055620394789596,-0.0046355297815144,-6.236941823878928e-07
2025-03-07 14:04:38.208,-1.0,0.0944573339003329,-0.0972948475049943,-0.0028375375516212,-6.27308604671192e-07
2025-03-07 14:04:38.210,-1.0,0.0868790177312995,-0.0841360157593255,0.0027429767036868,-6.308882603425193e-07
2025-03-07 14:04:38.212,-1.0,0.0803066701174043,-0.0686571028519839,0.0116495407035894,-6.344330636256879e-07
2025-03-07 14:04:38.214,-1.0,0.076392203171571,-0.0539156271466752,0.0224765482127173,-6.379429267114446e-07
2025-03-07 14:04:38.216,-1.0,0.0757180732156647,-0.0422321603006961,0.0334858838890334,-6.414177774334583e-07
2025-03-07 14:04:38.218,-1.0,0.0776196078237053,-0.0342830637690471,0.0433365138287259,-6.448575686524187e-07
2025-03-07 14:04:38.220,-1.0,0.0804401957207648,-0.0290000101180004,0.0514401541648241,-6.482622755017601e-07
2025-03-07 14:04:38.221,-1.0,0.0821153089981982,-0.0244093680162444,0.057705908304418,-6.516318827224117e-07
2025-03-07 14:04:38.223,-1.0,0.0809261907928469,-0.0190044776782246,0.0619216791708058,-6.549663686841416e-07
2025-03-07 14:04:38.225,-1.0,0.0761799771301221,-0.0128542924492055,0.0633256494586441,-6.582656933313808e-07
2025-03-07 14:04:38.227,-1.0,0.0685054135327654,-0.0077262351217707,0.060779141916946,-6.615297944308279e-07
2025-03-07 14:04:38.229,-1.0,0.0595498989651006,-0.0060612615480993,0.053488599671137,-6.647585921591373e-07
2025-03-07 14:04:38.231,-1.0,0.0511708421678975,-0.0093693052617613,0.0418014979307808,-6.679519986376523e-07
2025-03-07 14:04:38.233,-1.0,0.0445539970769904,-0.0170487379412691,0.0275052189458495,-6.711099278723506e-07
2025-03-07 14:04:38.235,-1.0,0.0397819276764384,-0.0264435422181981,0.0133383440576217,-6.742323025444671e-07
2025-03-07 14:04:38.237,-1.0,0.0360993805626464,-0.0341941030828764,0.0019052348635359,-6.773190561301636e-07
2025-03-07 14:04:38.239,-1.0,0.0326648929613871,-0.038095810442766,-0.0054309613208075,-6.803701307853042e-07
2025-03-07 14:04:38.241,-1.0,0.0292743023859399,-0.0383385578435199,-0.0090643005253844,-6.833854726191133e-07
2025-03-07 14:04:38.243,-1.0,0.0265971568033672,-0.0373910608571808,-0.0107939503510491,-6.863650262346652e-07
2025-03-07 14:04:38.245,-1.0,0.0258233220351139,-0.0386414675682158,-0.0128181930580243,-6.893087300761159e-07
2025-03-07 14:04:38.247,-1.0,0.0280113639658908,-0.0446481789458756,-0.0166368637300512,-6.92216513714765e-07
2025-03-07 14:04:38.249,-1.0,0.0335754136052214,-0.0560127605212318,-0.022437396888254,-6.950882979558874e-07
2025-03-07 14:04:38.251,-1.0,0.0421622025300883,-0.0713920209379172,-0.0292298695972322,-6.979239982996588e-07
2025-03-07 14:04:38.253,-1.0,0.0528629069689975,-0.0884345015007054,-0.0355716469293905,-7.007235314078639e-07
2025-03-07 14:04:38.255,-1.0,0.0645538976904429,-0.1050029816082605,-0.0404491375115627,-7.034868228350813e-07
2025-03-07 14:04:38.257,-1.0,0.0762169559959173,-0.1200985773117905,-0.0438816760940602,-7.062138131567516e-07
2025-03-07 14:04:38.259,-1.0,0.0871792157792919,-0.1341642791656662,-0.0469851193436755,-7.08904459730009e-07
2025-03-07 14:04:38.261,-1.0,0.0972173682375263,-0.1486602835868672,-0.051442972490504,-7.115587329033611e-07
2025-03-07 14:04:38.262,-1.0,0.10646165360718,-0.1650205901911882,-0.0585589949223368,-7.141766078502509e-07
2025-03-07 14:04:38.264,-1.0,0.1151081897154452,-0.1834152739345775,-0.0683071437691099,-7.167580552524746e-07
2025-03-07 14:04:38.266,-1.0,0.1230673392503064,-0.201988199379746,-0.0789209208967795,-7.19303034922402e-07
2025-03-07 14:04:38.268,-1.0,0.1297456391204665,-0.2171415688404889,-0.0873959916948046,-7.218114956419882e-07
2025-03-07 14:04:38.270,-1.0,0.134133947114652,-0.2249544020296562,-0.0908205180726889,-7.242833820163532e-07
2025-03-07 14:04:38.272,-1.0,0.1352503042271169,-0.2231893958289567,-0.0879391559128928,-7.267186457454083e-07
2025-03-07 14:04:38.274,-1.0,0.1327803228225297,-0.2128883936455924,-0.0801081362668114,-7.291172559563088e-07
2025-03-07 14:04:38.276,-1.0,0.1275617915276113,-0.1985593570273506,-0.0709976320749468,-7.314792028454659e-07
2025-03-07 14:04:38.278,-1.0,0.1215383953199229,-0.1865511677079752,-0.0650128401136962,-7.338044916919276e-07
2025-03-07 14:04:38.280,-1.0,0.117056712682306,-0.1822052912024581,-0.0651486474248835,-7.360931293795436e-07
2025-03-07 14:04:38.282,-1.0,0.1157850085841269,-0.1871979348949643,-0.0714129964159899,-7.383451101919508e-07
2025-03-07 14:04:38.284,-1.0,0.117820534933114,-0.1985543998192823,-0.0807339361913456,-7.405604087810091e-07
2025-03-07 14:04:38.286,-1.0,0.1215206985304902,-0.2100104661733928,-0.0884898401224584,-7.427389847205336e-07
2025-03-07 14:04:38.288,-1.0,0.1242485606172708,-0.2151582318246828,-0.0909097448205862,-7.448807967929361e-07
2025-03-07 14:04:38.290,-1.0,0.1237354375656293,-0.2108194496279498,-0.0870840867722761,-7.46985819739832e-07
2025-03-07 14:04:38.292,-1.0,0.11937498609378,-0.1988705276245177,-0.0794956173224543,-7.49054054675623e-07
2025-03-07 14:04:38.294,-1.0,0.112713569509633,-0.1854619551217557,-0.0727484624991812,-7.510855274961413e-07
2025-03-07 14:04:38.296,-1.0,0.1067887568451959,-0.1779123812478775,-0.071123702418687,-7.530802757271224e-07
2025-03-07 14:04:38.298,-1.0,0.1046099476300113,-0.1808197587890605,-0.0762098903377922,-7.550383302400422e-07
2025-03-07 14:04:38.300,-1.0,0.107583710756328,-0.1934216231289216,-0.0858379927274531,-7.569597011558904e-07
2025-03-07 14:04:38.302,-1.0,0.1147359860730507,-0.2096645138347462,-0.0949286092755443,-7.58844375539215e-07
2025-03-07 14:04:38.304,-1.0,0.1231367533647646,-0.2210854747005212,-0.0979488039671466,-7.606923287327229e-07
2025-03-07 14:04:38.305,-1.0,0.1292606775982575,-0.2211508146433587,-0.0918902207476744,-7.625035440254665e-07
2025-03-07 14:04:38.307,-1.0,0.1305235617271623,-0.2088818221711998,-0.0783583451887885,-7.642780304850288e-07
2025-03-07 14:04:38.309,-1.0,0.1261964717970879,-0.1898542135833721,-0.0636578275745936,-7.660158291343246e-07
2025-03-07 14:04:38.311,-1.0,0.1172962932015612,-0.1738889208920346,-0.0565927145507621,-7.677170034831641e-07
2025-03-07 14:04:38.313,-1.0,0.1056128498282036,-0.1703810451976782,-0.0647682833392525,-7.693816187889244e-07
2025-03-07 14:04:38.315,-1.0,0.0924404922251327,-0.1834634008040465,-0.0910229976819863,-7.710097206500852e-07
2025-03-07 14:04:38.317,-1.0,0.0776506131710307,-0.2094323252987552,-0.1317818023589413,-7.726013240563483e-07
2025-03-07 14:04:38.319,-1.0,0.059497143693296,-0.2378682289377025,-0.1783711765701442,-7.741564185697688e-07
2025-03-07 14:04:38.321,-1.0,0.0351902992853373,-0.2560504439898684,-0.2208602370784362,-7.756749869508047e-07
2025-03-07 14:04:38.323,-1.0,0.0020102534856199,-0.2544983216026243,-0.2524881615022096,-7.771570276959519e-07
2025-03-07 14:04:38.325,-1.0,-0.0414008023422678,-0.2307496360490284,-0.2721505327769499,-7.786025700567863e-07
2025-03-07 14:04:38.327,-1.0,-0.0940188432139876,-0.1892736066086458,-0.2832925452259444,-7.800116740257906e-07
2025-03-07 14:04:38.329,-1.0,-0.1521634117965988,-0.137348315117075,-0.2895118233667903,-7.813844154648192e-07
2025-03-07 14:04:38.331,-1.0,-0.2102108891134516,-0.0788537093692185,-0.2890646960119971,-7.827208641180977e-07
2025-03-07 14:04:38.333,-1.0,-0.2620202378648251,-0.0091906160619111,-0.2712109525361671,-7.840210658715143e-07
2025-03-07 14:04:38.335,-1.0,-0.3023429812973299,0.085743756122352,-0.2165993248419495,-7.852850384382283e-07
2025-03-07 14:04:38.337,-1.0,-0.3275227313090642,0.2253758078388881,-0.1021470241560853,-7.86512782718683e-07
2025-03-07 14:04:38.339,-1.0,-0.3353316366638629,0.4263843913310318,0.0910526529985585,-7.877043039662034e-07
2025-03-07 14:04:38.341,-1.0,-0.3244877558648694,0.6939767854726249,0.369488926974315,-7.888596319334997e-07
2025-03-07 14:04:38.343,-1.0,-0.2947603095881848,1.016155850770852,0.7213954375788201,-7.899788300516652e-07
2025-03-07 14:04:38.345,-1.0,-0.2480763662309145,1.3631632240320075,1.1150867532056834,-7.910619897983393e-07
2025-03-07 14:04:38.346,-1.0,-0.1896195174867838,1.6915979428918126,1.5019783197969725,-7.921092142805777e-07
2025-03-07 14:04:38.348,-1.0,-0.126772999512283,1.950669549592361,1.8238964434527505,-7.931206003709919e-07
2025-03-07 14:04:38.350,-1.0,-0.0648852172543339,2.088655722829293,2.0237703979416883,-7.940962287727903e-07
2025-03-07 14:04:38.352,-1.0,-0.0023185956070038,2.06054026383994,2.0582215596215,-7.950361665548998e-07
2025-03-07 14:04:38.354,-1.0,0.0702889210644815,1.8394993681522855,1.90978817965694,-7.95940479957102e-07
2025-03-07 14:04:38.356,-1.0,0.1638643250855037,1.4319006744490472,1.5957648890460514,-7.968092501074398e-07
2025-03-07 14:04:38.358,-1.0,0.281123102462803,0.8887447662736423,1.1698677573236125,-7.976425830384846e-07
2025-03-07 14:04:38.360,-1.0,0.4105605885066475,0.3023104806179817,0.712870956779812,-7.984406084388916e-07
2025-03-07 14:04:38.362,-1.0,0.5294749831496719,-0.2180348571819897,0.3114400126804321,-7.992034673185814e-07
2025-03-07 14:04:38.364,-1.0,0.6144591535622349,-0.5830770400251756,0.0313819993034515,-7.999312943008208e-07
2025-03-07 14:04:38.366,-1.0,0.6522173499435711,-0.7547609939661497,-0.1025437591954487,-8.006242029071126e-07
2025-03-07 14:04:38.368,-1.0,0.6438955048582765,-0.7538906313391054,-0.1099952425768031,-8.012822808058936e-07
2025-03-07 14:04:38.370,-1.0,0.6014722856534038,-0.6423167947125233,-0.0408446260592693,-8.01905597284066e-07
2025-03-07 14:04:38.372,-1.0,0.5401315363088621,-0.4922815218630412,0.0478498965567142,-8.024942194408754e-07
2025-03-07 14:04:38.374,-1.0,0.4719573814387915,-0.3597939378197849,0.1121633248493261,-8.030482295832052e-07
2025-03-07 14:04:38.376,-1.0,0.4038428205006919,-0.2724131577166548,0.1314295431365881,-8.035677359051405e-07
2025-03-07 14:04:38.378,-1.0,0.3389873967422039,-0.2317513857188677,0.1072358904993044,-8.040528718599383e-07
2025-03-07 14:04:38.380,-1.0,0.2794087083497543,-0.2241671285446128,0.0552414584077833,-8.045037850614102e-07
2025-03-07 14:04:38.382,-1.0,0.2272599492464634,-0.23197862260785,-0.0047187956255418,-8.049206214486245e-07
2025-03-07 14:04:38.384,-1.0,0.1844317018194477,-0.2406023208531159,-0.05617074215629,-8.053035123522414e-07
2025-03-07 14:04:38.386,-1.0,0.1513924950912014,-0.2410981829861026,-0.0897058118683067,-8.056525701279855e-07
2025-03-07 14:04:38.388,-1.0,0.1265944792557827,-0.230042983167753,-0.1034486287303644,-8.059678934576218e-07
2025-03-07 14:04:38.389,-1.0,0.1071168289381311,-0.2087043662789572,-0.1015876629992774,-8.06249578815488e-07
2025-03-07 14:04:38.391,-1.0,0.0902098373458721,-0.1821663041408379,-0.091956593286938,-8.064977321699684e-07
2025-03-07 14:04:38.393,-1.0,0.0747388974360641,-0.15792990184098,-0.0831911317204461,-8.067124755750451e-07
2025-03-07 14:04:38.395,-1.0,0.061578172010827,-0.1434870499957853,-0.0819090061113019,-8.068939462799579e-07
2025-03-07 14:04:38.397,-1.0,0.0526832886290268,-0.1432658491787942,-0.0905826894746532,-8.070422897497832e-07
2025-03-07 14:04:38.399,-1.0,0.0494257560472914,-0.156295891053052,-0.1068702647214203,-8.071576507527906e-07
2025-03-07 14:04:38.401,-1.0,0.0512461110534527,-0.176063479133521,-0.1248174985852968,-8.072401671679634e-07
2025-03-07 14:04:38.403,-1.0,0.0554831575778142,-0.1930731511459483,-0.1375901248665207,-8.072899692497029e-07
2025-03-07 14:04:38.405,-1.0,0.0585146193142298,-0.1991373424631971,-0.1406228552437057,-8.073071839166442e-07
2025-03-07 14:04:38.407,-1.0,0.0575591448893312,-0.1913087618383327,-0.1337497498369722,-8.072919410150312e-07
2025-03-07 14:04:38.409,-1.0,0.0520969360603557,-0.1733695212239999,-0.1212727188323124,-8.072443778067208e-07
2025-03-07 14:04:38.411,-1.0,0.0440821386253663,-0.1539805534148504,-0.1098985492188822,-8.071646393647032e-07
2025-03-07 14:04:38.413,-1.0,0.0368198828029379,-0.1423497157594582,-0.1055299681257883,-8.070528750914965e-07
2025-03-07 14:04:38.415,-1.0,0.0331491629126913,-0.1436122482183432,-0.1104632212008488,-8.069092336004008e-07
2025-03-07 14:04:38.417,-1.0,0.0339449051379558,-0.156287128563909,-0.122342360044776,-8.067338586916297e-07
2025-03-07 14:04:38.419,-1.0,0.0377264615957233,-0.1730992513059166,-0.1353729270606346,-8.065268881806362e-07
2025-03-07 14:04:38.421,-1.0,0.0415169615630504,-0.1847243428496693,-0.1432075193798072,-8.062884556455868e-07
2025-03-07 14:04:38.423,-1.0,0.0424343671193867,-0.1845222557303722,-0.1420880274517579,-8.060186936473751e-07
2025-03-07 14:04:38.425,-1.0,0.0391502945466397,-0.1718331997902727,-0.1326830448238934,-8.057177363268279e-07
2025-03-07 14:04:38.427,-1.0,0.0324672201612952,-0.1521699367650323,-0.1197028569024108,-8.053857197411939e-07
2025-03-07 14:04:38.429,-1.0,0.0247631980982193,-0.1342624377623654,-0.1094993806541119,-8.050227796077429e-07
2025-03-07 14:04:38.430,-1.0,0.0186665584067054,-0.1255509100184315,-0.1068844932703043,-8.046290476460237e-07
2025-03-07 14:04:38.432,-1.0,0.0157056904094791,-0.128495049124968,-0.1127895010329861,-8.042046486299132e-07
2025-03-07 14:04:38.434,-1.0,0.015627327705802,-0.1395594374562381,-0.1239322527320958,-8.037496999506015e-07
2025-03-07 14:04:38.436,-1.0,0.0166636203121317,-0.1512630345332472,-0.1345995578812258,-8.032643140936757e-07
2025-03-07 14:04:38.438,-1.0,0.0165247317033649,-0.1560899687952752,-0.1395653814429873,-8.027486029105028e-07
2025-03-07 14:04:38.440,-1.0,0.0135670352521595,-0.1501960932070731,-0.1366292029975692,-8.02202681898777e-07
2025-03-07 14:04:38.442,-1.0,0.0075613696634566,-0.1350888817531446,-0.1275276578085354,-8.016266730928237e-07
2025-03-07 14:04:38.444,-1.0,-0.0002689833770715,-0.1165868488211251,-0.1168559785660295,-8.010207060342751e-07
2025-03-07 14:04:38.446,-1.0,-0.0079010288883009,-0.1017429167215073,-0.1096440925979582,-8.00384916961201e-07
2025-03-07 14:04:38.448,-1.0,-0.0135118959681232,-0.0953464544120943,-0.1088584979697348,-7.997194465891221e-07
2025-03-07 14:04:38.450,-1.0,-0.0163612867644883,-0.0977082963932053,-0.1140697313455405,-7.990244369461381e-07
2025-03-07 14:04:38.452,-1.0,-0.0171558424638864,-0.1047367189091522,-0.1218927101700865,-7.98300027957393e-07
2025-03-07 14:04:38.454,-1.0,-0.0177087464000965,-0.110191488890763,-0.1279003847127482,-7.975463547023593e-07
2025-03-07 14:04:38.456,-1.0,-0.0200315678063857,-0.1089422532278588,-0.1289739710898592,-7.967635461568492e-07
2025-03-07 14:04:38.458,-1.0,-0.0253042036025697,-0.0995539532477516,-0.1248583075338278,-7.959517257609314e-07
2025-03-07 14:04:38.460,-1.0,-0.0332666412128491,-0.0848796780013752,-0.1181464705046921,-7.951110136110896e-07
2025-03-07 14:04:38.462,-1.0,-0.0423681167089155,-0.07040613095,-0.1127743995275929,-7.942415296805655e-07
2025-03-07 14:04:38.464,-1.0,-0.0506035474097907,-0.0612826774951077,-0.1118863773262813,-7.9334339719079e-07
2025-03-07 14:04:38.466,-1.0,-0.0565870719003019,-0.0596295152957946,-0.1162167401570967,-7.924167450109954e-07
2025-03-07 14:04:38.468,-1.0,-0.0602733024106765,-0.0635258189150405,-0.1237992748283599,-7.914617079892647e-07
2025-03-07 14:04:38.470,-1.0,-0.0629434368238579,-0.0681390523188124,-0.1310826431991708,-7.904784248141622e-07
2025-03-07 14:04:38.471,-1.0,-0.0665066273735634,-0.0683016582948033,-0.1348084402913087,-7.894670342393557e-07
2025-03-07 14:04:38.473,-1.0,-0.0725348327587788,-0.0611253061052669,-0.1336602940567378,-7.884276714420299e-07
2025-03-07 14:04:38.475,-1.0,-0.0815402781188419,-0.047318976514413,-0.1288594103850183,-7.873604662072762e-07
2025-03-07 14:04:38.477,-1.0,-0.092826552383373,-0.0306245916112251,-0.1234513002830796,-7.862655436541351e-07
2025-03-07 14:04:38.479,-1.0,-0.104932815496113,-0.0157681928828142,-0.1207011651779614,-7.851430270463051e-07
2025-03-07 14:04:38.481,-1.0,-0.116403347160822,-0.0060457036523617,-0.1224492081021065,-7.83993041440778e-07
2025-03-07 14:04:38.483,-1.0,-0.1264837329525606,-0.0017762007446831,-0.1282600914670927,-7.828157167211098e-07
2025-03-07 14:04:38.485,-1.0,-0.1354169680499276,-0.0003383768058872,-0.1357555031096311,-7.816111889093717e-07
2025-03-07 14:04:38.487,-1.0,-0.1442302804820942,0.0023412481704816,-0.1418891910590532,-7.803795994319909e-07
2025-03-07 14:04:38.489,-1.0,-0.1541603737353067,0.0097017446935721,-0.1444587882908814,-7.791210929997719e-07
2025-03-07 14:04:38.491,-1.0,-0.1660450197646014,0.0229485362431673,-0.1430966432717899,-7.77835815511789e-07
2025-03-07 14:04:38.493,-1.0,-0.1800040475278699,0.0406846965570961,-0.1393195112105975,-7.76523913420124e-07
2025-03-07 14:04:38.495,-1.0,-0.1955275501720498,0.0598264253490491,-0.1357012855319084,-7.751855351608696e-07
2025-03-07 14:04:38.497,-1.0,-0.2118332006033192,0.0772170892114034,-0.1346162725472295,-7.738208339502998e-07
2025-03-07 14:04:38.499,-1.0,-0.2282445769064526,0.0910909858293557,-0.1371537526608686,-7.72429970217444e-07
2025-03-07 14:04:38.501,-1.0,-0.244420480866372,0.101725231185624,-0.1426954116843211,-7.710131118864949e-07
2025-03-07 14:04:38.503,-1.0,-0.2604033857369644,0.1110820556799072,-0.1493214924813266,-7.695704317496323e-07
2025-03-07 14:04:38.505,-1.0,-0.2765232093825713,0.1217140889963529,-0.1548092832377127,-7.681021027671869e-07
2025-03-07 14:04:38.507,-1.0,-0.2931891427020081,0.1354841685216893,-0.1577051374649828,-7.666082934844769e-07
2025-03-07 14:04:38.509,-1.0,-0.3106205061588583,0.1526843338068675,-0.1579363360693948,-7.650891660738869e-07
2025-03-07 14:04:38.511,-1.0,-0.3286412401808892,0.1719537511317249,-0.1566876531895646,-7.6354487846384e-07
2025-03-07 14:04:38.513,-1.0,-0.3466909259079359,0.1910339329255499,-0.1556571575278081,-7.619755900783712e-07
2025-03-07 14:04:38.514,-1.0,-0.3640906671083018,0.2079726103475439,-0.1561182216896003,-7.603814689299701e-07
2025-03-07 14:04:38.516,-1.0,-0.3804071681316525,0.2221218271990021,-0.1582855062258704,-7.587626971438474e-07
2025-03-07 14:04:38.518,-1.0,-0.3956553071609143,0.234374271121669,-0.1612812016855247,-7.571194727268688e-07
2025-03-07 14:04:38.520,-1.0,-0.4101808553712639,0.2465269101645394,-0.1636541112043686,-7.554520070118754e-07
2025-03-07 14:04:38.522,-1.0,-0.4243098943031277,0.2601827921222783,-0.1641272685354534,-7.537605188675707e-07
2025-03-07 14:04:38.524,-1.0,-0.4380323091489718,0.2758499427549047,-0.162182533112749,-7.520452278807997e-07
2025-03-07 14:04:38.526,-1.0,-0.4509387646863102,0.2927118464732899,-0.1582270852975854,-7.503063490043505e-07
2025-03-07 14:04:38.528,-1.0,-0.4624155587087998,0.3091005408513602,-0.1533151852995205,-7.485440904434848e-07
2025-03-07 14:04:38.530,-1.0,-0.4719330040929245,0.3233311647053087,-0.1486020071682025,-7.467586549740548e-07
2025-03-07 14:04:38.532,-1.0,-0.4792573202008766,0.3344453903496067,-0.144812097945226,-7.449502431528793e-07
2025-03-07 14:04:38.534,-1.0,-0.4845091352836432,0.3425335407803169,-0.1419757628871568,-7.431190559701606e-07
2025-03-07 14:04:38.536,-1.0,-0.4880772628121067,0.3485443983146363,-0.1395330331568426,-7.412652950279681e-07
2025-03-07 14:04:38.538,-1.0,-0.4904412513706969,0.3537313826532131,-0.1367100376507758,-7.393891601153354e-07
2025-03-07 14:04:38.540,-1.0,-0.4919769556356362,0.3590296853792161,-0.1329474394721889,-7.374908460209823e-07
2025-03-07 14:04:38.542,-1.0,-0.4928259231590374,0.3646641255191457,-0.1281619671490234,-7.355705412265113e-07
2025-03-07 14:04:38.544,-1.0,-0.4928882247670936,0.3701557968042041,-0.1227325977689754,-7.336284301101315e-07
2025-03-07 14:04:38.546,-1.0,-0.4919337722566903,0.3746731623708568,-0.1172607799785333,-7.316646980399854e-07
2025-03-07 14:04:38.548,-1.0,-0.4897464809222325,0.377473443975956,-0.1122732073012784,-7.296795367030276e-07
2025-03-07 14:04:38.550,-1.0,-0.4861924851588151,0.3781561868381468,-0.108036468906731,-7.276731466143875e-07
2025-03-07 14:04:38.552,-1.0,-0.4811739180232295,0.3766397271421704,-0.1045343616709897,-7.256457353184979e-07
2025-03-07 14:04:38.554,-1.0,-0.4745243300272122,0.3729922197453426,-0.1015322812620383,-7.235975122447736e-07
2025-03-07 14:04:38.555,-1.0,-0.4659261438991978,0.3672884745789129,-0.0986378404936865,-7.215286828738906e-07
2025-03-07 14:04:38.557,-1.0,-0.4548962638512136,0.3595495375240661,-0.0953468977080672,-7.194394448953667e-07
2025-03-07 14:04:38.559,-1.0,-0.4408687713399363,0.3497495554463763,-0.0911193874961414,-7.173299877405712e-07
2025-03-07 14:04:38.561,-1.0,-0.4233897356250273,0.3378908635818755,-0.0854990438694661,-7.152004952875865e-07
2025-03-07 14:04:38.563,-1.0,-0.4023606272279479,0.3241261230600506,-0.0782346762016696,-7.130511504236453e-07
2025-03-07 14:04:38.565,-1.0,-0.3781790501202263,0.3088240613976653,-0.0693551609320637,-7.108821396985441e-07
2025-03-07 14:04:38.567,-1.0,-0.3516645526219464,0.2924773310322267,-0.0591873939387312,-7.086936564359824e-07
2025-03-07 14:04:38.569,-1.0,-0.3238147558467983,0.2754932538551284,-0.0483216744531487,-7.064859012711735e-07
2025-03-07 14:04:38.571,-1.0,-0.2955507605705903,0.2580412793678052,-0.03750965376828,-7.042590799484294e-07
2025-03-07 14:04:38.573,-1.0,-0.267579781497909,0.2400952571289239,-0.0274846970487641,-7.020133991583402e-07
2025-03-07 14:04:38.575,-1.0,-0.2403843600436121,0.2216322467424512,-0.0187522861146907,-6.99749062059143e-07
2025-03-07 14:04:38.577,-1.0,-0.2142609634669731,0.2028078243065627,-0.0114533121218156,-6.974662654953278e-07
2025-03-07 14:04:38.579,-1.0,-0.1893409524036618,0.1839533053159585,-0.0053878201935672,-6.951652003189673e-07
2025-03-07 14:04:38.581,-1.0,-0.1655963939786463,0.1653989558442075,-0.0001976113602933,-6.928460547764e-07
2025-03-07 14:04:38.583,-1.0,-0.1428739450522502,0.1472718168079067,0.0043976984481362,-6.905090194412527e-07
2025-03-07 14:04:38.585,-1.0,-0.1209792933164262,0.1294364406220849,0.0084569739542215,-6.88154291432387e-07
2025-03-07 14:04:38.587,-1.0,-0.0997965479321222,0.1116475459064793,0.011850824601784,-6.857820759850441e-07
2025-03-07 14:04:38.589,-1.0,-0.0794070714059921,0.0938419048998514,0.0144346601010103,-6.833925846945007e-07
2025-03-07 14:04:38.591,-1.0,-0.0601558079917566,0.076386577784941,0.016230596363175,-6.809860313230935e-07
2025-03-07 14:04:38.593,-1.0,-0.0426019620853023,0.0600880883738792,0.0174859528001027,-6.785626271214145e-07
2025-03-07 14:04:38.595,-1.0,-0.027334766376479,0.0458997131105362,0.0185647731771544,-6.76122577604402e-07
2025-03-07 14:04:38.596,-1.0,-0.0147348610333634,0.0344776484223426,0.0197426137751772,-6.736660817368402e-07
2025-03-07 14:04:38.598,-1.0,-0.004814533841099,0.025850613779716,0.0210359063002403,-6.711933331464531e-07
2025-03-07 14:04:38.600,-1.0,0.002796787195785,0.0193788625688035,0.0221754761434822,-6.687045220808257e-07
2025-03-07 14:04:38.602,-1.0,0.0087611438636033,0.0139909153382064,0.0227518856331862,-6.661998369046886e-07
2025-03-07 14:04:38.604,-1.0,0.0138979215878085,0.0085617609535606,0.0224595090409948,-6.636794648790683e-07
2025-03-07 14:04:38.606,-1.0,0.0190214318843121,0.0022787418154189,0.0213000002609906,-6.611435929590065e-07
2025-03-07 14:04:38.608,-1.0,0.0247425856397083,-0.0051177061360555,0.0196247061059904,-6.585924095802823e-07
2025-03-07 14:04:38.610,-1.0,0.0312718315561672,-0.0132802663284717,0.0179913918521293,-6.560261077965234e-07
2025-03-07 14:04:38.612,-1.0,0.0383187881912892,-0.0214088159429324,0.0169097988921672,-6.534448892150525e-07
2025-03-07 14:04:38.614,-1.0,0.045180105326954,-0.0285851534440665,0.0165947785660339,-6.50848967491974e-07
2025-03-07 14:04:38.616,-1.0,0.0510196359796888,-0.0341790431047187,0.0168404196350386,-6.482385699410648e-07
2025-03-07 14:04:38.618,-1.0,0.0552314385471841,-0.0381394796125057,0.0170917858130093,-6.456139361815212e-07
2025-03-07 14:04:38.620,-1.0,0.0577171759600753,-0.0410059649852223,0.0167110380009429,-6.429753136244829e-07
2025-03-07 14:04:38.622,-1.0,0.0589360300381519,-0.0436154065207236,0.0153204506994952,-6.403229506716231e-07
2025-03-07 14:04:38.624,-1.0,0.0596818332105315,-0.0466494851505194,0.0130321753863886,-6.376570893564285e-07
2025-03-07 14:04:38.626,-1.0,0.0606805431101664,-0.0502570512413646,0.0104233193192883,-6.349779594936508e-07
2025-03-07 14:04:38.628,-1.0,0.0622215053169607,-0.0539566089956966,0.0082647238825641,-6.322857760914313e-07
2025-03-07 14:04:38.630,-1.0,0.0640447588271202,-0.0568942322228191,0.0071503542817278,-6.295807408026171e-07
2025-03-07 14:04:38.632,-1.0,0.0655634171656628,-0.0583499890283519,0.0072132559569955,-6.268630466796318e-07
2025-03-07 14:04:38.634,-1.0,0.066285983463774,-0.05822830154353,0.0080575099209721,-6.241328840218603e-07
2025-03-07 14:04:38.636,-1.0,0.0661636669057498,-0.0572293271983611,0.0089341679264025,-6.213904446067083e-07
2025-03-07 14:04:38.638,-1.0,0.0656201138155923,-0.0565378612056555,0.0090820810699148,-6.186359226143441e-07
2025-03-07 14:04:38.639,-1.0,0.0652212802378314,-0.0571479190995259,0.0080731898419254,-6.158695125219448e-07
2025-03-07 14:04:38.641,-1.0,0.065199474255024,-0.0592105187291006,0.0059887844604344,-6.130914058147648e-07
2025-03-07 14:04:38.643,-1.0,0.065175137550749,-0.0618379328526441,0.0033370338473052,-6.103017886140331e-07
2025-03-07 14:04:38.645,-1.0,0.0643034472564733,-0.0635363122200221,0.0007669643939228,-6.075008414392731e-07
2025-03-07 14:04:38.647,-1.0,0.0617867884206246,-0.0630417348162843,-0.0012551168185623,-6.046887411226866e-07
2025-03-07 14:04:38.649,-1.0,0.0574494082145177,-0.0600853077963227,-0.0026360697568597,-6.018656640323373e-07
2025-03-07 14:04:38.651,-1.0,0.0520196133856207,-0.0556507174114438,-0.0036312739168872,-5.990317894194594e-07
2025-03-07 14:04:38.653,-1.0,0.0469175438438158,-0.051558560205769,-0.0046411859372588,-5.961873017595188e-07
2025-03-07 14:04:38.655,-1.0,0.0436220297344771,-0.0495768269146312,-0.0059549664219039,-5.933323913246065e-07
2025-03-07 14:04:38.657,-1.0,0.0429531563058707,-0.0505387129037527,-0.0075857255047391,-5.904672528902516e-07
2025-03-07 14:04:38.659,-1.0,0.0446868042617524,-0.0539641372654353,-0.0092775015853874,-5.875920831797437e-07
2025-03-07 14:04:38.661,-1.0,0.04771916918373,-0.0583808802020351,-0.0106618792854108,-5.847070779674642e-07
2025-03-07 14:04:38.663,-1.0,0.0506421268551562,-0.0621139770799239,-0.0114720181785626,-5.818124296541067e-07
2025-03-07 14:04:38.665,-1.0,0.0523539080930418,-0.0640623997367541,-0.0117086592709415,-5.789083258921883e-07
2025-03-07 14:04:38.667,-1.0,0.0523911230053235,-0.0640649667823166,-0.0116740110514548,-5.759949495994841e-07
2025-03-07 14:04:38.669,-1.0,0.0509195580383579,-0.0627517354475182,-0.0118323442989737,-5.730724803493828e-07
2025-03-07 14:04:38.671,-1.0,0.0485158781823073,-0.0610495573542521,-0.0125338456488577,-5.701410967141455e-07
2025-03-07 14:04:38.673,-1.0,0.0459037431372572,-0.0596430858247638,-0.0137395087340214,-5.672009788968134e-07
2025-03-07 14:04:38.675,-1.0,0.0437427729213422,-0.0586797235680432,-0.014937116258111,-5.642523110435283e-07
2025-03-07 14:04:38.677,-1.0,0.0424907224835292,-0.0578534248541526,-0.0153628675514629,-5.612952827907232e-07
2025-03-07 14:04:38.679,-1.0,0.0423136610811871,-0.0567674602997926,-0.0144539639753818,-5.583300896338396e-07
2025-03-07 14:04:38.680,-1.0,0.043036450232449,-0.0553145349897658,-0.0122782490907393,-5.553569317277744e-07
2025-03-07 14:04:38.682,-1.0,0.044175973517322,-0.0538320708825285,-0.0096562612650717,-5.523760110975913e-07
2025-03-07 14:04:38.684,-1.0,0.0450912941237038,-0.0529427480417531,-0.0078516173626894,-5.493875279654198e-07
2025-03-07 14:04:38.686,-1.0,0.0451981855276169,-0.0531641940152881,-0.0079661714480386,-5.463916774642136e-07
2025-03-07 14:04:38.688,-1.0,0.0441350214765119,-0.0545028742404861,-0.0103680152106951,-5.433886478771886e-07
2025-03-07 14:04:38.690,-1.0,0.0418188454530787,-0.0562935620901375,-0.0144748785477153,-5.403786207717851e-07
2025-03-07 14:04:38.692,-1.0,0.0384351168424691,-0.0574493385222272,-0.0190143830435345,-5.373617725658101e-07
2025-03-07 14:04:38.694,-1.0,0.0344311113848661,-0.0570437489796406,-0.0226127984124908,-5.343382766630042e-07
2025-03-07 14:04:38.696,-1.0,0.0305009793366869,-0.0548930788610544,-0.0243922598035788,-5.313083053687142e-07
2025-03-07 14:04:38.698,-1.0,0.0274781950864261,-0.0517551144554977,-0.0242770791158727,-5.282720310985731e-07
2025-03-07 14:04:38.700,-1.0,0.0261011604854309,-0.0489908523698345,-0.022889851095141,-5.252296267426976e-07
2025-03-07 14:04:38.702,-1.0,0.026740988387832,-0.0478823668014352,-0.0211415370701465,-5.221812654358887e-07
2025-03-07 14:04:38.704,-1.0,0.0292364584270485,-0.0490009667238434,-0.0197646663679353,-5.191271203166894e-07
2025-03-07 14:04:38.706,-1.0,0.0329240803845754,-0.0519568640436615,-0.0190329411081761,-5.160673648804917e-07
2025-03-07 14:04:38.708,-1.0,0.0368545048560694,-0.0556270544172803,-0.0187727063572269,-5.130021741921283e-07
2025-03-07 14:04:38.710,-1.0,0.0401139586429238,-0.0587166235573674,-0.0186028210415929,-5.099317267818167e-07
2025-03-07 14:04:38.712,-1.0,0.0421259791647257,-0.0603631698209764,-0.0182373461172483,-5.068562067659931e-07
2025-03-07 14:04:38.714,-1.0,0.0428054351601037,-0.0604849951894731,-0.0176797148399705,-5.037758056899964e-07
2025-03-07 14:04:38.716,-1.0,0.0425012654870091,-0.0597123445562547,-0.0172112332456812,-5.006907237146189e-07
2025-03-07 14:04:38.718,-1.0,0.0417746206844046,-0.0589718872120658,-0.0171974200724534,-4.976011699317156e-07
2025-03-07 14:04:38.720,-1.0,0.0411368196740677,-0.0589776819673684,-0.0178410151864668,-4.945073617212514e-07
2025-03-07 14:04:38.721,-1.0,0.0408629357323442,-0.05989624374035,-0.019033460208763,-4.914095231689998e-07
2025-03-07 14:04:38.723,-1.0,0.0409304141570403,-0.0613178628460931,-0.0203876001483091,-4.883078826540909e-07
2025-03-07 14:04:38.725,-1.0,0.0410779195535706,-0.0625060581957975,-0.0214282893205733,-4.852026697825037e-07
2025-03-07 14:04:38.727,-1.0,0.0409633611553527,-0.0627999186342072,-0.0218367073613101,-4.820941119430142e-07
2025-03-07 14:04:38.729,-1.0,0.0403851009808495,-0.0620025582683445,-0.0216176063870197,-4.789824309525547e-07
2025-03-07 14:04:38.731,-1.0,0.0394851974732036,-0.0605763941914998,-0.0210913450651515,-4.7586784047082404e-07
2025-03-07 14:04:38.733,-1.0,0.038808914526413,-0.0595096584258541,-0.0207008915206295,-4.727505448881153e-07
2025-03-07 14:04:38.735,-1.0,0.0391232796483254,-0.0598617699272687,-0.0207386371775822,-4.696307400511501e-07
2025-03-07 14:04:38.737,-1.0,0.0410337525725321,-0.0621968498455988,-0.0211632434185038,-4.665086155701264e-07
2025-03-07 14:04:38.739,-1.0,0.0446036450961378,-0.0662273857701484,-0.0216238860087767,-4.6338435781536523e-07
2025-03-07 14:04:38.741,-1.0,0.0492209078573138,-0.07088954335043,-0.0216687799544459,-4.602581523153183e-07
2025-03-07 14:04:38.743,-1.0,0.0538093150954902,-0.0748117218530713,-0.0210025503033323,-4.571301843596024e-07
2025-03-07 14:04:38.745,-1.0,0.057270879054738,-0.0769213372208813,-0.0196506007918055,-4.540006373596741e-07
2025-03-07 14:04:38.747,-1.0,0.0589374910385753,-0.0769013480592745,-0.0179639987578633,-4.50869689672234e-07
2025-03-07 14:04:38.749,-1.0,0.0588284513557683,-0.07531152119972,-0.0164832107397216,-4.477375115004082e-07
2025-03-07 14:04:38.751,-1.0,0.057596534561236,-0.0733228408437466,-0.0157264463694036,-4.446042635794496e-07
2025-03-07 14:04:38.753,-1.0,0.0561797332597916,-0.0721596843834758,-0.0159800903952813,-4.414700985025929e-07
2025-03-07 14:04:38.755,-1.0,0.0553369909706586,-0.0725052466878207,-0.0171683941227466,-4.383351641973556e-07
2025-03-07 14:04:38.757,-1.0,0.0553236552760188,-0.0741914287365259,-0.0188679109227166,-4.351996080172895e-07
2025-03-07 14:04:38.759,-1.0,0.0558668963174154,-0.0763496930317396,-0.0204829331618764,-4.3206357976921813e-07
2025-03-07 14:04:38.761,-1.0,0.0564127159189799,-0.0779257183949876,-0.0215131378750712,-4.289272327473222e-07
2025-03-07 14:04:38.763,-1.0,0.0564872226793246,-0.0782670341218225,-0.0217799458100363,-4.257907229562419e-07
2025-03-07 14:04:38.764,-1.0,0.055990025355362,-0.0774799156720389,-0.0214900237077222,-4.226542075234331e-07
2025-03-07 14:04:38.766,-1.0,0.0552790874925208,-0.0763801648977405,-0.021101209879435,-4.195178434611748e-07
2025-03-07 14:04:38.768,-1.0,0.0549995746376448,-0.0760633939781171,-0.02106395092464,-4.163817874566596e-07
2025-03-07 14:04:38.770,-1.0,0.0557392113697673,-0.0773178600645602,-0.02157877936088,-4.132461965222104e-07
2025-03-07 14:04:38.772,-1.0,0.0576978999446214,-0.0802028878445009,-0.0225051175710275,-4.101112286245753e-07
2025-03-07 14:04:38.774,-1.0,0.0605670303595261,-0.0840460296330372,-0.0234791278560671,-4.069770423484188e-07
2025-03-07 14:04:38.776,-1.0,0.063696125995698,-0.0878722356081913,-0.0241762370382898,-4.0384379528554084e-07
2025-03-07 14:04:38.778,-1.0,0.0664388031311266,-0.0909928964459338,-0.0245542195717624,-4.0071164165709705e-07
2025-03-07 14:04:38.780,-1.0,0.0684519987094685,-0.0933669789448129,-0.0249151053697102,-3.9758073008991444e-07
2025-03-07 14:04:38.782,-1.0,0.069776020561872,-0.0955139084077436,-0.0257380119338065,-3.944512023454661e-07
2025-03-07 14:04:38.784,-1.0,0.070699361883813,-0.0980737592799923,-0.027374520498497,-3.913231934140147e-07
2025-03-07 14:04:38.786,-1.0,0.0715510822948111,-0.1013216333659797,-0.0297706731945658,-3.881968329714882e-07
2025-03-07 14:04:38.788,-1.0,0.0725625541991427,-0.1049291515923973,-0.0323667184787517,-3.850722477951755e-07
2025-03-07 14:04:38.790,-1.0,0.0738379815299384,-0.108094011669281,-0.0342561500849905,-3.819495644649079e-07
2025-03-07 14:04:38.792,-1.0,0.0753809923927195,-0.1099512100220508,-0.034570336336326,-3.788289117275028e-07
2025-03-07 14:04:38.794,-1.0,0.0771186181600293,-0.1100333745454538,-0.0329148738040108,-3.75710422195674e-07
2025-03-07 14:04:38.796,-1.0,0.0789175581980341,-0.1085300176380375,-0.0296125755909049,-3.725942332842786e-07
2025-03-07 14:04:38.798,-1.0,0.0806129594241307,-0.1062120475051031,-0.025599203040306,-3.694804873310184e-07
2025-03-07 14:04:38.800,-1.0,0.0820440328192062,-0.1040686308881372,-0.0220247119235402,-3.663693308466653e-07
2025-03-07 14:04:38.802,-1.0,0.083074692704175,-0.1028500830901594,-0.0197755031819847,-3.632609129599282e-07
2025-03-07 14:04:38.804,-1.0,0.0835987034405727,-0.1027471102221523,-0.0191485184931151,-3.601553834023361e-07
2025-03-07 14:04:38.805,-1.0,0.0835521954773844,-0.1033541462036897,-0.0198020612615084,-3.570528906610041e-07
2025-03-07 14:04:38.807,-1.0,0.0829576139642861,-0.1039231484199549,-0.0209656436975452,-3.5395358092095106e-07
2025-03-07 14:04:38.809,-1.0,0.0819954581871139,-0.1037787735166931,-0.0217834231910112,-3.508575979790493e-07
2025-03-07 14:04:38.811,-1.0,0.0810449796525712,-0.1026798798675432,-0.0216350066791089,-3.477650836449823e-07
2025-03-07 14:04:38.813,-1.0,0.0806051618578665,-0.1009292805856107,-0.0203242238521842,-3.446761776982533e-07
2025-03-07 14:04:38.815,-1.0,0.081066287014949,-0.0991709785594912,-0.0181047954264279,-3.41591016614778e-07
2025-03-07 14:04:38.817,-1.0,0.0824231216131326,-0.0979894734454056,-0.0155664545520322,-3.385097310112008e-07
2025-03-07 14:04:38.819,-1.0,0.0841050674529754,-0.0975278900586855,-0.0134229241787638,-3.354324426663352e-07
2025-03-07 14:04:38.821,-1.0,0.085074583686346,-0.097329267549332,-0.0122547842250043,-3.323592624791711e-07
2025-03-07 14:04:38.823,-1.0,0.0842123252929063,-0.0964959682806871,-0.0122837420217239,-3.292902904147227e-07
2025-03-07 14:04:38.825,-1.0,0.0808388130101377,-0.0940990530043918,-0.0132603375854706,-3.262256174774978e-07
2025-03-07 14:04:38.827,-1.0,0.0751255770022567,-0.0896305323562284,-0.0145050514446283,-3.2316532865169137e-07
2025-03-07 14:04:38.829,-1.0,0.0681813038733276,-0.083262386125545,-0.0150811768663633,-3.201095052911198e-07
2025-03-07 14:04:38.831,-1.0,0.0617358086627765,-0.0757827134994776,-0.0140469980624892,-3.170582259597577e-07
2025-03-07 14:04:38.833,-1.0,0.0575305751855597,-0.068266206469306,-0.0107357232218446,-3.14011565873354e-07
2025-03-07 14:04:38.835,-1.0,0.0566915185866233,-0.0616979249234432,-0.0050064970419779,-3.109695960781434e-07
2025-03-07 14:04:38.837,-1.0,0.0594029908231005,-0.0567902083886132,0.0026126929879513,-3.0793238367894905e-07
2025-03-07 14:04:38.839,-1.0,0.065042266266956,-0.054065683860103,0.0109764943173537,-3.0489999377819385e-07
2025-03-07 14:04:38.841,-1.0,0.0726390307751694,-0.0540316336905822,0.0186073104772945,-3.01872492821966e-07
2025-03-07 14:04:38.843,-1.0,0.0813056967994703,-0.0571525910457709,0.0241530207204538,-2.988499523695956e-07
2025-03-07 14:04:38.845,-1.0,0.0903303878114192,-0.0634736686567505,0.0268566357114608,-2.9583245222866133e-07
2025-03-07 14:04:38.847,-1.0,0.0989284531680236,-0.0720825178542155,0.0268458533982261,-2.9282008230773504e-07
2025-03-07 14:04:38.848,-1.0,0.1059736010852962,-0.0808606118443671,0.0251129087508368,-2.898129430480611e-07
2025-03-07 14:04:38.850,-1.0,0.1100839846377583,-0.0869007203520416,0.0231831851386269,-2.868111446463193e-07
2025-03-07 14:04:38.852,-1.0,0.1101470484143983,-0.0875444859255163,0.0226024846706144,-2.838148054747403e-07
2025-03-07 14:04:38.854,-1.0,0.1059656135379513,-0.0815272270076959,0.0244383101072741,-2.808240501799083e-07
2025-03-07 14:04:38.856,-1.0,0.0985469152013005,-0.0695788972165195,0.0289679430739613,-2.778390078453148e-07
2025-03-07 14:04:38.858,-1.0,0.0897899702013407,-0.0541289266208649,0.0356609702926117,-2.748598103187353e-07
2025-03-07 14:04:38.860,-1.0,0.0817481055014564,-0.0382646404686722,0.0434833934199069,-2.718865904969944e-07
2025-03-07 14:04:38.862,-1.0,0.0758778825922003,-0.0244634398890907,0.0514143727373922,-2.689194803050263e-07
2025-03-07 14:04:38.864,-1.0,0.0725942082371147,-0.0137034830993617,0.0588906567327636,-2.659586084391696e-07
2025-03-07 14:04:38.866,-1.0,0.0712279123978092,-0.005381949624883,0.065845895835436,-2.630040984698347e-07
2025-03-07 14:04:38.868,-1.0,0.0703394153279192,0.0019110343946988,0.07225038420713,-2.600560681575016e-07
2025-03-07 14:04:38.870,-1.0,0.0682920004816092,0.0091831023590869,0.0774750387778042,-2.5711463044682964e-07
2025-03-07 14:04:38.872,-1.0,0.0639358361794004,0.0161100318946261,0.080045805558035,-2.541798956856389e-07
2025-03-07 14:04:38.874,-1.0,0.0571585908810669,0.0209881476496996,0.0781466776738662,-2.512519738107366e-07
2025-03-07 14:04:38.876,-1.0,0.0490034958811079,0.0216756488572329,0.0706790856162756,-2.483309751568208e-07
2025-03-07 14:04:38.878,-1.0,0.0411905331835531,0.0170271101071401,0.0582175859089127,-2.454170092347419e-07
2025-03-07 14:04:38.880,-1.0,0.0352207056967534,0.0079618821117093,0.0431825321062868,-2.425101818332443e-07
2025-03-07 14:04:38.882,-1.0,0.0315710089417723,-0.0025759859453097,0.0289949688861752,-2.396105915594452e-07
2025-03-07 14:04:38.884,-1.0,0.029507228625084,-0.01091025082973,0.018596925214592,-2.367183271507108e-07
2025-03-07 14:04:38.886,-1.0,0.0276829903543962,-0.0145446918152483,0.0131382474883485,-2.33833466573942e-07
2025-03-07 14:04:38.888,-1.0,0.0251801636957628,-0.0135997044149452,0.0115804098261467,-2.3095607824089878e-07
2025-03-07 14:04:38.889,-1.0,0.0223262058447331,-0.0108846110224846,0.0114415470633886,-2.2808622390434535e-07
2025-03-07 14:04:38.891,-1.0,0.0207323529450512,-0.0105056545492626,0.0102266524168033,-2.252239623218282e-07
2025-03-07 14:04:38.893,-1.0,0.0224868492550142,-0.0157832310902104,0.0067035739948851,-2.22369352708777e-07
2025-03-07 14:04:38.895,-1.0,0.0289910692800422,-0.0276588928200756,0.0013321340648199,-2.195224571760517e-07
2025-03-07 14:04:38.897,-1.0,0.0401566274982004,-0.0444613682903686,-0.0043047814846262,-2.16683341640202e-07
2025-03-07 14:04:38.899,-1.0,0.0544210708773123,-0.0630674735859073,-0.0086464417631581,-2.1385207515903217e-07
2025-03-07 14:04:38.901,-1.0,0.0694920987854947,-0.0806794732741327,-0.0111874119233028,-2.1102872821355733e-07
2025-03-07 14:04:38.903,-1.0,0.0833137644274411,-0.0961645493671764,-0.012850820712945,-2.082133708241416e-07
2025-03-07 14:04:38.905,-1.0,0.0947319498815915,-0.1102690092826151,-0.0155370934316766,-2.054060712763543e-07
2025-03-07 14:04:38.907,-1.0,0.1036294920358754,-0.1247038373413144,-0.0210743775136751,-2.0260689572704893e-07
2025-03-07 14:04:38.909,-1.0,0.1106107485751609,-0.1406801137788187,-0.0300693955494884,-1.998159084882285e-07
2025-03-07 14:04:38.911,-1.0,0.1164609772138345,-0.15770838759876,-0.0412474388836721,-1.9703317268229185e-07
2025-03-07 14:04:38.913,-1.0,0.1216221187666328,-0.1733231519390664,-0.0517010598793074,-1.9425875114065238e-07
2025-03-07 14:04:38.915,-1.0,0.1258986715424693,-0.1839483892240197,-0.0580497426548959,-1.914927075305083e-07
2025-03-07 14:04:38.917,-1.0,0.1285326977788115,-0.1865675024293914,-0.0580348279147763,-1.8873510755013005e-07
2025-03-07 14:04:38.919,-1.0,0.1286392574130153,-0.1804316701147051,-0.0517924342302572,-1.8598601976476625e-07
2025-03-07 14:04:38.921,-1.0,0.1258170895780784,-0.167938206097389,-0.0421211362469678,-1.8324551553177426e-07
2025-03-07 14:04:38.923,-1.0,0.1206268802800977,-0.1541105271082723,-0.0334836646842421,-1.805136676475465e-07
2025-03-07 14:04:38.925,-1.0,0.1146310647079716,-0.1447181381662041,-0.0300870894020686,-1.7779054782141537e-07
2025-03-07 14:04:38.927,-1.0,0.109866366706389,-0.1437583792268007,-0.0338920265589299,-1.7507622365933086e-07
2025-03-07 14:04:38.929,-1.0,0.10794178478277,-0.1514718604787034,-0.0435300878737847,-1.723707562495545e-07
2025-03-07 14:04:38.930,-1.0,0.1092338613828227,-0.163987002395081,-0.0547531513808629,-1.696741994368454e-07
2025-03-07 14:04:38.932,-1.0,0.1126582184233153,-0.1749932651929607,-0.0623350553530776,-1.6698660131241595e-07
2025-03-07 14:04:38.934,-1.0,0.1161889180532077,-0.1787913654051746,-0.0626024541291568,-1.6430800745534846e-07
2025-03-07 14:04:38.936,-1.0,0.117872683285055,-0.1732204014107565,-0.0553477230388555,-1.6163846455337816e-07
2025-03-07 14:04:38.938,-1.0,0.1168069300697127,-0.1608692645135622,-0.0440623374279497,-1.589780228731865e-07
2025-03-07 14:04:38.940,-1.0,0.1135713593064458,-0.1478111270689061,-0.0342397687787498,-1.5632673685667876e-07
2025-03-07 14:04:38.942,-1.0,0.1098967109721037,-0.1404379777951137,-0.0305412658772292,-1.536846643184349e-07
2025-03-07 14:04:38.944,-1.0,0.1077477348264291,-0.1420361295345056,-0.0342883918430277,-1.51051865428914e-07
2025-03-07 14:04:38.946,-1.0,0.1082903040211086,-0.1509231119527481,-0.04263280319836,-1.4842840247427893e-07
2025-03-07 14:04:38.948,-1.0,0.1112805958579644,-0.1611878010305872,-0.0499071985966746,-1.4581434053418358e-07
2025-03-07 14:04:38.950,-1.0,0.1152059886484083,-0.1657480044534906,-0.0505420073672883,-1.4320974831689698e-07
2025-03-07 14:04:38.952,-1.0,0.1180749099044771,-0.1602091805030806,-0.0421342602413916,-1.4061469803211984e-07
2025-03-07 14:04:38.954,-1.0,0.1183502308309656,-0.1455172867760892,-0.0271670436011023,-1.380292636335227e-07
2025-03-07 14:04:38.956,-1.0,0.1154691354601153,-0.1279638552116486,-0.0124947053782282,-1.354535178048367e-07
2025-03-07 14:04:38.958,-1.0,0.1097163497169985,-0.1164248178618326,-0.0067084517458576,-1.3288752907555526e-07
2025-03-07 14:04:38.960,-1.0,0.1016069358117661,-0.1180585071603676,-0.0164515529690019,-1.3033136072057756e-07
2025-03-07 14:04:38.962,-1.0,0.0911340885553872,-0.134427854008988,-0.0432937451516136,-1.27785072311493e-07
2025-03-07 14:04:38.964,-1.0,0.0772480902678412,-0.1599163138006833,-0.0826682013436211,-1.2524872341306466e-07
2025-03-07 14:04:38.966,-1.0,0.0578379219120872,-0.1834044094950057,-0.1255664634945597,-1.2272237786826274e-07
2025-03-07 14:04:38.968,-1.0,0.030320090727154,-0.1927022862733527,-0.1623821695017447,-1.20206106983098e-07
2025-03-07 14:04:38.970,-1.0,-0.0072847263808157,-0.1797739823976072,-0.1870586807031772,-1.1769999064307404e-07
2025-03-07 14:04:38.972,-1.0,-0.0551641104577625,-0.1441279798534189,-0.1992920601505254,-1.152041163842181e-07
2025-03-07 14:04:38.973,-1.0,-0.1110010815022055,-0.0923852066826923,-0.2033862559317646,-1.1271857707339204e-07
2025-03-07 14:04:38.975,-1.0,-0.1702787812257145,-0.033793363045719,-0.2040721099680769,-1.1024346800952849e-07
2025-03-07 14:04:38.977,-1.0,-0.2276699248058874,0.0264494627071521,-0.2012204258114672,-1.0777888423249764e-07
2025-03-07 14:04:38.979,-1.0,-0.2788267283829871,0.0927640813203969,-0.1860626088430276,-1.0532491867757877e-07
2025-03-07 14:04:38.981,-1.0,-0.321419432394776,0.1803936445578217,-0.1410257476908242,-1.0288166133755373e-07
2025-03-07 14:04:38.983,-1.0,-0.3546212211859773,0.3107805647521358,-0.043840614314402,-1.0044919894223185e-07
2025-03-07 14:04:38.985,-1.0,-0.3773423252982466,0.5025343696437217,0.1251920885156646,-9.802761440918532e-08
2025-03-07 14:04:38.987,-1.0,-0.3866277964930646,0.7617524842671549,0.375124734064677,-9.561698572581625e-08
2025-03-07 14:04:38.989,-1.0,-0.3778443644526729,1.0758180195168645,0.6979737035024846,-9.321738460265269e-08
2025-03-07 14:04:38.991,-1.0,-0.3471780477551621,1.413047851959322,1.0658698547630476,-9.082887564471489e-08
2025-03-07 14:04:38.993,-1.0,-0.2949762196195698,1.7277914409100184,1.43281527390518,-8.845151668460283e-08
2025-03-07 14:04:38.995,-1.0,-0.2269639435278998,1.968391166397289,1.7414272774741557,-8.608536040493175e-08
2025-03-07 14:04:38.997,-1.0,-0.1511646720293565,2.08533205711759,1.9341674416530328,-8.373045674511852e-08
2025-03-07 14:04:38.999,-1.0,-0.071947812259789,2.0391625718389967,1.9672148181275608,-8.138685517926694e-08
2025-03-07 14:04:39.001,-1.0,0.0136697706928645,1.8100578725281744,1.8237277038195097,-7.905460604815545e-08
2025-03-07 14:04:39.003,-1.0,0.1128769905435115,1.4096164451790434,1.5224934984480003,-7.673376071343206e-08
2025-03-07 14:04:39.005,-1.0,0.2282682799126711,0.8898228952502416,1.11809124006492,-7.442437087724453e-08
2025-03-07 14:04:39.007,-1.0,0.3506014310508922,0.3392127748188489,0.6898142729478383,-7.212648750074302e-08
2025-03-07 14:04:39.009,-1.0,0.4600755657856569,-0.1400570034578151,0.3200186315349151,-6.984015952547518e-08
2025-03-07 14:04:39.011,-1.0,0.536040904084485,-0.4673796612008805,0.0686613141531047,-6.756543251713676e-08
2025-03-07 14:04:39.013,-1.0,0.5678679589407152,-0.6124074097516234,-0.0445393775285781,-6.530234748086224e-08
2025-03-07 14:04:39.014,-1.0,0.5591549359232253,-0.6005502346983955,-0.041395223485948,-6.305094016673071e-08
2025-03-07 14:04:39.016,-1.0,0.5233630444404617,-0.4937372612252233,0.0296258605527987,-6.081124106093358e-08
2025-03-07 14:04:39.018,-1.0,0.4753194898138443,-0.3599976434041922,0.1153219258639974,-5.8583276042179466e-08
2025-03-07 14:04:39.020,-1.0,0.4247441351640265,-0.2488915458209931,0.1758526709762783,-5.63670674990868e-08
2025-03-07 14:04:39.022,-1.0,0.3749890602242088,-0.1820821229977616,0.1929070210653879,-5.4162635599461714e-08
2025-03-07 14:04:39.024,-1.0,0.3259127711735359,-0.1577476947343596,0.1681651624650466,-5.196999935515332e-08
2025-03-07 14:04:39.026,-1.0,0.2774966303380186,-0.1614352389044314,0.1160614795949024,-4.9789177119763256e-08
2025-03-07 14:04:39.028,-1.0,0.2314686927361621,-0.1761511190306912,0.0553176639465288,-4.762018621390768e-08
2025-03-07 14:04:39.030,-1.0,0.1905344683223364,-0.1883040732973115,0.0022304873151607,-4.5463041550458176e-08
2025-03-07 14:04:39.032,-1.0,0.1566701292559811,-0.1898385055467351,-0.0331682819416864,-4.3317753506448293e-08
2025-03-07 14:04:39.034,-1.0,0.1301239223905949,-0.1783978601482631,-0.0482738413045236,-4.118432578107117e-08
2025-03-07 14:04:39.036,-1.0,0.1097226872720011,-0.1567731476768085,-0.0470503617894134,-3.906275426476809e-08
2025-03-07 14:04:39.038,-1.0,0.0939713709076396,-0.1317030262891336,-0.0377315545601117,-3.695302773263266e-08
2025-03-07 14:04:39.040,-1.0,0.0820300394327016,-0.111640702197645,-0.0296105597272453,-3.485513047978753e-08
2025-03-07 14:04:39.042,-1.0,0.0739457569824168,-0.1036406955690379,-0.0296948333574899,-3.2769046145017945e-08
2025-03-07 14:04:39.044,-1.0,0.0701023587005456,-0.1103846205867334,-0.0402821545105362,-3.0694761397234535e-08
2025-03-07 14:04:39.046,-1.0,0.0703474974181522,-0.1287566734615678,-0.058409066562407,-2.8632268252605465e-08
2025-03-07 14:04:39.048,-1.0,0.0734210512984449,-0.1508978185406231,-0.0774766556727753,-2.6581564485803663e-08
2025-03-07 14:04:39.050,-1.0,0.0770783951979123,-0.1674934139520965,-0.0904149050815111,-2.4542652430817205e-08
2025-03-07 14:04:39.052,-1.0,0.0788530125792444,-0.1718458198639515,-0.0929926914699288,-2.2515536942128528e-08
2025-03-07 14:04:39.054,-1.0,0.0770468345214331,-0.1627973005295416,-0.0857503480070092,-2.050022323461684e-08
2025-03-07 14:04:39.055,-1.0,0.0714601680906281,-0.1451128484288142,-0.0736525601209948,-1.8496714946178748e-08
2025-03-07 14:04:39.057,-1.0,0.063523890481932,-0.127178497218469,-0.0636544842997292,-1.6505012443797568e-08
2025-03-07 14:04:39.059,-1.0,0.055736159781529,-0.1171217903172996,-0.061385505901038,-1.452511134674094e-08
2025-03-07 14:04:39.061,-1.0,0.0505785798442479,-0.119133563876365,-0.0685548572339736,-1.2557001398051768e-08
2025-03-07 14:04:39.063,-1.0,0.0493585116317816,-0.1316448419208375,-0.0822862013575702,-1.0600665986631757e-08
2025-03-07 14:04:39.065,-1.0,0.0515506687105741,-0.1481853562104201,-0.096634556446615,-8.656082679731957e-09
2025-03-07 14:04:39.067,-1.0,0.0550302358214675,-0.160539541120584,-0.105509172112448,-6.723224989134393e-09
2025-03-07 14:04:39.069,-1.0,0.0571326618926921,-0.1627141283206499,-0.105581331078668,-4.802065239611118e-09
2025-03-07 14:04:39.071,-1.0,0.0559985398854399,-0.1537740501845897,-0.097775372753653,-2.892577951238059e-09
2025-03-07 14:04:39.073,-1.0,0.0514786066238666,-0.1381126793910794,-0.0866339330017345,-9.947428423100841e-10
2025-03-07 14:04:39.075,-1.0,0.0451224926015612,-0.1230320240673962,-0.0779093894755979,8.914533487702634e-10
2025-03-07 14:04:39.077,-1.0,0.0392928901521921,-0.1149285085591128,-0.0756354742067294,2.7660165427374515e-09
2025-03-07 14:04:39.079,-1.0,0.0359059789157526,-0.1160963244739165,-0.0801901991746333,4.628946283964188e-09
2025-03-07 14:04:39.081,-1.0,0.0354674176392778,-0.1237853739873494,-0.0883178078071599,6.4802375060015274e-09
2025-03-07 14:04:39.083,-1.0,0.0368995319861954,-0.1319241062107601,-0.0950244235397992,8.319882593382057e-09
2025-03-07 14:04:39.085,-1.0,0.038217296090317,-0.1345002076947707,-0.0962827587707413,1.014787332504034e-08
2025-03-07 14:04:39.087,-1.0,0.0376323280196801,-0.1287387956114069,-0.0911063125872373,1.1964202479151706e-08
2025-03-07 14:04:39.089,-1.0,0.0344499877701669,-0.1164046936281939,-0.081954548653306,1.3768865087719447e-08
2025-03-07 14:04:39.091,-1.0,0.029298795281608,-0.10264700849691,-0.0733480537857777,1.5561859311813546e-08
2025-03-07 14:04:39.093,-1.0,0.023632316214212,-0.0931255364961989,-0.0694930586185536,1.7343186662165738e-08
2025-03-07 14:04:39.095,-1.0,0.0188289154029387,-0.0909930962536346,-0.0721640169637156,1.911285117289792e-08
2025-03-07 14:04:39.097,-1.0,0.0154156476064387,-0.0952989594273701,-0.0798831457356619,2.087085743712089e-08
2025-03-07 14:04:39.098,-1.0,0.0128532977898582,-0.1015893207948631,-0.0887358547501463,2.2617208017194733e-08
2025-03-07 14:04:39.100,-1.0,0.0099601441651476,-0.1043169920683049,-0.0943566774973946,2.4351901252061388e-08
2025-03-07 14:04:39.102,-1.0,0.0056502101009468,-0.0997346703153704,-0.0940842876570621,2.6074930509723044e-08
2025-03-07 14:04:39.104,-1.0,-0.0004900946614966,-0.0877429331643731,-0.0882328530961601,2.7786285356588e-08
2025-03-07 14:04:39.106,-1.0,-0.0080772704288743,-0.0718000252946238,-0.0798771187894664,2.9485954233134263e-08
2025-03-07 14:04:39.108,-1.0,-0.0162201815516803,-0.0570725278264493,-0.0732925302112455,3.1173927545789595e-08
2025-03-07 14:04:39.110,-1.0,-0.0239854375244354,-0.0478687024603328,-0.0718539585737088,3.2850199959916764e-08
2025-03-07 14:04:39.112,-1.0,-0.0308049141038904,-0.0456313375064178,-0.0764360679670644,3.4514771132598976e-08
2025-03-07 14:04:39.114,-1.0,-0.0366827011616593,-0.04838827839194,-0.0850707937084922,3.6167644844081675e-08
2025-03-07 14:04:39.116,-1.0,-0.0421504067149656,-0.0518263121183769,-0.0939765308208011,3.7808827046768844e-08
2025-03-07 14:04:39.118,-1.0,-0.0480169014422719,-0.0513950188497103,-0.099411730133659,3.943832357592086e-08
2025-03-07 14:04:39.120,-1.0,-0.0550238486764773,-0.0444109309893443,-0.0994345873593488,4.105613821258116e-08
2025-03-07 14:04:39.122,-1.0,-0.0635121054238562,-0.0312176521502406,-0.0947295630934113,4.266227151335632e-08
2025-03-07 14:04:39.124,-1.0,-0.073196912007605,-0.0149451562496921,-0.0881418715649133,4.425672047150869e-08
2025-03-07 14:04:39.126,-1.0,-0.0831852437378804,-1.8989356433331276e-05,-0.0832040341598673,4.583947892298983e-08
2025-03-07 14:04:39.128,-1.0,-0.092332647465669,0.0099085710133361,-0.0824238752682451,4.7410538690953136e-08
2025-03-07 14:04:39.130,-1.0,-0.0998424615007022,0.0136533557800471,-0.0861889023068248,4.896989144227581e-08
2025-03-07 14:04:39.132,-1.0,-0.1057920617318445,0.013003239627608,-0.0927886164989548,5.051753089984691e-08
2025-03-07 14:04:39.134,-1.0,-0.1112533707193045,0.011793672192088,-0.0994594907684635,5.205345468076539e-08
2025-03-07 14:04:39.136,-1.0,-0.1179072161027461,0.0140622604119649,-0.103844745797165,5.357766503898813e-08
2025-03-07 14:04:39.138,-1.0,-0.1273507826843007,0.0222545933963931,-0.1050959772490071,5.50901682435927e-08
2025-03-07 14:04:39.139,-1.0,-0.1404442370935954,0.0363583275595232,-0.1040856953154032,5.659097289454269e-08
2025-03-07 14:04:39.141,-1.0,-0.1569785539396349,0.0542763351162768,-0.1027020023837876,5.8080087844746586e-08
2025-03-07 14:04:39.143,-1.0,-0.1757752535788096,0.07308818872729,-0.1026868461644704,5.95575204492002e-08
2025-03-07 14:04:39.145,-1.0,-0.1951636446330329,0.0904756349624617,-0.1046877887381923,6.102327564351869e-08
2025-03-07 14:04:39.147,-1.0,-0.213648936422709,0.1056357483076082,-0.1080129649679814,6.247735597320385e-08
2025-03-07 14:04:39.149,-1.0,-0.2304921729028476,0.1193438494856985,-0.1111480980994848,6.391976224895696e-08
2025-03-07 14:04:39.151,-1.0,-0.2459386110363207,0.1332520189080915,-0.1126863646758645,6.53504941460148e-08
2025-03-07 14:04:39.153,-1.0,-0.2609950046479778,0.1488525954828272,-0.112142179587709,6.67695500720218e-08
2025-03-07 14:04:39.155,-1.0,-0.2768754607915435,0.1666547423842927,-0.1102204866835756,6.817692611302266e-08
2025-03-07 14:04:39.157,-1.0,-0.2943845052082346,0.1859586005110503,-0.1084256707865315,6.957261453755004e-08
2025-03-07 14:04:39.159,-1.0,-0.313538551069745,0.2052817720916486,-0.1082565428414019,7.09566027663837e-08
2025-03-07 14:04:39.161,-1.0,-0.333619135447838,0.2231796240253825,-0.1104392730427984,7.232887366535964e-08
2025-03-07 14:04:39.163,-1.0,-0.3536053746293215,0.2390201678258701,-0.1145849661952443,7.368940750150843e-08
2025-03-07 14:04:39.165,-1.0,-0.3726925592014938,0.2532962640837652,-0.1193960523199736,7.503818517294398e-08
2025-03-07 14:04:39.167,-1.0,-0.3905734536369256,0.2673058055169003,-0.1232674031771581,7.637519172491422e-08
2025-03-07 14:04:39.169,-1.0,-0.4073650824861533,0.2823923099701096,-0.1249725254562018,7.770041893342837e-08
2025-03-07 14:04:39.171,-1.0,-0.4233149152958916,0.2991871934986762,-0.1241274726189787,7.901386599863703e-08
