Timestamp,GSR_Filtered,PPG_Filtered
2025-03-07 14:04:37.056,0.00019417458691640033,65.48349486647433
2025-03-07 14:04:37.064,0.00019930239316777183,66.03720351482445
2025-03-07 14:04:37.072,0.00020425368456447837,66.57626093053156
2025-03-07 14:04:37.080,0.00020885338991750207,67.10026129459932
2025-03-07 14:04:37.088,0.00021293646281647795,67.60881153871912
2025-03-07 14:04:37.095,0.0002163538801419574,68.1015330167386
2025-03-07 14:04:37.103,0.00021897700854796155,68.57806280494766
2025-03-07 14:04:37.111,0.00022070020514982004,69.03805455313167
2025-03-07 14:04:37.119,0.00022144176478778826,69.4811788169233
2025-03-07 14:04:37.127,0.00022114351539565853,69.90712281395753
2025-03-07 14:04:37.135,0.0002197694794397861,70.31558956161055
2025-03-07 14:04:37.142,0.00021730405992975203,70.70629637246847
2025-03-07 14:04:37.150,0.00021375017381067076,71.07897270477119
2025-03-07 14:04:37.158,0.00020912765587170138,71.43335738842237
2025-03-07 14:04:37.166,0.00020347212346921335,71.76919527212334
2025-03-07 14:04:37.174,0.0001968343631998261,72.08623336302743
2025-03-07 14:04:37.181,0.0001892802035954536,72.3842165561608
2025-03-07 14:04:37.189,0.0001808907788922583,72.66288307576522
2025-03-07 14:04:37.197,0.00017176304796576405,72.9219597736682
2025-03-07 14:04:37.205,0.00016201038892455017,73.16115744972522
2025-03-07 14:04:37.213,0.00015176304579445662,73.38016637525406
2025-03-07 14:04:37.220,0.00014116817444049802,73.57865221118082
2025-03-07 14:04:37.228,0.00013038923018258538,73.75625251740769
2025-03-07 14:04:37.236,0.00011960446184658913,73.9125740478902
2025-03-07 14:04:37.244,0.00010900432597047894,74.04719101643559
2025-03-07 14:04:37.252,9.87877092150545e-05,74.15964450087789
2025-03-07 14:04:37.260,8.915694432204168e-05,74.24944312787058
2025-03-07 14:04:37.267,8.031172182177848e-05,74.31606514716556
2025-03-07 14:04:37.275,7.244213015250788e-05,74.3589619633323
2025-03-07 14:04:37.283,6.572118603880122e-05,74.3775631451506
2025-03-07 14:04:37.291,6.02973167443044e-05,74.3712828794572
2025-03-07 14:04:37.299,5.628729880752997e-05,74.33952777844387
2025-03-07 14:04:37.306,5.377014131836362e-05,74.28170588900723
2025-03-07 14:04:37.314,5.278234761110864e-05,74.19723669173376
2025-03-07 14:04:37.322,5.331491880627338e-05,74.0855618177045
2025-03-07 14:04:37.330,5.531237644983112e-05,73.9461561559291
2025-03-07 14:04:37.338,5.867396093011548e-05,73.77853897539217
2025-03-07 14:04:37.345,6.325699805418114e-05,73.58228464595224
2025-03-07 14:04:37.353,6.888225270907096e-05,73.35703251414809
2025-03-07 14:04:37.361,7.534096852809787e-05,73.1024954756347
2025-03-07 14:04:37.369,8.240325081836594e-05,72.81846678751283
2025-03-07 14:04:37.377,8.982744858415561e-05,72.50482468286516
2025-03-07 14:04:37.385,9.737017630509688e-05,72.16153438751734
2025-03-07 14:04:37.392,0.00010479656338316432,71.78864719596181
2025-03-07 14:04:37.400,0.00011189024108755351,71.38629633941017
2025-03-07 14:04:37.408,0.00011846250822432763,70.95468947322374
2025-03-07 14:04:37.416,0.00012436009420148465,70.49409772188035
2025-03-07 14:04:37.424,0.00012947098389096782,70.0048413447153
2025-03-07 14:04:37.431,0.00013372788323057254,69.48727222167881
2025-03-07 14:04:37.439,0.00013710906334702303,68.94175350125195
2025-03-07 14:04:37.447,0.00013963649495669765,68.36863689773739
2025-03-07 14:04:37.455,0.00014137136877563866,68.16104236691893
2025-03-07 14:04:37.463,0.00014240729921840265,67.89754669652564
2025-03-07 14:04:37.470,0.00014286171835922786,67.5774465011702
2025-03-07 14:04:37.478,0.00014286615388375468,67.19993989993368
2025-03-07 14:04:37.486,0.00014255620179566775,66.76409749476647
2025-03-07 14:04:37.494,0.0001420620026048149,66.26883519193638
2025-03-07 14:04:37.502,0.00014149989595435198,65.71289023323462
2025-03-07 14:04:37.510,0.00014096571368640287,65.09480184410364
2025-03-07 14:04:37.517,0.0001405299528579422,64.41289789380818
2025-03-07 14:04:37.525,0.0001402348963602389,63.665288892112315
2025-03-07 14:04:37.533,0.00014009362668193517,62.84987051314816
2025-03-07 14:04:37.541,0.00014009079015028415,61.96433563777942
2025-03-07 14:04:37.549,0.000140184885715234,61.00619664065494
2025-03-07 14:04:37.556,0.00014031176114796614,59.97281831986675
2025-03-07 14:04:37.564,0.00014038892538198932,58.86146148112558
2025-03-07 14:04:37.572,0.00014032026613147809,57.66933675315022
2025-03-07 14:04:37.580,0.00014000080483400707,56.39366773811918
2025-03-07 14:04:37.588,0.0001393212028767301,55.03176210514303
2025-03-07 14:04:37.595,0.00013817182756713177,53.581088733153166
2025-03-07 14:04:37.603,0.0001364462797379536,52.03935852216374
2025-03-07 14:04:37.611,0.0001340443719343193,50.40460604027209
2025-03-07 14:04:37.619,0.00013087462192138533,48.67526878101863
2025-03-07 14:04:37.627,0.00012685637828963457,46.850260495342674
2025-03-07 14:04:37.635,0.00012192170035653398,44.92903485746483
2025-03-07 14:04:37.642,0.00011601706050545412,42.91163564634585
2025-03-07 14:04:37.650,0.00010910484884172758,40.79872969322164
2025-03-07 14:04:37.658,0.00010116458700348264,38.591619076879915
2025-03-07 14:04:37.666,9.219372788748648e-05,36.29222945299343
2025-03-07 14:04:37.674,8.220792779945682e-05,33.903071987489405
2025-03-07 14:04:37.681,7.1240719225686e-05,31.42717712556993
2025-03-07 14:04:37.689,5.934257533396958e-05,28.867999359208834
2025-03-07 14:04:37.697,4.657941529840621e-05,26.22929324041356
2025-03-07 14:04:37.705,3.303062827275508e-05,23.51496210068186
2025-03-07 14:04:37.713,1.8786692850674612e-05,20.728882246045856
2025-03-07 14:04:37.720,3.946451797026837e-06,17.87470676105177
2025-03-07 14:04:37.728,-1.1385920342142584e-05,14.955654425839297
2025-03-07 14:04:37.736,-2.710423376653147e-05,11.974290573777798
2025-03-07 14:04:37.744,-4.310384614547866e-05,8.932307933693949
2025-03-07 14:04:37.752,-5.928537645088436e-05,5.83031654840205
2025-03-07 14:04:37.760,-7.555840041606138e-05,2.667652677010177
2025-03-07 14:04:37.767,-9.184491503069313e-05,-0.5577828890458781
2025-03-07 14:04:37.775,-0.0001080823723766927,-3.8496464941075463
2025-03-07 14:04:37.783,-0.00012422613729659864,-7.213222896307346
2025-03-07 14:04:37.791,-0.0001402512864371629,-10.655436448877099
2025-03-07 14:04:37.799,-0.0001561537038690476,-14.18479361204916
2025-03-07 14:04:37.806,-0.00017195041736941158,-17.81124983389964
2025-03-07 14:04:37.814,-0.00018767907072156042,-21.545995919369602
2025-03-07 14:04:37.822,-0.00020339638951438752,-25.401161530038458
2025-03-07 14:04:37.830,-0.00021917551902837212,-29.38943637418937
2025-03-07 14:04:37.838,-0.00023510220293994995,-33.523612886395924
2025-03-07 14:04:37.845,-0.00025126990559355455,-37.81605766549644
2025-03-07 14:04:37.853,-0.0002677741217715706,-42.2781225258918
2025-03-07 14:04:37.861,-0.0002847062291209516,-46.91950958750961
2025-03-07 14:04:37.869,-0.00030214729167135786,-51.74760823704785
2025-03-07 14:04:37.877,-0.0003201622166215402,-56.7668248786708
2025-03-07 14:04:37.885,-0.0003387946223922342,-61.97792899178888
2025-03-07 14:04:37.892,-0.00035806271016456537,-67.37744096294908
2025-03-07 14:04:37.900,-0.00037795634277136775,-72.9570883016992
2025-03-07 14:04:37.908,-0.00039843542846716213,-78.70335704520755
2025-03-07 14:04:37.916,-0.0004194296090459982,-84.59716428527844
2025-03-07 14:04:37.924,-0.00044083918787613213,-90.61367572745132
2025-03-07 14:04:37.931,-0.00046253720543444713,-96.72228896776815
2025-03-07 14:04:37.939,-0.00048437256523860907,-102.88679874804963
2025-03-07 14:04:37.947,-0.0005061741215065712,-109.06575487806477
2025-03-07 14:04:37.955,-0.0005277556492253806,-115.2130169044
2025-03-07 14:04:37.963,-0.0005489216041338743,-121.27850213499205
2025-03-07 14:04:37.970,-0.0005694735220448655,-127.20911553287038
2025-03-07 14:04:37.978,-0.0005892168063349306,-132.94984157340087
2025-03-07 14:04:37.986,-0.000607967538030226,-138.44496977663144
2025-03-07 14:04:37.994,-0.0006255588524281064,-143.6394176940573
2025-03-07 14:04:38.002,-0.0006418463967561548,-148.48010810538653
2025-03-07 14:04:38.010,-0.0006567124419800748,-152.91735155602962
2025-03-07 14:04:38.017,-0.000670068366431877,-156.9061816461895
2025-03-07 14:04:38.025,-0.0006818554234055653,-160.40758915961223
2025-03-07 14:04:38.033,-0.0006920438968820826,-163.38960260773717
2025-03-07 14:04:38.041,-0.0007006308918470737,-165.82816728962337
2025-03-07 14:04:38.049,-0.0007076370708889449,-167.7077824587034
2025-03-07 14:04:38.056,-0.0007131026385468416,-169.02186624062261
2025-03-07 14:04:38.064,-0.0007170828246000165,-169.772829896388
2025-03-07 14:04:38.072,-0.0007196430850854522,-169.97185606954594
2025-03-07 14:04:38.080,-0.0007208542644603438,-169.63838896998146
2025-03-07 14:04:38.088,-0.0007207880221773724,-168.79935725792123
2025-03-07 14:04:38.096,-0.0007195128547048406,-167.48816202568537
2025-03-07 14:04:38.103,-0.000717090994565747,-165.7434721805855
2025-03-07 14:04:38.111,-0.0007135763575022715,-163.60787729291633
2025-03-07 14:04:38.119,-0.0007090135867047111,-161.1264533053259
2025-03-07 14:04:38.127,-0.0007034381474142112,-158.34529924789945
2025-03-07 14:04:38.135,-0.0006968773704437767,-155.3101032278723
2025-03-07 14:04:38.142,-0.0006893523224159429,-152.06479353422378
2025-03-07 14:04:38.150,-0.0006808803628362039,-148.6503258886807
2025-03-07 14:04:38.158,-0.0006714781910952965,-145.10365095269736
2025-03-07 14:04:38.166,-0.0006611650802249538,-141.4568975136648
2025-03-07 14:04:38.174,-0.0006499658894082445,-137.73679674116073
2025-03-07 14:04:38.181,-0.0006379134157876881,-133.96436199536834
2025-03-07 14:04:38.189,-0.0006250497133407117,-130.15482738120076
2025-03-07 14:04:38.197,-0.0006114261372164843,-126.31783706949109
2025-03-07 14:04:38.205,-0.0005971020185625983,-122.45786682815442
2025-03-07 14:04:38.213,-0.000582142022098199,-118.57484966853774
2025-03-07 14:04:38.221,-0.0005666123922138399,-114.66496942083144
2025-03-07 14:04:38.228,-0.0005505764390606277,-110.72157975486518
2025-03-07 14:04:38.236,-0.000534089713922092,-106.73620192754511
2025-03-07 14:04:38.244,-0.0005171953477760966,-102.69955253615706
2025-03-07 14:04:38.252,-0.0004999199913403046,-98.60255284629382
2025-03-07 14:04:38.260,-0.0004822707238605887,-94.43727378524076
2025-03-07 14:04:38.267,-0.0004642332027261914,-90.19777527328908
2025-03-07 14:04:38.275,-0.0004457712121544522,-85.88080493105794
2025-03-07 14:04:38.283,-0.00042682764270902116,-81.48632898887783
2025-03-07 14:04:38.291,-0.000407326800724205,-77.01787700739739
2025-03-07 14:04:38.299,-0.0003871778307169285,-72.48269132811065
2025-03-07 14:04:38.306,-0.0003662789747778388,-67.89168152599743
2025-03-07 14:04:38.314,-0.00034452240607597086,-63.259193067779215
2025-03-07 14:04:38.322,-0.0003217994228815114,-58.60260746900128
2025-03-07 14:04:38.330,-0.00029800582782433605,-53.94179814518836
2025-03-07 14:04:38.338,-0.0002730473337744943,-49.298471609851475
2025-03-07 14:04:38.346,-0.0002468448458729269,-44.69542751863746
2025-03-07 14:04:38.353,-0.00021933947761342798,-40.15577320914283
2025-03-07 14:04:38.361,-0.00019049717801033263,-35.702128827124625
2025-03-07 14:04:38.369,-0.00016031289026754387,-31.35585792004292
2025-03-07 14:04:38.377,-0.00012881421824114035,-27.136355648174362
2025-03-07 14:04:38.385,-9.606459904777743e-05,-23.060422709317926
2025-03-07 14:04:38.392,-6.216592673051027e-05,-19.1417479455249
2025-03-07 14:04:38.400,-2.7260454667367503e-05,-15.390516684084007
2025-03-07 14:04:38.408,8.468311954467621e-06,-11.813155464836308
2025-03-07 14:04:38.416,4.479607637724147e-05,-8.412217235293376
2025-03-07 14:04:38.424,8.145988275479967e-05,-5.186404663820106
2025-03-07 14:04:38.431,0.00011816215214000183,-2.130723219401138
2025-03-07 14:04:38.439,0.0001545767099886582,0.7632496506593879
2025-03-07 14:04:38.447,0.00019035671052053084,3.5069973349993298
2025-03-07 14:04:38.455,0.00022514417313715022,6.114620315118105
2025-03-07 14:04:38.463,0.00025858068593009653,8.602339501692034
2025-03-07 14:04:38.471,0.0002903187296941108,10.987971239419558
2025-03-07 14:04:38.478,0.0003200330384518611,13.290398287404368
2025-03-07 14:04:38.486,0.0003474314202791216,15.529059621441716
2025-03-07 14:04:38.494,0.0003722645015220153,17.723479377253692
2025-03-07 14:04:38.502,0.00039433394166792454,19.89285182529799
2025-03-07 14:04:38.510,0.00041349880569517886,22.055695147731907
2025-03-07 14:04:38.517,0.0004296799487574801,24.229582210677698
2025-03-07 14:04:38.525,0.00044286241576366745,26.430951728695916
2025-03-07 14:04:38.533,0.0004530959526999016,28.674998434010107
2025-03-07 14:04:38.541,0.00046049376583808216,30.97563630966964
2025-03-07 14:04:38.549,0.0004652296726823958,33.34552482889835
2025-03-07 14:04:38.556,0.0004675337908519717,35.79614464835449
2025-03-07 14:04:38.564,0.0004676869132685186,38.33790649011668
2025-03-07 14:04:38.572,0.0004660137103994167,40.98027514264649
2025-03-07 14:04:38.580,0.0004628748864478193,43.73188970495133
2025-03-07 14:04:38.588,0.0004586584128109836,46.600661439237236
2025-03-07 14:04:38.596,0.0004537699716578352,49.59383188631504
2025-03-07 14:04:38.603,0.0004486227540549606,52.71797618578041
2025-03-07 14:04:38.611,0.0004436267721932613,55.97893973660197
2025-03-07 14:04:38.619,0.00043917787789080553,59.38170030731901
2025-03-07 14:04:38.627,0.0004356467278738567,62.93015230714108
2025-03-07 14:04:38.635,0.00043336797798921065,66.62681498410161
2025-03-07 14:04:38.642,0.00043263000901750954,70.47247162285393
2025-03-07 14:04:38.650,0.0004336654980426991,74.46575214714792
2025-03-07 14:04:38.658,0.0004366431713055585,78.60267664406803
2025-03-07 14:04:38.666,0.00044166110665468756,82.87618195652436
2025-03-07 14:04:38.674,0.000448741978530414,87.27565736906556
2025-03-07 14:04:38.681,0.00045783064305527835,91.78651828329976
2025-03-07 14:04:38.689,0.0004687944328706624,96.38984841834339
2025-03-07 14:04:38.697,0.0004814264448239269,101.06214129864289
2025-03-07 14:04:38.705,0.0004954519378075855,105.77517047374926
2025-03-07 14:04:38.713,0.0005105377278784653,110.49601496854856
2025-03-07 14:04:38.721,0.0005263042248923635,115.18726186150396
2025-03-07 14:04:38.728,0.0005423395598066519,119.80740167849797
2025-03-07 14:04:38.736,0.0005582151343255786,124.31142460323952
2025-03-07 14:04:38.744,0.000573501866473792,128.65161656619182
2025-03-07 14:04:38.752,0.0005877863741013831,132.77854439724007
2025-03-07 14:04:38.760,0.000600686334217852,136.642208816063
2025-03-07 14:04:38.767,0.0006118643142368576,140.19333357810726
2025-03-07 14:04:38.775,0.0006210395101936513,143.38474915934202
2025-03-07 14:04:38.783,0.0006279970124213337,146.17282056975142
2025-03-07 14:04:38.791,0.0006325943878547019,148.51886187780607
2025-03-07 14:04:38.799,0.0006347654840723919,150.39047544258173
2025-03-07 14:04:38.806,0.0006345214353775362,151.7627522787029
2025-03-07 14:04:38.814,0.0006319489173950978,152.61927190342394
2025-03-07 14:04:38.822,0.0006272057763125013,152.95284569852566
2025-03-07 14:04:38.830,0.0006205142528479662,152.76595719673912
2025-03-07 14:04:38.838,0.0006121521002248162,152.0708653382879
2025-03-07 14:04:38.846,0.0006024419246808978,150.88935189467796
2025-03-07 14:04:38.853,0.0005917390667550749,149.25211098698807
2025-03-07 14:04:38.861,0.0005804183440184291,147.19779591200486
2025-03-07 14:04:38.869,0.0005688600163831054,144.771755308006
2025-03-07 14:04:38.877,0.0005574353882211322,142.02450608628797
2025-03-07 14:04:38.885,0.0005464925057198022,139.01000368734043
2025-03-07 14:04:38.892,0.000536342455586114,135.78378040712315
2025-03-07 14:04:38.900,0.0005272468324390345,132.4010292665581
2025-03-07 14:04:38.908,0.0005194069982637598,128.91471384189833
2025-03-07 14:04:38.916,0.0005129557743672577,125.37378351697731
2025-03-07 14:04:38.924,0.0005079521498952126,121.82156885932746
2025-03-07 14:04:38.931,0.0005043794387707961,118.29442356660132
2025-03-07 14:04:38.939,0.000502147082351177,114.82066815679512
2025-03-07 14:04:38.947,0.0005010960303121828,111.41987689403872
2025-03-07 14:04:38.955,0.000501007390449101,108.10253404967754
2025-03-07 14:04:38.963,0.0005016138374034156,104.87006925027096
2025-03-07 14:04:38.971,0.0005026131048236313,101.7152651337384
2025-03-07 14:04:38.978,0.0005036827595753712,98.62301457695325
2025-03-07 14:04:38.986,0.0005044953883884405,95.57139007662758
2025-03-07 14:04:38.994,0.0005047333267133662,92.53297509185568
2025-03-07 14:04:39.002,0.0005041021264385691,89.47639683037458
2025-03-07 14:04:39.010,0.0005023420914537626,86.36799250484742
2025-03-07 14:04:39.017,0.0004992373941714229,83.17353678611134
2025-03-07 14:04:39.025,0.0004946224923307237,79.85995717242875
2025-03-07 14:04:39.033,0.0004883857652730757,76.39696625629672
2025-03-07 14:04:39.041,0.00048047046597151955,72.75854522533886
2025-03-07 14:04:39.049,0.00047087322575549895,68.92422105327456
2025-03-07 14:04:39.056,0.00045964043752251424,64.88009026334191
2025-03-07 14:04:39.064,0.00044686287991985705,60.61955432405526
2025-03-07 14:04:39.072,0.00043266895385646797,56.14374504427217
2025-03-07 14:04:39.080,0.0004172169090066876,51.46163211244834
2025-03-07 14:04:39.088,0.00040068644401855676,46.589818508264855
2025-03-07 14:04:39.096,0.00038327005896665844,41.552042270717244
2025-03-07 14:04:39.103,0.0003651645162089415,36.37841447858642
2025-03-07 14:04:39.111,0.0003465627270694267,31.10443284173881
2025-03-07 14:04:39.119,0.00032764632944822853,25.769817698346998
2025-03-07 14:04:39.127,0.0003085791601560644,20.417222274992653
2025-03-07 14:04:39.135,0.00028950176824968414,15.090871721535434
2025-03-07 14:04:39.142,0.00027052708561752545,9.83518571274695
2025-03-07 14:04:39.150,0.0002517373827699418,4.693437440603088
2025-03-07 14:04:39.158,0.0002331826678229548,-0.2935021840743099
2025-03-07 14:04:39.166,0.00021488068793697264,-5.088292063122335
2025-03-07 14:04:39.174,0.0001968186416011307,-9.6580843023822
2025-03-07 14:04:39.181,0.00017895662143276373,-13.975295828634877
2025-03-07 14:04:39.189,0.00016123270278482052,-18.018169502933507
2025-03-07 14:04:39.197,0.00014356947832712492,-21.77111517731089
2025-03-07 14:04:39.205,0.00012588170527269089,-25.224830203240654
2025-03-07 14:04:39.213,0.00010808458631982988,-28.376207484552484
2025-03-07 14:04:39.221,9.010208554173233e-05,-31.228046950093386
2025-03-07 14:04:39.228,7.187463655253004e-05,-33.78859302616657
2025-03-07 14:04:39.236,5.336565710339466e-05,-36.07092609321828
2025-03-07 14:04:39.244,3.456642562302859e-05,-38.09223985001766
2025-03-07 14:04:39.252,1.5499055926818632e-05,-39.87303887985361
2025-03-07 14:04:39.260,-3.7825265840132375e-06,-41.436291486182114
2025-03-07 14:04:39.267,-2.3193586409391677e-05,-42.80657208451171
2025-03-07 14:04:39.275,-4.262146331867881e-05,-44.00922522405679
2025-03-07 14:04:39.283,-6.19301767621696e-05,-45.06957985721264
2025-03-07 14:04:39.291,-8.09664809915666e-05,-46.012238021706814
2025-03-07 14:04:39.299,-9.956698243137745e-05,-46.86045692791906
2025-03-07 14:04:39.306,-0.00011756584336970199,-47.63563784556025
2025-03-07 14:04:39.314,-0.00013480257491388145,-48.356929450393146
2025-03-07 14:04:39.322,-0.00015112946796311654,-49.04094769572994
2025-03-07 14:04:39.330,-0.00016641830089090788,-49.70160905756481
2025-03-07 14:04:39.338,-0.00018056606117660377,-50.35006937326569
2025-03-07 14:04:39.346,-0.00019349949798743072,-50.99475662503352
2025-03-07 14:04:39.353,-0.00020517838171982245,-51.64148305220766
2025-03-07 14:04:39.361,-0.00021559739684847814,-52.29362001285953
2025-03-07 14:04:39.369,-0.00022478664382649842,-52.9523181029312
2025-03-07 14:04:39.377,-0.00023281077559722643,-53.616755164240814
2025-03-07 14:04:39.385,-0.00023976684429184226,-54.284395891837804
2025-03-07 14:04:39.392,-0.00024578098365242576,-54.95124865451453
2025-03-07 14:04:39.400,-0.00025100410232712663,-55.612107697634094
2025-03-07 14:04:39.408,-0.0002556068120077134,-56.26077190531672
2025-03-07 14:04:39.416,-0.0002597738602166059,-56.89023454824119
2025-03-07 14:04:39.424,-0.00026369836995240056,-57.49284172882511
2025-03-07 14:04:39.431,-0.00026757618417490227,-58.0604203714042
2025-03-07 14:04:39.439,-0.0002716005518362293,-58.58437942684688
2025-03-07 14:04:39.447,-0.0002759572862715403,-59.05579032291887
2025-03-07 14:04:39.455,-0.00028082042592979207,-59.46545447008726
2025-03-07 14:04:39.463,-0.0002863483792661931,-59.80396674070561
2025-03-07 14:04:39.471,-0.0002926805415791545,-60.061784241256504
2025-03-07 14:04:39.478,-0.0002999343885360749,-60.2293094040476
2025-03-07 14:04:39.486,-0.0003082030419066219,-60.29699547817664
2025-03-07 14:04:39.494,-0.0003175532784816017,-60.255480953700435
2025-03-07 14:04:39.502,-0.00032802394743968176,-60.09575737064502
2025-03-07 14:04:39.510,-0.00033962477534580835,-59.80937242853854
2025-03-07 14:04:39.517,-0.0003523355438757913,-59.38866743698796
2025-03-07 14:04:39.525,-0.00036610562353053285,-58.82704507948888
2025-03-07 14:04:39.533,-0.00038085387010130227,-58.11926036740604
2025-03-07 14:04:39.541,-0.00039646894878658687,-57.261724714667686
2025-03-07 14:04:39.549,-0.0004128102044541408,-56.252810448143784
2025-03-07 14:04:39.556,-0.00042970920009688114,-55.09314096945557
2025-03-07 14:04:39.564,-0.0004469719978288909,-53.78585037948268
2025-03-07 14:04:39.572,-0.0004643822009330884,-52.33679581965937
2025-03-07 14:04:39.580,-0.0004817047485381493,-50.754706180175155
2025-03-07 14:04:39.588,-0.0004986904453484981,-49.05125221674023
2025-03-07 14:04:39.596,-0.0005150811830653854,-47.241025476500226
2025-03-07 14:04:39.603,-0.0005306157683028933,-45.3414166677021
2025-03-07 14:04:39.611,-0.0005450362495067717,-43.37238807548802
2025-03-07 14:04:39.619,-0.0005580946449410818,-41.3561391524845
2025-03-07 14:04:39.627,-0.0005695599794081552,-39.31666929780887
2025-03-07 14:04:39.635,-0.0005792254955176042,-37.27924685967223
2025-03-07 14:04:39.642,-0.0005869158104657543,-35.26979831046657
2025-03-07 14:04:39.650,-0.0005924936773056081,-33.31423608733308
2025-03-07 14:04:39.658,-0.0005958659321122219,-31.437747500097174
2025-03-07 14:04:39.666,-0.0005969882011887129,-29.664070128757484
2025-03-07 14:04:39.674,-0.0005958680016251609,-28.01478103658636
2025-03-07 14:04:39.681,-0.0005925659586857989,-26.508627725364736
2025-03-07 14:04:39.689,-0.0005871949612937564,-25.160927937170417
2025-03-07 14:04:39.697,-0.0005799171946029666,-23.983063145975585
2025-03-07 14:04:39.705,-0.0005709391443987131,-22.98208699150163
2025-03-07 14:04:39.713,-0.0005605048475403829,-22.1604652167797
2025-03-07 14:04:39.721,-0.0005488878163090773,-21.51595819332694
2025-03-07 14:04:39.728,-0.00053638213541846,-21.041651200307484
2025-03-07 14:04:39.736,-0.0005232931954365965,-20.726131600399807
2025-03-07 14:04:39.744,-0.0005099284213084011,-20.553806223095425
2025-03-07 14:04:39.752,-0.0004965882518600537,-20.505346884937143
2025-03-07 14:04:39.760,-0.00048355757622723934,-20.558247269810305
2025-03-07 14:04:39.767,-0.0004710978272831202,-20.68747054785482
2025-03-07 14:04:39.775,-0.0004594399269016473,-20.86616427162952
2025-03-07 14:04:39.783,-0.00044877825056540045,-21.06641734381573
2025-03-07 14:04:39.791,-0.0004392657429965265,-21.26003323753654
2025-03-07 14:04:39.799,-0.00043101029226734065,-21.419294150252103
2025-03-07 14:04:39.806,-0.0004240724571114219,-21.51769231908671
2025-03-07 14:04:39.814,-0.0004184646189726981,-21.53060720964295
2025-03-07 14:04:39.822,-0.00041415157500501157,-21.43591055917441
2025-03-07 14:04:39.830,-0.00041105250949011424,-21.21448511453634
2025-03-07 14:04:39.838,-0.00040904421621217935,-20.850647131270247
2025-03-07 14:04:39.846,-0.0004079654169189638,-20.332467056238528
2025-03-07 14:04:39.853,-0.0004076220176666838,-19.651987069754796
2025-03-07 14:04:39.861,-0.00040779314320795205,-18.805338092214882
2025-03-07 14:04:39.869,-0.0004082377868922104,-17.79276226033786
2025-03-07 14:04:39.877,-0.00040870191220820234,-16.618549576243378
2025-03-07 14:04:39.885,-0.00040892582684180236,-15.290899303822226
2025-03-07 14:04:39.892,-0.00040865160165453126,-13.821717666639303
2025-03-07 14:04:39.900,-0.000407630236915031,-12.226363493133649
2025-03-07 14:04:39.908,-0.00040562823339605655,-10.523352732210974
2025-03-07 14:04:39.916,-0.0004024332447989847,-8.734031365847041
2025-03-07 14:04:39.924,-0.00039785855934637863,-6.882224367908748
2025-03-07 14:04:39.931,-0.0003917462467978921,-4.993866225694197
2025-03-07 14:04:39.939,-0.0003839689092752234,-3.0966163882767237
2025-03-07 14:04:39.947,-0.00037443011253998626,-1.2194610534251493
2025-03-07 14:04:39.955,-0.00036306373578234966,0.6076988668443609
2025-03-07 14:04:39.963,-0.00034983260810207847,2.3544748248293876
2025-03-07 14:04:39.971,-0.00033472686334381363,3.99043446160468
2025-03-07 14:04:39.978,-0.0003177624447154985,5.485563748887176
2025-03-07 14:04:39.986,-0.00029898012707655795,6.810748297212864
2025-03-07 14:04:39.994,-0.0002784452892661381,7.9382734158750345
2025-03-07 14:04:40.002,-0.0002562484797346916,8.842340784630984
2025-03-07 14:04:40.010,-0.00023250662242362352,9.499597511569164
2025-03-07 14:04:40.017,-0.00020736454641131103,9.889671025536442
2025-03-07 14:04:40.025,-0.00018099641162441804,9.99570081727846
2025-03-07 14:04:40.033,-0.00015360655148139596,9.804855641918476
2025-03-07 14:04:40.041,-0.00012542926540500606,9.308822574314586
2025-03-07 14:04:40.049,-9.672716942148663e-05,8.504252418101181
2025-03-07 14:04:40.056,-6.778784073830899e-05,7.39314455294097
2025-03-07 14:04:40.064,-3.891864640533857e-05,5.983153491977953
2025-03-07 14:04:40.072,-1.0439799960261683e-05,4.287799321848135
2025-03-07 14:04:40.080,1.732416262643647e-05,2.3265649009951574
2025-03-07 14:04:40.088,4.405414671114119e-05,0.12486427033862185
2025-03-07 14:04:40.096,6.944701594810003e-05,-2.286130772312538
2025-03-07 14:04:40.103,9.322626418027697e-05,-4.869815567361643
2025-03-07 14:04:40.111,0.00011515220109765933,-7.5846343160215905
2025-03-07 14:04:40.119,0.00013503105993857591,-10.384718966254576
2025-03-07 14:04:40.127,0.000152722566636641,-13.220679985848538
2025-03-07 14:04:40.135,0.00016814566548326064,-16.040537737116523
2025-03-07 14:04:40.142,0.0001812822124224489,-18.7907769911091
2025-03-07 14:04:40.150,0.0001921785116849071,-21.417501047353753
2025-03-07 14:04:40.158,0.00020094461895011096,-23.867656269300415
2025-03-07 14:04:40.166,0.00020775138840572663,-26.09029294356061
2025-03-07 14:04:40.174,0.00021282529955296518,-28.037824564866828
2025-03-07 14:04:40.181,0.0002164411646638538,-29.66724525398277
2025-03-07 14:04:40.189,0.0002189129027122087,-30.94126428447219
2025-03-07 14:04:40.197,0.0002205826680315953,-31.829317781066717
2025-03-07 14:04:40.205,0.00022180871743239543,-32.308420593718616
2025-03-07 14:04:40.213,0.0002229524650772234,-32.36382605995217
2025-03-07 14:04:40.221,0.00022436520895526203,-31.989467642582486
2025-03-07 14:04:40.228,0.00022637503702339513,-31.188163974857794
2025-03-07 14:04:40.236,0.00022927445553649117,-29.9715772947611
2025-03-07 14:04:40.244,0.00023330931541866976,-28.359924194172674
2025-03-07 14:04:40.252,0.00023866959868024717,-26.38144662101221
2025-03-07 14:04:40.260,0.0002454825292160758,-24.07165974164752
2025-03-07 14:04:40.267,0.0002538083057324227,-21.472401223982796
2025-03-07 14:04:40.275,0.0002636385687391165,-18.63071342239506
2025-03-07 14:04:40.283,0.00027489754727457827,-15.597595582856911
2025-03-07 14:04:40.291,0.00028744570586043363,-12.426667352698319
2025-03-07 14:04:40.299,0.00030108564474880186,-9.172787444813912
2025-03-07 14:04:40.306,0.00031556998688780333,-5.8906721980375325
2025-03-07 14:04:40.314,0.00033061096579017104,-2.6335579844499613
2025-03-07 14:04:40.322,0.0003458913722643338,0.5480510016978747
2025-03-07 14:04:40.330,0.00036107643795866586,3.607511960024027
2025-03-07 14:04:40.338,0.00037582616558031194,6.503017345546881
2025-03-07 14:04:40.346,0.0003898075708260386,9.198387385261846
2025-03-07 14:04:40.353,0.0004027062709783487,11.663662483799898
2025-03-07 14:04:40.361,0.00041423685076708575,13.87548453195962
2025-03-07 14:04:40.369,0.000424151494065216,15.817264131410438
2025-03-07 14:04:40.377,0.0004322465103634971,17.47913861247182
2025-03-07 14:04:40.385,0.0004383665812227106,18.85773309821176
2025-03-07 14:04:40.392,0.00044240675297223616,19.95574343450593
2025-03-07 14:04:40.400,0.0004443123698717985,20.781365287536026
2025-03-07 14:04:40.408,0.0004440772614573388,21.34759789940889
2025-03-07 14:04:40.416,0.0004417405652436421,21.67145376522001
2025-03-07 14:04:40.424,0.0004373825813641386,21.773106819540956
2025-03-07 14:04:40.432,0.000431120022634171,21.675011652643835
2025-03-07 14:04:40.439,0.00042310095531235666,21.40102494286745
2025-03-07 14:04:40.447,0.00041349965005218044,20.975557863822196
2025-03-07 14:04:40.455,0.0004025115051655097,20.422784896638635
2025-03-07 14:04:40.463,0.00039034816112610833,19.765930443937666
2025-03-07 14:04:40.471,0.000377232865203948,19.026650099786853
2025-03-07 14:04:40.478,0.000363396058817922,18.22451858404648
2025-03-07 14:04:40.486,0.0003490710878273835,17.376631421792954
2025-03-07 14:04:40.494,0.00033448992517107044,16.49732267228649
2025-03-07 14:04:40.502,0.0003198788471553531,15.597996615762389
2025-03-07 14:04:40.510,0.0003054540820505735,14.68706749000359
2025-03-07 14:04:40.517,0.0002914175189319487,13.769998282080648
2025-03-07 14:04:40.525,0.0002779526119858987,12.849427313855735
2025-03-07 14:04:40.533,0.0002652206372783519,11.925369942569644
2025-03-07 14:04:40.541,0.00025335745412537804,10.995482101434163
2025-03-07 14:04:40.549,0.00024247089302967256,10.055372546953377
2025-03-07 14:04:40.557,0.00023263884685977178,9.098951434158563
2025-03-07 14:04:40.564,0.00022390810516298028,8.118804056165393
2025-03-07 14:04:40.572,0.0002162939646998024,7.10658009739532
2025-03-07 14:04:40.580,0.00020978066337515818,6.053390397895928
2025-03-07 14:04:40.588,0.0002043226820750566,4.950204858738683
2025-03-07 14:04:40.596,0.0001998469154604342,3.7882466081181176
2025-03-07 14:04:40.603,0.0001962556434678528,2.5593787968076653
2025-03-07 14:04:40.611,0.00019343017237190564,1.2564813296694894
2025-03-07 14:04:40.619,0.00019123498172731894,-0.12618458167961022
2025-03-07 14:04:40.627,0.00018952222119978282,-1.592625969388614
2025-03-07 14:04:40.635,0.0001881364397698923,-3.1447838889439073
2025-03-07 14:04:40.642,0.00018691947231530714,-4.782218124812246
2025-03-07 14:04:40.650,0.00018571543005109107,-6.501814413019669
2025-03-07 14:04:40.658,0.00018437573066384946,-8.297518922639798
2025-03-07 14:04:40.666,0.00018276406134585786,-10.160106067379933
2025-03-07 14:04:40.674,0.00018076110466634513,-12.07698713061366
2025-03-07 14:04:40.682,0.0001782687986834562,-14.032068564182337
2025-03-07 14:04:40.689,0.00017521387431831265,-16.005670021661174
2025-03-07 14:04:40.697,0.00017155041811795586,-17.974513057171478
2025-03-07 14:04:40.705,0.00016726123475449,-19.91179180990768
2025-03-07 14:04:40.713,0.0001623578309686532,-21.787336761486777
2025-03-07 14:04:40.721,0.00015687892355391281,-23.56788167413974
2025-03-07 14:04:40.728,0.00015088748496395126,-25.217441998522496
2025-03-07 14:04:40.736,0.00014446645553378945,-26.697810334384815
2025-03-07 14:04:40.744,0.0001377133468972532,-27.969170951494558
2025-03-07 14:04:40.752,0.00013073403455121985,-28.990831014491263
2025-03-07 14:04:40.760,0.0001236361064672202,-29.722061150550463
2025-03-07 14:04:40.767,0.00011652221042472855,-30.123032560774327
2025-03-07 14:04:40.775,0.00010948390025249612,-30.155832268569906
2025-03-07 14:04:40.783,0.00010259647295906459,-29.78553262879896
2025-03-07 14:04:40.791,9.591519236198934e-05,-28.981286224982092
2025-03-07 14:04:40.799,8.947312838463757e-05,-27.71741309747551
2025-03-07 14:04:40.807,8.328064153869671e-05,-25.97444419024584
2025-03-07 14:04:40.814,7.732635050207568e-05,-23.740083243936347
2025-03-07 14:04:40.822,7.157927801010634e-05,-21.010049286765707
2025-03-07 14:04:40.830,6.599180411497876e-05,-17.78876347289868
2025-03-07 14:04:40.838,6.0503068203675746e-05,-14.089847278385271
2025-03-07 14:04:40.846,5.5042528304509846e-05,-9.936403884923617
2025-03-07 14:04:40.853,4.953347276231383e-05,-5.361060785203692
2025-03-07 14:04:40.861,4.3896357499470424e-05,-0.4057589943461727
2025-03-07 14:04:40.869,3.805189912904939e-05,4.8787175354081445
2025-03-07 14:04:40.877,3.1923888212314556e-05,10.433469949473267
2025-03-07 14:04:40.885,2.5441706805768535e-05,16.19245869001208
2025-03-07 14:04:40.892,1.8542561004370183e-05,22.08370380575273
2025-03-07 14:04:40.900,1.1173485013944442e-05,28.030683064126396
2025-03-07 14:04:40.908,3.2932144566076335e-06,33.953892128494196
2025-03-07 14:04:40.916,-5.125981712087264e-06,39.772524728874686
2025-03-07 14:04:40.924,-1.4096491099078697e-05,45.40622573858182
2025-03-07 14:04:40.932,-2.3613642057404926e-05,50.77686655704098
2025-03-07 14:04:40.939,-3.365422065434289e-05,55.810290343803196
2025-03-07 14:04:40.947,-4.4175385749767086e-05,60.43797457162851
2025-03-07 14:04:40.955,-5.511415433854197e-05,64.598560147252
2025-03-07 14:04:40.963,-6.63876360344599e-05,68.23920000416399
2025-03-07 14:04:40.971,-7.78942008727898e-05,71.31668553373517
2025-03-07 14:04:40.978,-8.951574601140792e-05,73.79831632323327
2025-03-07 14:04:40.986,-0.00010112116121041608,75.66248715082956
2025-03-07 14:04:40.994,-0.00011257098156575966,76.89897570458072
2025-03-07 14:04:41.002,-0.00012372308486720165,77.50892463676429
2025-03-07 14:04:41.010,-0.00013443916703803353,77.5045218934786
2025-03-07 14:04:41.017,-0.00014459162618405785,76.90839332663195
2025-03-07 14:04:41.025,-0.00015407040892630462,75.75273098367204
2025-03-07 14:04:41.033,-0.00016278932467545635,74.07818881160497
2025-03-07 14:04:41.041,-0.0001706913179382357,71.932584503291
2025-03-07 14:04:41.049,-0.00017775221484436763,69.36945163027794
2025-03-07 14:04:41.057,-0.00018398254066976635,66.44648990742627
2025-03-07 14:04:41.064,-0.0001894271382084633,63.22396336597886
2025-03-07 14:04:41.072,-0.00019416247585000537,59.76309639552759
2025-03-07 14:04:41.080,-0.00019829169173723785,56.12451613453927
2025-03-07 14:04:41.088,-0.0002019375718762787,52.36678667399019
2025-03-07 14:04:41.096,-0.00020523381419561764,48.54507615575021
2025-03-07 14:04:41.103,-0.00020831508916870726,44.7099922891691
2025-03-07 14:04:41.111,-0.00021130655585811502,40.90661528684868
2025-03-07 14:04:41.119,-0.0002143135941217124,37.17374996131349
2025-03-07 14:04:41.127,-0.00021741252973307224,33.543410972798604
2025-03-07 14:04:41.135,-0.0002206430568064517,30.04054723451321
2025-03-07 14:04:41.142,-0.00022400293903266085,26.683003535991332
2025-03-07 14:04:41.150,-0.00022744542418920145,23.481709812804752
2025-03-07 14:04:41.158,-0.0002308796263484231,20.441081442931267
2025-03-07 14:04:41.166,-0.00023417391098537997,17.559607737725198
2025-03-07 14:04:41.174,-0.000237162082646238,14.830600632395477
2025-03-07 14:04:41.182,-0.00023965196114300434,12.243071628525666
2025-03-07 14:04:41.189,-0.00024143577949911442,9.782702399179387
2025-03-07 14:04:41.197,-0.000242301772346664,7.432873169581052
2025-03-07 14:04:41.205,-0.00024204633886017957,5.175713002278179
2025-03-07 14:04:41.213,-0.0002404862128647966,2.993137352146349
2025-03-07 14:04:41.221,-0.00023747010694602735,0.867840565347837
2025-03-07 14:04:41.228,-0.00023288930652568942,-1.2157858109691246
2025-03-07 14:04:41.236,-0.00022668669563596707,-3.2708341704791253
2025-03-07 14:04:41.244,-0.00021886372242472114,-5.307182356389083
2025-03-07 14:04:41.252,-0.00020948486976648533,-7.330931819771364
2025-03-07 14:04:41.260,-0.00019867928624570924,-9.343993969239252
2025-03-07 14:04:41.267,-0.0001866393541002623,-11.343831567369131
2025-03-07 14:04:41.275,-0.00017361612127947182,-13.32335753959579
2025-03-07 14:04:41.283,-0.00015991169967260793,-15.270989384183958
2025-03-07 14:04:41.291,-0.00014586891671955666,-17.170853597775043
2025-03-07 14:04:41.299,-0.00013185867530656257,-19.003131227271748
2025-03-07 14:04:41.307,-0.00011826559967643986,-20.744532867961144
2025-03-07 14:04:41.314,-0.00010547261967426205,-22.36888915923081
2025-03-07 14:04:41.322,-9.384519269290976e-05,-23.847841049022804
2025-03-07 14:04:41.330,-8.371590164320795e-05,-25.151612727220108
2025-03-07 14:04:41.338,-7.537019606873508e-05,-26.24984905785431
2025-03-07 14:04:41.346,-6.903403858758226e-05,-27.112498460345197
2025-03-07 14:04:41.353,-6.486415556492902e-05,-27.710721415562425
2025-03-07 14:04:41.361,-6.294146742632229e-05,-28.01780405865924
2025-03-07 14:04:41.369,-6.326810482191485e-05,-28.010055673244167
2025-03-07 14:04:41.377,-6.576820638095235e-05,-27.667668382728856
2025-03-07 14:04:41.385,-7.029244289538544e-05,-26.975517058291103
2025-03-07 14:04:41.392,-7.66259513508084e-05,-25.923877573469163
2025-03-07 14:04:41.400,-8.449914177355117e-05,-24.50904217853739
2025-03-07 14:04:41.408,-9.360068773407043e-05,-22.733812062803494
2025-03-07 14:04:41.416,-0.00010359191684120833,-20.607849196042825
2025-03-07 14:04:41.424,-0.00011412176176614975,-18.14787231674493
2025-03-07 14:04:41.432,-0.00012484141498811797,-15.377685434955076
2025-03-07 14:04:41.439,-0.00013541787165240545,-12.328031355302953
2025-03-07 14:04:41.447,-0.0001455456648507066,-9.036267364680807
2025-03-07 14:04:41.455,-0.00015495629132267075,-5.545865194774011
2025-03-07 14:04:41.463,-0.00016342506145466276,-1.9057424664977567
2025-03-07 14:04:41.471,-0.00017077534469382634,1.8305621515575177
2025-03-07 14:04:41.478,-0.0001768803796388905,5.605853081490326
2025-03-07 14:04:41.486,-0.0001816629465875586,9.360359968485598
2025-03-07 14:04:41.494,-0.0001850932559470229,13.032912781165203
2025-03-07 14:04:41.502,-0.00018718541102998433,16.562181839793777
2025-03-07 14:04:41.510,-0.0001879927826656076,19.88795252003713
2025-03-07 14:04:41.517,-0.0001876025979553302,22.95240302913224
2025-03-07 14:04:41.525,-0.00018613000086062492,25.701353179311457
2025-03-07 14:04:41.533,-0.0001837117911580344,28.085452464315722
2025-03-07 14:04:41.541,-0.0001804999937437116,30.06127691890363
2025-03-07 14:04:41.549,-0.00017665535537847882,31.59230612977592
2025-03-07 14:04:41.557,-0.00017234081526922026,32.649754290591865
2025-03-07 14:04:41.564,-0.00016771496172407114,33.21323229422289
2025-03-07 14:04:41.572,-0.00016292549404183946,33.27122150477544
2025-03-07 14:04:41.580,-0.0001581027779465285,32.82134405286119
2025-03-07 14:04:41.588,-0.00015335370189193992,31.870419261112684
2025-03-07 14:04:41.596,-0.00014875616014636554,30.434301119162942
2025-03-07 14:04:41.603,-0.00014435455621125858,28.53749751933359
2025-03-07 14:04:41.611,-0.0001401567221977236,26.212578098197774
2025-03-07 14:04:41.619,-0.00013613259671516327,23.499383805716114
2025-03-07 14:04:41.627,-0.00013221489821736254,20.44405750550799
2025-03-07 14:04:41.635,-0.00012830187219677375,17.09792074562266
2025-03-07 14:04:41.642,-0.0001242620083177498,13.516227076598325
2025-03-07 14:04:41.650,-0.00011994046879203296,9.756826684719925
2025-03-07 14:04:41.658,-0.00011516686954299688,5.878780417582416
2025-03-07 14:04:41.666,-0.00010976399914708547,1.940963300111737
2025-03-07 14:04:41.674,-0.00010355701931453342,-1.9993017795107375
2025-03-07 14:04:41.682,-9.638264480453385e-05,-5.887540464156497
2025-03-07 14:04:41.689,-8.809776005513117e-05,-9.673316068310859
2025-03-07 14:04:41.697,-7.858694033731817e-05,-13.311277916523172
2025-03-07 14:04:41.705,-6.776844310353327e-05,-16.762040296982832
2025-03-07 14:04:41.713,-5.559839502400067e-05,-19.99286935128635
2025-03-07 14:04:41.721,-4.207305876008885e-05,-22.978161787233066
2025-03-07 14:04:41.728,-2.7229185524156672e-05,-25.699706237033702
2025-03-07 14:04:41.736,-1.1142553496128326e-05,-28.1467251029878
2025-03-07 14:04:41.744,6.075123930894579e-06,-30.315701577352257
2025-03-07 14:04:41.752,2.428066361231744e-05,-32.21000297102956
2025-03-07 14:04:41.760,4.330495475406998e-05,-33.83931735261903
2025-03-07 14:04:41.767,6.295928478434935e-05,-35.21892563162763
2025-03-07 14:04:41.775,8.304218074812253e-05,-36.36883548856919
2025-03-07 14:04:41.783,0.00010334649700223857,-37.31280685930179
2025-03-07 14:04:41.791,0.00012366643959742701,-38.07730095615949
2025-03-07 14:04:41.799,0.00014380417476556843,-38.69038603105712
2025-03-07 14:04:41.807,0.0001635756688086901,-39.180633274799106
2025-03-07 14:04:41.814,0.0001828154593640735,-39.57603545930701
2025-03-07 14:04:41.822,0.000201380140831754,-39.9029792542466
2025-03-07 14:04:41.830,0.00021915043453767842,-40.18529970140497
2025-03-07 14:04:41.838,0.00023603179489495877,-40.44344224498761
2025-03-07 14:04:41.846,0.0002519535745986192,-40.69375414235075
2025-03-07 14:04:41.853,0.0002668668431877028,-40.947923161644624
2025-03-07 14:04:41.861,0.00028074104405406887,-41.212577329347326
2025-03-07 14:04:41.869,0.00029355979457657455,-41.48905520657153
2025-03-07 14:04:41.877,0.0003053162484484227,-41.773351808108465
2025-03-07 14:04:41.885,0.00031600848844028626,-42.056240883566495
2025-03-07 14:04:41.892,0.00032563538644182516,-42.32356990837158
2025-03-07 14:04:41.900,0.00033419330500763405,-42.55671983820267
2025-03-07 14:04:41.908,0.0003416739581458904,-42.73321751495508
2025-03-07 14:04:41.916,0.0003480636673386677,-42.82748462189118
2025-03-07 14:04:41.924,0.00035334409819689664,-42.81170331766953
2025-03-07 14:04:41.932,0.000357494364532473,-42.65677519555843
2025-03-07 14:04:41.939,0.00036049420491437604,-42.33334710615736
2025-03-07 14:04:41.947,0.00036232781192590337,-41.81287477449664
2025-03-07 14:04:41.955,0.0003629878300945849,-41.06869318834592
2025-03-07 14:04:41.963,0.00036247903964515545,-40.07706159697928
2025-03-07 14:04:41.971,0.00036082132207561595,-38.81815078662428
2025-03-07 14:04:41.978,0.0003580516467492126,-37.27694119848671
2025-03-07 14:04:41.986,0.00035422497543267413,-35.44400247944721
2025-03-07 14:04:41.994,0.00034941410375546606,-33.31612819361644
2025-03-07 14:04:42.002,0.00034370853190180697,-30.896803600186978
2025-03-07 14:04:42.010,0.00033721250124295956,-28.196489481579587
2025-03-07 14:04:42.017,0.00033004237150820713,-25.23271079043223
2025-03-07 14:04:42.025,0.00032232355238617143,-22.029945132873493
2025-03-07 14:04:42.033,0.0003141872355398439,-18.619312545366935
2025-03-07 14:04:42.041,0.00030576717473009495,-15.03807436471581
2025-03-07 14:04:42.049,0.0002971967124764809,-11.32895495176131
2025-03-07 14:04:42.057,0.0002886061618747606,-7.539305352535869
2025-03-07 14:04:42.064,0.0002801205612841367,-3.720132459025793
2025-03-07 14:04:42.072,0.0002718577555173865,0.07497927701796556
2025-03-07 14:04:42.080,0.0002639267189969075,3.79102409061895
2025-03-07 14:04:42.088,0.00025642602527800547,7.37277825235911
2025-03-07 14:04:42.096,0.00024944239643244487,10.76601929920009
2025-03-07 14:04:42.103,0.00024304932365833064,13.918730479522928
2025-03-07 14:04:42.111,0.00023730579692034917,16.782261083832783
2025-03-07 14:04:42.119,0.00023225519283559594,19.312415309252927
2025-03-07 14:04:42.127,0.0002279243582448901,21.47044476623198
2025-03-07 14:04:42.135,0.00022432291274557362,23.223922540604978
2025-03-07 14:04:42.142,0.0002214427863449377,24.547479759345265
2025-03-07 14:04:42.150,0.00021925800928815207,25.42338878910625
2025-03-07 14:04:42.158,0.0002177247789942077,25.841980470484273
2025-03-07 14:04:42.166,0.00021678184256066553,25.801886138799997
2025-03-07 14:04:42.174,0.00021635124926386957,25.310098611005746
2025-03-07 14:04:42.182,0.00021633953444071157,24.381849846063538
2025-03-07 14:04:42.189,0.0002166393716272414,23.04030662719249
2025-03-07 14:04:42.197,0.00021713166240845813,21.316089370402143
2025-03-07 14:04:42.205,0.0002176879556779802,19.246623018744746
2025-03-07 14:04:42.213,0.00021817306062286401,16.875332896581334
2025-03-07 14:04:42.221,0.0002184477638114711,14.250702302152144
2025-03-07 14:04:42.228,0.0002183716420569632,11.425212400865268
2025-03-07 14:04:42.236,0.00021780603002317917,8.454188500531343
2025-03-07 14:04:42.244,0.00021661723227171223,5.394579874515569
2025-03-07 14:04:42.252,0.0002146800523482133,2.303702777830707
2025-03-07 14:04:42.260,0.00021188164215219177,-0.7620219789491519
2025-03-07 14:04:42.267,0.00020812558021940207,-3.748304692282079
2025-03-07 14:04:42.275,0.00020333601527197735,-6.604163577431069
2025-03-07 14:04:42.283,0.00019746167742954222,-9.28301176227569
2025-03-07 14:04:42.291,0.00019047953130544676,-11.743625626357208
2025-03-07 14:04:42.299,0.00018239779027409226,-13.950968757623496
2025-03-07 14:04:42.307,0.00017325794532560952,-15.87684980579721
2025-03-07 14:04:42.314,0.0001631354341126755,-17.50039727658573
2025-03-07 14:04:42.322,0.00015213861910139663,-18.808339645670838
2025-03-07 14:04:42.330,0.00014040585770416303,-19.795084850304036
2025-03-07 14:04:42.338,0.00012810060763270614,-20.46259899922935
2025-03-07 14:04:42.346,0.00011540468002626053,-20.820089797265542
2025-03-07 14:04:42.353,0.0001025099014548728,-20.883505509003403
2025-03-07 14:04:42.361,8.960856897218631e-05,-20.67486513237028
2025-03-07 14:04:42.369,7.688318902476074e-05,-20.221439712712982
2025-03-07 14:04:42.377,6.449608564114163e-05,-19.554808340479696
2025-03-07 14:04:42.385,5.2579542238598294e-05,-18.709815309220563
2025-03-07 14:04:42.392,4.122718964091518e-05,-17.723457148229357
2025-03-07 14:04:42.400,3.048733670168084e-05,-16.633729773765506
2025-03-07 14:04:42.408,2.0358822615531564e-05,-15.478466820073283
2025-03-07 14:04:42.416,1.078975419094174e-05,-14.294200324913405
2025-03-07 14:04:42.424,1.679228692981342e-06,-13.115074371877785
2025-03-07 14:04:42.432,-7.118111777466322e-06,-11.971841047335667
2025-03-07 14:04:42.439,-1.5785068159536624e-05,-10.890966153300703
2025-03-07 14:04:42.447,-2.4532955768404004e-05,-9.893869519151444
2025-03-07 14:04:42.455,-3.359139645610798e-05,-8.996321474367782
2025-03-07 14:04:42.463,-4.319749362910874e-05,-8.208013109539678
2025-03-07 14:04:42.471,-5.358502855757988e-05,-7.532313430396795
2025-03-07 14:04:42.478,-6.49742675194876e-05,-6.966221502050878
2025-03-07 14:04:42.486,-7.756289742067797e-05,-6.500516319749396
2025-03-07 14:04:42.494,-9.151849578150256e-05,-6.12010158307169
2025-03-07 14:04:42.502,-0.00010697278014805402,-5.80453696379901
2025-03-07 14:04:42.510,-0.00012401770015127417,-5.528742019503165
2025-03-07 14:04:42.517,-0.00014270328398001292,-5.263853781977645
2025-03-07 14:04:42.525,-0.00016303705720195107,-4.978214390767388
2025-03-07 14:04:42.533,-0.0001849848047996278,-4.638461076604883
2025-03-07 14:04:42.541,-0.00020847242617607508,-4.210687439587201
2025-03-07 14:04:42.549,-0.0002333886273657983,-3.661642409829783
2025-03-07 14:04:42.557,-0.0002595882036941007,-2.959931610569628
2025-03-07 14:04:42.564,-0.0002868956963391398,-2.0771851448731304
2025-03-07 14:04:42.572,-0.00031510926859599077,-0.9891561699909633
2025-03-07 14:04:42.580,-0.0003440047389940722,0.3232839347477
2025-03-07 14:04:42.588,-0.0003733398019590696,1.8732854351940842
2025-03-07 14:04:42.596,-0.0004028585340974135,3.6673231115825558
2025-03-07 14:04:42.603,-0.00043229631290804456,5.704685428643607
2025-03-07 14:04:42.611,-0.00046138525397287775,7.977167787030129
2025-03-07 14:04:42.619,-0.0004898601888702361,10.468981479948743
2025-03-07 14:04:42.627,-0.0005174650661897851,13.156883438754644
2025-03-07 14:04:42.635,-0.0005439595008226021,16.01052519484875
2025-03-07 14:04:42.642,-0.0005691250748812329,18.993012960772898
2025-03-07 14:04:42.650,-0.0005927709458753914,22.061664553099316
2025-03-07 14:04:42.658,-0.0006147383494465257,25.168943221607854
2025-03-07 14:04:42.666,-0.0006349036732847873,28.263543462828405
2025-03-07 14:04:42.674,-0.0006531799021862405,31.291599700351604
2025-03-07 14:04:42.682,-0.0006695163783123314,34.197985394240405
2025-03-07 14:04:42.689,-0.0006838969717822834,36.927667750646734
2025-03-07 14:04:42.697,-0.0006963368894559194,39.427081768847174
2025-03-07 14:04:42.705,-0.000706878439611267,41.64548689373266
2025-03-07 14:04:42.713,-0.0007155861154178783,43.5362700218458
2025-03-07 14:04:42.721,-0.0007225413751357182,45.05815999866942
2025-03-07 14:04:42.728,-0.00072783748430179,46.176320985643244
2025-03-07 14:04:42.736,-0.0007315747351300348,46.8632951017875
2025-03-07 14:04:42.744,-0.0007338562755087727,47.09976849242517
2025-03-07 14:04:42.752,-0.0007347846829689089,46.875139379679204
2025-03-07 14:04:42.760,-0.0007344593154373149,46.18787162630155
2025-03-07 14:04:42.767,-0.0007329743633409837,45.045622796956394
2025-03-07 14:04:42.775,-0.0007304174456049253,43.46514151529721
2025-03-07 14:04:42.783,-0.0007268685745406123,41.47193496765222
2025-03-07 14:04:42.791,-0.0007223993543564596,39.09971356146718
2025-03-07 14:04:42.799,-0.0007170723168256955,36.38962586097969
2025-03-07 14:04:42.807,-0.0007109402936213354,33.389302829037895
2025-03-07 14:04:42.814,-0.0007040457011838353,30.151735922512785
2025-03-07 14:04:42.822,-0.0006964196288667256,26.73401853081725
2025-03-07 14:04:42.830,-0.000688080698632242,23.195984425723967
2025-03-07 14:04:42.838,-0.0006790337694953337,19.598780133558
2025-03-07 14:04:42.846,-0.0006692686445036046,16.00341030533967
2025-03-07 14:04:42.853,-0.0006587589910597003,12.469296148200312
2025-03-07 14:04:42.861,-0.0006474617178958519,9.052886744866008
2025-03-07 14:04:42.869,-0.000635317061119503,5.8063616272873535
2025-03-07 14:04:42.877,-0.0006222495975096216,2.7764603260773497
2025-03-07 14:04:42.885,-0.0006081703073122183,0.003470865393466909
2025-03-07 14:04:42.893,-0.0005929796563306994,-2.479595576811293
2025-03-07 14:04:42.900,-0.0005765714980574061,-4.647622228108581
2025-03-07 14:04:42.908,-0.000558837466252807,-6.483781172011513
2025-03-07 14:04:42.916,-0.000539671474447247,-7.979696125650194
2025-03-07 14:04:42.924,-0.0005189739669796659,-9.135371990562339
2025-03-07 14:04:42.932,-0.0004966556547112742,-9.958896623538562
2025-03-07 14:04:42.939,-0.0004726405822817844,-10.465927011642828
2025-03-07 14:04:42.947,-0.0004468684784028789,-10.678978271008392
2025-03-07 14:04:42.955,-0.00041929641219953773,-10.626539412682062
2025-03-07 14:04:42.963,-0.00038989981557311287,-10.342044454121936
2025-03-07 14:04:42.971,-0.00035867295834574,-9.862731068013995
2025-03-07 14:04:42.978,-0.00032562900434849994,-9.228421469982163
2025-03-07 14:04:42.986,-0.00029079983244097336,-8.480261630993931
2025-03-07 14:04:42.994,-0.0002542358547278089,-7.6594551918028335
2025-03-07 14:04:43.002,-0.00021600607343319556,-6.806027733058505
2025-03-07 14:04:43.010,-0.00017619855788114945,-5.957655419392937
2025-03-07 14:04:43.018,-0.0001349213857869013,-5.148589599733238
2025-03-07 14:04:43.025,-9.23039108969579e-05,-4.408705816379003
2025-03-07 14:04:43.033,-4.8498055196793495e-05,-3.7627019524984013
2025-03-07 14:04:43.041,-3.679232851885735e-06,-3.229466024448909
2025-03-07 14:04:43.049,4.1953497538500216e-05,-2.821629485639385
2025-03-07 14:04:43.057,8.817841707116593e-05,-2.5453169304478376
2025-03-07 14:04:43.064,0.0001347535653559474,-2.400097849994994
2025-03-07 14:04:43.072,0.00018142078518335064,-2.3791406859291784
2025-03-07 14:04:43.080,0.0002279114183605559,-2.469563955255273
2025-03-07 14:04:43.088,0.00027395346882976517,-2.6529737915959917
2025-03-07 14:04:43.096,0.00031927984640519046,-2.9061719911971973
2025-03-07 14:04:43.103,0.0003636371595960947,-3.202013702323759
2025-03-07 14:04:43.111,0.0004067944545155504,-3.5103893998979343
2025-03-07 14:04:43.119,0.00044855127940589046,-3.799301895452193
2025-03-07 14:04:43.127,0.000488744477996223,-4.036006004244037
2025-03-07 14:04:43.135,0.0005272531918490999,-4.188176284407906
2025-03-07 14:04:43.143,0.0005640016909601469,-4.225067114923051
2025-03-07 14:04:43.150,0.0005989598356735291,-4.118629384561491
2025-03-07 14:04:43.158,0.0006321411728249524,-3.8445492609953145
2025-03-07 14:04:43.166,0.0006635988688634386,-3.383176879861529
2025-03-07 14:04:43.174,0.0006934198746657759,-2.720316269211734
2025-03-07 14:04:43.182,0.0007217178834436201,-1.8478522869733585
2025-03-07 14:04:43.189,0.0007486257549133409,-0.7641956260380302
2025-03-07 14:04:43.197,0.0007742881014305101,0.5254671895360064
2025-03-07 14:04:43.205,0.000798854641990376,2.0091256924481877
2025-03-07 14:04:43.213,0.0008224747412683758,3.66809985786166
2025-03-07 14:04:43.221,0.0008452933175022109,5.477391536853199
2025-03-07 14:04:43.228,0.0008674480888276209,7.406221841608197
2025-03-07 14:04:43.236,0.0008890679727433475,9.418738320675487
2025-03-07 14:04:43.244,0.0009102723644032137,11.474871375471956
2025-03-07 14:04:43.252,0.0009311709777155317,13.53131570452379
2025-03-07 14:04:43.260,0.00095186391661034,15.54260963013104
2025-03-07 14:04:43.268,0.0009724416519915788,17.462282960365915
2025-03-07 14:04:43.275,0.0009929846327477497,19.244042564125667
2025-03-07 14:04:43.283,0.0010135623652414137,20.8429640904296
2025-03-07 14:04:43.291,0.0010342319272476604,22.216658252140054
2025-03-07 14:04:43.299,0.0010550359895563756,23.32638082407475
2025-03-07 14:04:43.307,0.0010760004720239114,24.13805697246587
2025-03-07 14:04:43.314,0.0010971319708291914,24.623192719188204
2025-03-07 14:04:43.322,0.0011184150815178615,24.759649213684146
2025-03-07 14:04:43.330,0.0011398097189713454,24.53225897869511
2025-03-07 14:04:43.338,0.0011612485200716972,23.933267331036035
2025-03-07 14:04:43.346,0.0011826344427717161,22.962586660170672
2025-03-07 14:04:43.353,0.0012038387555976904,21.627856077727728
2025-03-07 14:04:43.361,0.0012246996943732463,19.944304037103777
2025-03-07 14:04:43.369,0.0012450220769483085,17.93441677174472
2025-03-07 14:04:43.377,0.0012645780873127045,15.627420712415503
2025-03-07 14:04:43.385,0.001283109305247198,13.05859229557842
2025-03-07 14:04:43.393,0.0013003299243425491,10.268413614613744
2025-03-07 14:04:43.400,0.0013159310080848433,7.30159701125429
2025-03-07 14:04:43.408,0.001329585593298511,4.20600575994258
2025-03-07 14:04:43.416,0.0013409544554224804,1.0315012752623702
2025-03-07 14:04:43.424,0.00134969237765099,-2.171250387130151
2025-03-07 14:04:43.432,0.001355454792172944,-5.35197868120123
2025-03-07 14:04:43.439,0.0013579046844371019,-8.461981157624136
2025-03-07 14:04:43.447,0.0013567196835472502,-11.455235246864724
2025-03-07 14:04:43.455,0.0013515993019046105,-14.289418064857989
2025-03-07 14:04:43.463,0.0013422723123187018,-16.926806142345576
2025-03-07 14:04:43.471,0.0013285042407921767,-19.33503094790472
2025-03-07 14:04:43.478,0.0013101049090334157,-21.4876708025949
2025-03-07 14:04:43.486,0.001286935898086603,-23.364665112036736
2025-03-07 14:04:43.494,0.0012589177301775784,-24.952542585937252
2025-03-07 14:04:43.502,0.0012260364745817452,-26.24446107038164
2025-03-07 14:04:43.510,0.0011883493901229559,-27.240062565480955
2025-03-07 14:04:43.518,0.001145989166528971,-27.945152716981205
2025-03-07 14:04:43.525,0.001099166346349268,-28.371219339888885
2025-03-07 14:04:43.533,0.0010481695791256858,-28.534809161650692
2025-03-07 14:04:43.541,0.0009933634474387143,-28.45678580412286
2025-03-07 14:04:43.549,0.000935183701535298,-28.1614949458989
2025-03-07 14:04:43.557,0.0008741298558016265,-27.6758645608916
2025-03-07 14:04:43.564,0.0008107552360289666,-27.028469111602398
2025-03-07 14:04:43.572,0.0007456546970918553,-26.248586632514584
2025-03-07 14:04:43.580,0.0006794503319642789,-25.365276853782603
2025-03-07 14:04:43.588,0.0006127755639778771,-24.406506989033296
2025-03-07 14:04:43.596,0.0005462580674861835,-23.39834964521494
2025-03-07 14:04:43.603,0.00048050200698774003,-22.364274601620153
2025-03-07 14:04:43.611,0.00041607013018334814,-21.324553039019847
2025-03-07 14:04:43.619,0.00035346630771659584,-20.295789264574687
2025-03-07 14:04:43.627,0.0002931191768494272,-19.290591153406528
2025-03-07 14:04:43.635,0.0002353675830392447,-18.317386481981142
2025-03-07 14:04:43.643,0.000180448482682896,-17.380388121297372
2025-03-07 14:04:43.650,0.00012848787018669719,-16.479706750182324
2025-03-07 14:04:43.658,7.949515882159387e-05,-15.611605416930844
2025-03-07 14:04:43.666,3.3361310831771944e-05,-14.768886021316895
2025-03-07 14:04:43.674,-1.0139111898321737e-05,-13.941393732304432
2025-03-07 14:04:43.682,-5.134191832552606e-05,-13.1166216402304
2025-03-07 14:04:43.689,-9.06833242972359e-05,-12.280394714540828
2025-03-07 14:04:43.697,-0.0001286862035770179,-11.417609544159536
2025-03-07 14:04:43.705,-0.00016594283578451652,-10.51300450433077
2025-03-07 14:04:43.713,-0.00020309462190561296,-9.551934018402594
2025-03-07 14:04:43.721,-0.00024080949089887302,-8.5211205235001
2025-03-07 14:04:43.728,-0.0002797579889622465,-7.409358619120486
2025-03-07 14:04:43.736,-0.0003205892269322399,-6.208147646925313
2025-03-07 14:04:43.744,-0.00036390788675162494,-4.912231548667605
2025-03-07 14:04:43.752,-0.0004102533653635368,-3.52002817616017
2025-03-07 14:04:43.760,-0.0004600819259497872,-2.0339341574225562
2025-03-07 14:04:43.768,-0.0005137524802975807,-0.46049581030413916
2025-03-07 14:04:43.775,-0.0005715163697569635,1.189558730924575
2025-03-07 14:04:43.783,-0.0006335112760584805,2.901426243652801
2025-03-07 14:04:43.791,-0.0006997591963336096,4.65646941856155
2025-03-07 14:04:43.799,-0.0007701682469339926,6.432583232806349
2025-03-07 14:04:43.807,-0.000844537898221576,8.204673989132994
2025-03-07 14:04:43.814,-0.0009225670900226057,9.945235181246591
2025-03-07 14:04:43.822,-0.0010038645584726578,11.62500198037664
2025-03-07 14:04:43.830,-0.0010879606502811597,13.213664574103714
2025-03-07 14:04:43.838,-0.0011743199322482888,14.680619793748429
2025-03-07 14:04:43.846,-0.001262354017237769,15.995740363358175
2025-03-07 14:04:43.853,-0.0013514341908884644,17.130141593069037
2025-03-07 14:04:43.861,-0.001440903596510523,18.056926314135954
2025-03-07 14:04:43.869,-0.0015300888860143372,18.751890194485565
2025-03-07 14:04:43.877,-0.0016183113540592475,19.194171159957612
2025-03-07 14:04:43.885,-0.001704897636171602,19.366828364854936
2025-03-07 14:04:43.893,-0.00178919006864234,19.257337918005234
2025-03-07 14:04:43.900,-0.0018705567867108707,18.85799432373598
2025-03-07 14:04:43.908,-0.001948401602668158,18.166208327243538
2025-03-07 14:04:43.916,-0.002022173674776067,17.184693585049786
2025-03-07 14:04:43.924,-0.0020913769417210547,15.92153636438293
2025-03-07 14:04:43.932,-0.002155579246837366,14.390144372877364
2025-03-07 14:04:43.939,-0.00221442102975729,12.60907289684956
2025-03-07 14:04:43.947,-0.0022676234373860986,10.601728743817231
2025-03-07 14:04:43.955,-0.0023149956835718075,8.395955087254803
2025-03-07 14:04:43.963,-0.0023564414372575877,6.023503205802293
2025-03-07 14:04:43.971,-0.002391963939452612,3.5194002491269765
2025-03-07 14:04:43.978,-0.002421669459894942,0.921225445314638
2025-03-07 14:04:43.986,-0.002445768614018529,-1.7316895642892476
2025-03-07 14:04:43.994,-0.0024645749663216544,-4.3991175083353085
2025-03-07 14:04:44.002,-0.002478500257466895,-7.04082796621782
2025-03-07 14:04:44.010,-0.0024880455340827077,-9.617492035402497
2025-03-07 14:04:44.018,-0.0024937874510889847,-12.09157428140539
2025-03-07 14:04:44.025,-0.0024963590750900753,-14.428186437612489
2025-03-07 14:04:44.033,-0.0024964246811641088,-16.595877484881246
2025-03-07 14:04:44.041,-0.002494648342115002,-18.567335701311904
2025-03-07 14:04:44.049,-0.0024916565617196466,-20.319980026305824
2025-03-07 14:04:44.057,-0.0024879957673982437,-21.836420618207303
2025-03-07 14:04:44.064,-0.0024840861038942725,-23.104771779296573
2025-03-07 14:04:44.072,-0.0024801736036986956,-24.118804435985027
2025-03-07 14:04:44.080,-0.002476283394537988,-24.877930030499794
2025-03-07 14:04:44.088,-0.0024721770820449645,-25.38701290760824
2025-03-07 14:04:44.096,-0.002467317753763838,-25.65601393851126
2025-03-07 14:04:44.103,-0.0024608461160368607,-25.699474050498523
2025-03-07 14:04:44.111,-0.0024515710361084145,-25.53585231792679
2025-03-07 14:04:44.119,-0.0024379771987988437,-25.18673906273213
2025-03-07 14:04:44.127,-0.0024182517365101087,-24.675969723367793
2025-03-07 14:04:44.135,-0.0023903306242627088,-24.02866979303315
2025-03-07 14:04:44.143,-0.0023519644178230333,-23.270264650399387
2025-03-07 14:04:44.150,-0.0023008016162654943,-22.425490411569644
2025-03-07 14:04:44.158,-0.00223448664181327,-21.517442879383164
2025-03-07 14:04:44.166,-0.002150768277285489,-20.566701168704075
2025-03-07 14:04:44.174,-0.0020476134994896083,-19.590560612546128
2025-03-07 14:04:44.182,-0.0019233210457975636,-18.602406127363295
2025-03-07 14:04:44.189,-0.0017766287421414355,-17.61125241640895
2025-03-07 14:04:44.197,-0.0016068085868288656,-16.62147135876181
2025-03-07 14:04:44.205,-0.0014137438470368231,-15.632719874307135
2025-03-07 14:04:44.213,-0.0011979830416742802,-14.640073739215449
2025-03-07 14:04:44.221,-0.0009607667038014192,-13.634364572442468
2025-03-07 14:04:44.228,-0.0007040242298130419,-12.602708880222794
2025-03-07 14:04:44.236,-0.00043033986087665947,-11.52921001010068
2025-03-07 14:04:44.244,-0.00014288878831100928,-10.395806503212354
2025-03-07 14:04:44.252,0.00015465364695662197,-9.18323399471516
2025-03-07 14:04:44.260,0.00045822492916626376,-7.8720628075413
2025-03-07 14:04:44.268,0.0007635044897917125,-6.443769964497759
2025-03-07 14:04:44.275,0.0010660522500203695,-4.881802683129075
2025-03-07 14:04:44.283,0.0013614497373242065,-3.172590605645055
2025-03-07 14:04:44.291,0.0016454372985035283,-1.3064660496345084
2025-03-07 14:04:44.299,0.001914041653462171,0.7215446529927223
2025-03-07 14:04:44.307,0.002163688946460004,2.9110903210909065
2025-03-07 14:04:44.314,0.0023912994274857984,5.256049560342942
2025-03-07 14:04:44.322,0.0025943608937815635,7.744288267296099
2025-03-07 14:04:44.330,0.002770979048878967,10.357629267344453
2025-03-07 14:04:44.338,0.0029199039879304945,13.072035061642422
2025-03-07 14:04:44.346,0.003040533053175581,15.85799660100293
2025-03-07 14:04:44.353,0.003132891262152388,18.681113546997477
2025-03-07 14:04:44.361,0.003197591336760795,21.502844937918166
2025-03-07 14:04:44.369,0.0032357760250049006,24.28140379959153
2025-03-07 14:04:44.377,0.0032490459174268887,26.97276519745934
2025-03-07 14:04:44.385,0.003239376334597055,29.531754598616192
2025-03-07 14:04:44.393,0.0032090270953458173,31.913182195940443
2025-03-07 14:04:44.400,0.0031604490456449198,34.072988956736346
2025-03-07 14:04:44.408,0.0030961911355993697,35.969371441492804
2025-03-07 14:04:44.416,0.0030188116157064964,37.56385468544289
2025-03-07 14:04:44.424,0.0029307966214276015,38.82228540384826
2025-03-07 14:04:44.432,0.0028344890206778396,39.715721223719385
2025-03-07 14:04:44.439,0.0027320298710735544,40.22119534044521
2025-03-07 14:04:44.447,0.002625314147833841,40.32233978323387
2025-03-07 14:04:44.455,0.0025159615891596097,40.00985424948261
2025-03-07 14:04:44.463,0.0024053026430871766,39.281811192073505
2025-03-07 14:04:44.471,0.0022943786786487584,38.143791505055255
2025-03-07 14:04:44.478,0.002183954917195995,36.60884875047051
2025-03-07 14:04:44.486,0.002074543996141971,34.697303393734245
2025-03-07 14:04:44.494,0.0019664377168068254,32.436371950662085
2025-03-07 14:04:44.502,0.0018597443404073132,29.859639276358266
2025-03-07 14:04:44.510,0.0017544287717469994,27.006385422083994
2025-03-07 14:04:44.518,0.0016503531212506734,23.920781523175382
2025-03-07 14:04:44.525,0.0015473154676647067,20.650972028186217
2025-03-07 14:04:44.533,0.00144508511774231,17.248063207853782
2025-03-07 14:04:44.541,0.0013434332019322784,13.765040264147064
2025-03-07 14:04:44.549,0.0012421579730357605,10.255637454880505
2025-03-07 14:04:44.557,0.0011411046123981348,6.773187392773588
2025-03-07 14:04:44.564,0.001040179649986172,3.369476974681911
2025-03-07 14:04:44.572,0.0009393602731196329,0.09363813134017845
2025-03-07 14:04:44.580,0.0008386988772695219,-3.0088983617781593
2025-03-07 14:04:44.588,0.0007383232580358354,-5.897358518128997
2025-03-07 14:04:44.596,0.0006384328930031973,-8.536464351296267
2025-03-07 14:04:44.603,0.0005392918195345377,-10.897133343310875
2025-03-07 14:04:44.611,0.0004412186682976729,-12.957018291579343
2025-03-07 14:04:44.619,0.0003445744556063325,-14.700871904707354
2025-03-07 14:04:44.627,0.0002497487700765051,-16.120725433012026
2025-03-07 14:04:44.635,0.00015714501170370262,-17.215876024920433
2025-03-07 14:04:44.643,6.716535505483898e-05,-17.99268318950625
2025-03-07 14:04:44.650,-1.9803886694709508e-05,-18.464180489648292
2025-03-07 14:04:44.658,-0.00010340582520446869,-18.64951415697433
2025-03-07 14:04:44.666,-0.0001833248429943181,-18.573225494896256
2025-03-07 14:04:44.674,-0.00025929615826404597,-18.264398538611953
2025-03-07 14:04:44.682,-0.0003311127226699651,-17.75569832503139
2025-03-07 14:04:44.689,-0.00039862934774505303,-17.082328179283778
2025-03-07 14:04:44.697,-0.00046176427553388947,-16.280936572475593
2025-03-07 14:04:44.705,-0.0005204986568913687,-15.388505312110874
2025-03-07 14:04:44.713,-0.000574874492068467,-14.441251094817806
2025-03-07 14:04:44.721,-0.0006249915123666336,-13.473571816526738
2025-03-07 14:04:44.728,-0.0006710032982893458,-12.51706755710968
2025-03-07 14:04:44.736,-0.0007131127266754245,-11.59966390152828
2025-03-07 14:04:44.744,-0.0007515666841228306,-10.744862289063267
2025-03-07 14:04:44.752,-0.0007866498980205523,-9.97113845326253
2025-03-07 14:04:44.760,-0.0008186777138704589,-9.291505792817134
2025-03-07 14:04:44.768,-0.000847987689604534,-8.713255779382099
2025-03-07 14:04:44.775,-0.0008749299877766934,-8.237882363059448
2025-03-07 14:04:44.783,-0.0008998566978135651,-7.861191902658069
2025-03-07 14:04:44.791,-0.0009231103629120882,-7.573594575891443
2025-03-07 14:04:44.799,-0.0009450120924056017,-7.360567689935423
2025-03-07 14:04:44.807,-0.0009658497199800783,-7.203276005507852
2025-03-07 14:04:44.814,-0.0009858665375644484,-7.079329299351434
2025-03-07 14:04:44.822,-0.001005251190947207,-6.963653103526752
2025-03-07 14:04:44.830,-0.0010241293419089937,-6.829445043338976
2025-03-07 14:04:44.838,-0.0010425576579208508,-6.649186597504009
2025-03-07 14:04:44.846,-0.0010605205823257528,-6.395678544218221
2025-03-07 14:04:44.853,-0.0010779301818282189,-6.043067908844733
2025-03-07 14:04:44.861,-0.0010946291771726563,-5.5678348986259945
2025-03-07 14:04:44.869,-0.0011103970513837039,-4.949710022029359
2025-03-07 14:04:44.877,-0.0011249589275668444,-4.172494196979941
2025-03-07 14:04:44.885,-0.0011379967428733796,-3.224757960884601
2025-03-07 14:04:44.893,-0.0011491621223835566,-2.1003997054960086
2025-03-07 14:04:44.900,-0.001158090275815114,-0.7990469903999303
2025-03-07 14:04:44.908,-0.0011644142173722598,0.6737107099196561
2025-03-07 14:04:44.916,-0.0011677786641827756,2.306265118284731
2025-03-07 14:04:44.924,-0.001167853089446125,4.081111105550216
2025-03-07 14:04:44.932,-0.0011643435427661128,5.975146242293638
2025-03-07 14:04:44.939,-0.0011570029523029044,7.960142619953673
2025-03-07 14:04:44.947,-0.0011456396791543729,10.003381636287912
2025-03-07 14:04:44.955,-0.0011301241247699968,12.068438562352178
2025-03-07 14:04:44.963,-0.0011103932212552917,14.116099889870393
2025-03-07 14:04:44.971,-0.0010864526735730445,16.10539266698244
2025-03-07 14:04:44.978,-0.0010583768750630905,17.994701266679975
2025-03-07 14:04:44.986,-0.001026306484600724,19.74294335470518
2025-03-07 14:04:44.994,-0.0009904437342199283,21.310773363568337
2025-03-07 14:04:45.002,-0.0009510456222408345,22.661778735252803
2025-03-07 14:04:45.010,-0.0009084152257748822,23.76363181849954
2025-03-07 14:04:45.018,-0.0008628914363359181,24.589158882328228
2025-03-07 14:04:45.025,-0.000814837496262627,25.11728752587113
2025-03-07 14:04:45.033,-0.0007646287913193893,25.33383508065213
2025-03-07 14:04:45.041,-0.0007126404123952753,25.232103591623616
2025-03-07 14:04:45.049,-0.0006592350212716902,24.813251692987187
2025-03-07 14:04:45.057,-0.000604751546925806,24.086420104393138
2025-03-07 14:04:45.064,-0.0005494951988436513,23.068595382354047
2025-03-07 14:04:45.072,-0.0004937292006822793,21.78420568588163
2025-03-07 14:04:45.080,-0.00043766852548306884,20.26445228344837
2025-03-07 14:04:45.088,-0.0003814757804553739,18.54639090229778
2025-03-07 14:04:45.096,-0.00032525927962375904,16.67178732113684
2025-03-07 14:04:45.103,-0.0002690732798844754,14.685781343490515
2025-03-07 14:04:45.111,-0.00021292033244583504,12.63540199128044
2025-03-07 14:04:45.119,-0.00015675567037816497,10.567983998889856
2025-03-07 14:04:45.127,-0.00010049346748842116,8.529541101175452
2025-03-07 14:04:45.135,-4.4014666717246586e-05,6.563154909573216
2025-03-07 14:04:45.143,1.2824063439715537e-05,4.7074391716770405
2025-03-07 14:04:45.150,7.018077267869381e-05,2.9951378319622197
2025-03-07 14:04:45.158,0.00012821860840535,1.4519115821390023
2025-03-07 14:04:45.166,0.00018709661671937648,0.0953616355649126
2025-03-07 14:04:45.174,0.0002469613915202437,-1.065668504931062
2025-03-07 14:04:45.182,0.00030793995554993043,-2.0314822038249525
2025-03-07 14:04:45.189,0.0003701342174368801,-2.811589746217188
2025-03-07 14:04:45.197,0.0004336172822483358,-3.424431260462459
2025-03-07 14:04:45.205,0.0004984317688936596,-3.896766953420477
2025-03-07 14:04:45.213,0.0005645900869132241,-4.2627515274093
2025-03-07 14:04:45.221,0.0006320763657085315,-4.562721512034628
2025-03-07 14:04:45.229,0.000700849476902099,-4.841735064366938
2025-03-07 14:04:45.236,0.0007708464320144761,-5.1479131456886345
2025-03-07 14:04:45.244,0.0008419854335460895,-5.5306385227229224
2025-03-07 14:04:45.252,0.0009141680089770788,-6.038674494149816
2025-03-07 14:04:45.260,0.0009872799123386495,-6.718268420417331
2025-03-07 14:04:45.268,0.0010611907698821765,-7.611305936232509
2025-03-07 14:04:45.275,0.001135752718126667,-8.753580144208701
2025-03-07 14:04:45.283,0.0012107984798525589,-10.173236211371949
2025-03-07 14:04:45.291,0.0012861393933655389,-11.889445787522352
2025-03-07 14:04:45.299,0.0013615638385766741,-13.911357775516041
2025-03-07 14:04:45.307,0.0014368363466077654,-16.237362506710387
2025-03-07 14:04:45.314,0.0015116975250911331,-18.854695660159532
2025-03-07 14:04:45.322,0.0015858648191791542,-21.73939670592647
2025-03-07 14:04:45.330,0.0016590340400832978,-24.856624675539592
2025-03-07 14:04:45.338,0.0017308815192460044,-28.161322100380918
2025-03-07 14:04:45.346,0.001801066716192366,-31.599206435285385
2025-03-07 14:04:45.354,0.0018692351348184922,-35.10805759822773
2025-03-07 14:04:45.361,0.0019350214487650853,-38.61926077116627
2025-03-07 14:04:45.369,0.001998052757088381,-42.059555640308666
2025-03-07 14:04:45.377,0.0020579518792726167,-45.35293706516915
2025-03-07 14:04:45.385,0.0021143405772285715,-48.422647940768584
2025-03-07 14:04:45.393,0.0021668425952624092,-51.19320286477569
2025-03-07 14:04:45.400,0.0022150864639172516,-53.592381175720035
2025-03-07 14:04:45.408,0.0022587081192103186,-55.55312995344224
2025-03-07 14:04:45.416,0.0022973535116434184,-57.01532156419914
2025-03-07 14:04:45.424,0.0023306814725488076,-57.92731612080348
2025-03-07 14:04:45.432,0.0023583671363105103,-58.2472865810699
2025-03-07 14:04:45.439,0.0023801061851004965,-57.94427283217796
2025-03-07 14:04:45.447,0.002395620106174144,-56.9989406527503
2025-03-07 14:04:45.455,0.002404662537543144,-55.404031513087894
2025-03-07 14:04:45.463,0.002407026621674399,-53.16449935340147
2025-03-07 14:04:45.471,0.00240255310091538,-50.29734036556006
2025-03-07 14:04:45.479,0.0023911387089716883,-46.831131020517226
2025-03-07 14:04:45.486,0.002372744282872731,-42.80529779719499
2025-03-07 14:04:45.494,0.0023474019710248745,-38.2691489989193
2025-03-07 14:04:45.502,0.002315220944660718,-33.280704481274235
2025-03-07 14:04:45.510,0.0022763910915440506,-27.905362940642444
2025-03-07 14:04:45.518,0.002231184238600872,-22.214448603930506
2025-03-07 14:04:45.525,0.002179952508412874,-16.28367978355746
2025-03-07 14:04:45.533,0.002123123480707501,-10.191600949112686
2025-03-07 14:04:45.541,0.0020611919148096542,-4.018017892861617
2025-03-07 14:04:45.549,0.0019947078974984996,2.157527561708783
2025-03-07 14:04:45.557,0.0019242614167240837,8.257210804101781
2025-03-07 14:04:45.564,0.0018504635260340378,14.206277634274288
2025-03-07 14:04:45.572,0.0017739244647389891,19.934274215821745
2025-03-07 14:04:45.580,0.0016952293466848053,25.37613543723934
2025-03-07 14:04:45.588,0.0016149123205995424,30.473118013194675
2025-03-07 14:04:45.596,0.0015334304147081581,35.17356899836396
2025-03-07 14:04:45.604,0.0014511385847688085,39.43352428625665
2025-03-07 14:04:45.611,0.00136826774597954,43.217135098839734
2025-03-07 14:04:45.619,0.0012849076950781242,46.49692348178428
2025-03-07 14:04:45.627,0.0012009967217087674,49.2538704872884
2025-03-07 14:04:45.635,0.0011163193477973113,51.47734313852313
2025-03-07 14:04:45.643,0.001030513096884359,53.16486848952896
2025-03-07 14:04:45.650,0.0009430845891873567,54.321765149048446
2025-03-07 14:04:45.658,0.0008534346545070319,54.96064452319777
2025-03-07 14:04:45.666,0.0007608915866792465,55.10079573136234
2025-03-07 14:04:45.674,0.0006647511569274225,54.7674696411064
2025-03-07 14:04:45.682,0.0005643215892547188,53.991078732424555
2025-03-07 14:04:45.689,0.0004589713902848838,52.80633052282039
2025-03-07 14:04:45.697,0.00034817770634550403,51.25131304982911
2025-03-07 14:04:45.705,0.00023157273945496068,49.366551411794916
2025-03-07 14:04:45.713,0.0001089856984644532,47.19405461612355
2025-03-07 14:04:45.721,-1.9522179599016977e-05,44.776371989923156
2025-03-07 14:04:45.729,-0.00015363179604709694,42.15567818630209
2025-03-07 14:04:45.736,-0.0002927514361802701,39.372905382901465
2025-03-07 14:04:45.744,-0.0004360144860280835,36.466940624054594
2025-03-07 14:04:45.752,-0.000582290424913324,33.47390540400099
2025-03-07 14:04:45.760,-0.0007302092386257009,30.426533515806437
2025-03-07 14:04:45.768,-0.0008781986477252123,27.35366187298041
2025-03-07 14:04:45.775,-0.001024532716033777,24.279847399999454
2025-03-07 14:04:45.783,-0.0011673895796549213,21.225121114142826
2025-03-07 14:04:45.791,-0.0013049153465933864,18.204888103377904
2025-03-07 14:04:45.799,-0.0014352907834018172,15.229979170211308
2025-03-07 14:04:45.807,-0.0015567973027708567,12.306856413994806
2025-03-07 14:04:45.814,-0.0016678789927886842,9.437970963153791
2025-03-07 14:04:45.822,-0.0017671979034946767,6.6222664987666375
2025-03-07 14:04:45.830,-0.0018536804075368603,3.8558172488784423
2025-03-07 14:04:45.838,-0.001926553070114693,1.1325839595625775
2025-03-07 14:04:45.846,-0.0019853670324335476,-1.5547338017727819
2025-03-07 14:04:45.854,-0.0020300104156716825,-4.2137755158089245
2025-03-07 14:04:45.861,-0.0020607087103223926,-6.851558549002696
2025-03-07 14:04:45.869,-0.002078013554458816,-9.473512199041865
2025-03-07 14:04:45.877,-0.002082780726500268,-12.082543529503766
2025-03-07 14:04:45.885,-0.0020761385637252834,-14.678172603037474
2025-03-07 14:04:45.893,-0.002059448331890781,-17.25577428531179
2025-03-07 14:04:45.900,-0.0020342582738837804,-19.805961804494558
2025-03-07 14:04:45.908,-0.0020022531435971015,-22.314143689935005
2025-03-07 14:04:45.916,-0.0019652010209630735,-24.76028062186041
2025-03-07 14:04:45.924,-0.0019248991651829787,-27.118862225877088
2025-03-07 14:04:45.932,-0.0018831206380801944,-29.359116162542392
2025-03-07 14:04:45.939,-0.0018415634185981603,-31.445453307046083
2025-03-07 14:04:45.947,-0.001801803686220332,-33.338143771271604
2025-03-07 14:04:45.955,-0.0017652548131178506,-34.99420941072178
2025-03-07 14:04:45.963,-0.0017331333549486959,-36.36850970391602
2025-03-07 14:04:45.971,-0.001706433013546668,-37.414989887020226
2025-03-07 14:04:45.979,-0.0016859072150742463,-38.08805332167631
2025-03-07 14:04:45.986,-0.0016720606213881857,-38.34401456337262
2025-03-07 14:04:45.994,-0.0016651495579984273,-38.14258571098886
2025-03-07 14:04:46.002,-0.0016651909843874743,-37.44834651181372
2025-03-07 14:04:46.010,-0.001671979258322107,-36.23214844548665
2025-03-07 14:04:46.018,-0.0016851095948087946,-34.472404604350636
2025-03-07 14:04:46.025,-0.0017040068461074882,-32.156220531421404
2025-03-07 14:04:46.033,-0.0017279580666045523,-29.280326098206643
2025-03-07 14:04:46.041,-0.0017561472774694203,-25.851774766458938
2025-03-07 14:04:46.049,-0.0017876908869128522,-21.888383896885024
2025-03-07 14:04:46.057,-0.0018216723247398631,-17.418897832269003
2025-03-07 14:04:46.064,-0.0018571746071007124,-12.48286397461589
2025-03-07 14:04:46.072,-0.001893309763588371,-7.13022069380163
2025-03-07 14:04:46.080,-0.0019292443151766895,-1.4206043800475745
2025-03-07 14:04:46.088,-0.0019642202362828284,4.577608943219623
2025-03-07 14:04:46.096,-0.0019975710272703796,10.788504484360097
2025-03-07 14:04:46.104,-0.0020287326831955103,17.130042236077667
2025-03-07 14:04:46.111,-0.002057249526763744,23.51564744882827
2025-03-07 14:04:46.119,-0.00208277509863014,29.85593725312529
2025-03-07 14:04:46.127,-0.002105068520504167,36.06053873053225
2025-03-07 14:04:46.135,-0.0021239869076514163,42.03995097460347
2025-03-07 14:04:46.143,-0.0021394744986909416,47.707402172159185
2025-03-07 14:04:46.150,-0.0021515492284657225,52.980652533784735
2025-03-07 14:04:46.158,-0.0021602875220250606,57.78369505533481
2025-03-07 14:04:46.166,-0.0021658081263900533,62.04830862583607
2025-03-07 14:04:46.174,-0.002168255804163181,65.71542191153468
2025-03-07 14:04:46.182,-0.002167785685350985,68.73625169803643
2025-03-07 14:04:46.189,-0.0021645490080303823,71.0731858561125
2025-03-07 14:04:46.197,-0.002158680869464311,72.70038863058817
2025-03-07 14:04:46.205,-0.0021502904756716696,73.60411428639325
2025-03-07 14:04:46.213,-0.0021394542628640307,73.7827239829232
2025-03-07 14:04:46.221,-0.0021262121882303117,73.24640976074247
2025-03-07 14:04:46.229,-0.0021105674111603673,72.01663837684494
2025-03-07 14:04:46.236,-0.0020924894486443655,70.12533608793396
2025-03-07 14:04:46.244,-0.002071920675884412,67.613843053658
2025-03-07 14:04:46.252,-0.0020487858005361205,64.5316725517289
2025-03-07 14:04:46.260,-0.002023003722896485,60.93511544955257
2025-03-07 14:04:46.268,-0.0019945010262348954,56.88573419652137
2025-03-07 14:04:46.275,-0.0019632262119815007,52.44879287353924
2025-03-07 14:04:46.283,-0.0019291636997310528,47.691670508338824
2025-03-07 14:04:46.291,-0.0018923465732570903,42.6823039535105
2025-03-07 14:04:46.299,-0.0018528670987220956,37.487704214216905
2025-03-07 14:04:46.307,-0.001810884173905189,32.172586341036244
2025-03-07 14:04:46.314,-0.0017666270641057092,26.798148037646
2025-03-07 14:04:46.322,-0.0017203950077123488,21.421026161536947
2025-03-07 14:04:46.330,-0.0016725524975999713,16.092453530757258
2025-03-07 14:04:46.338,-0.001623520237259042,10.857631131936046
2025-03-07 14:04:46.346,-0.0015737619321044758,5.755323224486216
2025-03-07 14:04:46.354,-0.0015237672297140077,0.8176752438747096
2025-03-07 14:04:46.361,-0.0014740312890579657,-3.9297528808383864
2025-03-07 14:04:46.369,-0.0014250316371428402,-8.467752085542674
2025-03-07 14:04:46.377,-0.0013772031386418994,-12.783048185561777
2025-03-07 14:04:46.385,-0.0013309120347843118,-16.867729428993247
2025-03-07 14:04:46.393,-0.0012864301000841886,-20.71854628799174
2025-03-07 14:04:46.400,-0.0012439100391759216,-24.3361148781641
2025-03-07 14:04:46.408,-0.0012033633124777174,-27.724056968916393
2025-03-07 14:04:46.416,-0.0011646416217113062,-30.888110034895004
2025-03-07 14:04:46.424,-0.0011274232713203278,-33.83524024821808
2025-03-07 14:04:46.432,-0.0010912055259701449,-36.57278978358877
2025-03-07 14:04:46.439,-0.0010553039076274288,-39.10768738345924
2025-03-07 14:04:46.447,-0.0010188591339488216,-41.445747915440315
2025-03-07 14:04:46.455,-0.0009808521011457196,-43.59108278669576
2025-03-07 14:04:46.463,-0.0009401269566871766,-45.54563872099908
2025-03-07 14:04:46.471,-0.0008954219115160311,-47.30887772258572
2025-03-07 14:04:46.479,-0.0008454070671765369,-48.87760620783524
2025-03-07 14:04:46.486,-0.0007887282284582542,-50.24595642240365
2025-03-07 14:04:46.494,-0.0007240554265998847,-51.405518494875054
2025-03-07 14:04:46.502,-0.0006501346466222187,-52.34561690114467
2025-03-07 14:04:46.510,-0.0005658410154496724,-53.05372079532769
2025-03-07 14:04:46.518,-0.0004702314900537919,-53.51597365158839
2025-03-07 14:04:46.525,-0.0003625949163825508,-53.71782399834437
2025-03-07 14:04:46.533,-0.00024249721398154588,-53.64473576460761
2025-03-07 14:04:46.541,-0.00010981938327909125,-53.282953974187265
2025-03-07 14:04:46.549,3.521392832502719e-05,-52.62029931589688
2025-03-07 14:04:46.557,0.00019201737896880504,-51.64696359629164
2025-03-07 14:04:46.564,0.00035964112878354834,-50.35627735182746
2025-03-07 14:04:46.572,0.0005367815043075253,-48.74542105153714
2025-03-07 14:04:46.580,0.0007218067257633517,-46.816052430589835
2025-03-07 14:04:46.588,0.0009127975405523646,-44.574824601815244
2025-03-07 14:04:46.596,0.0011076017235539602,-42.03377269389061
2025-03-07 14:04:46.604,0.0013039004015979064,-39.210550794999854
2025-03-07 14:04:46.611,0.0014992831266042747,-36.12850580085076
2025-03-07 14:04:46.619,0.0016913277566609872,-32.81658017417257
2025-03-07 14:04:46.627,0.0018776807335453912,-29.309041374365197
2025-03-07 14:04:46.635,0.002056133385124324,-25.64504154767841
2025-03-07 14:04:46.643,0.0022246903728944016,-21.868016724746486
2025-03-07 14:04:46.650,0.002381627187067321,-18.024940027712294
2025-03-07 14:04:46.658,0.002525534508216229,-14.165448058999711
2025-03-07 14:04:46.666,0.0026553481920149483,-10.340863587802863
2025-03-07 14:04:46.674,0.002770364508317107,-6.603140774922199
2025-03-07 14:04:46.682,0.0028702410264517483,-3.0037614389537186
2025-03-07 14:04:46.689,0.0029549841724244423,0.4073877242978304
2025-03-07 14:04:46.697,0.0030249249967851445,3.583126452302955
2025-03-07 14:04:46.705,0.00308068508220726,6.480050369140237
2025-03-07 14:04:46.713,0.0031231347701134835,9.05952899724689
2025-03-07 14:04:46.721,0.0031533459816722874,11.288604185603422
2025-03-07 14:04:46.729,0.003172541863293462,13.140762899341514
2025-03-07 14:04:46.736,0.0031820453417248673,14.596561078919521
2025-03-07 14:04:46.744,0.0031832284788677685,15.644078749511223
2025-03-07 14:04:46.752,0.003177464313165523,16.279190750916502
2025-03-07 14:04:46.760,0.003166082680058839,16.505642330536418
2025-03-07 14:04:46.768,0.0031503313008147387,16.334924313001583
2025-03-07 14:04:46.775,0.0031313431830597093,15.785948494299795
2025-03-07 14:04:46.783,0.0031101110697360386,14.884530116387653
2025-03-07 14:04:46.791,0.0030874693181302463,13.662690519260487
2025-03-07 14:04:46.799,0.0030640832225471335,12.15779906021258
2025-03-07 14:04:46.807,0.003040445451227902,10.411578837405619
2025-03-07 14:04:46.814,0.0030168789735425133,8.469005376167605
2025-03-07 14:04:46.822,0.0029935456266030414,6.377130999103457
2025-03-07 14:04:46.830,0.002970459340657911,4.18386994249709
2025-03-07 14:04:46.838,0.0029475030241959484,1.9367803170021565
2025-03-07 14:04:46.846,0.0029244481688586914,-0.31812126996450324
2025-03-07 14:04:46.854,0.002900976308633264,-2.537478155380875
2025-03-07 14:04:46.861,0.002876701520936086,-4.681613549205618
2025-03-07 14:04:46.869,0.002851193198018007,-6.715424082029208
2025-03-07 14:04:46.877,0.002823998365471973,-8.609123642329132
2025-03-07 14:04:46.885,0.002794662881280631,-10.338819342617926
2025-03-07 14:04:46.893,0.002762750910127783,-11.886907036733653
2025-03-07 14:04:46.900,0.00272786214839171,-13.242279588517052
2025-03-07 14:04:46.908,0.0026896463965840464,-14.400346850846804
2025-03-07 14:04:46.916,0.002647815237178863,-15.362871847743717
2025-03-07 14:04:46.924,0.002602150750612889,-16.13763276881119
2025-03-07 14:04:46.932,0.00255251135636588,-16.737924919278207
2025-03-07 14:04:46.939,0.002498834966268619,-17.181920601004496
2025-03-07 14:04:46.947,0.0024411396608571313,-17.49190797090003
2025-03-07 14:04:46.955,0.002379522051571043,-17.693432233934196
2025-03-07 14:04:46.963,0.002314153404043566,-17.814364121359688
2025-03-07 14:04:46.971,0.002245273514148005,-17.883921540276045
2025-03-07 14:04:46.979,0.002173182300300656,-17.93167061221952
2025-03-07 14:04:46.986,0.0020982291552163793,-17.98653208693421
2025-03-07 14:04:46.994,0.0020208003017771346,-18.075818354638233
2025-03-07 14:04:47.002,0.0019413046614821059,-18.224325017853968
2025-03-07 14:04:47.010,0.0018601589639432013,-18.45349926264763
2025-03-07 14:04:47.018,0.001777772919879555,-18.78070514083876
2025-03-07 14:04:47.025,0.001694535236842119,-19.218603398542044
2025-03-07 14:04:47.033,0.0016108011252385813,-19.774660721509402
2025-03-07 14:04:47.041,0.0015268817850594744,-20.450800269591284
2025-03-07 14:04:47.049,0.0014430362231608225,-21.24320219255621
2025-03-07 14:04:47.057,0.0013594656435362792,-22.142259504914968
2025-03-07 14:04:47.064,0.0012763105755268765,-23.132691293272046
2025-03-07 14:04:47.072,0.001193650836353562,-24.193811782702618
2025-03-07 14:04:47.080,0.0011115083349320812,-25.299950350673175
2025-03-07 14:04:47.088,0.0010298525942514596,-26.42101420392846
2025-03-07 14:04:47.096,0.0009486087045555815,-27.523182178218235
2025-03-07 14:04:47.104,0.0008676672482613858,-28.56971502538205
2025-03-07 14:04:47.111,0.0007868955992607351,-29.521864650646517
2025-03-07 14:04:47.119,0.0007061499225180606,-30.339862089282818
2025-03-07 14:04:47.127,0.0006252871884438445,-30.983961614639593
2025-03-07 14:04:47.135,0.000544176550915737,-31.415516321735517
2025-03-07 14:04:47.143,0.0004627094956374516,-31.59805892855436
2025-03-07 14:04:47.150,0.00038080824672175566,-31.498360489327915
2025-03-07 14:04:47.158,0.0002984320445969044,-31.087439323008322
2025-03-07 14:04:47.166,0.00021558108712278762,-30.341492807084638
2025-03-07 14:04:47.174,0.0001322981301554287,-29.242725821689863
2025-03-07 14:04:47.182,4.866791563498076e-05,-27.78005156332678
2025-03-07 14:04:47.189,-3.518531400003051e-05,-25.94964315201527
2025-03-07 14:04:47.197,-0.00011910194655927603,-23.755317862843253
2025-03-07 14:04:47.205,-0.00020289253174448477,-21.208739826609353
2025-03-07 14:04:47.213,-0.00028634447779854325,-18.32943154739073
2025-03-07 14:04:47.221,-0.00036922965654387395,-15.144589443447572
2025-03-07 14:04:47.229,-0.00045131262945608317,-11.688703686713195
2025-03-07 14:04:47.236,-0.0005323591864356977,-8.002987749235086
2025-03-07 14:04:47.244,-0.000612144877907601,-4.134628124923987
2025-03-07 14:04:47.252,-0.0006904632069331186,-0.1358695559823869
2025-03-07 14:04:47.260,-0.000767133130153192,3.9370443608789767
2025-03-07 14:04:47.268,-0.0008420055152330979,8.025051190873945
2025-03-07 14:04:47.275,-0.0009149682318881631,12.067542700376539
2025-03-07 14:04:47.283,-0.0009859495988777552,16.00370031857866
2025-03-07 14:04:47.291,-0.0010549199572117455,19.773860088406014
2025-03-07 14:04:47.299,-0.0011218912111650142,23.320872565024032
2025-03-07 14:04:47.307,-0.0011869143051283075,26.591422293612403
2025-03-07 14:04:47.314,-0.0012500747795899624,29.53727152017875
2025-03-07 14:04:47.322,-0.0013114867231988467,32.11639373397105
2025-03-07 14:04:47.330,-0.0013712855577814843,34.29396457381407
2025-03-07 14:04:47.338,-0.0014296201432865137,36.04318059277123
2025-03-07 14:04:47.346,-0.001486644680648037,37.34588036529646
2025-03-07 14:04:47.354,-0.0015425108319547026,38.19294739590203
2025-03-07 14:04:47.361,-0.0015973603801183987,38.584480168252846
2025-03-07 14:04:47.369,-0.0016513186412746154,38.52972134086582
2025-03-07 14:04:47.377,-0.0017044887477477774,38.04674538301954
2025-03-07 14:04:47.385,-0.0017569468393507212,37.161911618464536
2025-03-07 14:04:47.393,-0.0018087381272692416,35.90909740075732
2025-03-07 14:04:47.400,-0.0018598737381324418,34.328733625680904
2025-03-07 14:04:47.408,-0.001910328240044824,32.46667162013261
2025-03-07 14:04:47.416,-0.0019600378162615787,30.372916285574178
2025-03-07 14:04:47.424,-0.0020088991499422884,28.100264930774053
2025-03-07 14:04:47.432,-0.0020567691501606885,25.70289429621534
2025-03-07 14:04:47.439,-0.002103465658826455,23.234939728068767
2025-03-07 14:04:47.447,-0.0021487692616651557,20.749110260681423
2025-03-07 14:04:47.455,-0.0021924263243457524,18.295381549283185
2025-03-07 14:04:47.463,-0.002234153384881393,15.919805270741394
2025-03-07 14:04:47.471,-0.0022736430105245774,13.663468958803039
2025-03-07 14:04:47.479,-0.002310571136039762,11.561634496186505
2025-03-07 14:04:47.486,-0.002344605763113927,9.64307692566156
2025-03-07 14:04:47.494,-0.0023754167798409214,7.929638163332478
2025-03-07 14:04:47.502,-0.0024026865904289004,6.436002891484688
2025-03-07 14:04:47.510,-0.0024261212170766677,5.169696642786613
2025-03-07 14:04:47.518,-0.002445461525953739,4.131299103582586
2025-03-07 14:04:47.525,-0.0024604942196187127,3.3148591839958597
2025-03-07 14:04:47.533,-0.0024710622051860873,2.7084926296946152
2025-03-07 14:04:47.541,-0.002477073880037859,2.2951380542038042
2025-03-07 14:04:47.549,-0.002478510803016968,2.0534433713046703
2025-03-07 14:04:47.557,-0.002475433188808307,1.958751768283523
2025-03-07 14:04:47.564,-0.0024679827106482122,1.9841545980506954
2025-03-07 14:04:47.572,-0.0024563822236777547,2.1015778604586135
2025-03-07 14:04:47.580,-0.002440932202979292,2.2828692415225675
2025-03-07 14:04:47.588,-0.002422003889657089,2.500853909726912
2025-03-07 14:04:47.596,-0.0024000293273375747,2.730329331593556
2025-03-07 14:04:47.604,-0.002375488643627754,2.948972138501777
2025-03-07 14:04:47.611,-0.002348895093151714,3.138133407051861
2025-03-07 14:04:47.619,-0.0023207785260565016,3.2835024527809087
2025-03-07 14:04:47.627,-0.0022916680507775126,3.375623236619834
2025-03-07 14:04:47.635,-0.002262074695714855,3.4102516164371917
2025-03-07 14:04:47.643,-0.002232474840888262,3.388545832872958
2025-03-07 14:04:47.650,-0.0022032951085654913,3.3170867128314723
2025-03-07 14:04:47.658,-0.002174899294921593,3.2077280477839656
2025-03-07 14:04:47.666,-0.002147577805389836,3.0772814320298454
2025-03-07 14:04:47.674,-0.002121539926919199,2.947043529691482
2025-03-07 14:04:47.682,-0.0020969091395416774,2.842177290110359
2025-03-07 14:04:47.690,-0.002073721552215221,2.7909620497720096
2025-03-07 14:04:47.697,-0.0020519274430639443,2.823930719017794
2025-03-07 14:04:47.705,-0.0020313957773804587,2.9729152995543506
2025-03-07 14:04:47.713,-0.0020119214665753477,3.2700247377516916
2025-03-07 14:04:47.721,-0.0019932350293394604,3.7465814959757826
2025-03-07 14:04:47.729,-0.0019750142227961233,4.432045114551825
2025-03-07 14:04:47.736,-0.0019568971216431725,5.352952328322297
2025-03-07 14:04:47.744,-0.0019384960587946613,6.531903882447649
2025-03-07 14:04:47.752,-0.0019194118359387694,7.986627959592287
2025-03-07 14:04:47.760,-0.0018992476633335916,9.729149001885359
2025-03-07 14:04:47.768,-0.0018776223543336716,11.765088633697028
2025-03-07 14:04:47.775,-0.0018541823555197098,14.09312235512511
2025-03-07 14:04:47.783,-0.0018286122470300625,16.704611723724817
2025-03-07 14:04:47.791,-0.0018006434176957857,19.583426975814987
2025-03-07 14:04:47.799,-0.0017700607106899313,22.70596962027945
2025-03-07 14:04:47.807,-0.0017367069358345142,26.041398678479947
2025-03-07 14:04:47.815,-0.0017004852297122495,29.55205818695614
2025-03-07 14:04:47.822,-0.0016613592986071419,33.194097575694414
2025-03-07 14:04:47.830,-0.0016193516219449842,36.918270816525244
2025-03-07 14:04:47.838,-0.001574539760430998,40.67089500113123
2025-03-07 14:04:47.846,-0.0015270510019436928,44.39494441445391
2025-03-07 14:04:47.854,-0.001477055652843135,48.03125233982615
2025-03-07 14:04:47.861,-0.001424759327659078,51.51978985805982
2025-03-07 14:04:47.869,-0.0013703946294448194,54.80098884386961
2025-03-07 14:04:47.877,-0.00131421265667035,57.81707524670527
2025-03-07 14:04:47.885,-0.0012564747829873486,60.51337856399654
2025-03-07 14:04:47.893,-0.001197445088935121,62.83958413863119
2025-03-07 14:04:47.900,-0.001137383681650921,64.75089648036885
2025-03-07 14:04:47.908,-0.001076540961903354,66.20908414272179
2025-03-07 14:04:47.916,-0.0010151527335738404,67.18337968858485
2025-03-07 14:04:47.924,-0.0009534359381385052,67.65121185821162
2025-03-07 14:04:47.932,-0.000891584762883941,67.59875113889828
2025-03-07 14:04:47.940,-0.0008297669160810541,67.02125447060392
2025-03-07 14:04:47.947,-0.0007681199587983306,65.92319974814777
2025-03-07 14:04:47.955,-0.0007067477030166406,64.31820602249267
2025-03-07 14:04:47.963,-0.0006457168111490275,62.22874075980839
2025-03-07 14:04:47.971,-0.0005850538445848156,59.68562106038693
2025-03-07 14:04:47.979,-0.0005247430790692961,56.72732121627101
2025-03-07 14:04:47.986,-0.00046472540470361836,53.39910421842442
2025-03-07 14:04:47.994,-0.0004048985555753288,49.75199961770419
2025-03-07 14:04:48.002,-0.0003451187931058107,45.841654306244884
2025-03-07 14:04:48.010,-0.00028520403269096864,41.727086148240545
2025-03-07 14:04:48.018,-0.00022493829024119742,37.46937282728585
2025-03-07 14:04:48.025,-0.00016407726006259477,33.13030972208166
2025-03-07 14:04:48.033,-0.00010235481836900387,28.77107105623727
2025-03-07 14:04:48.041,-3.949025503390742e-05,24.45090801529344
2025-03-07 14:04:48.049,2.4803946729535587e-05,20.225916037385005
2025-03-07 14:04:48.057,9.081393605076596e-05,16.14790113529776
2025-03-07 14:04:48.065,0.00015881604548979896,12.263371990116111
2025-03-07 14:04:48.072,0.0002290681728230625,8.61268078968285
2025-03-07 14:04:48.080,0.00030180112618556794,5.229331512634194
2025-03-07 14:04:48.088,0.00037721013191639903,2.1394697366357183
2025-03-07 14:04:48.096,0.000455446784606468,-0.6384367709231822
2025-03-07 14:04:48.104,0.0005366117775570119,-3.0937223051640244
2025-03-07 14:04:48.111,0.0006207487611763093,-5.223452776881441
2025-03-07 14:04:48.119,0.0007078396347745391,-7.03216570913442
2025-03-07 14:04:48.127,0.000797801506203318,-8.531430271215422
2025-03-07 14:04:48.135,0.0008904854771170913,-9.739241089034847
2025-03-07 14:04:48.143,0.0009856773395987522,-10.67926335060367
2025-03-07 14:04:48.150,0.001083100204341631,-11.379950092653118
2025-03-07 14:04:48.158,0.0011824190214478503,-11.873555465274476
2025-03-07 14:04:48.166,0.0012832469019288322,-12.195070172216168
2025-03-07 14:04:48.174,0.00138515310082398,-12.381107106244897
2025-03-07 14:04:48.182,0.0014876724811389572,-12.46876636359537
2025-03-07 14:04:48.190,0.0015903162396650814,-12.494509260189153
2025-03-07 14:04:48.197,0.001692583633032435,-12.49307064893815
2025-03-07 14:04:48.205,0.001793974382676845,-12.49643776227118
2025-03-07 14:04:48.213,0.001894001362548927,-12.532922028175394
2025-03-07 14:04:48.221,0.001992203109058904,-12.626347906960564
2025-03-07 14:04:48.229,0.002088155664813745,-12.795379855748763
2025-03-07 14:04:48.236,0.002181483278472133,-13.05300513776325
2025-03-07 14:04:48.244,0.002271867520919643,-13.406186439550192
2025-03-07 14:04:48.252,0.002359054435762128,-13.855694216898291
2025-03-07 14:04:48.260,0.002442859418930844,-14.396124424337893
2025-03-07 14:04:48.268,0.002523169618426402,-15.016102852592619
2025-03-07 14:04:48.275,0.002599943760957359,-15.698672759439011
2025-03-07 14:04:48.283,0.0026732094470130036,-16.42185788542506
2025-03-07 14:04:48.291,0.0027430581070737904,-17.159388349594643
2025-03-07 14:04:48.299,0.002809637966134804,-17.881572385915234
2025-03-07 14:04:48.307,0.0028731454870258373,-18.55629250164557
2025-03-07 14:04:48.315,0.0029338158102714777,-19.15010054628003
2025-03-07 14:04:48.322,0.0029919126664543247,-19.62938253738877
2025-03-07 14:04:48.330,0.0030477181466983844,-19.961561072563512
2025-03-07 14:04:48.338,0.0031015226296470786,-20.11630093046762
2025-03-07 14:04:48.346,0.003153615094476684,-20.06668217313345
2025-03-07 14:04:48.354,0.0032042739920429804,-19.790304825241016
2025-03-07 14:04:48.361,0.0032537588053016247,-19.270290112508224
2025-03-07 14:04:48.369,0.003302302421078693,-18.496145335598722
2025-03-07 14:04:48.377,0.003350104465345105,-17.464462724910145
2025-03-07 14:04:48.385,0.0033973258124243085,-16.17942698643951
2025-03-07 14:04:48.393,0.0034440845298369513,-14.65311157108817
2025-03-07 14:04:48.400,0.0034904535164546075,-12.905549795649781
2025-03-07 14:04:48.408,0.0035364600085782474,-10.964573596663222
2025-03-07 14:04:48.416,0.003582086991081728,-8.865419662996839
2025-03-07 14:04:48.424,0.0036272764081390326,-6.650109702283036
2025-03-07 14:04:48.432,0.003671933956610241,-4.366618381625666
2025-03-07 14:04:48.440,0.003715935177181237,-2.0678488038882805
2025-03-07 14:04:48.447,0.003759132526569578,0.18955895317356436
2025-03-07 14:04:48.455,0.0038013630937007124,2.3465558332010787
2025-03-07 14:04:48.463,0.003842456582148079,4.343113940770395
2025-03-07 14:04:48.471,0.0038822431093010292,6.119721386094532
2025-03-07 14:04:48.479,0.003920560304086197,7.61890233035224
2025-03-07 14:04:48.486,0.0039572591883792,8.786721653060845
2025-03-07 14:04:48.494,0.003992208446012502,9.574233578030128
2025-03-07 14:04:48.502,0.004025296882013957,9.938834487325495
2025-03-07 14:04:48.510,0.00405643406462422,9.845482011054454
2025-03-07 14:04:48.518,0.0040855492631374085,9.267745296501067
2025-03-07 14:04:48.525,0.004112588852947448,8.188655128525985
2025-03-07 14:04:48.533,0.004137512397600711,6.6013272821645
2025-03-07 14:04:48.541,0.0041602876677400424,4.509338099255868
2025-03-07 14:04:48.549,0.004180884926822891,1.9268377107564119
2025-03-07 14:04:48.557,0.0041992708911886695,-1.1216065602236724
2025-03-07 14:04:48.565,0.0042154028235707255,-4.601436470212145
2025-03-07 14:04:48.572,0.004229223206544759,-8.468790787704208
2025-03-07 14:04:48.580,0.004240655365765575,-12.671439017209025
2025-03-07 14:04:48.588,0.004249600318427693,-17.149937508655743
2025-03-07 14:04:48.596,0.004255935048814627,-21.838977631750335
2025-03-07 14:04:48.604,0.004259512348949536,-26.668889690857647
2025-03-07 14:04:48.611,0.004260162275486754,-31.567261406031843
2025-03-07 14:04:48.619,0.004257695158242356,-36.460626276521914
2025-03-07 14:04:48.627,0.004251905975759108,-41.276175097793576
2025-03-07 14:04:48.635,0.004242579815571624,-45.943443382301695
2025-03-07 14:04:48.643,0.004229498074242822,-50.39592843785669
2025-03-07 14:04:48.650,0.004212445028403419,-54.57259232756819
2025-03-07 14:04:48.658,0.004191214423728064,-58.41921075947899
2025-03-07 14:04:48.666,0.0041656157819656425,-61.88953296923228
2025-03-07 14:04:48.674,0.004135480203852919,-64.9462236590863
2025-03-07 14:04:48.682,0.0041006655148664774,-67.5615648009199
2025-03-07 14:04:48.690,0.0040610606239391825,-69.71790233570259
2025-03-07 14:04:48.697,0.004016588942937255,-71.40783023424987
2025-03-07 14:04:48.705,0.00396721069321257,-72.63411176361424
2025-03-07 14:04:48.713,0.003912923943282954,-73.40934490490044
2025-03-07 14:04:48.721,0.003853764266860192,-73.75538551030645
2025-03-07 14:04:48.729,0.0037898029491539244,-73.70254782476879
2025-03-07 14:04:48.736,0.0037211436940841006,-73.28860731086013
2025-03-07 14:04:48.744,0.0036479178180354277,-72.55763520623569
2025-03-07 14:04:48.752,0.0035702779806626376,-71.5586978355624
2025-03-07 14:04:48.760,0.003488390609238355,-70.34445634017706
2025-03-07 14:04:48.768,0.003402427317824927,-68.96970414440894
2025-03-07 14:04:48.775,0.0033125557906920774,-67.48988013256587
2025-03-07 14:04:48.783,0.0032189307530476902,-65.95959517521304
2025-03-07 14:04:48.791,0.0031216857389720037,-64.43120836036242
2025-03-07 14:04:48.799,0.0030209263508962107,-62.9534871325187
2025-03-07 14:04:48.807,0.0029167255875292377,-61.57038262815544
2025-03-07 14:04:48.815,0.0028091216245804407,-60.31994794855502
2025-03-07 14:04:48.822,0.002698118204016362,-59.23342307048833
2025-03-07 14:04:48.830,0.0025836875647315054,-58.33450570720487
2025-03-07 14:04:48.838,0.002465775660436518,-57.63882283871964
2025-03-07 14:04:48.846,0.0023443092651116875,-57.15361296241641
2025-03-07 14:04:48.854,0.002219204447350665,-56.877624484077344
2025-03-07 14:04:48.861,0.0020903757928446417,-56.801231158057426
2025-03-07 14:04:48.869,0.001957745693456269,-56.90676114138813
2025-03-07 14:04:48.877,0.0018212530395395432,-57.16903206694526
2025-03-07 14:04:48.885,0.0016808607486693842,-57.556080559359934
2025-03-07 14:04:48.893,0.0015365616996226377,-58.03007079343827
2025-03-07 14:04:48.900,0.001388382788010257,-58.54836300372631
2025-03-07 14:04:48.908,0.0012363869763254486,-59.06471928150148
2025-03-07 14:04:48.916,0.0010806733617520362,-59.530620555400425
2025-03-07 14:04:48.924,0.0009213753977265511,-59.896665398654434
2025-03-07 14:04:48.932,0.0007586574688219975,-60.11401833927028
2025-03-07 14:04:48.940,0.0005927100546044617,-60.13587280664954
2025-03-07 14:04:48.947,0.0004237437492065236,-59.9188918898017
2025-03-07 14:04:48.955,0.0002519824389273969,-59.424588880249736
2025-03-07 14:04:48.963,7.765598921231684e-05,-58.62060929750316
2025-03-07 14:04:48.971,-9.900714347742137e-05,-57.4818768986894
2025-03-07 14:04:48.979,-0.00027778690707703195,-55.99156816965852
2025-03-07 14:04:48.986,-0.00045847779471016236,-54.141883040420595
2025-03-07 14:04:48.994,-0.0006408937564885538,-51.93458405757195
2025-03-07 14:04:49.002,-0.0008248716521059827,-49.381281906846986
2025-03-07 14:04:49.010,-0.0010102731651592462,-46.503451864478464
2025-03-07 14:04:49.018,-0.001196985221616402,-43.3321732509675
2025-03-07 14:04:49.025,-0.0013849190325170627,-39.90759199223033
2025-03-07 14:04:49.033,-0.0015740079138749277,-36.27811465188488
2025-03-07 14:04:49.041,-0.0017642040370788538,-32.49935046467607
2025-03-07 14:04:49.049,-0.0019554742638418247,-28.632825668991373
2025-03-07 14:04:49.057,-0.002147795258702919,-24.74450153397871
2025-03-07 14:04:49.065,-0.00234114814964265,-20.903133675682053
2025-03-07 14:04:49.072,-0.002535513076737994,-17.178515376094346
2025-03-07 14:04:49.080,-0.0027308639833117597,-13.639651525640648
2025-03-07 14:04:49.088,-0.002927163956418107,-10.352912413772994
2025-03-07 14:04:49.096,-0.0031243613379484205,-7.3802178434373475
2025-03-07 14:04:49.104,-0.0033223867393879147,-4.777301926319798
2025-03-07 14:04:49.111,-0.0035211510309875907,-2.592107437887403
2025-03-07 14:04:49.119,-0.003720544342988289,-0.863355805460474
2025-03-07 14:04:49.127,-0.003920436091705563,0.3806652864626186
2025-03-07 14:04:49.135,-0.004120676007178922,1.1230600046879968
2025-03-07 14:04:49.143,-0.004321096093708814,1.3589979842297408
2025-03-07 14:04:49.150,-0.004521513421860831,1.096080745195684
2025-03-07 14:04:49.158,-0.004721733645386004,0.35438656599241175
2025-03-07 14:04:49.166,-0.004921555137209479,-0.8338115194410608
2025-03-07 14:04:49.174,-0.005120773602160603,-2.4246505472796342
2025-03-07 14:04:49.182,-0.005319186939946539,-4.363591771739865
2025-03-07 14:04:49.190,-0.005516600040337795,-6.586621458939456
2025-03-07 14:04:49.197,-0.005712829142609384,-9.021707083893038
2025-03-07 14:04:49.205,-0.005907705396414304,-11.590470053307765
2025-03-07 14:04:49.213,-0.006101077302118699,-14.21002966020887
2025-03-07 14:04:49.221,-0.006292811764723996,-16.79496800541144
2025-03-07 14:04:49.229,-0.006482793567142497,-19.25936225217806
2025-03-07 14:04:49.236,-0.006670923176800449,-21.518828899859
2025-03-07 14:04:49.244,-0.0068571129640224455,-23.492524791729515
2025-03-07 14:04:49.252,-0.007041282116413177,-25.105051275361344
2025-03-07 14:04:49.260,-0.007223350719920676,-26.288211219130304
2025-03-07 14:04:49.268,-0.007403233573076635,-26.98257331237115
2025-03-07 14:04:49.275,-0.007580834281916235,-27.138804051866344
2025-03-07 14:04:49.283,-0.007756040094380577,-26.718734825899933
2025-03-07 14:04:49.291,-0.007928717838383705,-25.6961393163644
2025-03-07 14:04:49.299,-0.00809871124213952,-24.057204815495524
2025-03-07 14:04:49.307,-0.008265839810884159,-21.800689768019407
2025-03-07 14:04:49.315,-0.008429899302969775,-18.937768674546874
2025-03-07 14:04:49.322,-0.008590663722597808,-15.491574191399785
2025-03-07 14:04:49.330,-0.008747888653262113,-11.496454582064207
2025-03-07 14:04:49.338,-0.008901315687006035,-6.996972348831787
2025-03-07 14:04:49.346,-0.009050677642656461,-2.046676633514212
2025-03-07 14:04:49.354,-0.009195704215152926,3.2933124212540976
2025-03-07 14:04:49.361,-0.00933612767466003,8.955864914145803
2025-03-07 14:04:49.369,-0.009471688249396057,14.869502846734868
2025-03-07 14:04:49.377,-0.00960213888175272,20.96011583773894
2025-03-07 14:04:49.385,-0.009727249134002903,27.152684905166737
2025-03-07 14:04:49.393,-0.009846808114424717,33.37297020856806
2025-03-07 14:04:49.400,-0.009960626372039521,39.549121869572815
2025-03-07 14:04:49.408,-0.010068536758881816,45.61317734208482
2025-03-07 14:04:49.416,-0.010170394284234632,51.50241400220111
2025-03-07 14:04:49.424,-0.010266074988094275,57.160531359870276
2025-03-07 14:04:49.432,-0.010355473854484312,62.538643246784844
2025-03-07 14:04:49.440,-0.010438501797346456,67.59606621971874
2025-03-07 14:04:49.447,-0.010515081806810952,72.30089599151299
2025-03-07 14:04:49.455,-0.010585144443018819,76.6303687794648
2025-03-07 14:04:49.463,-0.010648622985044294,80.57100892934096
2025-03-07 14:04:49.471,-0.010705448649805705,84.11856799023685
2025-03-07 14:04:49.479,-0.010755546364520653,87.27776360342159
2025-03-07 14:04:49.486,-0.010798831594859016,90.06182920393356
2025-03-07 14:04:49.494,-0.01083520869135088,92.49188773478271
2025-03-07 14:04:49.502,-0.010864571109404721,94.59616447925906
2025-03-07 14:04:49.510,-0.010886803689442184,96.40905586303417
2025-03-07 14:04:49.518,-0.01090178698406931,97.97007277833114
2025-03-07 14:04:49.525,-0.01090940342248372,99.32267872239865
2025-03-07 14:04:49.533,-0.01090954492566234,100.51304487544678
2025-03-07 14:04:49.541,-0.010902121439267352,101.58874617983794
2025-03-07 14:04:49.549,-0.010887069742000556,102.59742447223898
2025-03-07 14:04:49.557,-0.010864361811720614,103.58544664449079
2025-03-07 14:04:49.565,-0.010834011982153814,104.59658749375514
2025-03-07 14:04:49.572,-0.010796082105593624,105.67076816846709
2025-03-07 14:04:49.580,-0.010750683976330657,106.84288172405351
2025-03-07 14:04:49.588,-0.010697978390145827,108.141737089705
2025-03-07 14:04:49.596,-0.010638170415812642,109.58915156582712
2025-03-07 14:04:49.604,-0.010571500706595351,111.1992197208557
2025-03-07 14:04:49.611,-0.010498232946100599,112.97778320098158
2025-03-07 14:04:49.619,-0.010418637772246045,114.9221215485011
2025-03-07 14:04:49.627,-0.010332973737623912,117.02087875913553
2025-03-07 14:04:49.635,-0.0102414660385234,119.25423416648073
2025-03-07 14:04:49.643,-0.01014428387369352,121.59431952420837
2025-03-07 14:04:49.650,-0.010041517372391642,124.00587707562636
2025-03-07 14:04:49.658,-0.009933155058665424,126.447146167717
2025-03-07 14:04:49.666,-0.009819062794071179,128.87095879382025
2025-03-07 14:04:49.674,-0.009698965064384992,131.22601754998396
2025-03-07 14:04:49.682,-0.009572429360347056,133.45832308513425
2025-03-07 14:04:49.690,-0.009438854275156228,135.51271243842552
2025-03-07 14:04:49.697,-0.009297461835981955,137.3344649087802
2025-03-07 14:04:49.705,-0.009147294527702804,138.87092850029543
2025-03-07 14:04:49.713,-0.008987217444605181,140.07311771711264
2025-03-07 14:04:49.721,-0.008815925973068305,140.89723268779207
2025-03-07 14:04:49.729,-0.00863195931930039,141.30605038370774
2025-03-07 14:04:49.736,-0.008433720041895285,141.27014112578715
2025-03-07 14:04:49.744,-0.008219499546395947,140.76886768989993
2025-03-07 14:04:49.752,-0.00798750925677712,139.79113012499857
2025-03-07 14:04:49.760,-0.007735916895218098,138.33582682280843
2025-03-07 14:04:49.768,-0.007462886991303828,136.41201126277454
2025-03-07 14:04:49.775,-0.007166624436902021,134.03873393876725
2025-03-07 14:04:49.783,-0.006845419632372691,131.24456989740236
2025-03-07 14:04:49.791,-0.006497693566538943,128.06684364416583
2025-03-07 14:04:49.799,-0.0061220410989908285,124.55057440520054
2025-03-07 14:04:49.807,-0.005717270842719816,120.74717533582816
2025-03-07 14:04:49.815,-0.005282440395592341,116.7129497008057
2025-03-07 14:04:49.822,-0.004816886144665815,112.50743480794104
2025-03-07 14:04:49.830,-0.004320247280829239,108.19165012903106
2025-03-07 14:04:49.838,-0.0037924838474999722,103.82630928538896
2025-03-07 14:04:49.846,-0.003233888576147955,99.47005624900652
2025-03-07 14:04:49.854,-0.00264509203936296,95.17778420492715
2025-03-07 14:04:49.861,-0.002027060422504397,90.99909117833631
2025-03-07 14:04:49.869,-0.0013810850876077613,86.97692004329558
2025-03-07 14:04:49.877,-0.0007087631548743837,83.14642232283279
2025-03-07 14:04:49.885,-1.1968602820803015e-05,79.53407578020828
2025-03-07 14:04:49.893,0.0007071861217808761,76.15707575013593
2025-03-07 14:04:49.900,0.001446397363131055,73.02301001967054
2025-03-07 14:04:49.908,0.0022032250981594125,70.1298173404115
2025-03-07 14:04:49.916,0.002975153438182622,67.46602074680581
2025-03-07 14:04:49.924,0.0037596542582602884,65.0112190697776
2025-03-07 14:04:49.932,0.0045542508198890995,62.736813552875056
2025-03-07 14:04:49.940,0.005356577697551685,60.60694136877546
2025-03-07 14:04:49.947,0.0061644329411424574,58.57958407094276
2025-03-07 14:04:49.955,0.0069758183947841185,56.607816503796464
2025-03-07 14:04:49.963,0.007788964612057076,54.64116030166594
2025-03-07 14:04:49.971,0.008602337907963784,52.62700568409878
2025-03-07 14:04:49.979,0.009414628677726054,50.512065653501395
2025-03-07 14:04:49.986,0.010224721976815955,48.24382777476466
2025-03-07 14:04:49.994,0.011031653200096575,45.771970325167125
2025-03-07 14:04:50.002,0.011834553236628988,43.04971161776315
2025-03-07 14:04:50.010,0.012632588539097442,40.035063617938036
2025-03-07 14:04:50.018,0.013424902092675023,36.6919635231139
2025-03-07 14:04:50.026,0.01421056131618553,32.99125973192655
2025-03-07 14:04:50.033,0.014988518477030952,28.911531592223568
2025-03-07 14:04:50.041,0.01575758822055261,24.439725498970347
2025-03-07 14:04:50.049,0.016516445317241484,19.571593326873746
2025-03-07 14:04:50.057,0.017263643846699882,14.311922842314997
2025-03-07 14:04:50.065,0.017997656990459212,8.674553661968803
2025-03-07 14:04:50.072,0.018716934617027857,2.68217652861352
2025-03-07 14:04:50.080,0.01941997406323234,-3.634081832781459
2025-03-07 14:04:50.088,0.020105398059369423,-10.235281245404197
2025-03-07 14:04:50.096,0.020772032739107164,-17.075485964421368
2025-03-07 14:04:50.104,0.02141897824231935,-24.102760752086148
2025-03-07 14:04:50.111,0.02204566461935537,-31.260322882480924
2025-03-07 14:04:50.119,0.02265188654992546,-38.48782295543042
2025-03-07 14:04:50.127,0.023237811709029627,-45.72272302301088
2025-03-07 14:04:50.135,0.0238039593274621,-52.90173688853748
2025-03-07 14:04:50.143,0.0243511474728253,-59.962294764482564
2025-03-07 14:04:50.151,0.02488040968278222,-66.8439929798955
2025-03-07 14:04:50.158,0.025392883701291082,-73.48998926844091
2025-03-07 14:04:50.166,0.025889677134133586,-79.84830543552683
2025-03-07 14:04:50.174,0.026371716804886067,-85.87300189943586
2025-03-07 14:04:50.182,0.02683959034465025,-91.52519262770491
2025-03-07 14:04:50.190,0.027293389867838594,-96.77387414722374
2025-03-07 14:04:50.197,0.027732568209334965,-101.59654831582272
2025-03-07 14:04:50.205,0.028155817952215972,-105.97962507834089
2025-03-07 14:04:50.213,0.02856098236764534,-109.91859815387768
2025-03-07 14:04:50.221,0.028945005584066524,-113.41799319779153
2025-03-07 14:04:50.229,0.029303927019815917,-116.49109418493865
2025-03-07 14:04:50.236,0.029632922553589906,-119.15945936707529
2025-03-07 14:04:50.244,0.0299263922533064,-121.45224303500213
2025-03-07 14:04:50.252,0.030178091911776783,-123.40534340030814
2025-03-07 14:04:50.260,0.03038130331848567,-125.06040019740703
2025-03-07 14:04:50.268,0.0305290362860432,-126.46366813625343
2025-03-07 14:04:50.276,0.030614254053572282,-127.6647941823066
2025-03-07 14:04:50.283,0.03063011284039723,-128.71552788472496
2025-03-07 14:04:50.291,0.03057020600768836,-129.66839468899258
2025-03-07 14:04:50.299,0.030428803470655397,-130.5753624141834
2025-03-07 14:04:50.307,0.030201077612476198,-131.48653089828446
2025-03-07 14:04:50.315,0.029883307833833396,-132.44887426526512
2025-03-07 14:04:50.322,0.029473056854059643,-133.50506438034785
2025-03-07 14:04:50.330,0.028969312855363742,-134.69240283866873
2025-03-07 14:04:50.338,0.02837259254938644,-136.04188723563541
2025-03-07 14:04:50.346,0.027685001365998056,-137.57743541172042
2025-03-07 14:04:50.354,0.026910248334316492,-139.31528874346685
2025-03-07 14:04:50.361,0.026053614831006804,-141.26361226145974
2025-03-07 14:04:50.369,0.025121878052815967,-143.4223053400351
2025-03-07 14:04:50.377,0.024123191662665085,-145.78303190001608
2025-03-07 14:04:50.385,0.023066927498591197,-148.32947353568764
2025-03-07 14:04:50.393,0.02196348351610402,-151.03780282660276
2025-03-07 14:04:50.401,0.020824064207993414,-153.87736749433805
2025-03-07 14:04:50.408,0.019660440521048397,-156.81156924760418
2025-03-07 14:04:50.416,0.018484696711862134,-159.79891441370646
2025-03-07 14:04:50.424,0.017308971664941063,-162.79420710050286
2025-03-07 14:04:50.432,0.01614520197046441,-165.74984999312383
2025-03-07 14:04:50.440,0.015004873547057854,-168.61721325927894
2025-03-07 14:04:50.447,0.013898787828765228,-171.34802866727918
2025-03-07 14:04:50.455,0.012836847615546636,-173.8957641116873
2025-03-07 14:04:50.463,0.01182786677720887,-176.21693343317642
2025-03-07 14:04:50.471,0.010879407229467893,-178.27229778281088
2025-03-07 14:04:50.479,0.009997645974047708,-180.02791781327198
2025-03-07 14:04:50.486,0.009187274423920625,-181.45602060212744
2025-03-07 14:04:50.494,0.00845143161170746,-182.5356512679078
2025-03-07 14:04:50.502,0.0077916721042481174,-183.25308649104971
2025-03-07 14:04:50.510,0.007207968443755722,-183.60199529835947
2025-03-07 14:04:50.518,0.006698746707618009,-183.58334118754573
2025-03-07 14:04:50.526,0.0062609524352716115,-183.2050286477689
2025-03-07 14:04:50.533,0.005890142881283174,-182.4813060879786
2025-03-07 14:04:50.541,0.005580600477999218,-181.4319458418959
2025-03-07 14:04:50.549,0.00532546165707115,-180.08122999744194
2025-03-07 14:04:50.557,0.005116854890597538,-178.45677801886836
2025-03-07 14:04:50.565,0.004946042035032272,-176.58825822395605
2025-03-07 14:04:50.572,0.004803557790989973,-174.50602990171436
2025-03-07 14:04:50.580,0.0046793432486390415,-172.2397659933421
2025-03-07 14:04:50.588,0.004562870934487587,-169.8171076348104
2025-03-07 14:04:50.596,0.004443260344700447,-167.26240134924848
2025-03-07 14:04:50.604,0.004309384472936623,-164.59556722615372
2025-03-07 14:04:50.611,0.004149969173148746,-161.83114206157583
2025-03-07 14:04:50.619,0.003953688236726153,-158.97753527933395
2025-03-07 14:04:50.627,0.0037092577436220026,-156.03652771613588
2025-03-07 14:04:50.635,0.0034055335420285072,-153.00303432090664
2025-03-07 14:04:50.643,0.0030316156366372287,-149.86514184971537
2025-03-07 14:04:50.651,0.002576962871047856,-146.60442215081244
2025-03-07 14:04:50.658,0.0020315206354571155,-143.1965110874733
2025-03-07 14:04:50.666,0.0013858634601355477,-139.61193301022274
2025-03-07 14:04:50.674,0.0006313532926859496,-135.81714141770735
2025-03-07 14:04:50.682,-0.00023968697054623536,-131.7757384427732
2025-03-07 14:04:50.690,-0.0012337865010468032,-127.44982939833075
2025-03-07 14:04:50.697,-0.002356129451459604,-122.80146405261964
2025-03-07 14:04:50.705,-0.0036103528979919944,-117.79411370820262
2025-03-07 14:04:50.713,-0.004998346951198023,-112.39413256485673
2025-03-07 14:04:50.721,-0.00652006621310073,-106.57215319359382
2025-03-07 14:04:50.729,-0.008173363478059737,-100.30436910180812
2025-03-07 14:04:50.736,-0.009953857597780207,-93.57366213547209
2025-03-07 14:04:50.744,-0.011854847518963,-86.37053861000753
2025-03-07 14:04:50.752,-0.013867283663800797,-78.69384532197307
2025-03-07 14:04:50.760,-0.015979806250594336,-70.55124467449795
2025-03-07 14:04:50.768,-0.018178857989624618,-61.95943672659004
2025-03-07 14:04:50.776,-0.020448875786321985,-52.94412470414377
2025-03-07 14:04:50.783,-0.022772562487172052,-43.53972903947365
2025-03-07 14:04:50.791,-0.025131235237537502,-33.78886300963445
2025-03-07 14:04:50.799,-0.027505241740799533,-23.741590240114956
2025-03-07 14:04:50.807,-0.029874429821856154,-13.454490506142815
2025-03-07 14:04:50.815,-0.03221864972008755,-2.9895652339367347
2025-03-07 14:04:50.822,-0.034518263459941585,7.586982232245163
2025-03-07 14:04:50.830,-0.03675463275155503,18.20605423248453
2025-03-07 14:04:50.838,-0.03891055711705831,28.79701596297896
2025-03-07 14:04:50.846,-0.04097063739728708,39.289064280691285
2025-03-07 14:04:50.854,-0.04292154564954106,49.61257174197716
2025-03-07 14:04:50.861,-0.044752189492756105,59.70037201880188
2025-03-07 14:04:50.869,-0.04645376617702776,69.48895619202447
2025-03-07 14:04:50.877,-0.04801970847975239,78.91955340032068
2025-03-07 14:04:50.885,-0.04944553073039054,87.93907375269485
2025-03-07 14:04:50.893,-0.050728588716944835,96.50089613756116
2025-03-07 14:04:50.901,-0.0518677717700907,104.56548843748595
2025-03-07 14:04:50.908,-0.05286314876543855,112.10085254718746
2025-03-07 14:04:50.916,-0.053715591987955856,119.08279136572172
2025-03-07 14:04:50.924,-0.05442640370601857,125.49499948305157
2025-03-07 14:04:50.932,-0.0549969698877901,131.32898351763345
2025-03-07 14:04:50.940,-0.055428463734546095,136.58382191209455
2025-03-07 14:04:50.947,-0.05572161860672357,141.26577739713468
2025-03-07 14:04:50.955,-0.055876585592460025,145.3877782410436
2025-03-07 14:04:50.963,-0.05589288566459366,148.96878678092148
2025-03-07 14:04:50.971,-0.05576946042611654,152.03307556312942
2025-03-07 14:04:50.979,-0.0555048192189325,154.6094326944286
2025-03-07 14:04:50.986,-0.05509727422028324,156.73031871606636
2025-03-07 14:04:50.994,-0.054545249393682424,158.43099746114632
2025-03-07 14:04:51.002,-0.05384764405938498,159.7486629508982
2025-03-07 14:04:51.010,-0.053004227616698624,160.72158344963765
2025-03-07 14:04:51.018,-0.052016038786071625,161.38828236636246
2025-03-07 14:04:51.026,-0.050885760850036,161.786773812608
2025-03-07 14:04:51.033,-0.049618043950750645,161.95386836338164
2025-03-07 14:04:51.041,-0.048219746680235175,161.9245619908521
2025-03-07 14:04:51.049,-0.046700072037134714,161.73151832559125
2025-03-07 14:04:51.057,-0.045070577349354164,161.40465143333142
2025-03-07 14:04:51.065,-0.043345044003413595,160.9708132729322
2025-03-07 14:04:51.072,-0.04153920075590503,160.4535870261679
2025-03-07 14:04:51.080,-0.03967030386802738,159.8731846626866
2025-03-07 14:04:51.088,-0.03775658795414875,159.24644451625906
2025-03-07 14:04:51.096,-0.035816612658407375,158.5869223795724
2025-03-07 14:04:51.104,-0.033868540963029506,157.90506773066411
2025-03-07 14:04:51.111,-0.031929393339339376,157.20847520843643
2025-03-07 14:04:51.119,-0.030014326153570435,156.50220034088207
2025-03-07 14:04:51.127,-0.02813598167163835,155.78912774128247
2025-03-07 14:04:51.135,-0.02630395109842258,155.07037944063305
2025-03-07 14:04:51.143,-0.024524382817804072,154.34575062813255
2025-03-07 14:04:51.151,-0.022799756962841877,153.61415975124973
2025-03-07 14:04:51.158,-0.021128835813226603,152.87409964160764
2025-03-07 14:04:51.166,-0.019506788116747824,152.12407608254955
2025-03-07 14:04:51.174,-0.01792547506166311,151.3630200592213
2025-03-07 14:04:51.182,-0.016373877151091343,150.5906599083849
2025-03-07 14:04:51.190,-0.014838635301669881,149.80783981493457
2025-03-07 14:04:51.197,-0.013304676228375266,149.01677169940888
2025-03-07 14:04:51.205,-0.0117558911694194,148.2212086166524
2025-03-07 14:04:51.213,-0.010175837586266275,147.42652943102385
2025-03-07 14:04:51.221,-0.008548435078215734,146.63972680107386
2025-03-07 14:04:51.229,-0.006858629089928773,145.86929339749418
2025-03-07 14:04:51.236,-0.0050929989854661736,145.1250047360153
2025-03-07 14:04:51.244,-0.0032402906643541436,144.4176009196118
2025-03-07 14:04:51.252,-0.0012918579918542881,143.75837378984778
2025-03-07 14:04:51.260,0.0007579982579942184,143.15867028354066
2025-03-07 14:04:51.268,0.002911800713580466,142.62932694976445
2025-03-07 14:04:51.276,0.0051687773876229305,142.18005436423653
2025-03-07 14:04:51.283,0.007524853910264942,141.81879334933058
2025-03-07 14:04:51.291,0.009972751547842584,141.55106725634948
2025-03-07 14:04:51.299,0.012502184318959109,141.37935591867554
2025-03-07 14:04:51.307,0.015100146766323283,141.302517120285
2025-03-07 14:04:51.315,0.017751282091675376,141.31528049135056
2025-03-07 14:04:51.322,0.02043831804196966,141.4078366657951
2025-03-07 14:04:51.330,0.023142555164434683,141.56554142172635
2025-03-07 14:04:51.338,0.02584438902776776,141.76875056096526
2025-03-07 14:04:51.346,0.02852384491226682,141.99279671446197
2025-03-07 14:04:51.354,0.0311611005762768,142.2081143570677
2025-03-07 14:04:51.361,0.03373697064568696,142.38051433687738
2025-03-07 14:04:51.369,0.036233325934240335,142.471604396266
2025-03-07 14:04:51.377,0.03863342352109031,142.43934766949818
2025-03-07 14:04:51.385,0.040922129015902135,142.23874713330704
2025-03-07 14:04:51.393,0.043086020532547176,141.82264057180436
