Timestamp,Lead I (LA-RA),Lead II (LL-LA),Lead III (LL-RA),Vx-RL
2025-07-15 16:12:39.368,0.0559485736987323,-0.0179823668404973,0.0379662062274343,0.0238540027885382
2025-07-15 16:12:39.372,0.0694991907606425,-0.0196641106597529,0.0498350794672137,0.0532518860015788
2025-07-15 16:12:39.376,0.0812592206049038,-0.0216315746430739,0.0596276453252911,0.0648625281517236
2025-07-15 16:12:39.379,0.091416935077657,-0.0226861298719881,0.068730804566586,0.0609481835879048
2025-07-15 16:12:39.383,0.1002268861104374,-0.0211037107996152,0.0791231746693558,0.0591475477230528
2025-07-15 16:12:39.387,0.1100065685445541,-0.0190454438707168,0.0909611240297966,0.0691537539802736
2025-07-15 16:12:39.391,0.1257111488410976,-0.0219319868327919,0.103779161361567,0.0813652814771614
2025-07-15 16:12:39.395,0.1482922818286187,-0.0299828658998117,0.1183094152796232,0.0829327138725471
2025-07-15 16:12:39.399,0.1707679630860245,-0.0355024082945333,0.1352655541401463,0.0764452844731713
2025-07-15 16:12:39.403,0.1862140509548498,-0.0329885451715963,0.1532255051296471,0.0746311074209289
2025-07-15 16:12:39.407,0.1963843541811011,-0.026531992511087,0.1698523610139163,0.0819600572424913
2025-07-15 16:12:39.411,0.2072912467959154,-0.0230869379610463,0.18420430817642,0.0904098321321322
2025-07-15 16:12:39.415,0.2192754878893563,-0.0236138132621244,0.1956616739667929,0.0929968673522885
2025-07-15 16:12:39.419,0.2272211399856921,-0.0242938385085114,0.2029273008147714,0.0941581589060538
2025-07-15 16:12:39.422,0.2293111411341054,-0.0227387494141197,0.2065723910553132,0.1021171634935889
2025-07-15 16:12:39.426,0.2303928239130175,-0.020940252183522,0.2094525710625597,0.1149858820305432
2025-07-15 16:12:39.430,0.2359970539009279,-0.023025125223486,0.2129719280086357,0.1229248652923489
2025-07-15 16:12:39.434,0.2456334834480106,-0.029157100979151,0.216476381798345,0.123648909800403
2025-07-15 16:12:39.438,0.2534611182448339,-0.0331453528851352,0.2203157646871686,0.1244794236543569
2025-07-15 16:12:39.442,0.2557384641224891,-0.0307667502729156,0.22497171317487,0.1268933825555813
2025-07-15 16:12:39.446,0.2549323716801044,-0.027425244189309,0.2275071268142872,0.1229761732682907
2025-07-15 16:12:39.450,0.2531520841639447,-0.0295555202148441,0.223596563271099,0.1112512075428553
2025-07-15 16:12:39.454,0.2457192794146884,-0.0328106156366816,0.2129086630982492,0.1012540295118187
2025-07-15 16:12:39.458,0.2280221721779337,-0.029722887806188,0.198299283689915,0.0978086815247679
2025-07-15 16:12:39.461,0.204538506233316,-0.0243900495171244,0.1801484560325643,0.0940947844904752
2025-07-15 16:12:39.465,0.1826864173091145,-0.0267780542441972,0.1559083623799423,0.0842202073934494
2025-07-15 16:12:39.469,0.1615045765406856,-0.0357400130748459,0.1257645627793717,0.0719128797803458
2025-07-15 16:12:39.473,0.1350330190999576,-0.0403322440712377,0.0947007743403137,0.0630821004000519
2025-07-15 16:12:39.477,0.1038832114020748,-0.0369424886228905,0.0669407220889561,0.0572387337225157
2025-07-15 16:12:39.481,0.0756964594182446,-0.0340626773694043,0.041633781357327,0.0497695745785515
2025-07-15 16:12:39.485,0.0557112169502553,-0.0386830227072775,0.0170281935502113,0.0380253599267004
2025-07-15 16:12:39.489,0.0418939800185938,-0.0466534007743544,-0.0047594214502862,0.0234930800936323
2025-07-15 16:12:39.493,0.0287671788986383,-0.0502125651820633,-0.0214453869797987,0.0119761953098714
2025-07-15 16:12:39.497,0.0140567607423299,-0.0488079846021643,-0.0347512245575118,0.0098187843948221
2025-07-15 16:12:39.501,0.0011735311450928,-0.0469299018151209,-0.0457563713687715,0.0153567482074514
2025-07-15 16:12:39.504,-0.0055802567141155,-0.045755882462952,-0.0513361398773464,0.0191414187452966
2025-07-15 16:12:39.508,-0.0069111803399847,-0.0437033725330607,-0.0506145535751516,0.0155682694375706
2025-07-15 16:12:39.512,-0.0071732402877427,-0.0416832954933781,-0.048856536484596,0.0067910798239539
2025-07-15 16:12:39.516,-0.0090278634300685,-0.0409061114587654,-0.0499339755932585,-0.0040262802342884
2025-07-15 16:12:39.520,-0.0123399656501614,-0.0389221728943386,-0.0512621392502152,-0.0144036152524657
2025-07-15 16:12:39.524,-0.0162368451194168,-0.0339713369158539,-0.0502081827427206,-0.0205926301286997
2025-07-15 16:12:39.528,-0.019825892345292,-0.0291895798876989,-0.0490154729418778,-0.0212214339740451
2025-07-15 16:12:39.532,-0.0221298637562141,-0.027451262515818,-0.0495811269818183,-0.0195892511730455
2025-07-15 16:12:39.536,-0.0219044804331487,-0.0273008581256094,-0.0492053392695932,-0.0189650501350172
2025-07-15 16:12:39.540,-0.017800029208528,-0.0274770530211082,-0.0452770829420289,-0.018813953744984
2025-07-15 16:12:39.544,-0.0114448398443371,-0.0282404321084122,-0.0396852726665969,-0.0166037441279336
2025-07-15 16:12:39.547,-0.0091122682897645,-0.0266903189354018,-0.0358025879399053,-0.0115807589422198
2025-07-15 16:12:39.551,-0.0139613243409991,-0.0201318860049364,-0.0340932110615138,-0.007075433358793
2025-07-15 16:12:39.555,-0.0181337065255536,-0.0135474141023659,-0.0316811213448201,-0.0079688281437725
2025-07-15 16:12:39.559,-0.0116087863240013,-0.0132682246358759,-0.0248770116781825,-0.0133314411759694
2025-07-15 16:12:39.563,0.0027420899056523,-0.0163751835722142,-0.013633094385771,-0.0153350345881176
2025-07-15 16:12:39.567,0.0128392727048291,-0.0170119950217747,-0.0041727230368395,-0.0105533118223351
2025-07-15 16:12:39.571,0.0137567244014247,-0.0168990541159291,-0.0031423304354631,-0.006354616898693
2025-07-15 16:12:39.575,0.0115212861868825,-0.0181153828912621,-0.0065940974266147,-0.0100609472400177
2025-07-15 16:12:39.579,0.0137368430678366,-0.0132082497411147,0.0005285926035926,-0.019484746190967
2025-07-15 16:12:39.583,0.0229272162466256,0.0045720373910284,0.0274992529139538,-0.028577019246041
2025-07-15 16:12:39.586,0.0359223043650431,0.0262756084126055,0.0621979120531415,-0.0339990273822779
2025-07-15 16:12:39.590,0.0460111555645302,0.0351685449614615,0.0811796998004119,-0.0350654969795294
2025-07-15 16:12:39.594,0.0483202030174839,0.0290354352553163,0.0773556375463958,-0.0349041642704346
2025-07-15 16:12:39.598,0.045074414481658,0.0229927013486764,0.0680671151034642,-0.0387689356917237
2025-07-15 16:12:39.602,0.0435981579025416,0.0269046052763204,0.0705027624514397,-0.044848004609466
2025-07-15 16:12:39.606,0.0474228450956906,0.0321324662543834,0.0795553106218527,-0.0433933812851064
2025-07-15 16:12:39.610,0.0514262492730468,0.0279939720142443,0.0794202205584035,-0.0313842906531961
2025-07-15 16:12:39.614,0.0489356105622445,0.0189231858800583,0.0678587957130811,-0.0203841546226468
2025-07-15 16:12:39.618,0.0411439560501735,0.0144686745722327,0.0556126298928782,-0.0226147484878346
2025-07-15 16:12:39.622,0.0334968450077197,0.0133982875708176,0.0468951318485199,-0.0348723473970449
2025-07-15 16:12:39.626,0.0247444628097105,0.0094816086452758,0.0342260707245375,-0.0434390904437905
2025-07-15 16:12:39.629,0.0084134742096953,0.0030845996345799,0.0114980731136673,-0.0416191214793848
2025-07-15 16:12:39.633,-0.014628069309833,-0.00372209237102,-0.0183501624115243,-0.0352661249524621
2025-07-15 16:12:39.637,-0.0345124710675794,-0.0137907054959029,-0.0483031772943166,-0.0320020101125576
2025-07-15 16:12:39.641,-0.0453844945804388,-0.0271676305055352,-0.0725521258169389,-0.0318259674034759
2025-07-15 16:12:39.645,-0.0515708795111019,-0.0361836451515701,-0.0877545253935556,-0.0300800457459825
2025-07-15 16:12:39.649,-0.0579849583899171,-0.0363468506836294,-0.0943318098042243,-0.0249778824236163
2025-07-15 16:12:39.653,-0.062686208691941,-0.0334961203652197,-0.0961823297876597,-0.0197029765587415
2025-07-15 16:12:39.657,-0.0633959880598332,-0.0333289080152184,-0.0967248968053391,-0.0194321040380257
2025-07-15 16:12:39.661,-0.064039405067915,-0.032204071080022,-0.0962434768778497,-0.0263050694117319
2025-07-15 16:12:39.665,-0.0683821834606592,-0.0261059914817634,-0.0944881756718292,-0.0346927232777498
2025-07-15 16:12:39.669,-0.0723675655016801,-0.0217377079197403,-0.0941052741502938,-0.0349077386377306
2025-07-15 16:12:39.672,-0.0704323956839204,-0.0279670147348075,-0.0983994111470255,-0.0262679853591526
2025-07-15 16:12:39.676,-0.0662058927332023,-0.0395164875774165,-0.1057223810382097,-0.0198652841973976
2025-07-15 16:12:39.680,-0.067977541768079,-0.0421297025807002,-0.1101072450755253,-0.0221628575114187
2025-07-15 16:12:39.684,-0.0749077772573416,-0.0344289485606596,-0.1093367265438295,-0.0259999732028343
2025-07-15 16:12:39.688,-0.0779428045157476,-0.0304568246700673,-0.108399629910674,-0.0252135052344986
2025-07-15 16:12:39.692,-0.0750283713904359,-0.0373929639001916,-0.112421336014414,-0.0249451826563186
2025-07-15 16:12:39.696,-0.0744823403542605,-0.0455025407338847,-0.1199848818107109,-0.0292372382050563
2025-07-15 16:12:39.700,-0.0803970070546918,-0.0451232865186464,-0.1255202942945608,-0.032462704949451
2025-07-15 16:12:39.704,-0.0852240696355451,-0.0394876784070517,-0.12471174876241,-0.0310430083793446
2025-07-15 16:12:39.708,-0.081510670610885,-0.037293546303278,-0.1188042176324886,-0.0307026076459912
2025-07-15 16:12:39.711,-0.0724797803362433,-0.0476937852290138,-0.1201735662819343,-0.0340486767549647
2025-07-15 16:12:39.715,-0.067186107576016,-0.0798547956961269,-0.1470409039869906,-0.0314688249409875
2025-07-15 16:12:39.719,-0.0710234615252014,-0.1258913389808711,-0.196914801219001,-0.0142616412643556
2025-07-15 16:12:39.723,-0.0786412015284481,-0.1545097888346512,-0.2331509910740582,0.0107178821822253
2025-07-15 16:12:39.727,-0.068833828009956,-0.1532971695923236,-0.2221309983111012,0.0323372597670545
2025-07-15 16:12:39.731,-0.0174958737570448,-0.1585519765528308,-0.1760478510163131,0.0552025270935353
2025-07-15 16:12:39.735,0.0700450480218848,-0.1953432042166054,-0.125298156898651,0.0921815607311753
2025-07-15 16:12:39.739,0.1606228663461406,-0.2108314672790502,-0.0502086016343146,0.141720000890829
2025-07-15 16:12:39.743,0.2511484497470257,-0.1326451422511071,0.1185033067972012,0.1898975318371
2025-07-15 16:12:39.747,0.3848229947517608,0.0288706900087103,0.413693684064748,0.2276843712124145
2025-07-15 16:12:39.751,0.5591215778439248,0.2076987620210872,0.766820339172438,0.2449378545871534
2025-07-15 16:12:39.754,0.6613636926717885,0.373969620511792,1.0353333124941335,0.2159648878981399
2025-07-15 16:12:39.758,0.5621777662200862,0.5244605997693871,1.0866383653032958,0.1147254733374768
2025-07-15 16:12:39.762,0.2443577015250508,0.635808117683532,0.8801658185260326,-0.0619496010393617
2025-07-15 16:12:39.766,-0.190019815564276,0.6902869777162204,0.5002671614732132,-0.2915626906976104
2025-07-15 16:12:39.770,-0.5841702069739925,0.6842575411448725,0.100087333495912,-0.5179309965862409
2025-07-15 16:12:39.774,-0.7926672899584093,0.5863587286410287,-0.2063085619884756,-0.6514382673349894
2025-07-15 16:12:39.778,-0.769449558240315,0.3723461369688372,-0.3971034219383128,-0.6322561480243137
2025-07-15 16:12:39.782,-0.6103243393202115,0.1057082577034541,-0.5046160822790958,-0.4985489737931843
2025-07-15 16:12:39.786,-0.4585523492663333,-0.0996149457620586,-0.558167295686291,-0.3484754109648504
2025-07-15 16:12:39.790,-0.3785381188720475,-0.1924937215987984,-0.5710318411242328,-0.2420542426589255
2025-07-15 16:12:39.794,-0.3491692000040526,-0.2042313964995797,-0.5534005971521289,-0.1744082514574036
2025-07-15 16:12:39.797,-0.3313791149282847,-0.1805989253273134,-0.511978040898923,-0.1223642688478943
2025-07-15 16:12:39.801,-0.2980157765785493,-0.1460483148656957,-0.4440640920824121,-0.0765464497360276
2025-07-15 16:12:39.805,-0.2366086448212481,-0.1146119734002099,-0.3512206188544131,-0.0380225154152061
2025-07-15 16:12:39.809,-0.1626440651132288,-0.091872937278054,-0.2545170030186932,-0.0119620009801024
2025-07-15 16:12:39.813,-0.1097202730671543,-0.0703404137547618,-0.1800606874434933,-0.0027479584247281
2025-07-15 16:12:39.817,-0.0893316838558728,-0.0450560734104329,-0.1343877578820157,-0.004347866282214
2025-07-15 16:12:39.821,-0.0805652249091525,-0.0263701074951642,-0.1069353330141024,-0.0028835073142013
2025-07-15 16:12:39.825,-0.0653057672124068,-0.0227036635647969,-0.088009431380792,0.0051181725873681
2025-07-15 16:12:39.829,-0.0494842771031599,-0.0233811207093543,-0.0728653984096534,0.0086847341628352
2025-07-15 16:12:39.833,-0.0431191965909389,-0.0154388482967333,-0.0585580454782999,0.0021798017767187
2025-07-15 16:12:39.836,-0.0415252952372861,-0.0051487933210029,-0.0466740891423247,-0.005498592740969
2025-07-15 16:12:39.840,-0.0361372351253813,-0.0049560766023294,-0.0410933123049212,-0.0073731190682605
2025-07-15 16:12:39.844,-0.0283989388363456,-0.0105599346644359,-0.0389588740709683,-0.0073354465304801
2025-07-15 16:12:39.848,-0.0229293403711193,-0.0096601605101336,-0.0325895014443511,-0.0070944701924159
2025-07-15 16:12:39.852,-0.0177021990646477,-0.0039912006924866,-0.0216934003130319,-0.0016881375075518
2025-07-15 16:12:39.856,-0.009894609091038,-0.0041032426886092,-0.0139978523281189,0.0076854573514776
2025-07-15 16:12:39.860,-0.0027843327877272,-0.0092599432484392,-0.0120442765770604,0.0130399909340465
2025-07-15 16:12:39.864,0.0013588337102675,-0.0104759732198855,-0.0091171400428961,0.0141984598497406
2025-07-15 16:12:39.868,0.0077806607380162,-0.0086561573460196,-0.0008754971335378,0.0191757765225524
2025-07-15 16:12:39.872,0.0209612152037756,-0.0121637477300028,0.0087974669562232,0.0290290304918586
2025-07-15 16:12:39.876,0.036069959600897,-0.0191867661137718,0.0168831929776891,0.0352254840395764
2025-07-15 16:12:39.879,0.0459106489399013,-0.0191476583239679,0.0267629901146085,0.0333983218721347
2025-07-15 16:12:39.883,0.0514307114013233,-0.0105477317132574,0.0408829791949664,0.029987281156231
2025-07-15 16:12:39.887,0.0588526314819852,-0.0033103113880287,0.0555423196093389,0.0331920696852659
2025-07-15 16:12:39.891,0.0706989376406197,-0.0042455629073825,0.0664533742572314,0.0431657400814528
2025-07-15 16:12:39.895,0.0854929049745863,-0.0110110090377434,0.0744818954694124,0.0537938049960777
2025-07-15 16:12:39.899,0.1023105016659478,-0.0185597088892847,0.0837507923178876,0.0618118430760341
2025-07-15 16:12:39.903,0.1204683005944645,-0.0233510571076512,0.0971172430369496,0.0700729585641044
2025-07-15 16:12:39.907,0.1381276471857303,-0.0236291962774864,0.114498450467436,0.0805531804441738
2025-07-15 16:12:39.911,0.1546296934047115,-0.0209544928761752,0.1336752000967316,0.0889436526921663
2025-07-15 16:12:39.915,0.1710733082184537,-0.019218761268384,0.1518545465273124,0.0901622935252274
2025-07-15 16:12:39.919,0.1872138572772634,-0.0203691783438801,0.1668446785199208,0.0856965147380213
2025-07-15 16:12:39.922,0.2006453973127615,-0.0232082317961917,0.1774371651125636,0.0816705153857858
2025-07-15 16:12:39.926,0.209500062670194,-0.0253777467194572,0.1841223155561357,0.0820156060570243
2025-07-15 16:12:39.930,0.2148313933151956,-0.0254722704132229,0.1893591225167972,0.085660537553392
2025-07-15 16:12:39.934,0.2202068578293204,-0.0252208946616109,0.1949859627921951,0.0889052645667415
2025-07-15 16:12:39.938,0.2280524487141226,-0.0279820795110997,0.2000703688373357,0.0907183340225014
2025-07-15 16:12:39.942,0.2367945402882897,-0.0330637605147891,0.2037307794175754,0.0951739442434038
2025-07-15 16:12:39.946,0.2430943163793914,-0.0357343626819105,0.2073599533513151,0.1044646294879861
2025-07-15 16:12:39.950,0.2449062369901157,-0.0343641514714171,0.210542085182531,0.1120651116715763
2025-07-15 16:12:39.954,0.2410679004987066,-0.0321923578021193,0.2088755423705894,0.110495043080424
2025-07-15 16:12:39.958,0.2314571575861234,-0.0311837272301743,0.200273430040022,0.1019659947687852
2025-07-15 16:12:39.961,0.2181944744877696,-0.0293886197495617,0.1888058544323106,0.0938038379256397
2025-07-15 16:12:39.965,0.2029575173221046,-0.025378390082392,0.1775791269441045,0.088808718821134
2025-07-15 16:12:39.969,0.183933698520301,-0.02144327545534,0.1624904227798557,0.0852448316559282
2025-07-15 16:12:39.973,0.1588358059327509,-0.0205476808798287,0.1382881247781886,0.0806613893334231
2025-07-15 16:12:39.977,0.1292855962036193,-0.0216944629069006,0.1075911330322391,0.0733836272198923
2025-07-15 16:12:39.981,0.0997293975458452,-0.0210753301236651,0.0786540671682218,0.0631524086498617
2025-07-15 16:12:39.985,0.0735451179793602,-0.0183871859883827,0.0551579317478381,0.0501609936100119
2025-07-15 16:12:39.989,0.051122757971032,-0.0180829603947961,0.0330397973437837,0.0345683518491201
2025-07-15 16:12:39.993,0.0304115046876839,-0.0217734261669412,0.0086380782987442,0.0186113744773067
2025-07-15 16:12:39.997,0.0096666861947471,-0.0242858829380661,-0.0146191969546419,0.0059269361045332
2025-07-15 16:12:40.001,-0.009465959452697,-0.0217348013698216,-0.0312007610227634,-0.0024702440869438
2025-07-15 16:12:40.004,-0.0232549672439517,-0.0182185030234348,-0.0414734704566244,-0.0082543599699517
2025-07-15 16:12:40.008,-0.0311275661801509,-0.0184444767468952,-0.0495720431056336,-0.0119718685180777
2025-07-15 16:12:40.012,-0.0366797801486197,-0.0193773515918645,-0.0560571319083188,-0.0120448161466392
2025-07-15 16:12:40.016,-0.0418251748864473,-0.0169847033852725,-0.0588098784283095,-0.007992492386608
2025-07-15 16:12:40.020,-0.0437572183756747,-0.0151228422984101,-0.0588800608193643,-0.0033423931213056
2025-07-15 16:12:40.024,-0.0406413659151432,-0.0182407504434737,-0.0588821164930268,-0.0035655931369255
2025-07-15 16:12:40.028,-0.03634740657309,-0.0213321494592497,-0.0576795561559704,-0.0099451170083718
2025-07-15 16:12:40.032,-0.0356773281149163,-0.0172839901341435,-0.0529613183613979,-0.0165376841402017
2025-07-15 16:12:40.036,-0.0382801948338991,-0.0089276638459815,-0.0472078587806652,-0.0153536177083274
2025-07-15 16:12:40.040,-0.0406330635445068,-0.004527383885244,-0.0451604475194144,-0.0056004270777116
2025-07-15 16:12:40.044,-0.0406738008009391,-0.0057571785898433,-0.0464309794696407,0.0042962084138457
2025-07-15 16:12:40.047,-0.0382397630788969,-0.0076603485298901,-0.0459001116764112,0.0065539933157495
2025-07-15 16:12:40.051,-0.0348924959093033,-0.0064644507536269,-0.0413569467188615,0.0026825019671891
2025-07-15 16:12:40.055,-0.0343815607229549,-0.0019103759523957,-0.0362919367199021,-0.0010963831009902
2025-07-15 16:12:40.059,-0.0382598512149676,0.0040120885196264,-0.0342477627290264,-0.0012375402773469
2025-07-15 16:12:40.063,-0.0408969832433811,0.0075197852861352,-0.0333771979798296,0.0034629796805391
2025-07-15 16:12:40.067,-0.035257296313755,0.0074056575897509,-0.0278516387348883,0.0112943361245698
2025-07-15 16:12:40.071,-0.0234870977079261,0.0090608134910788,-0.0144262842161301,0.0150291598990059
2025-07-15 16:12:40.075,-0.0147333894175791,0.0161354607163521,0.0014020713104674,0.009403304390321
2025-07-15 16:12:40.079,-0.0131718950193394,0.0208043261166195,0.0076324311199189,0.0002325187221107
2025-07-15 16:12:40.083,-0.0148031893364104,0.0153286208088572,0.0005254315066534,-0.0036467467982393
2025-07-15 16:12:40.086,-0.0138156623538586,0.0102179890543955,-0.0035976732535272,-0.0037867821803147
2025-07-15 16:12:40.090,-0.0063033975753393,0.0224563366633374,0.0161529391450566,-0.0079396537511407
2025-07-15 16:12:40.094,0.0081098376743079,0.0464476311687354,0.0545574689109139,-0.0169717884557168
2025-07-15 16:12:40.098,0.0231931380838335,0.0584820756302254,0.0816752137932616,-0.0242432456587556
2025-07-15 16:12:40.102,0.0297958136615259,0.0523303249110066,0.082126138663463,-0.0251564629281225
2025-07-15 16:12:40.106,0.0265624793452983,0.0475737016274479,0.074136181074941,-0.0219075125137901
2025-07-15 16:12:40.110,0.0218324169891556,0.0573137259532515,0.0791461430553415,-0.0196027287566044
2025-07-15 16:12:40.114,0.0225517248588464,0.0690155857566352,0.0915673107394658,-0.0199576292444201
2025-07-15 16:12:40.118,0.0262512732079687,0.066292788167217,0.0925440615107609,-0.0200077363255172
2025-07-15 16:12:40.122,0.0261509931889574,0.0526484318738763,0.0787994252097621,-0.017855050530432
2025-07-15 16:12:40.126,0.0206949395149806,0.0416777018021919,0.0623726414748246,-0.0168959167936998
2025-07-15 16:12:40.129,0.013805487122839,0.0362234237509494,0.050028911042211,-0.0210924585770617
2025-07-15 16:12:40.133,0.0053436053878604,0.0314403762452396,0.0367839818128556,-0.0286524661929646
2025-07-15 16:12:40.137,-0.0114372393082296,0.0283571033011871,0.0169198641840515,-0.0331135261484052
2025-07-15 16:12:40.141,-0.0371407086179872,0.0281799350653053,-0.0089607733508611,-0.0295263466496458
2025-07-15 16:12:40.145,-0.0595469260280341,0.0225547573759995,-0.0369921684396915,-0.0196594989171143
2025-07-15 16:12:40.149,-0.068964741313384,0.0067812142125756,-0.0621835268774767,-0.010898364241237
2025-07-15 16:12:40.153,-0.071458102612304,-0.006369793052027,-0.077827895429806,-0.0087428581356815
2025-07-15 16:12:40.157,-0.0770060900145348,-0.0033140440676615,-0.0803201338369684,-0.0122124145094387
2025-07-15 16:12:40.161,-0.0840626793294986,0.0081151092912554,-0.0759475697826919,-0.0169683131573397
2025-07-15 16:12:40.165,-0.0861923793494826,0.0099793382256519,-0.0762130408576584,-0.0200339794670262
2025-07-15 16:12:40.169,-0.0853055455864788,0.0011861393366757,-0.0841194059726928,-0.0213788508632925
2025-07-15 16:12:40.172,-0.0874289237116502,-0.0041348924491098,-0.0915638158730332,-0.0220577322733845
2025-07-15 16:12:40.176,-0.0912721342667597,-0.0014427596033921,-0.0927148935722704,-0.0215835060264678
2025-07-15 16:12:40.180,-0.0913533768722802,-0.000612335304717,-0.0919657118688515,-0.0195600020881457
2025-07-15 16:12:40.184,-0.0891740238303092,-0.0053707409719287,-0.0945447644834827,-0.0184570763036873
2025-07-15 16:12:40.188,-0.0914520969972427,-0.006400472366876,-0.0978525690349032,-0.0201108770802868
2025-07-15 16:12:40.192,-0.0979733244282798,-0.0001735882218122,-0.0981469123108817,-0.0222160538490141
2025-07-15 16:12:40.196,-0.1003631629114955,0.0023548673321234,-0.0980082952302329,-0.0231350579843025
2025-07-15 16:12:40.200,-0.0949537589352683,-0.0056598293583503,-0.1006135879342495,-0.0254807165925169
2025-07-15 16:12:40.204,-0.0889290836540729,-0.0144778711387699,-0.1034069544232496,-0.0303034983547433
2025-07-15 16:12:40.208,-0.0896081893896004,-0.0133751329992864,-0.102983322009483,-0.0331389308597052
2025-07-15 16:12:40.211,-0.0944271683151955,-0.0056422464463342,-0.1000694143725249,-0.0307550513195453
2025-07-15 16:12:40.215,-0.0964741440946777,-0.001004171429911,-0.0974783151257716,-0.0274251632240597
2025-07-15 16:12:40.219,-0.0939449794110268,-0.0077861245508141,-0.1017311035531088,-0.0277181812847513
2025-07-15 16:12:40.223,-0.0900353313834012,-0.0344704592918258,-0.1245057902569003,-0.0256185617541544
2025-07-15 16:12:40.227,-0.0888750741067175,-0.0775195330279338,-0.1663946067070383,-0.011475134582928
2025-07-15 16:12:40.231,-0.0916474468969129,-0.1111569598861252,-0.2028044063460415,0.0107733703807784
2025-07-15 16:12:40.235,-0.0881583732922242,-0.1203205275124903,-0.2084789003581606,0.0291366509054997
2025-07-15 16:12:40.239,-0.0556081050633459,-0.1316192248574745,-0.1872273294649108,0.0480187015159345
2025-07-15 16:12:40.243,0.0193939809076105,-0.1632217644832017,-0.1438277831106894,0.086093096027878
2025-07-15 16:12:40.247,0.1239468355032547,-0.162690552492984,-0.0387437165158736,0.1444829784912624
2025-07-15 16:12:40.251,0.2463835355787236,-0.0656295761830649,0.1807539598786622,0.1998305372922085
2025-07-15 16:12:40.254,0.4010064158444275,0.101528525999499,0.5025349423360068,0.2345752437824407
2025-07-15 16:12:40.258,0.5767232385295262,0.2588595329838344,0.8355827720141557,0.247999480674648
2025-07-15 16:12:40.262,0.6806277111507563,0.385987394036793,1.066615105696889,0.2305265328398974
2025-07-15 16:12:40.266,0.599547113695779,0.511388101523947,1.1109352157377657,0.1539061089779942
2025-07-15 16:12:40.270,0.3109551902428508,0.6295504897130274,0.9405056804826564,-0.0036834939816552
2025-07-15 16:12:40.274,-0.1039383540934399,0.7094774524598815,0.6055390989016631,-0.2321859857625458
2025-07-15 16:12:40.278,-0.5142455293656956,0.7328799489590281,0.2186344201367495,-0.4756261718863117
2025-07-15 16:12:40.282,-0.7795018635151014,0.6674413078005134,-0.1120605551629121,-0.6394357675325036
2025-07-15 16:12:40.286,-0.8159844702899715,0.4772609675723716,-0.3387235021575923,-0.6514130071299288
2025-07-15 16:12:40.290,-0.6731812789108953,0.2042728918828233,-0.4689083864599305,-0.5330361621494446
2025-07-15 16:12:40.294,-0.4942326671814352,-0.0358342773965625,-0.5300669440019737,-0.3793717466535284
2025-07-15 16:12:40.297,-0.3819679344496082,-0.1668249595392051,-0.5487928934049557,-0.2639420836983696
2025-07-15 16:12:40.301,-0.3408085071392318,-0.2025300863458602,-0.5433385928933866,-0.1928882774087105
2025-07-15 16:12:40.305,-0.3282812533953892,-0.1880122376805195,-0.5162934904764829,-0.1422249043985521
2025-07-15 16:12:40.309,-0.3059773893376983,-0.1525153792291831,-0.4584927679599249,-0.0985650468965715
2025-07-15 16:12:40.313,-0.2534122427256564,-0.1155741348577489,-0.3689863769690313,-0.0615722870386686
2025-07-15 16:12:40.317,-0.1790412433192933,-0.087873563035111,-0.2669148057326976,-0.0353190492312083
2025-07-15 16:12:40.321,-0.1145949471463869,-0.0638017944570283,-0.1783967409744961,-0.0226600877426088
2025-07-15 16:12:40.325,-0.0793209634670679,-0.0376793687344518,-0.117000331565496,-0.0189059338943963
2025-07-15 16:12:40.329,-0.0626070667168779,-0.0186164281137827,-0.0812234941876307,-0.0152283115877108
2025-07-15 16:12:40.333,-0.0492618235958423,-0.0143721516454989,-0.0636339745914744,-0.009417075790747
2025-07-15 16:12:40.336,-0.0400195776934172,-0.0150650536248448,-0.0550846306617421,-0.0048164808311201
2025-07-15 16:12:40.340,-0.0379788869900491,-0.008093783283645,-0.0460726696105816,-0.0024577826045132
2025-07-15 16:12:40.344,-0.0355587015713831,0.0020261860843467,-0.0335325148173558,-0.002074273216648
2025-07-15 16:12:40.348,-0.0268333228043725,0.003661942789906,-0.0231713793384185,-0.0036928794284718
2025-07-15 16:12:40.352,-0.0183048900186579,-0.0002877766917012,-0.0185926660282327,-0.0035089962337447
2025-07-15 16:12:40.356,-0.0164536051519831,0.0021314578040124,-0.0143221466598456,0.0030606210034277
2025-07-15 16:12:40.360,-0.0154182450688656,0.0094031396391665,-0.006015104735502,0.0129284194532006
2025-07-15 16:12:40.364,-0.0072325320528806,0.0086102755692433,0.0013777442164801,0.0186542901901141
2025-07-15 16:12:40.368,0.0046590601458913,-0.00118544558274,0.0034736152688018,0.019447348954345
2025-07-15 16:12:40.372,0.0124027078268318,-0.0067062905000207,0.0056964180378152,0.0211820856012038
2025-07-15 16:12:40.376,0.0172572935869878,-0.0029276223800999,0.0143296719233808,0.0266605605378621
2025-07-15 16:12:40.379,0.0260376419471995,-0.0002527593060782,0.0257848833630677,0.0324579253642242
2025-07-15 16:12:40.383,0.038927582496557,-0.0055430575967053,0.0333845256268201,0.035287961715271
2025-07-15 16:12:40.387,0.0502743110704731,-0.0113697407206794,0.0389045710814509,0.036702804097976
2025-07-15 16:12:40.391,0.058815520832114,-0.0105840075994615,0.0482315139691219,0.0408607561075602
2025-07-15 16:12:40.395,0.0690077063729978,-0.0087012544389698,0.0603064526754263,0.0500862726111739
2025-07-15 16:12:40.399,0.0832401581772766,-0.0128751044290992,0.0703650544941214,0.062665478901052
2025-07-15 16:12:40.403,0.0990784993618128,-0.01878685024545,0.0802916498663586,0.0741566149553727
2025-07-15 16:12:40.407,0.1139961466285711,-0.0188609426991363,0.0951352046834973,0.0811357283372945
2025-07-15 16:12:40.411,0.1282491296835707,-0.0156696167482175,0.1125795136937297,0.0832971311359842
2025-07-15 16:12:40.415,0.1430849647388721,-0.0165839960542312,0.1265009694470925,0.0825930274972885
2025-07-15 16:12:40.419,0.1589196342231304,-0.0210937579849958,0.1378258770040658,0.0821696250641629
2025-07-15 16:12:40.422,0.1751228376135284,-0.0235127174497406,0.15161012093303,0.0848757500321354
2025-07-15 16:12:40.426,0.190352317682517,-0.0236280878571797,0.1667242305981914,0.0911526165093945
2025-07-15 16:12:40.430,0.2031350899344491,-0.0250705957070893,0.1780644950037899,0.0994621836397174
2025-07-15 16:12:40.434,0.2123315630915326,-0.0265701443327228,0.1857614195382172,0.1082503114702633
2025-07-15 16:12:40.438,0.2182940374255682,-0.0243711190555496,0.1939229191520212,0.116505129417796
2025-07-15 16:12:40.442,0.2245176894117846,-0.0217226786722845,0.2027950115243357,0.1244796467792993
2025-07-15 16:12:40.446,0.2351117930512632,-0.0267728177834803,0.208338976055613,0.1334477739152161
2025-07-15 16:12:40.450,0.2484332396883456,-0.0398794264242182,0.2085538140544708,0.1411286594931219
2025-07-15 16:12:40.454,0.2572643926005047,-0.0506369987514135,0.2066273946413886,0.1407737154160906
2025-07-15 16:12:40.458,0.2577499425224354,-0.0511513547628145,0.2065985885539291,0.1322188088679128
2025-07-15 16:12:40.462,0.253209051246434,-0.0463318350707861,0.2068772169722515,0.1279702375000079
2025-07-15 16:12:40.465,0.2464603669765877,-0.045234124598602,0.201226243176621,0.1359720700886271
2025-07-15 16:12:40.469,0.2339938824806299,-0.0471697154313794,0.1868241678492859,0.1434815011786911
2025-07-15 16:12:40.473,0.2120545211902764,-0.0447207397140513,0.1673337822774596,0.1342317661814727
2025-07-15 16:12:40.477,0.1847661557407754,-0.0373735287631853,0.1473926277802959,0.1141112747391763
2025-07-15 16:12:40.481,0.1609412209657203,-0.0329386507678162,0.1280025710020725,0.1021348565945348
2025-07-15 16:12:40.485,0.1434876616126219,-0.0364764298080201,0.1070112326096817,0.1026738231470687
2025-07-15 16:12:40.489,0.1266914016755849,-0.0449169635166321,0.0817744389644938,0.1033710556309149
2025-07-15 16:12:40.493,0.1048234870616241,-0.0517742845993913,0.0530492032683418,0.0959396944942722
2025-07-15 16:12:40.497,0.0788386876104687,-0.0527993044934423,0.0260393839239,0.08463646953411
2025-07-15 16:12:40.501,0.0532080376688003,-0.0485134483489903,0.004694590127127,0.0755623574768764
2025-07-15 16:12:40.504,0.0308674643526695,-0.0436110978517451,-0.0127436326919161,0.0689486173782048
2025-07-15 16:12:40.508,0.0130035951239518,-0.0425881813223355,-0.0295845853915651,0.0631172608387043
2025-07-15 16:12:40.512,-0.0003292545841188,-0.0450424669493858,-0.0453717207267668,0.0577462061597309
2025-07-15 16:12:40.516,-0.0108756243216547,-0.0462826115567133,-0.057158235071717,0.0516439564187622
2025-07-15 16:12:40.520,-0.0202632172369011,-0.0432216116805077,-0.0634848281114227,0.0433548877995928
2025-07-15 16:12:40.524,-0.0272925959615789,-0.038442129279535,-0.0657347244363051,0.0352244071808692
2025-07-15 16:12:40.528,-0.0303423535252968,-0.036555117828296,-0.0668974705498332,0.0320388115886365
2025-07-15 16:12:40.532,-0.0312075350506922,-0.0377265259150696,-0.0689340601627639,0.0339995992341508
2025-07-15 16:12:40.536,-0.032676976777271,-0.03790586791936,-0.0705828438947565,0.0355716521271689
2025-07-15 16:12:40.540,-0.0341546088086509,-0.0348202349468825,-0.0689748429555465,0.0336342929152036
2025-07-15 16:12:40.544,-0.0338581780839925,-0.0303278070696263,-0.0641859843557018,0.0318048184403136
2025-07-15 16:12:40.547,-0.0330708772374261,-0.0268786341350862,-0.0599495105762163,0.0340941429584178
2025-07-15 16:12:40.551,-0.0333591094986316,-0.0251407737447081,-0.0584998824486645,0.0390268478294409
2025-07-15 16:12:40.555,-0.0320487020629814,-0.0253562467872113,-0.0574049480579731,0.0418903204039396
2025-07-15 16:12:40.559,-0.0267504644434004,-0.02707341259601,-0.0538238762502336,0.0403763876013367
2025-07-15 16:12:40.563,-0.0221522850133634,-0.0275392789861097,-0.0496915632129403,0.0381649032550586
2025-07-15 16:12:40.567,-0.0242365768153807,-0.0250464227572093,-0.0492829987883005,0.0414807175025041
2025-07-15 16:12:40.571,-0.0291594796310602,-0.0228819872452224,-0.0520414660949092,0.0496701853825454
2025-07-15 16:12:40.575,-0.0268806990002768,-0.0239152910723384,-0.0507959892951173,0.0544028292017862
2025-07-15 16:12:40.579,-0.0151364643417794,-0.0236152317253659,-0.0387516952934,0.0515713912205998
2025-07-15 16:12:40.583,-0.0016860414392713,-0.0170175784027764,-0.0187036190713537,0.0463280021714728
2025-07-15 16:12:40.587,0.0059140188141226,-0.009553014923478,-0.0036389953420222,0.043669874595101
2025-07-15 16:12:40.590,0.0064613451381152,-0.0092038821416824,-0.0027425362407656,0.0425838298242986
2025-07-15 16:12:40.594,0.0042602636332167,-0.0105490704091124,-0.006288806017936,0.0411776605448045
2025-07-15 16:12:40.598,0.0068800069555139,-0.0014608900017568,0.0054191177076699,0.0392580168404412
2025-07-15 16:12:40.602,0.0188533706770845,0.0153525047230932,0.0342058761501994,0.0345895680987075
2025-07-15 16:12:40.606,0.0335416999492684,0.0249387386167117,0.0584804393109752,0.0246866629314757
2025-07-15 16:12:40.610,0.0377185305274428,0.0251120646794299,0.0628305959460772,0.0133254510801366
2025-07-15 16:12:40.614,0.0292614134947808,0.0290755551936393,0.0583369694224802,0.0072185542822867
2025-07-15 16:12:40.618,0.0228160500317178,0.0398408742036557,0.0626569249648683,0.006796394864941
2025-07-15 16:12:40.622,0.0306172044418428,0.0428283575551134,0.0734455627210222,0.0085669039363846
2025-07-15 16:12:40.626,0.0447318976212187,0.0302586502393498,0.074990548578105,0.0122115410821973
2025-07-15 16:12:40.629,0.0476810721143061,0.0147527188015821,0.0624337916271935,0.0166104850581742
2025-07-15 16:12:40.633,0.0358388467541581,0.0103230939114652,0.0461619413715236,0.0176566693000396
2025-07-15 16:12:40.637,0.0217292856350971,0.013267072438626,0.0349963587737692,0.0169727948652647
2025-07-15 16:12:40.641,0.0139551158123683,0.0112770186744403,0.025232135179781,0.0196319817068727
2025-07-15 16:12:40.645,0.0057707985394024,0.0024033044701546,0.0081741036953371,0.0213410215894405
2025-07-15 16:12:40.649,-0.0116663177742264,-0.0059004235535438,-0.0175667406483341,0.0157068288307655
2025-07-15 16:12:40.653,-0.0338169085797494,-0.0112928290741572,-0.0451097369808409,0.0112135591923704
2025-07-15 16:12:40.657,-0.0494242995308543,-0.0177900250952216,-0.0672143239604917,0.0198893472002735
2025-07-15 16:12:40.661,-0.0563811500543623,-0.0249274503878324,-0.08130859978456,0.0337300118249944
2025-07-15 16:12:40.665,-0.0608744152338477,-0.0282945904456494,-0.0891690050291356,0.0339819938694326
2025-07-15 16:12:40.669,-0.065332182609075,-0.0293921201229191,-0.0947243020886321,0.0208644295547074
2025-07-15 16:12:40.672,-0.0676686431514059,-0.0329295585802509,-0.1005982010961454,0.0137422409783783
2025-07-15 16:12:40.676,-0.0694610696522989,-0.036773998403847,-0.106235067429136,0.0211035495364923
2025-07-15 16:12:40.680,-0.0746718966115869,-0.0361959781527239,-0.1108678741453883,0.0291488044783619
2025-07-15 16:12:40.684,-0.0813698409810515,-0.0345575594198429,-0.115927399789673,0.0260414609854654
2025-07-15 16:12:40.688,-0.0836614971671867,-0.0380134789563436,-0.1216749755205806,0.0205506321797961
2025-07-15 16:12:40.692,-0.0819001103212163,-0.042944756550834,-0.1248448662780237,0.0243762237308685
2025-07-15 16:12:40.696,-0.0826017806686928,-0.0410844432031019,-0.1236862232864961,0.0297707573039338
2025-07-15 16:12:40.700,-0.0869964717484751,-0.0351173960495531,-0.1221138672211145,0.023646289681144
2025-07-15 16:12:40.704,-0.0886108299354619,-0.0354997501354438,-0.1241105795027618,0.0143694270966783
2025-07-15 16:12:40.708,-0.0853298506533442,-0.0419116225299266,-0.1272414726244334,0.0192711254982146
2025-07-15 16:12:40.712,-0.0841600351858059,-0.0432105420064876,-0.1273705766426497,0.0309406808223583
2025-07-15 16:12:40.715,-0.088753094709547,-0.0372350216787514,-0.1259881158476014,0.0267073743148482
2025-07-15 16:12:40.719,-0.0920749623551632,-0.0330992166821171,-0.1251741785058808,0.0090860920868175
2025-07-15 16:12:40.723,-0.0883255797168428,-0.0328090574638705,-0.1211346366590472,0.0025939482130532
2025-07-15 16:12:40.727,-0.0827294274301718,-0.033968610908131,-0.1166980378262013,0.0122344850193768
2025-07-15 16:12:40.731,-0.0824180829593388,-0.0503902783384524,-0.1328083607950325,0.0207371995077912
2025-07-15 16:12:40.735,-0.0863920316367738,-0.0952881289751774,-0.1816801601189563,0.0247422987956769
2025-07-15 16:12:40.739,-0.089337925630857,-0.1433574318522616,-0.2326953570003371,0.038097023886854
2025-07-15 16:12:40.743,-0.0845159655012592,-0.1566376626244704,-0.2411536276528775,0.0610200041350927
2025-07-15 16:12:40.747,-0.059569093878782,-0.1482065029797906,-0.207775596395305,0.0805114819584539
2025-07-15 16:12:40.751,-0.0026823017526255,-0.1585812028097803,-0.161263504109203,0.1015419984089044
2025-07-15 16:12:40.754,0.0873636115045017,-0.1694599306367943,-0.0820963186897614,0.1454733224212122
2025-07-15 16:12:40.758,0.2119491447161693,-0.1145921219796728,0.0973570231686787,0.2137674377546123
2025-07-15 16:12:40.762,0.3741925488232749,0.0275614758230956,0.4017540250687882,0.2771751535861856
2025-07-15 16:12:40.766,0.5322441058775662,0.2227908117190694,0.7550349180088797,0.2996435959352541
2025-07-15 16:12:40.770,0.5789482023228646,0.431792472323493,1.0107406750475971,0.2569173207182039
2025-07-15 16:12:40.774,0.4293978670922549,0.6033628860219008,1.0327607535045882,0.1446597391051458
2025-07-15 16:12:40.778,0.1138359896503962,0.680615574984305,0.794451565015148,-0.0170520591056884
2025-07-15 16:12:40.782,-0.2557727258553093,0.6758540235383339,0.4200812980533152,-0.1989224037133391
2025-07-15 16:12:40.786,-0.5747600079733712,0.6565490545979069,0.0817890469836853,-0.3770847679922443
2025-07-15 16:12:40.790,-0.7723820834174314,0.6207082599345368,-0.1516738231349534,-0.515788866205437
2025-07-15 16:12:40.794,-0.8108799697430591,0.4888667351528766,-0.3220132342525047,-0.5635245043021414
2025-07-15 16:12:40.797,-0.7120887105737599,0.2456018944275307,-0.4664868158186343,-0.5003823549206059
2025-07-15 16:12:40.801,-0.5580449099575948,-0.0096928491683916,-0.5677377588094568,-0.3691411721115718
2025-07-15 16:12:40.805,-0.4304930987899885,-0.1747184217314079,-0.605211520216334,-0.2374525403868022
2025-07-15 16:12:40.809,-0.359659264091747,-0.2323965532395125,-0.592055817036778,-0.1454727900342386
2025-07-15 16:12:40.813,-0.3331432349041637,-0.2216795887883284,-0.554822823408049,-0.093343138864877
2025-07-15 16:12:40.817,-0.322494627846408,-0.1851151169386286,-0.507609744511427,-0.0577890666843166
2025-07-15 16:12:40.821,-0.295423544808156,-0.1522180177160118,-0.4476415622620824,-0.0183983605850598
2025-07-15 16:12:40.825,-0.2359713122662832,-0.1302391520187013,-0.3662104640337758,0.021929150320702
2025-07-15 16:12:40.829,-0.1632788411553646,-0.1056260324596778,-0.2689048733739139,0.0465849673510491
2025-07-15 16:12:40.833,-0.1095565933759734,-0.0729593315318319,-0.1825159246772184,0.0529439415598725
2025-07-15 16:12:40.837,-0.0813823722291067,-0.0494209760046941,-0.1308033480145856,0.052994628520575
2025-07-15 16:12:40.840,-0.0631069016158299,-0.0463314927355179,-0.1094383941432041,0.0509073625606001
2025-07-15 16:12:40.844,-0.0482241031097142,-0.0486344384784132,-0.0968585413901888,0.0446805664876363
2025-07-15 16:12:40.848,-0.041786892917824,-0.0406588178169838,-0.0824457105471511,0.0444624003614887
2025-07-15 16:12:40.852,-0.0398633804538556,-0.0314985195689334,-0.07136189984619,0.0601274609706162
2025-07-15 16:12:40.856,-0.0317244542461125,-0.0358669782618553,-0.0675914323424652,0.0761848090967598
2025-07-15 16:12:40.860,-0.0187725826841488,-0.0472897127877724,-0.0660622953167725,0.0699541939588259
2025-07-15 16:12:40.864,-0.0114931020657415,-0.0498666386076623,-0.0613597405283774,0.0496676148821622
2025-07-15 16:12:40.868,-0.0105261317013926,-0.0438165956006387,-0.0543427271676862,0.0424506395304228
2025-07-15 16:12:40.872,-0.0069040122614918,-0.0404919434730618,-0.047395955611145,0.0490147711247084
2025-07-15 16:12:40.876,0.0019181657282193,-0.0407515291163171,-0.0388333632751283,0.0468506311748314
2025-07-15 16:12:40.879,0.0104328854361372,-0.036720037502289,-0.026287151963235,0.0370869581178842
2025-07-15 16:12:40.883,0.0172478310191569,-0.030400783853972,-0.0131529527422163,0.0447013704059792
2025-07-15 16:12:40.887,0.0265569763284089,-0.0322871240068996,-0.0057301475965024,0.0670979866045821
2025-07-15 16:12:40.891,0.0382645499414397,-0.0415598847463064,-0.0032953347332495,0.0716540965437946
2025-07-15 16:12:40.895,0.0472064756801286,-0.0445594909479397,0.0026469847938038,0.0557750945944815
2025-07-15 16:12:40.899,0.053017091208625,-0.036541295926495,0.016475795333734,0.0560650820101555
2025-07-15 16:12:40.903,0.0619790020760811,-0.0301246958328935,0.0318543062846111,0.0815010757639221
2025-07-15 16:12:40.907,0.0773878305004364,-0.0359956765851381,0.0413921539466114,0.0946725385940916
2025-07-15 16:12:40.911,0.0958599101553923,-0.0483517666478593,0.047508143528961,0.0808133669494868
2025-07-15 16:12:40.915,0.115034957871224,-0.0574289753221276,0.0576059825607606,0.0756423174631934
2025-07-15 16:12:40.919,0.1366715412977998,-0.0637606368606986,0.0729109044390371,0.0978380705664239
2025-07-15 16:12:40.922,0.1592142658348959,-0.0698431766098747,0.0893710892172815,0.1144224046117357
2025-07-15 16:12:40.926,0.1757531215978658,-0.069817223288412,0.1059358982920862,0.1056088386871101
2025-07-15 16:12:40.930,0.183890238982654,-0.0599348055120629,0.1239554334436773,0.104474314738385
2025-07-15 16:12:40.934,0.1907136189885338,-0.0495119086582239,0.1412017102940548,0.1324843721082738
2025-07-15 16:12:40.938,0.2030804456822361,-0.0489339277256694,0.1541465179111525,0.1518220730649604
2025-07-15 16:12:40.942,0.2182664002193825,-0.0543343845064457,0.1639320156583147,0.1312071241148849
2025-07-15 16:12:40.946,0.229168408962141,-0.0550538866726511,0.17411452222558,0.1086301449006488
2025-07-15 16:12:40.950,0.2348314925428796,-0.0495808542583611,0.1852506382115682,0.1282659772221822
2025-07-15 16:12:40.954,0.2405130012308778,-0.0448635540610877,0.1956494470881894,0.158875035868012
2025-07-15 16:12:40.958,0.2493955792151012,-0.0453601195545888,0.2040354595702714,0.1472446285463568
2025-07-15 16:12:40.962,0.2589761133849111,-0.0494154531821986,0.2095606601035544,0.1164719624789404
2025-07-15 16:12:40.965,0.2648355034103529,-0.0524165467609455,0.2124189565414399,0.1270319558557064
2025-07-15 16:12:40.969,0.2643436502236748,-0.050329530918231,0.2140141191892286,0.1665172045328731
2025-07-15 16:12:40.973,0.2567918890056154,-0.0429599826606945,0.2138319062206926,0.170708565032974
2025-07-15 16:12:40.977,0.2425111503248231,-0.0341693641066045,0.2083417860855896,0.1388016246779515
2025-07-15 16:12:40.981,0.22284133690295,-0.0280344205686434,0.1948069161930967,0.130498338494916
2025-07-15 16:12:40.985,0.2001329172559101,-0.0268141255344272,0.1733187915722824,0.1540317065832489
2025-07-15 16:12:40.989,0.1765786325532856,-0.0315768574581421,0.1450017749385122,0.1563804257612286
2025-07-15 16:12:40.993,0.1527678011014447,-0.0410333728632046,0.1117344280738611,0.1283914507879776
2025-07-15 16:12:40.997,0.1281435616729315,-0.0512677371077229,0.0768758243925721,0.1209547586463785
2025-07-15 16:12:41.001,0.102835536814282,-0.0589632120582986,0.043872324575506,0.1450658541000856
2025-07-15 16:12:41.004,0.0782620438907228,-0.0625653040067751,0.0156967396964911,0.1501499854330648
2025-07-15 16:12:41.008,0.056249575819023,-0.0612189113437781,-0.0049693357192372,0.1189659014280491
2025-07-15 16:12:41.012,0.0380932817847079,-0.0567625163234144,-0.0186692347409707,0.0955270146021839
2025-07-15 16:12:41.016,0.0238361155858752,-0.0541222737752978,-0.0302861583994123,0.0981053721136147
2025-07-15 16:12:41.020,0.0118829554238638,-0.0556539521325757,-0.043770996925409,0.0901063641083606
2025-07-15 16:12:41.024,0.0001098885238786,-0.0587126270174817,-0.0586027387166342,0.0613933126299155
2025-07-15 16:12:41.028,-0.0113910074553945,-0.0608818123599744,-0.0722728200455425,0.0517421751106076
2025-07-15 16:12:41.032,-0.0192724199038702,-0.0625523384735872,-0.0818247586151759,0.066864950985569
2025-07-15 16:12:41.036,-0.0207971775842585,-0.0636353633461582,-0.0844325411747376,0.0632924985922861
2025-07-15 16:12:41.040,-0.0185884445958977,-0.0632498165667921,-0.0818382614127835,0.0417184275108468
2025-07-15 16:12:41.044,-0.018635338267564,-0.0624417924975222,-0.0810771310215604,0.0509441011199172
2025-07-15 16:12:41.047,-0.0229047829582317,-0.0624937299265557,-0.0853985131484667,0.0799746534696438
2025-07-15 16:12:41.051,-0.0270321081514348,-0.0624405403884326,-0.089472648810133,0.0721087636039871
2025-07-15 16:12:41.055,-0.0266266543436124,-0.0622576734226204,-0.0888843280419068,0.0540506654346498
2025-07-15 16:12:41.059,-0.0223019963194581,-0.0648133761842602,-0.087115372784982,0.0882612044567443
2025-07-15 16:12:41.063,-0.0168811527155501,-0.0706141431394294,-0.0874952961429038,0.1106786982243825
2025-07-15 16:12:41.067,-0.0124037231837376,-0.0745225860513414,-0.0869263095295511,0.0472373827962469
2025-07-15 16:12:41.071,-0.0115849536867648,-0.071812043237963,-0.0833969972244524,0.0379660178404956
2025-07-15 16:12:41.075,-0.0154840607918595,-0.0652464251755904,-0.0807304862720583,0.1755032787389745
2025-07-15 16:12:41.079,-0.0177544358372451,-0.06245548677417,-0.0802099229219515,0.1118110825278171
2025-07-15 16:12:41.083,-0.0101517768195526,-0.0658244129007595,-0.0759761900372163,-0.5009261689478557
2025-07-15 16:12:41.087,0.0039991023808881,-0.0680746832341847,-0.0640755811754454,-1.264829824283268
2025-07-15 16:12:41.090,0.0124537169881826,-0.0617996063161188,-0.0493458896544436,-1.440236794171759
2025-07-15 16:12:41.094,0.0116990482285539,-0.0515515479961988,-0.0398525000992419,-0.9795021858959028
2025-07-15 16:12:41.098,0.0103318969444627,-0.0490887812884881,-0.0387568846815881,-0.463192542368705
2025-07-15 16:12:41.102,0.0146891591106945,-0.0558154967741265,-0.0411263380062644,-0.2351114303239144
2025-07-15 16:12:41.106,0.0226074021561244,-0.0585293328552243,-0.03592193104599,-0.2074278455860954
2025-07-15 16:12:41.110,0.0303583647434232,-0.0461502685525863,-0.0157919041603258,-0.2317110055780857
2025-07-15 16:12:41.114,0.0356225684493602,-0.0233631291552062,0.0122594389376593,-0.2151712283310221
2025-07-15 16:12:41.118,0.0353149147205752,-0.002823642944084,0.0324912714148029,-0.118305762778171
2025-07-15 16:12:41.122,0.0293028398807939,0.0096131085434946,0.038915948058655,-0.0407400597783996
2025-07-15 16:12:41.126,0.0248100095547698,0.0151324756049948,0.039942484790537,-0.0877896233851439
2025-07-15 16:12:41.129,0.0288646091358119,0.0133661214539402,0.0422307302159959,-0.1572532030446526
2025-07-15 16:12:41.133,0.0373930251326109,0.0035406281347984,0.0409336528887457,-0.10344800682823
2025-07-15 16:12:41.137,0.0402029562764976,-0.0080692303022811,0.0321337255916326,-0.0101582237308807
2025-07-15 16:12:41.141,0.0353521386014343,-0.0123714122682709,0.0229807259474462,-0.0365947566218353
2025-07-15 16:12:41.145,0.0284809246282865,-0.009846626410039,0.0186342978288364,-0.1215016525415865
2025-07-15 16:12:41.149,0.0192188428041456,-0.0090786603782951,0.0101401820320442,-0.1039881353584921
2025-07-15 16:12:41.153,0.0012005626794694,-0.0135792919215957,-0.0123787296397959,-0.0144117695966562
2025-07-15 16:12:41.157,-0.0232020564857472,-0.0214739664452488,-0.0446760233315587,-0.0024598059524034
2025-07-15 16:12:41.161,-0.0418433132585987,-0.0339799437722032,-0.0758232574343279,-0.0772975431644648
2025-07-15 16:12:41.165,-0.0497117085740405,-0.0494301275499629,-0.0991418365312355,-0.1187247822869935
2025-07-15 16:12:41.169,-0.0542178488505847,-0.0565758922667809,-0.1107937415282603,-0.0814531327811193
2025-07-15 16:12:41.172,-0.0605027369083259,-0.0509221882521264,-0.1114249255741415,-0.0429471475058374
2025-07-15 16:12:41.176,-0.0641767242104165,-0.0473058285245835,-0.1114825531511165,-0.0647209989828182
2025-07-15 16:12:41.180,-0.0629046363025135,-0.0577913848370541,-0.1206960215586327,-0.1033666686910555
2025-07-15 16:12:41.184,-0.063142033339537,-0.0698404794169414,-0.1329825131788069,-0.0942626638429233
2025-07-15 16:12:41.188,-0.0689356659537189,-0.066416556133961,-0.1353522225127245,-0.0581884068769321
2025-07-15 16:12:41.192,-0.0743185050580348,-0.0534855990198525,-0.127804104505035,-0.0510994349372419
2025-07-15 16:12:41.196,-0.0744797083703088,-0.0465334411151205,-0.1210131499148275,-0.0582591527455222
2025-07-15 16:12:41.200,-0.0748612677884682,-0.0449772397774925,-0.1198385079980537,-0.0350810820933461
2025-07-15 16:12:41.204,-0.0800364932788255,-0.0417801777768585,-0.1218166714903249,-0.0091449733913801
2025-07-15 16:12:41.208,-0.0830473349009745,-0.0433872339048306,-0.1264345692423836,-0.0313448560560194
2025-07-15 16:12:41.212,-0.0772424054632867,-0.0576298234671778,-0.1348722293687566,-0.0635205453451766
2025-07-15 16:12:41.215,-0.0702951948877442,-0.0744623436691416,-0.1447575389972305,-0.0339529416446562
2025-07-15 16:12:41.219,-0.0733215640907715,-0.0783084208192398,-0.1516299853525868,0.0176720544834018
2025-07-15 16:12:41.223,-0.0832666216531753,-0.068588756470726,-0.1518553785682982,-0.0265325230981222
2025-07-15 16:12:41.227,-0.089643736478935,-0.0535501921847337,-0.143193929109421,-0.1719189223430134
2025-07-15 16:12:41.231,-0.091478652586647,-0.0370376242042091,-0.1285162772380453,-0.2624864255671804
2025-07-15 16:12:41.235,-0.093283953194573,-0.0275588825142929,-0.120842836157825,-0.1807323449118576
2025-07-15 16:12:41.239,-0.0919640104864426,-0.045797702253653,-0.1377617131907099,-0.0182499838538414
2025-07-15 16:12:41.243,-0.0835347120805135,-0.09643956638444,-0.1799742789167087,0.0472053803840415
2025-07-15 16:12:41.247,-0.0747150338941089,-0.1440267319485961,-0.2187417662954034,-0.0056262797869664
2025-07-15 16:12:41.251,-0.0693274336909004,-0.1549619227265637,-0.2242893568714122,-0.0444931435434235
2025-07-15 16:12:41.254,-0.0504651882375759,-0.1515135877289981,-0.2019787764219183,-0.0014517431570433
2025-07-15 16:12:41.258,0.0044489166103041,-0.1711188167276167,-0.1666699005736551,0.0600233863301502
2025-07-15 16:12:41.262,0.100403620062203,-0.1856095363897403,-0.0852059167844914,0.0957556186471002
2025-07-15 16:12:41.266,0.2340224670121372,-0.1264244707437632,0.1075979958106513,0.1405880835943954
2025-07-15 16:12:41.270,0.3977756875996837,0.0259999373442362,0.4237756244851389,0.1926337500532451
2025-07-15 16:12:41.274,0.5402142665122027,0.2380826411807932,0.7782969072333551,0.1881873551212912
2025-07-15 16:12:41.278,0.5605899664444253,0.4649370529467809,1.0255270189311394,0.1217310558267369
2025-07-15 16:12:41.282,0.3956493208524931,0.6405977385393208,1.0362470589313362,0.0451863689281308
2025-07-15 16:12:41.286,0.0842556340637311,0.6999012995241405,0.7841569331266817,-0.0696659038618949
2025-07-15 16:12:41.290,-0.276107979641063,0.6558508777634632,0.3797428976605224,-0.2989942357002395
2025-07-15 16:12:41.294,-0.5843531545215108,0.5722952356519178,-0.0120579193317815,-0.5722727168280516
2025-07-15 16:12:41.297,-0.74959059171425,0.454501549354942,-0.2950890428216766,-0.6908786046182276
2025-07-15 16:12:41.301,-0.7363871987067381,0.2676251241659504,-0.4687620750035705,-0.5837121116337232
2025-07-15 16:12:41.305,-0.6105415711986226,0.0448214565064775,-0.5657201151554021,-0.3950857012435513
2025-07-15 16:12:41.309,-0.4813698416848415,-0.1276803965848896,-0.6090502387331802,-0.2877376235470335
2025-07-15 16:12:41.313,-0.4012160277684546,-0.2152110021989309,-0.6164270304308738,-0.2702501532067931
2025-07-15 16:12:41.317,-0.3568168415694682,-0.2467102651659525,-0.6035271071990979,-0.2455150375338926
2025-07-15 16:12:41.321,-0.3277795178491644,-0.2490187122760973,-0.5767982305891737,-0.1603421264056173
2025-07-15 16:12:41.325,-0.3058167646393295,-0.2298248664490136,-0.5356416315522827,-0.0652519310369139
2025-07-15 16:12:41.329,-0.2766804145847402,-0.2008880130603871,-0.4775684281089818,-0.0420336267220023
2025-07-15 16:12:41.333,-0.2268892194724426,-0.1722547207350626,-0.3991439406713583,-0.0991379483912699
2025-07-15 16:12:41.337,-0.1648806013916989,-0.1398631002727362,-0.3047437021282636,-0.1393363205076894
2025-07-15 16:12:41.340,-0.111482601601459,-0.1033120377986642,-0.2147946398637561,-0.0530821684032754
2025-07-15 16:12:41.344,-0.0752487568438432,-0.0768453279820299,-0.1520940852892748,0.1206764392472686
2025-07-15 16:12:41.348,-0.0525752826940164,-0.0680550463838359,-0.1206303295410974,0.1997316494183933
2025-07-15 16:12:41.352,-0.040982474688681,-0.0655151758494408,-0.1064976510011031,0.1111365600439117
2025-07-15 16:12:41.356,-0.0369800249155432,-0.0583981920056637,-0.0953782173837264,0.0225478116982957
2025-07-15 16:12:41.360,-0.0317289838485768,-0.0509364306152067,-0.0826654149258771,0.0861816504738322
2025-07-15 16:12:41.364,-0.0218966060052741,-0.0492254279527655,-0.071122034419835,0.19523443515859
2025-07-15 16:12:41.368,-0.0145419466895959,-0.0495880183488205,-0.064129965499754,0.176547319789562
2025-07-15 16:12:41.372,-0.0125822111667908,-0.0481730412802263,-0.0607552529076205,0.0844381087955016
2025-07-15 16:12:41.376,-0.0083015466277754,-0.0483853018515371,-0.0566868489392331,0.0873559018018679
2025-07-15 16:12:41.379,0.0013926678866966,-0.0511725562618929,-0.0497798888346384,0.1722178657159906
2025-07-15 16:12:41.383,0.0080992606825662,-0.0506579645479111,-0.0425587043241516,0.1891237424544752
2025-07-15 16:12:41.387,0.0084004462472142,-0.0466080336059484,-0.0382075878165356,0.1235314664050433
2025-07-15 16:12:41.391,0.0126578832177992,-0.0487122809220411,-0.0360543981610319,0.1042443308821454
2025-07-15 16:12:41.395,0.0281650409155152,-0.0605351317417786,-0.0323700912823027,0.1654191426346496
2025-07-15 16:12:41.399,0.0462979349941624,-0.0704042357262721,-0.0241063011873064,0.1991103740790188
2025-07-15 16:12:41.403,0.056353140091495,-0.0671830318071002,-0.01082989216954,0.1551918839737094
2025-07-15 16:12:41.407,0.0619571168728659,-0.0564399404461058,0.0055171759741953,0.1193866166743729
2025-07-15 16:12:41.411,0.0737982933145896,-0.0516540878919045,0.0221442049712312,0.1548712009448154
2025-07-15 16:12:41.415,0.0933234696513697,-0.0554732409904135,0.0378502282106121,0.2027873496377388
2025-07-15 16:12:41.419,0.1128397933805048,-0.0591079091974531,0.0537318837342097,0.1951983070845716
2025-07-15 16:12:41.422,0.1277141522575803,-0.056834917211154,0.0708792345992901,0.1622359672043392
2025-07-15 16:12:41.426,0.1408322385853486,-0.0520993076500103,0.0887329304897219,0.1646530183619834
2025-07-15 16:12:41.430,0.1562466377784661,-0.0499556186063576,0.1062910187279478,0.1953110951388807
2025-07-15 16:12:41.434,0.1740438040208961,-0.0508107561591357,0.1232330474193556,0.2080360699668404
2025-07-15 16:12:41.438,0.192013992474336,-0.0525566612079005,0.1394573308260247,0.194807831207518
2025-07-15 16:12:41.442,0.2083943459223322,-0.0533493681026338,0.1550449773812089,0.183063689542153
2025-07-15 16:12:41.446,0.221427624680945,-0.0508750216498151,0.1705526025945159,0.1854335743974252
2025-07-15 16:12:41.450,0.2293943515307162,-0.0435176631461447,0.185876687950036,0.1906602674977591
2025-07-15 16:12:41.454,0.2335383088788598,-0.0344140938211362,0.1991242146254606,0.1889225162064146
2025-07-15 16:12:41.458,0.2382839554741222,-0.0303690217032359,0.2079149333409174,0.1819235875346725
2025-07-15 16:12:41.462,0.2456805642047955,-0.0335077462763127,0.2121728175008601,0.1778408194888823
2025-07-15 16:12:41.465,0.2525459664252118,-0.0373485125243664,0.2151974534757301,0.1862216952168647
2025-07-15 16:12:41.469,0.2561739888308962,-0.0353775703075841,0.2207964181007939,0.204820449144752
2025-07-15 16:12:41.473,0.2586514179160258,-0.0300969809366429,0.2285544365594954,0.2126498798156388
2025-07-15 16:12:41.477,0.2611956974208069,-0.0275840580757667,0.233611638927963,0.1970218281904337
2025-07-15 16:12:41.481,0.2589264995356377,-0.0264910933770705,0.232435405744514,0.1796395014229128
2025-07-15 16:12:41.485,0.2468878317174911,-0.021106661828214,0.2257811694782314,0.1870064059199415
2025-07-15 16:12:41.489,0.2275026381677256,-0.0134336175911982,0.2140690201684352,0.2059984370129245
2025-07-15 16:12:41.493,0.2066921999304216,-0.0118252640945209,0.1948669354310383,0.2046633008838028
2025-07-15 16:12:41.497,0.1857165314499585,-0.0171705554498507,0.1685459755988335,0.1866978250319528
2025-07-15 16:12:41.501,0.1619342222288995,-0.0207212233915273,0.1412129984396223,0.1825515194769146
2025-07-15 16:12:41.504,0.1355723902782582,-0.0179024200068337,0.117669969876973,0.1914482626215408
2025-07-15 16:12:41.508,0.1107416271863118,-0.0148408759615463,0.095900750833891,0.1811179166652234
2025-07-15 16:12:41.512,0.0899425881775884,-0.0177247723753076,0.0722178154155417,0.1494229683441627
2025-07-15 16:12:41.516,0.071625066847438,-0.0242925245846337,0.047332541880203,0.1341165744650885
2025-07-15 16:12:41.520,0.0537623013946201,-0.0298586365428824,0.0239036644728514,0.1471490250183554
2025-07-15 16:12:41.524,0.0364373107916869,-0.033788505483095,0.0026488049335737,0.1513740165225878
2025-07-15 16:12:41.528,0.0205066621684703,-0.0360079512688591,-0.0155012894707931,0.1257050135113119
2025-07-15 16:12:41.532,0.0069079614387567,-0.0343069678927116,-0.0273990068195496,0.1037587794529593
2025-07-15 16:12:41.536,-0.0027174463272355,-0.0291687550210615,-0.0318862017096558,0.1152108023028194
2025-07-15 16:12:41.540,-0.0076124950433984,-0.0259225555977831,-0.0335350509984015,0.1335798933534007
2025-07-15 16:12:41.544,-0.0096302372472051,-0.0283229451328666,-0.037953182732306,0.1241988772344237
2025-07-15 16:12:41.547,-0.0108405347543105,-0.0330985671331982,-0.0439391022342624,0.104467368893517
2025-07-15 16:12:41.551,-0.0108374725027531,-0.0339770446123809,-0.0448145174570159,0.1057562708666802
2025-07-15 16:12:41.555,-0.0095118720696849,-0.0292488884790931,-0.0387607608862215,0.1099621206809501
2025-07-15 16:12:41.559,-0.0099073513217476,-0.0226417918612176,-0.0325491435151768,0.0815517062266425
2025-07-15 16:12:41.563,-0.013437431835501,-0.0185700804921992,-0.0320075126538482,0.0355527552623724
2025-07-15 16:12:41.567,-0.0152762763060745,-0.0190454929344722,-0.0343217695611089,0.0148780716082959
2025-07-15 16:12:41.571,-0.0109242667136431,-0.0224976576181248,-0.0334219246475086,0.0190529251566849
2025-07-15 16:12:41.575,-0.0044789148155382,-0.0234184722922452,-0.0278973874181317,0.0110946689412541
2025-07-15 16:12:41.579,-0.0031704352070601,-0.0173165331529834,-0.0204869686638787,-0.016132760555461
2025-07-15 16:12:41.583,-0.0057110079167731,-0.0074272698319285,-0.0131382780462085,-0.0332711110235401
2025-07-15 16:12:41.587,-0.003583890319974,-0.0007956644400016,-0.0043795550521621,-0.0324487733168963
2025-07-15 16:12:41.590,0.0061932817320982,0.0020420815603798,0.0082353630058098,-0.0423197062321035
2025-07-15 16:12:41.594,0.0165167561780211,0.0054271526698793,0.0219439085680222,-0.0754630483909887
2025-07-15 16:12:41.598,0.0201189235050105,0.0083086874838652,0.0284276107160074,-0.1038803577729896
2025-07-15 16:12:41.602,0.0184306740509365,0.0066660109426833,0.0250966847266793,-0.1044787886835046
2025-07-15 16:12:41.606,0.0181658069348175,0.0057213767315521,0.0238871834051146,-0.0936270160639152
2025-07-15 16:12:41.610,0.0234107002690088,0.0170727234001426,0.0404834234148213,-0.0945024219183974
2025-07-15 16:12:41.614,0.033095476312231,0.0403505924051613,0.0734460684706375,-0.0972195294896121
2025-07-15 16:12:41.618,0.0425853280508981,0.0594586449484937,0.1020439727592517,-0.0772032714670904
2025-07-15 16:12:41.622,0.0464117150609503,0.0640625306460444,0.1104742454728128,-0.0366973682047072
2025-07-15 16:12:41.626,0.0432833823882353,0.0637971777969284,0.1070805599579569,-0.0015540539575472
2025-07-15 16:12:41.630,0.0391217403009103,0.0707469760665008,0.1098687161481854,0.0159272638226375
2025-07-15 16:12:41.633,0.0405585290583223,0.0795429784948098,0.1201015073412197,0.0270025358926148
2025-07-15 16:12:41.637,0.0456050261775587,0.0789276041014152,0.1245326300734258,0.0419338266218295
2025-07-15 16:12:41.641,0.0466491093152654,0.0718186325733175,0.1184677416900596,0.0561099405112836
2025-07-15 16:12:41.645,0.0416884795977604,0.0682209781285049,0.1099094575359766,0.0618697233029034
2025-07-15 16:12:41.649,0.0349162511543127,0.0677198713362748,0.1026361223082521,0.0599280381631722
2025-07-15 16:12:41.653,0.0267285714743571,0.0635266148630157,0.0902551861619208,0.0570791247652594
2025-07-15 16:12:41.657,0.012205146644626,0.0558185018389364,0.0680236483152477,0.0598480202714437
2025-07-15 16:12:41.661,-0.0086554227452702,0.0483206345640828,0.0396652116588683,0.0695037436648861
2025-07-15 16:12:41.665,-0.0274165753884246,0.0389078047140132,0.0114912291741222,0.0795890046809532
2025-07-15 16:12:41.669,-0.0377107486411645,0.0254722729532023,-0.0122384758319671,0.0821095009411285
2025-07-15 16:12:41.672,-0.0429488053297813,0.0149499274844428,-0.0279988779819904,0.0780836251975481
2025-07-15 16:12:41.676,-0.0492046651726397,0.0148622614462317,-0.0343424038545992,0.0763564935781767
2025-07-15 16:12:41.680,-0.0558126277822499,0.0202829883089747,-0.0355296395925839,0.0812269164896468
2025-07-15 16:12:41.684,-0.0584006944140478,0.0204043667250484,-0.0379963278002656,0.0879455941709257
2025-07-15 16:12:41.688,-0.0571545469356135,0.0148738170498841,-0.0422807299893244,0.0918047684085597
2025-07-15 16:12:41.692,-0.0559048036725932,0.0118756283688269,-0.0440291753987961,0.0948691813277074
2025-07-15 16:12:41.696,-0.0556144520012268,0.0122486114237966,-0.0433658406632655,0.0993258400225747
2025-07-15 16:12:41.700,-0.0550940036800858,0.0094735681391081,-0.0456204356182224,0.1003353806615738
2025-07-15 16:12:41.704,-0.0560978766595081,0.0050610485540878,-0.0510368281745946,0.0937327403212485
2025-07-15 16:12:41.708,-0.0603757040407015,0.0075113863988278,-0.0528643177023188,0.0855803380884383
2025-07-15 16:12:41.712,-0.0634290942023668,0.0142336451558739,-0.0491954490974694,0.084359153846052
2025-07-15 16:12:41.715,-0.0602376481316724,0.0128602481225145,-0.0473774000510289,0.0873682003219029
2025-07-15 16:12:41.719,-0.0557020592261452,0.0033776953661265,-0.0523243638933697,0.0794822266397917
2025-07-15 16:12:41.723,-0.0585574484696563,-0.0006971952796919,-0.0592546437737516,0.0398360809832331
2025-07-15 16:12:41.727,-0.0663191749696149,0.0046941556218215,-0.0616250193624788,-0.0485311822281899
2025-07-15 16:12:41.731,-0.0687564769846306,0.0102157050082461,-0.0585407719814985,-0.1831908743064628
2025-07-15 16:12:41.735,-0.0651557794233353,0.010572397754724,-0.054583381664751,-0.331377081289946
2025-07-15 16:12:41.739,-0.0645316380023647,0.0032749282251295,-0.0612567097641864,-0.4425228942851931
2025-07-15 16:12:41.743,-0.0688922468968352,-0.0232545367464273,-0.0921467836202683,-0.4850763358432186
2025-07-15 16:12:41.747,-0.0699068785872688,-0.07072168489857,-0.1406285634528415,-0.4761132670495919
2025-07-15 16:12:41.751,-0.0629608643104067,-0.1089817438063356,-0.1719426080743095,-0.4638693256650218
2025-07-15 16:12:41.755,-0.0498143648144814,-0.1118364606425183,-0.1616508254051209,-0.4732238038614807
2025-07-15 16:12:41.758,-0.0241410321609039,-0.1047182894683106,-0.1288593215671836,-0.48138344805103
2025-07-15 16:12:41.762,0.0287688427410248,-0.123708588646485,-0.0949397458330176,-0.4569369628477466
2025-07-15 16:12:41.766,0.1143199687917625,-0.1355736625683935,-0.0212536936942717,-0.4023895160553216
2025-07-15 16:12:41.770,0.2309990888763073,-0.0659006984158731,0.165098390552516,-0.3389426401787271
2025-07-15 16:12:41.774,0.3802887667589081,0.1004014845696786,0.4806902514309915,-0.275106953072293
2025-07-15 16:12:41.778,0.5310080924109495,0.3135680064570679,0.8445760989812015,-0.2245869411481713
2025-07-15 16:12:41.782,0.5904521412107673,0.5235713531319027,1.114023494466278,-0.2296481468419015
2025-07-15 16:12:41.786,0.473149778145801,0.6826325553963855,1.1557823336758422,-0.320557749447175
2025-07-15 16:12:41.790,0.1874339018385489,0.7426475722546322,0.9300814742373092,-0.4708936963739805
2025-07-15 16:12:41.794,-0.1803188771888202,0.7121928243188438,0.5318739472852376,-0.6290268546411304
2025-07-15 16:12:41.797,-0.5207409240343069,0.6433506026187548,0.122609678750603,-0.7616369478758358
2025-07-15 16:12:41.801,-0.7240982118821027,0.5353045691212042,-0.1887936425842902,-0.8372536608535356
2025-07-15 16:12:41.805,-0.7323482553783891,0.3453626065303357,-0.3869856486607992,-0.8159355184492758
2025-07-15 16:12:41.809,-0.6007719703996546,0.0995840831982461,-0.5011878870028305,-0.6930037639708437
2025-07-15 16:12:41.813,-0.4509849298710192,-0.1057672433627037,-0.5567521730237053,-0.5196345774768192
2025-07-15 16:12:41.817,-0.3573163121522569,-0.2115824456078767,-0.568898757539156,-0.3570606427841245
2025-07-15 16:12:41.821,-0.316506069613079,-0.2328587647230793,-0.5493648341042847,-0.2325099132010515
2025-07-15 16:12:41.825,-0.2999347478441285,-0.2073830374802509,-0.5073177850810058,-0.1439746818271382
2025-07-15 16:12:41.829,-0.2849694470125291,-0.1660405907988387,-0.4510100375561489,-0.0811135400855649
2025-07-15 16:12:41.833,-0.2530559650665078,-0.1330799354453467,-0.3861359002451512,-0.0347708892479191
2025-07-15 16:12:41.837,-0.1991802142697609,-0.1113749824772181,-0.3105551964690571,-0.0019661563391951
2025-07-15 16:12:41.840,-0.1405087323031136,-0.0823377717148254,-0.2228465037283641,0.0165776754300166
2025-07-15 16:12:41.844,-0.0966801954772137,-0.0414752340017334,-0.1381554291772319,0.0273086560580077
2025-07-15 16:12:41.848,-0.0691830609208371,-0.0112674373464009,-0.080450497953562,0.0407979410387018
2025-07-15 16:12:41.852,-0.0505628682459831,-0.0056674698007683,-0.0562303377214821,0.0552453401243466
2025-07-15 16:12:41.856,-0.0394952271012191,-0.0082935678774365,-0.0477887946415602,0.0592004519823906
2025-07-15 16:12:41.860,-0.0350271692446069,0.0001599760580551,-0.034867192837102,0.0530412781984958
2025-07-15 16:12:41.864,-0.0302130096895147,0.0153488893594265,-0.0148641199682716,0.0507792911393739
2025-07-15 16:12:41.868,-0.0225728154886884,0.0242087030019606,0.0016358878870902,0.0580296253303243
2025-07-15 16:12:41.872,-0.0187046343799691,0.0280261373974021,0.0093215034033018,0.0648879647623444
2025-07-15 16:12:41.876,-0.0205529364084371,0.0347482475216546,0.0141953115116131,0.0652142925827102
2025-07-15 16:12:41.880,-0.0190069994626456,0.0411698120257275,0.0221628129741651,0.0677519563255953
2025-07-15 16:12:41.883,-0.0080724033062105,0.0391122348376835,0.0310398319549555,0.079846233785898
2025-07-15 16:12:41.887,0.0054105202487114,0.031676441527787,0.0370869622123058,0.0921758482604929
2025-07-15 16:12:41.891,0.0132463548373153,0.0286337156265635,0.0418800709123716,0.0919149134964914
2025-07-15 16:12:41.895,0.0183153724896558,0.0305237440896626,0.0488391170407231,0.0845786908163895
2025-07-15 16:12:41.899,0.027793032002577,0.0305052180733668,0.0582982505500789,0.0887531302991813
2025-07-15 16:12:41.903,0.0403467202223111,0.0279257536371139,0.0682724743461724,0.1072068059373023
2025-07-15 16:12:41.907,0.0492671495198428,0.0271405356074332,0.0764076856268656,0.1142424309426496
2025-07-15 16:12:41.911,0.0549550011330957,0.0265998474234816,0.0815548490692062,0.0840475685977582
2025-07-15 16:12:41.915,0.0645191534405814,0.0218656691997891,0.0863848231659431,0.031356443275694
2025-07-15 16:12:41.919,0.0800022617904331,0.0160239866109101,0.0960262489397793,0.00706623699143
2025-07-15 16:12:41.922,0.0962563278772799,0.0157508535070391,0.1120071819357579,0.0406179396311688
2025-07-15 16:12:41.926,0.1103965347657955,0.0204042871069487,0.1308008224372786,0.0966542946062262
2025-07-15 16:12:41.930,0.124857856341475,0.0237556549390203,0.1486135118580498,0.1057243857193095
2025-07-15 16:12:41.934,0.1408835882686463,0.0230756640449373,0.1639592529041757,0.0380056793687747
2025-07-15 16:12:41.938,0.1564200400010879,0.0202700832704469,0.1766901238753028,-0.0654761446427749
2025-07-15 16:12:41.942,0.170518575313917,0.0171701034851921,0.1876886794160097,-0.1357897102492634
2025-07-15 16:12:41.946,0.1835965181888133,0.0146582178541407,0.1982547366728279,-0.1365618253443871
2025-07-15 16:12:41.950,0.1939612072650106,0.0144896555633134,0.2084508634712856,-0.0810182509673916
2025-07-15 16:12:41.954,0.1998937049001117,0.0172235753237021,0.2171172808801113,-0.0097507553400964
2025-07-15 16:12:41.958,0.2042866686424719,0.0189434241411265,0.2232300934530925,0.0387030386522611
2025-07-15 16:12:41.962,0.211565888410062,0.0151734250620751,0.2267393141544828,0.0495185882924879
2025-07-15 16:12:41.965,0.2208336247051535,0.0081965153109328,0.2290301407114217,0.0357125879631619
2025-07-15 16:12:41.969,0.227075690818815,0.0049826014449905,0.2320582929725729,0.0211320838668395
2025-07-15 16:12:41.973,0.2280993390996797,0.0079247324272745,0.236024072249018,0.0215693490569254
2025-07-15 16:12:41.977,0.2259815140268962,0.0132390456615942,0.2392205604232537,0.0414528023832401
2025-07-15 16:12:41.981,0.2225850022568275,0.0177035554663318,0.2402885584706506,0.0770089884322151
2025-07-15 16:12:41.985,0.2170292332263741,0.0209337877477362,0.2379630217349939,0.1158493795848559
2025-07-15 16:12:41.989,0.2075090081405289,0.0216112108065175,0.2291202197213354,0.1425571431692023
2025-07-15 16:12:41.993,0.1933587188169615,0.0177794521427417,0.2111381717465561,0.1522749039344665
2025-07-15 16:12:41.997,0.1746033466314208,0.0117227880999828,0.186326135530582,0.152622884893791
2025-07-15 16:12:42.001,0.1513411293696188,0.0086673982392804,0.1600085284212314,0.1497018598814949
2025-07-15 16:12:42.005,0.1250363493938555,0.0085706898462002,0.1336070400658542,0.1425425602559352
2025-07-15 16:12:42.008,0.0985702172157724,0.0055133773472299,0.1040835954012802,0.1322512976839922
2025-07-15 16:12:42.012,0.0735095493270854,-0.001440409393882,0.0720691407833149,0.1233687749722064
2025-07-15 16:12:42.016,0.0494341873213599,-0.0046381634750428,0.0447960247091078,0.1161273219106025
2025-07-15 16:12:42.020,0.0267920317019942,-0.0001372130835718,0.0266548194946142,0.1090436692616517
2025-07-15 16:12:42.024,0.0073136998769775,0.0051722636361858,0.0124859644018074,0.1054262349910743
2025-07-15 16:12:42.028,-0.0092341476638889,0.0048549015811544,-0.004379245182765,0.1075035588039524
2025-07-15 16:12:42.032,-0.0248351647657631,0.0024528811739542,-0.0223822826798678,0.1099596418742027
2025-07-15 16:12:42.036,-0.0385752487171876,0.0031213640268714,-0.0354538837652479,0.1058294430824425
2025-07-15 16:12:42.040,-0.04665910720447,0.003844756319505,-0.0428143499474394,0.0938814344275276
2025-07-15 16:12:42.044,-0.0489215775684438,-0.000523514009188,-0.0494450906292171,0.079260602276602
2025-07-15 16:12:42.047,-0.0505847762530699,-0.0069453733469986,-0.057530148640562,0.0704224519692888
2025-07-15 16:12:42.051,-0.0547714405709109,-0.0079504634609155,-0.0627219030597462,0.0709472521469264
2025-07-15 16:12:42.055,-0.0578419699552728,-0.0036362690332798,-0.0614782380040587,0.0714999366442741
2025-07-15 16:12:42.059,-0.0560519445551077,-0.0015464317443077,-0.0575983753043415,0.0589053165373855
2025-07-15 16:12:42.063,-0.0527980080065494,-0.0036524631001663,-0.0564504701015015,0.0370865817333782
2025-07-15 16:12:42.067,-0.0536611876426124,-0.0026403827045967,-0.0563015693302839,0.0264620032035027
2025-07-15 16:12:42.071,-0.0570382171485891,0.0052950967740643,-0.051743119345392,0.0368911568563236
2025-07-15 16:12:42.075,-0.0568987801310601,0.0133727209696897,-0.0435260581218378,0.0559902642692397
2025-07-15 16:12:42.079,-0.0531831814253691,0.0149041219614947,-0.0382790584150946,0.069647033878365
2025-07-15 16:12:42.083,-0.0509121689991378,0.0125623944012253,-0.0383497735385439,0.0770581843588336
2025-07-15 16:12:42.087,-0.0501382528629885,0.0126616823536386,-0.0374765694382446,0.0810345646827567
2025-07-15 16:12:42.090,-0.0460919947724857,0.0171210940746295,-0.0289708996164635,0.0812093654899263
2025-07-15 16:12:42.094,-0.0383628667054498,0.0226319587641444,-0.0157309068513944,0.08072549149348
2025-07-15 16:12:42.098,-0.0315851002432894,0.0226311942324646,-0.0089539049116006,0.0843838583811946
2025-07-15 16:12:42.102,-0.0282651069029669,0.013649791465404,-0.0146153143274121,0.0884700307560799
2025-07-15 16:12:42.106,-0.0265203518679406,0.0045972627251925,-0.0219230880224877,0.0843688321768906
2025-07-15 16:12:42.110,-0.0226818059703257,0.0109686713171803,-0.0117131335248968,0.0709002893167196
2025-07-15 16:12:42.114,-0.0139890404796184,0.0331466290692287,0.0191575897258932,0.0546116834049926
2025-07-15 16:12:42.118,-0.0023411681884491,0.0520092438629365,0.0496680768205703,0.0419484098304454
2025-07-15 16:12:42.122,0.0051237066704151,0.0545964927411362,0.0597202005673815,0.0359276800159304
2025-07-15 16:12:42.126,0.0039962593926032,0.0508904004697651,0.0548866610258329,0.0350812528977784
2025-07-15 16:12:42.130,-0.0003611040055604,0.0543065818503327,0.0539454790151391,0.0339298624837153
2025-07-15 16:12:42.133,0.0009760742707057,0.0597504911483678,0.0607265665978928,0.0290219338259984
2025-07-15 16:12:42.137,0.0083845187670875,0.0554652520683017,0.063849772023303,0.0234488665273894
2025-07-15 16:12:42.141,0.0131329656391681,0.0444896111479804,0.0576225779824049,0.0219146501542034
2025-07-15 16:12:42.145,0.0091678880754926,0.0379026747733841,0.047070564050137,0.0236049451827762
2025-07-15 16:12:42.149,4.727356565113012e-05,0.0352883007892361,0.0353355755631899,0.0238511307260968
2025-07-15 16:12:42.153,-0.0087897687842274,0.0282179868461532,0.019428219278365,0.022025351749744
2025-07-15 16:12:42.157,-0.0195187714930569,0.0178598414881256,-0.0016589287815161,0.0224691178632127
2025-07-15 16:12:42.161,-0.036960227173079,0.0130086336789795,-0.0239515922653472,0.026163850766432
2025-07-15 16:12:42.165,-0.0575687976399574,0.0125203716528516,-0.0450484247526241,0.0285778360587505
2025-07-15 16:12:42.169,-0.0728458154767213,0.0060069492929173,-0.0668388649423798,0.0283643023346003
2025-07-15 16:12:42.172,-0.081868194006473,-0.0067615925253799,-0.0886297852840124,0.0300287966250315
2025-07-15 16:12:42.176,-0.0897221635565089,-0.0140524393547653,-0.1037746016586159,0.0354929775696123
2025-07-15 16:12:42.180,-0.0954098797301917,-0.0131146313002171,-0.108524509773126,0.0404218013430524
2025-07-15 16:12:42.184,-0.0940167422240723,-0.0147454271708188,-0.1087621681319565,0.0405719219256003
2025-07-15 16:12:42.188,-0.0896911110867706,-0.0218385747972825,-0.1115296846155041,0.0366002559315969
2025-07-15 16:12:42.192,-0.0922012084414235,-0.0233205703436557,-0.1155217775122256,0.032373914602215
2025-07-15 16:12:42.196,-0.1001934723795096,-0.0172328421871985,-0.1174263132901152,0.0313060304480998
2025-07-15 16:12:42.200,-0.1026850321751652,-0.0186683069245236,-0.1213533378186867,0.0328710633601366
2025-07-15 16:12:42.204,-0.0987523316705853,-0.0327987800786236,-0.1315511104636016,0.0326168654523977
2025-07-15 16:12:42.208,-0.0996394630595326,-0.041021824956885,-0.1406612867271471,0.0287875804221102
2025-07-15 16:12:42.212,-0.1077422957507098,-0.0307831584328568,-0.1385254528913112,0.0258500912450312
2025-07-15 16:12:42.215,-0.1109487591863366,-0.0192812731810294,-0.1302300310718057,0.026886561387667
2025-07-15 16:12:42.219,-0.1043944629993428,-0.0260124146665158,-0.1304068763668044,0.0281419096820351
2025-07-15 16:12:42.223,-0.1001835867744458,-0.0403215585540662,-0.1405051440266292,0.0261218346456592
2025-07-15 16:12:42.227,-0.1063052890408558,-0.0411695431531639,-0.1474748308899113,0.0236025611488905
2025-07-15 16:12:42.231,-0.112566643898579,-0.0321370358037579,-0.1447036783958802,0.0240170423376521
2025-07-15 16:12:42.235,-0.1081964941136449,-0.031661023991238,-0.1398575167960045,0.0255819559350052
2025-07-15 16:12:42.239,-0.0987582425035523,-0.0457793779555961,-0.1445376191484118,0.025848089775785
2025-07-15 16:12:42.243,-0.0949082133724761,-0.0727559023625098,-0.1676641144228905,0.0286619734362006
2025-07-15 16:12:42.247,-0.0965800917525485,-0.112306922353047,-0.2088870127920498,0.040210780968357
2025-07-15 16:12:42.251,-0.0964984295465623,-0.1510614424940979,-0.2475598707256679,0.0587046725881318
2025-07-15 16:12:42.255,-0.0864395760246778,-0.170010273761009,-0.256449848469848,0.0772487963510523
2025-07-15 16:12:42.258,-0.0535922392379638,-0.1796573863370753,-0.2332496242588496,0.0993334261003515
2025-07-15 16:12:42.262,0.0128120738207209,-0.1996293583295204,-0.1868172831921191,0.1382761458965709
2025-07-15 16:12:42.266,0.1071855906198191,-0.1947687479481253,-0.0875831560110789,0.1952680420049403
2025-07-15 16:12:42.270,0.2234824964156108,-0.1036461422003096,0.1198363555324336,0.2532327344063962
2025-07-15 16:12:42.274,0.3782007573982777,0.0591432870955563,0.4373440458102438,0.2982967772930893
2025-07-15 16:12:42.278,0.5670286266954294,0.2165096299631612,0.7835382579744021,0.326853637640918
2025-07-15 16:12:42.282,0.7037759159788747,0.3441961046567564,1.0479720219510678,0.3243178478965395
2025-07-15 16:12:42.286,0.6717094087127351,0.4712868189979392,1.1429962290251696,0.2603616650566508
2025-07-15 16:12:42.290,0.4367972844057324,0.5842346853339018,1.021031971052372,0.1138392247563417
2025-07-15 16:12:42.294,0.0615674767681918,0.6392689597179761,0.7008364377971215,-0.108535678866586
2025-07-15 16:12:42.297,-0.3504429496411902,0.6341395321377852,0.2836965838061637,-0.3618739449286108
2025-07-15 16:12:42.301,-0.6704780533764186,0.5721343985102751,-0.0983436535582931,-0.5572945960243754
2025-07-15 16:12:42.305,-0.7841525474490267,0.4182224453612128,-0.365930100782613,-0.6077860749666775
2025-07-15 16:12:42.309,-0.6934311150438341,0.1752457860107915,-0.5181853277307842,-0.5113776277984314
2025-07-15 16:12:42.313,-0.5273477159434117,-0.0656554093265018,-0.5930031239701337,-0.3569101870523375
2025-07-15 16:12:42.317,-0.4104484041283714,-0.2133390199333766,-0.6237874227644811,-0.2314705247222069
2025-07-15 16:12:42.321,-0.3666226618941546,-0.2586272118840149,-0.6252498724843241,-0.1542944783035449
2025-07-15 16:12:42.325,-0.3529838238101532,-0.2431697442032137,-0.5961535667235203,-0.1015978823611974
2025-07-15 16:12:42.329,-0.3246756916361597,-0.2047452666332886,-0.5294209569832258,-0.0542981450147011
2025-07-15 16:12:42.333,-0.2619551603297354,-0.1676883373805059,-0.4296434964274149,-0.0111018037351332
2025-07-15 16:12:42.337,-0.1797945351933199,-0.1420111072852744,-0.3218056411999125,0.0196786436728917
2025-07-15 16:12:42.340,-0.1146588956625543,-0.1194122668943512,-0.2340711612831522,0.0316068388098779
2025-07-15 16:12:42.344,-0.0836226932551216,-0.0912123556413302,-0.1748350476274516,0.0308709703660989
2025-07-15 16:12:42.348,-0.0689041185536909,-0.067438575207239,-0.1363426924962935,0.0321909682836391
2025-07-15 16:12:42.352,-0.0515370502750955,-0.061259424150141,-0.1127964731654607,0.0398848316388469
2025-07-15 16:12:42.356,-0.0372172392777089,-0.0635278877750728,-0.1007451257987189,0.0436694886690829
2025-07-15 16:12:42.360,-0.0363850135579046,-0.0547170280646075,-0.0911020403742257,0.0384414953900289
2025-07-15 16:12:42.364,-0.0404184633184053,-0.0371468955930719,-0.0775653576685602,0.034493917921368
2025-07-15 16:12:42.368,-0.0349675126435055,-0.0306926143311528,-0.0656601257373658,0.0400193672678073
2025-07-15 16:12:42.372,-0.0233522225645636,-0.0373246667933627,-0.060676888127051,0.0471365249240202
2025-07-15 16:12:42.376,-0.0187522670026299,-0.037120503866748,-0.0558727696451787,0.0462240933660876
2025-07-15 16:12:42.380,-0.0205755474481947,-0.0233133408067172,-0.0438888870370808,0.0423071471497681
2025-07-15 16:12:42.383,-0.0166377799716015,-0.0134707823029553,-0.0301085610631922,0.0451694656879914
2025-07-15 16:12:42.387,-0.0053184302129536,-0.017561776845959,-0.0228802058546678,0.0525869686847548
2025-07-15 16:12:42.391,0.0029148772750944,-0.0214155019456188,-0.0185006234737513,0.0546384748789342
2025-07-15 16:12:42.395,0.0055298694737387,-0.0140407688393903,-0.0085108981761872,0.0486349335910579
2025-07-15 16:12:42.399,0.0117513233880419,-0.0074712540734151,0.0042800704967273,0.0417615729951849
2025-07-15 16:12:42.403,0.0251203105482736,-0.0142214784083502,0.0108988333141554,0.0418552056100344
2025-07-15 16:12:42.407,0.0382011288815561,-0.0250072607169519,0.0131938693306383,0.0492192012150342
2025-07-15 16:12:42.411,0.0471693521793021,-0.0257775421649796,0.0213918111722133,0.0575307747033952
2025-07-15 16:12:42.415,0.0583500577293665,-0.0214274991347679,0.0369225597442399,0.0632306653142189
2025-07-15 16:12:42.419,0.0767266716911408,-0.0250084506084898,0.0517182222236217,0.0700629899447097
2025-07-15 16:12:42.422,0.0978699816243486,-0.0343666576893867,0.0635033250670249,0.0801114381727785
2025-07-15 16:12:42.426,0.1154192675053734,-0.0373881549084596,0.0780311137201002,0.0878382296569651
2025-07-15 16:12:42.430,0.1299470936336072,-0.0335241436142136,0.0964229511335081,0.0897456856529052
2025-07-15 16:12:42.434,0.145814070158765,-0.0329014844008636,0.1129125868625127,0.0917605777326039
2025-07-15 16:12:42.438,0.1634789661365079,-0.0383621855357807,0.1251167816957002,0.1006587167698009
2025-07-15 16:12:42.442,0.18005174627962,-0.0435160456411368,0.1365357017239274,0.1146034593678095
2025-07-15 16:12:42.446,0.1946513528629775,-0.0450020736141729,0.1496492803244652,0.1258354450762737
2025-07-15 16:12:42.450,0.2080497428992015,-0.0446534022065365,0.1633963417580105,0.1284238622852938
2025-07-15 16:12:42.454,0.2192728097745087,-0.0435530542848076,0.1757197565446395,0.1234031007953581
2025-07-15 16:12:42.458,0.2270511263684677,-0.0425120873196162,0.1845390400936436,0.1195189538083819
2025-07-15 16:12:42.462,0.2326485126329533,-0.0439345508094666,0.188713962857903,0.1254260325550334
2025-07-15 16:12:42.465,0.238217358536331,-0.0478600343885265,0.1903573251711649,0.1384149705390319
2025-07-15 16:12:42.469,0.2444249228387923,-0.0509939620944954,0.1934309617564471,0.1470369893708966
2025-07-15 16:12:42.473,0.2510077168331339,-0.0524776297750409,0.1985300880594569,0.1465861754169672
2025-07-15 16:12:42.477,0.2565877962887773,-0.0547933235665206,0.2017944737127327,0.1434493489460984
2025-07-15 16:12:42.481,0.2571709916078726,-0.0571615308411295,0.200009461745508,0.1427785934988567
2025-07-15 16:12:42.485,0.2486282062517153,-0.0551539512759778,0.1934742559424561,0.1411971830982225
2025-07-15 16:12:42.489,0.2316623346967061,-0.0492656439171848,0.1823966917347375,0.1338484340492952
2025-07-15 16:12:42.493,0.2107030396645911,-0.0466389630066787,0.164064077601769,0.1218015094358904
2025-07-15 16:12:42.497,0.1876281362385698,-0.0509344587351346,0.1366936784350495,0.1106243759336444
2025-07-15 16:12:42.501,0.1614694080183196,-0.0568108528749253,0.1046585560621657,0.1041399173227007
2025-07-15 16:12:42.505,0.1346694615424182,-0.05844876094227,0.0762207015066447,0.0995296680345391
2025-07-15 16:12:42.508,0.1128748512374342,-0.0579629466365381,0.0549119054955771,0.0899595966345129
2025-07-15 16:12:42.512,0.0966369368235506,-0.0600631355489711,0.0365738021566287,0.0742158054552451
2025-07-15 16:12:42.516,0.0797343647042428,-0.0630717394434796,0.0166626261292776,0.0599356760065888
2025-07-15 16:12:42.520,0.0578969958493769,-0.0622062769303435,-0.0043092802255287,0.0535597634616525
2025-07-15 16:12:42.524,0.0341377479960866,-0.0586223349729105,-0.0244845861336765,0.0517563674252362
2025-07-15 16:12:42.528,0.014138215306459,-0.0575884031785625,-0.0434501870418487,0.0470540971822749
2025-07-15 16:12:42.532,0.0003400364509185,-0.0595981938556339,-0.0592581565885309,0.0373093037482365
2025-07-15 16:12:42.536,-0.0084028893392901,-0.0609884030064275,-0.0693912915434068,0.0264086058398962
2025-07-15 16:12:42.540,-0.0141099377395151,-0.0621943464097818,-0.0763042833598195,0.0199331763057076
2025-07-15 16:12:42.544,-0.0180105284563911,-0.0667669040564574,-0.0847774317364589,0.0202906923579365
2025-07-15 16:12:42.547,-0.0205342543649531,-0.0719210261226087,-0.0924552797256151,0.0224410532392514
2025-07-15 16:12:42.551,-0.0214939850861234,-0.0700902636923204,-0.0915842480311326,0.0187759341328317
2025-07-15 16:12:42.555,-0.0201525103091108,-0.0622133358522265,-0.0823658454275067,0.0111450256049047
2025-07-15 16:12:42.559,-0.0168216327300863,-0.0584736397062018,-0.0752952717157518,0.0096378782149701
2025-07-15 16:12:42.563,-0.0146254450935861,-0.0620737754129256,-0.0766992198006406,0.0169950637760893
2025-07-15 16:12:42.567,-0.0165019744415148,-0.0639131616265811,-0.0804151353775287,0.0239022954712024
2025-07-15 16:12:42.571,-0.0201501113717682,-0.0580623509882312,-0.0782124616836441,0.0221070563414571
2025-07-15 16:12:42.575,-0.0207865425072272,-0.0510640657472771,-0.0718506075917157,0.0147379513615573
2025-07-15 16:12:42.579,-0.0188680255147366,-0.0502391221874749,-0.0691071470541897,0.0109354314215779
2025-07-15 16:12:42.583,-0.0185106827235483,-0.0523638214778278,-0.0708745035691814,0.0134934663980851
2025-07-15 16:12:42.587,-0.0187379543856484,-0.0499784681906785,-0.0687164219591132,0.015707172531216
2025-07-15 16:12:42.590,-0.0142678255889453,-0.0424277637645568,-0.0566955887502256,0.012175950767937
2025-07-15 16:12:42.594,-0.0048971775646224,-0.0357240612040908,-0.040621238180221,0.0079922738918749
2025-07-15 16:12:42.598,0.0032534036540928,-0.0354833346170941,-0.0322299303906669,0.0114739746217382
2025-07-15 16:12:42.602,0.0061039818273661,-0.0421797109551499,-0.036075728571163,0.0213054819101192
2025-07-15 16:12:42.606,0.0064704011725655,-0.0489872969601881,-0.0425168952454144,0.0274559965697151
2025-07-15 16:12:42.610,0.0107919269728497,-0.0448149778215711,-0.0340230503212869,0.0231186960617698
2025-07-15 16:12:42.614,0.0226139839794015,-0.0268787724120885,-0.004264787921534,0.0109237708511265
2025-07-15 16:12:42.618,0.0378649981844104,-0.0084310680040021,0.029433930675226,-0.0014598849836177
2025-07-15 16:12:42.622,0.0471020850045142,-0.003573312094778,0.0435287733895679,-0.0087603113218465
2025-07-15 16:12:42.626,0.0452832842004741,-0.0075164160630236,0.0377668686024678,-0.011749518380206
2025-07-15 16:12:42.630,0.0385839622946202,-0.005399719192238,0.0331842435511693,-0.0142871983597778
2025-07-15 16:12:42.633,0.037816148205078,0.003042642726928,0.0408587913640231,-0.0168482535619176
2025-07-15 16:12:42.637,0.0449826246012595,0.0043575422785231,0.0493401672962067,-0.0161109635636013
2025-07-15 16:12:42.641,0.0509277278454532,-0.0049759073784415,0.0459518208684874,-0.0129037369447759
2025-07-15 16:12:42.645,0.0476833469155711,-0.0139891423464318,0.0336942049545575,-0.0148978028154321
2025-07-15 16:12:42.649,0.0374985784798095,-0.0172988294271409,0.0201997494211209,-0.0250832496902534
2025-07-15 16:12:42.653,0.0264917850850548,-0.0218158680653104,0.0046759173720524,-0.0329442080676649
2025-07-15 16:12:42.657,0.0151264104811757,-0.0307152207612921,-0.0155888099429963,-0.0275202074049072
2025-07-15 16:12:42.661,0.0001755264056646,-0.0379725429614031,-0.0377970162344629,-0.0147829102343685
2025-07-15 16:12:42.665,-0.0176614820655681,-0.0423501975929374,-0.0600116793541484,-0.0089451542255821
2025-07-15 16:12:42.669,-0.0338748941442183,-0.0504335676000751,-0.0843084614564792,-0.0113287123017006
2025-07-15 16:12:42.673,-0.0460874387283801,-0.0621183771958382,-0.1082058156519032,-0.0123307376774796
2025-07-15 16:12:42.676,-0.0547644066657612,-0.0686805305920321,-0.1234449370011507,-0.0088832532294242
2025-07-15 16:12:42.680,-0.0594059762956007,-0.0689186023472921,-0.1283245784029352,-0.0062946546524096
2025-07-15 16:12:42.684,-0.0593641545223649,-0.0717749906313765,-0.1311391449305123,-0.0079130294104198
2025-07-15 16:12:42.688,-0.0579919412344106,-0.0783349842151878,-0.1363269252421866,-0.0125294063135244
2025-07-15 16:12:42.692,-0.0606776381118362,-0.0771388621068214,-0.1378165000268463,-0.0172487138879918
2025-07-15 16:12:42.696,-0.0673361942105369,-0.0649923515943421,-0.1323285456294358,-0.0187311126156465
2025-07-15 16:12:42.700,-0.0714994160989549,-0.0567710937053773,-0.1282705096455814,-0.0163819419213099
2025-07-15 16:12:42.704,-0.0699496650729267,-0.0630150991475115,-0.1329647640777401,-0.0146262520249198
2025-07-15 16:12:42.708,-0.0684360589044111,-0.0721844331966072,-0.1406204919739338,-0.0175685648455733
2025-07-15 16:12:42.712,-0.0726844024588425,-0.0695554841453168,-0.1422398864931194,-0.0229029838150267
2025-07-15 16:12:42.715,-0.0787849257690486,-0.0605878925241576,-0.139372818198626,-0.0252802261651048
2025-07-15 16:12:42.719,-0.0797058230334891,-0.059473856982915,-0.1391796799379437,-0.0243843820901467
2025-07-15 16:12:42.723,-0.0769394527157015,-0.0659747069547673,-0.1429141596076507,-0.0249167837272781
2025-07-15 16:12:42.727,-0.0773111871523116,-0.0696905297259558,-0.1470017168312108,-0.0279156469664381
2025-07-15 16:12:42.731,-0.0812865653066952,-0.0676189940270492,-0.1489055593027878,-0.0283080565729434
2025-07-15 16:12:42.735,-0.08274472915677,-0.0641399522000242,-0.146884681341822,-0.0244088298747791
2025-07-15 16:12:42.739,-0.0789263603190873,-0.065243431369858,-0.1441697916895692,-0.0214809582037756
2025-07-15 16:12:42.743,-0.0741063417038577,-0.082708678821454,-0.1568150205414431,-0.0203411659213563
2025-07-15 16:12:42.747,-0.0740974153006998,-0.124060945682887,-0.1981583610153998,-0.0132301453287981
2025-07-15 16:12:42.751,-0.079546158128078,-0.1693483876462163,-0.2488945458217755,0.0027644003663223
2025-07-15 16:12:42.755,-0.0801316247160472,-0.1894810683117616,-0.2696126930907027,0.0218231476367727
2025-07-15 16:12:42.758,-0.0554931395467722,-0.1946881280647214,-0.2501812676896327,0.0451334428717534
2025-07-15 16:12:42.762,0.0066054157619025,-0.2153679130292946,-0.208762497360795,0.0839915977849567
2025-07-15 16:12:42.766,0.095805686561677,-0.2273989635847861,-0.1315932771317581,0.1396312578747772
2025-07-15 16:12:42.770,0.2046600338559468,-0.1654511595749718,0.0392088741572408,0.1963890253805109
2025-07-15 16:12:42.774,0.3550480108916586,-0.0215505774326075,0.3334974333203936,0.2402343498538859
2025-07-15 16:12:42.778,0.5472799853997504,0.145728787287083,0.6930087725333269,0.2639181263383959
2025-07-15 16:12:42.782,0.6895037700896172,0.2992426782479791,0.9887464481693192,0.2488206397015713
2025-07-15 16:12:42.786,0.646162863837418,0.4402919633784413,1.0864548270329526,0.164501328584272
2025-07-15 16:12:42.790,0.3666388023758583,0.5569198864189142,0.923558688597366,-0.0056079443119335
2025-07-15 16:12:42.794,-0.0677607335029523,0.628445973509851,0.5606852397950816,-0.2445826002973985
2025-07-15 16:12:42.798,-0.4982708714704539,0.6487601918343613,0.1504893201378208,-0.494325095711625
2025-07-15 16:12:42.801,-0.7686864334823932,0.5990946936708649,-0.1695917400516854,-0.6649347559597718
2025-07-15 16:12:42.805,-0.8098886165606254,0.4492486423213013,-0.3606399744934335,-0.6886068789529753
2025-07-15 16:12:42.809,-0.6844042882071264,0.2179997022318383,-0.4664045862433055,-0.5815200345044486
2025-07-15 16:12:42.813,-0.523076392761948,-0.0134562307806021,-0.5365326238243078,-0.428328588955392
2025-07-15 16:12:42.817,-0.4134755275690946,-0.1682342132811111,-0.5817097411454106,-0.3017899271288781
2025-07-15 16:12:42.821,-0.3638069533300563,-0.2275981100108634,-0.5914050636494173,-0.2176875050553683
2025-07-15 16:12:42.825,-0.3432336257541234,-0.2190368159023496,-0.5622704419782842,-0.1580869863588963
2025-07-15 16:12:42.829,-0.3178571592299886,-0.1808987147653925,-0.4987558743303709,-0.1080837204505783
2025-07-15 16:12:42.833,-0.2653667142754378,-0.1433301413422769,-0.408696855965501,-0.0661639374167787
2025-07-15 16:12:42.837,-0.1907488012044971,-0.118739522087126,-0.309488323651967,-0.0364808149940761
2025-07-15 16:12:42.840,-0.1243633894652131,-0.0994433039282526,-0.2238066937664378,-0.0198160248130871
2025-07-15 16:12:42.844,-0.0885445367668045,-0.075027032475602,-0.163571569627955,-0.0107176763119335
2025-07-15 16:12:42.848,-0.0748431495110022,-0.0518352222674761,-0.126678372176171,-0.0030907482887539
2025-07-15 16:12:42.852,-0.0631996157326598,-0.0432064351089688,-0.1064060512510992,0.003200859413517
2025-07-15 16:12:42.856,-0.049196768521297,-0.0455404309999702,-0.0947371999425726,0.0048805445526352
2025-07-15 16:12:42.860,-0.0405520080790682,-0.0420798126458138,-0.0826318211580701,0.0018051466324446
2025-07-15 16:12:42.864,-0.0383874755988053,-0.0295808937768929,-0.0679683698203536,-0.0032870902314462
2025-07-15 16:12:42.868,-0.0354626604998414,-0.0226940286249719,-0.0581566895804428,-0.0082504121042769
2025-07-15 16:12:42.872,-0.0277837424998599,-0.0285497720491272,-0.0563335150155619,-0.0110794228914693
2025-07-15 16:12:42.876,-0.0182504261408259,-0.0349245536031684,-0.0531749802216371,-0.0094446911397584
2025-07-15 16:12:42.880,-0.0105282154405687,-0.0314490298342118,-0.0419772457631591,-0.0048513324142812
2025-07-15 16:12:42.883,-0.0046310710007554,-0.0265638996654695,-0.0311949711647735,-0.0057984196626908
2025-07-15 16:12:42.887,0.0016707943616371,-0.0312662733246469,-0.0295954794715735,-0.0211443961625831
2025-07-15 16:12:42.891,0.0092839410415137,-0.0388946000426695,-0.0296106595198719,-0.0485741213460812
2025-07-15 16:12:42.895,0.0167696301281171,-0.0366171048785376,-0.0198474752790657,-0.0762046529351563
2025-07-15 16:12:42.899,0.0230782682083127,-0.0275725887992258,-0.0044943211289239,-0.0980081664568679
2025-07-15 16:12:42.903,0.0295807076617368,-0.0245973259667016,0.0049833811479287,-0.1179141705076392
2025-07-15 16:12:42.907,0.0383417321676333,-0.0290656155004849,0.0092761161108562,-0.1342231046156936
2025-07-15 16:12:42.911,0.0503564100720715,-0.0326622816654505,0.0176941278412838,-0.1316801583302696
2025-07-15 16:12:42.915,0.0657070808566155,-0.0339241415852713,0.0317829386974703,-0.0983158035737504
2025-07-15 16:12:42.919,0.0827825925794103,-0.0371315430087772,0.0456510489885611,-0.0437282386976473
2025-07-15 16:12:42.923,0.0985893832488459,-0.0402675065530969,0.0583218761054649,0.0071015588299287
2025-07-15 16:12:42.926,0.1131616958244347,-0.0383590748598196,0.0748026203662288,0.036057626983747
2025-07-15 16:12:42.930,0.1306814854764661,-0.0341561993438329,0.0965252855265859,0.0455532204766563
2025-07-15 16:12:42.934,0.152540912259206,-0.0340674883407479,0.1184734233051026,0.0520510521501582
2025-07-15 16:12:42.938,0.1738173344807583,-0.0380102712466691,0.1358070626134764,0.0669851535724052
2025-07-15 16:12:42.942,0.1904606886456112,-0.0418230293763029,0.1486376586415598,0.0856223517024196
2025-07-15 16:12:42.946,0.2046531109542921,-0.0448446624930751,0.1598084478267279,0.0968343647755355
2025-07-15 16:12:42.950,0.2191728452881442,-0.0484895985106392,0.1706832461365987,0.0990879092705219
2025-07-15 16:12:42.954,0.2317350664554166,-0.0519515355277636,0.1797835302804003,0.09964171452529
2025-07-15 16:12:42.958,0.239097082916133,-0.0539858428817716,0.1851112393809128,0.10201326918881
2025-07-15 16:12:42.962,0.2426817244457803,-0.0547152662085375,0.1879664575779887,0.1043038566990271
2025-07-15 16:12:42.965,0.2462906534798497,-0.0535742880162995,0.1927163647987781,0.1072431301453735
2025-07-15 16:12:42.969,0.2513717225569344,-0.0505271856325579,0.2008445362541189,0.113022853795452
2025-07-15 16:12:42.973,0.2575617751590572,-0.0499393860528278,0.2076223884306352,0.1183097838541477
2025-07-15 16:12:42.977,0.2641989441205653,-0.0567281825999686,0.2074707608400905,0.1182040120871101
2025-07-15 16:12:42.981,0.2677977864212656,-0.0671594089842879,0.2006383767518464,0.1142799227307623
2025-07-15 16:12:42.985,0.2621267570088008,-0.0703951598008799,0.1917315965181218,0.1109522112229812
2025-07-15 16:12:42.989,0.2452035903953499,-0.0627950365777526,0.1824085531232223,0.1077772989366848
2025-07-15 16:12:42.993,0.2225598331126339,-0.0538916116986226,0.1686682207155368,0.1010977842772158
2025-07-15 16:12:42.997,0.1996761409449987,-0.0523695004671474,0.1473066397756255,0.0896255396803223
2025-07-15 16:12:43.001,0.1757945501319998,-0.0536748917582406,0.1221196576676603,0.0752752359315286
2025-07-15 16:12:43.005,0.1489779109920445,-0.0500130993854869,0.0989648108965423,0.0612905684469971
2025-07-15 16:12:43.008,0.1213380019733266,-0.0441245524641912,0.0772134487957036,0.0500611261738954
2025-07-15 16:12:43.012,0.0948828407847157,-0.0420625845887402,0.0528202554796096,0.0409181519083457
2025-07-15 16:12:43.016,0.0683409615173414,-0.0406821262835795,0.0276588345143169,0.0314820008459605
2025-07-15 16:12:43.020,0.042528617176121,-0.034497773285852,0.0080308431675125,0.0221453508727437
2025-07-15 16:12:43.024,0.0227518790255713,-0.0274766563894238,-0.0047247780894676,0.0164103978602737
2025-07-15 16:12:43.028,0.0112573073178467,-0.0263501178795379,-0.0150928112895007,0.0155160683945983
2025-07-15 16:12:43.032,0.0029765207046387,-0.0289278061159359,-0.0259512861413674,0.0150577629790467
2025-07-15 16:12:43.036,-0.0066973349170265,-0.0292462104348995,-0.0359435460846978,0.0091321210267589
2025-07-15 16:12:43.040,-0.0156648271601068,-0.0276264695548095,-0.0432912974501044,-0.0020082767157524
2025-07-15 16:12:43.044,-0.0211275453089559,-0.0266264820275461,-0.0477540280732799,-0.010790786089792
2025-07-15 16:12:43.048,-0.0253458336235434,-0.0237085612674978,-0.0490543956292764,-0.0112275739770313
2025-07-15 16:12:43.051,-0.030221811576749,-0.0163791396374894,-0.0466009519545261,-0.0066719994965909
2025-07-15 16:12:43.055,-0.0325872255030357,-0.0089599049899085,-0.0415471312352789,-0.0048889415159992
2025-07-15 16:12:43.059,-0.0304805898823071,-0.0067151288508972,-0.0371957194766851,-0.0077515507324226
2025-07-15 16:12:43.063,-0.0283283872787011,-0.0076079481350056,-0.0359363361579038,-0.0105504896343757
2025-07-15 16:12:43.067,-0.0304734648977324,-0.0060444129199966,-0.0365178785632672,-0.0097799908848294
2025-07-15 16:12:43.071,-0.0346135214368386,-0.0011747987993653,-0.0357883209834242,-0.0067185857010156
2025-07-15 16:12:43.075,-0.0363938268303275,0.003207711928689,-0.0331861156497157,-0.0037739631410509
2025-07-15 16:12:43.079,-0.0356324545426,0.0042154802270721,-0.0314169750637084,-0.0011550917196851
2025-07-15 16:12:43.083,-0.0337102545941684,0.0030393666448104,-0.0306708886981312,0.0025539490934428
2025-07-15 16:12:43.087,-0.0295645357492032,0.0044860927578481,-0.025078443741391,0.0077735975167011
2025-07-15 16:12:43.090,-0.0225572190181024,0.0122228989373371,-0.0103343208314822,0.0101307357208604
2025-07-15 16:12:43.094,-0.0154955964393688,0.0224242530446411,0.0069286558548891,0.0007738215567587
2025-07-15 16:12:43.098,-0.011279689013204,0.025436540302773,0.0141568505393248,-0.0229346136699476
2025-07-15 16:12:43.102,-0.0095270314261262,0.017321624304904,0.0077945921277867,-0.0480494643380635
2025-07-15 16:12:43.106,-0.0083368407542736,0.0078882783693267,-0.0004485631364761,-0.0559638142905725
2025-07-15 16:12:43.110,-0.0056370531077488,0.0125289793474264,0.0068919254887349,-0.0427022277125358
2025-07-15 16:12:43.114,0.0019909026442915,0.0338591349069474,0.0358500368010756,-0.023576305692479
2025-07-15 16:12:43.118,0.0159419102831307,0.0563021266300433,0.0722440361628724,-0.0165647497712778
2025-07-15 16:12:43.122,0.0296201433124355,0.065045752838997,0.0946658954007907,-0.0245826777381074
2025-07-15 16:12:43.126,0.0335105593054437,0.0644250087082243,0.0979355672637306,-0.0364081160167608
2025-07-15 16:12:43.130,0.0287157895713787,0.0670838325071774,0.0957996213298948,-0.041592639348443
2025-07-15 16:12:43.133,0.0266353652990788,0.0720743461910905,0.0987097107420268,-0.0384995062642957
2025-07-15 16:12:43.137,0.0321406369771843,0.0689437783270205,0.1010844145560285,-0.0308679636791492
2025-07-15 16:12:43.141,0.0368909460251014,0.0580406895167765,0.0949316347944554,-0.0246090714010832
2025-07-15 16:12:43.145,0.0333258940960429,0.0495052734758146,0.0828311668260349,-0.0253074915981889
2025-07-15 16:12:43.149,0.0250775985670116,0.0451305062935585,0.0702081041159032,-0.0321203883227387
2025-07-15 16:12:43.153,0.0173177981079759,0.0380724740686504,0.0553902714323611,-0.0370804960614969
2025-07-15 16:12:43.157,0.0058847127829961,0.0286335784069935,0.0345182904465471,-0.0347969258209069
2025-07-15 16:12:43.161,-0.0149998451170769,0.0237235068200869,0.0087236609613356,-0.0293848984275296
2025-07-15 16:12:43.165,-0.0403374103083533,0.0219038377657893,-0.0184335732825338,-0.0281536402027894
2025-07-15 16:12:43.169,-0.0593231533844697,0.0151343718665084,-0.0441887822569832,-0.0318397218146124
2025-07-15 16:12:43.173,-0.0688024472791578,0.0045249918936864,-0.0642774561234952,-0.0353026635875247
2025-07-15 16:12:43.176,-0.0734405746279226,-0.0005223003528699,-0.0739628757169619,-0.0348379962983591
2025-07-15 16:12:43.180,-0.0763892583539118,0.0019545920024395,-0.0744346670855091,-0.0309181898888095
2025-07-15 16:12:43.184,-0.0775301627475325,0.0044278725561126,-0.0731022909239006,-0.0270764723950419
2025-07-15 16:12:43.188,-0.0776983400706384,0.0026988886407997,-0.0749994521609919,-0.0276450153430812
2025-07-15 16:12:43.192,-0.0781919865037928,8.846646384719952e-05,-0.0781035207691568,-0.0322099367404114
2025-07-15 16:12:43.196,-0.0783826407806081,-0.0008098324686324,-0.0791924739760187,-0.0343792621966011
2025-07-15 16:12:43.200,-0.07787925115095,-0.0017591749370916,-0.0796384268126681,-0.0310114173060959
2025-07-15 16:12:43.204,-0.0783629058096166,-0.0035556317858715,-0.0819185383183198,-0.0270831554763008
2025-07-15 16:12:43.208,-0.0802165525611209,-0.0041399249291867,-0.0843564782110508,-0.0271073018094421
2025-07-15 16:12:43.212,-0.0805684028349547,-0.0036421989942394,-0.0842106025473198,-0.0294502042942913
2025-07-15 16:12:43.215,-0.07803405200699,-0.0052212567382419,-0.0832553094607023,-0.0321692844608896
2025-07-15 16:12:43.219,-0.076135254111433,-0.0085692085041313,-0.0847044633286925,-0.0367190015857088
2025-07-15 16:12:43.223,-0.0781286874136263,-0.0088334904468172,-0.0869621785712393,-0.0432517202327623
2025-07-15 16:12:43.227,-0.0816689967473734,-0.0049498962381335,-0.0866188936935655,-0.0474254414715643
2025-07-15 16:12:43.231,-0.0827550823436958,-0.0019768418755942,-0.0847319249243127,-0.0449950476077138
2025-07-15 16:12:43.235,-0.0815639297727866,-0.0032931512252675,-0.084857081700168,-0.0381337862046062
2025-07-15 16:12:43.239,-0.0803868735595374,-0.010970324064178,-0.0913571983231372,-0.0331427079721331
2025-07-15 16:12:43.243,-0.0799390678860775,-0.0332358199806106,-0.1131748885632464,-0.0306848379191359
2025-07-15 16:12:43.247,-0.0819179894409949,-0.0725394624316455,-0.1544574525658933,-0.0242973647499998
2025-07-15 16:12:43.251,-0.0892092713040756,-0.1065601157056731,-0.1957693876995616,-0.0115918557495259
2025-07-15 16:12:43.255,-0.0950906519041003,-0.1112779537010191,-0.2063686062917854,0.002205765540147
2025-07-15 16:12:43.258,-0.0776065450854877,-0.1051844300359967,-0.1827909758051113,0.0180178951086898
2025-07-15 16:12:43.262,-0.0199557551485667,-0.12505165794785,-0.1450074137765631,0.048605572191786
2025-07-15 16:12:43.266,0.0677788666651767,-0.148586948026548,-0.0808080820376352,0.1002392858675103
2025-07-15 16:12:43.270,0.1721382888734804,-0.1025918227949604,0.0695464654059052,0.1598491036785292
2025-07-15 16:12:43.274,0.3108011109613702,0.0349285029518748,0.3457296132439136,0.2092282316416807
2025-07-15 16:12:43.278,0.4904810421406475,0.2090751074171448,0.6995561488920495,0.2366277483225312
2025-07-15 16:12:43.282,0.6308698004768494,0.3716260977746378,1.0024958975899465,0.2253888945883984
2025-07-15 16:12:43.286,0.5987058583535037,0.5152369117604877,1.1139427694566026,0.1485790891868468
2025-07-15 16:12:43.290,0.333453194579647,0.6337559690629231,0.9672091629887896,-0.0125976138307387
2025-07-15 16:12:43.294,-0.0949855585778964,0.7165417947553756,0.6215562355273624,-0.2447158182242473
2025-07-15 16:12:43.298,-0.5281935536249421,0.7517234070765644,0.223529852805897,-0.4866477002390106
2025-07-15 16:12:43.301,-0.7949761195851377,0.6954671240348431,-0.0995089961913844,-0.6433075814392681
2025-07-15 16:12:43.305,-0.8124107114602794,0.50453092097075,-0.3078797911265671,-0.6497087961708891
2025-07-15 16:12:43.309,-0.6547303688472378,0.2275129685976109,-0.4272174008828719,-0.5320136025116922
2025-07-15 16:12:43.313,-0.4801400157734018,-0.0108316978703211,-0.4909717142724873,-0.3810272896124973
2025-07-15 16:12:43.317,-0.3830263695248467,-0.1328105361425106,-0.5158369062910736,-0.2665549326253766
2025-07-15 16:12:43.321,-0.3537153010987822,-0.1577571491235503,-0.5114724508414497,-0.1983934690621029
2025-07-15 16:12:43.325,-0.3482660230104686,-0.1394849304248923,-0.4877509540504333,-0.1550130798021418
2025-07-15 16:12:43.329,-0.3347098546386791,-0.1122915788705959,-0.4470014341198323,-0.1179794696546912
2025-07-15 16:12:43.333,-0.2926887261126448,-0.0900352114476863,-0.3827239381655649,-0.0814865356148863
2025-07-15 16:12:43.337,-0.2237040175750787,-0.0719143416896243,-0.2956183598647675,-0.0496371295851453
2025-07-15 16:12:43.340,-0.1564232688985824,-0.0475765482362904,-0.2039998177304732,-0.0286510655078461
2025-07-15 16:12:43.344,-0.1149701504683386,-0.0163608565904642,-0.1313310076497984,-0.0181858193489829
2025-07-15 16:12:43.348,-0.0937317527892326,0.0055242713148895,-0.0882074820598547,-0.0124383572887028
2025-07-15 16:12:43.352,-0.076417022203473,0.0078957964420671,-0.0685212263412268,-0.0082843980942606
2025-07-15 16:12:43.356,-0.0608472723001484,0.0036412416550032,-0.0572060312199401,-0.0063523262078935
2025-07-15 16:12:43.360,-0.052156522949012,0.0100178952596833,-0.042138628259295,-0.0056938658989239
2025-07-15 16:12:43.364,-0.0476690450452808,0.023748065469089,-0.0239209801405755,-0.0039840610750564
2025-07-15 16:12:43.368,-0.0413899031908468,0.0292453267802354,-0.0121445769689009,-0.0015290172481635
2025-07-15 16:12:43.372,-0.0344341564740947,0.0244506164743561,-0.0099835405523887,0.0009338382463099
2025-07-15 16:12:43.376,-0.0316271401942894,0.0222880154107762,-0.0093391253309557,0.0060895427037681
2025-07-15 16:12:43.380,-0.0325092901988563,0.0285563380476348,-0.0039529526929632,0.0154852278245439
2025-07-15 16:12:43.383,-0.0318915816277777,0.034223038891058,0.0023314567279148,0.0241402855684079
2025-07-15 16:12:43.387,-0.0266811055653046,0.031886035717339,0.0052049296228939,0.0267050378842802
2025-07-15 16:12:43.391,-0.0177354578624027,0.0261043130388089,0.0083688546529903,0.0260464034806977
2025-07-15 16:12:43.395,-0.0067305170272551,0.0230672460012056,0.0163367284564497,0.0283875540216008
2025-07-15 16:12:43.399,0.0046881412412371,0.0215823670079831,0.0262705077382955,0.0329574591443273
2025-07-15 16:12:43.403,0.0141900253273625,0.0190896627380035,0.0332796875611466,0.0345241860442808
2025-07-15 16:12:43.407,0.0217173518898473,0.0172135879640722,0.0389309393559884,0.033722396618814
2025-07-15 16:12:43.411,0.0314245207958034,0.0171188301226119,0.0485433504267128,0.0364455668978469
2025-07-15 16:12:43.415,0.0461424054445771,0.0164270939340346,0.062569498893641,0.0445984548789536
2025-07-15 16:12:43.419,0.0627902206132691,0.0135740895054543,0.0763643096407926,0.0546667149142279
2025-07-15 16:12:43.423,0.0780741411904981,0.009740170483039,0.0878143112024154,0.0637632219704536
2025-07-15 16:12:43.426,0.0947189046648628,0.004874385783305,0.0995932899836738,0.0721277983274351
2025-07-15 16:12:43.430,0.1165105927192487,-0.0030020101465942,0.1135085821150767,0.0811723476935345
2025-07-15 16:12:43.434,0.1408649104107652,-0.0128075945385253,0.1280573154219271,0.0906838744924702
2025-07-15 16:12:43.438,0.1618081623597569,-0.0194492722910395,0.142358889625641,0.0978095389013375
2025-07-15 16:12:43.442,0.1777106343133983,-0.0197560534496613,0.157954580427737,0.1009795794051232
2025-07-15 16:12:43.446,0.1915348531473797,-0.0156048300352977,0.1759300226832701,0.1031402025518695
2025-07-15 16:12:43.450,0.2052147396456443,-0.010710457065648,0.1945042821586457,0.1072059750418162
2025-07-15 16:12:43.454,0.2175882727611878,-0.0082864785397268,0.2093017938076802,0.112352339495464
2025-07-15 16:12:43.458,0.2274485087997544,-0.0108257047038655,0.2166228036896365,0.117777142459161
2025-07-15 16:12:43.462,0.2357614616145133,-0.0173802031215652,0.2183812580942519,0.1236839949683425
2025-07-15 16:12:43.465,0.2436851440871358,-0.0223221801926059,0.2213629635035183,0.1275655348588288
2025-07-15 16:12:43.469,0.2502745796206181,-0.0216172229730925,0.2286573562643284,0.1270105589928304
2025-07-15 16:12:43.473,0.2545160280983891,-0.0191206277598587,0.2353953999632478,0.1251054147612579
2025-07-15 16:12:43.477,0.2575877504262454,-0.0215732018639359,0.236014548195001,0.1259494077483079
2025-07-15 16:12:43.481,0.2593137787236018,-0.0281266194909328,0.2311871588733356,0.1276514104535291
2025-07-15 16:12:43.485,0.2551395210703466,-0.0310640376261121,0.2240754830929162,0.1259807847867475
2025-07-15 16:12:43.489,0.2416251588267667,-0.0272807169831239,0.2143444415005267,0.1209835743843857
2025-07-15 16:12:43.493,0.2217459553531976,-0.0216925701080619,0.2000533849104074,0.1149908082071163
2025-07-15 16:12:43.497,0.1999509271353652,-0.0180862039254692,0.1818647228835084,0.108491936588065
2025-07-15 16:12:43.501,0.1762229541815406,-0.015181364550938,0.1610415893124321,0.1006994860143424
2025-07-15 16:12:43.505,0.1495209108208628,-0.0135693567087092,0.1359515538023733,0.0900779395303475
2025-07-15 16:12:43.508,0.1220064613212129,-0.016764670724968,0.1052417902952098,0.0755071119502618
2025-07-15 16:12:43.512,0.0954918509686488,-0.0222826572719911,0.0732091934043902,0.0607496916387627
2025-07-15 16:12:43.516,0.0687568881934687,-0.0215138645097687,0.0472430233999131,0.0526528768461456
2025-07-15 16:12:43.520,0.0420829176104831,-0.0128918751164873,0.0291910422187325,0.0510621430228199
2025-07-15 16:12:43.524,0.0195279005599746,-0.0064839705511551,0.0130439297425713,0.0473390807896631
2025-07-15 16:12:43.528,0.0036070862264075,-0.0104355894942285,-0.0068285035248471,0.0366420752736469
2025-07-15 16:12:43.532,-0.0079874310954799,-0.0201106244306881,-0.0280980557743524,0.0253016096654242
2025-07-15 16:12:43.536,-0.0181014656040491,-0.0258347774355524,-0.0439362432791283,0.0218878869757434
2025-07-15 16:12:43.540,-0.0263744867324128,-0.0254609565025399,-0.0518354434652929,0.0253778914599902
2025-07-15 16:12:43.544,-0.0315796029419727,-0.0238706697465479,-0.055450272909208,0.0271276586791784
2025-07-15 16:12:43.548,-0.0341450648516092,-0.0242013372761116,-0.0583464023391035,0.0226061940393702
2025-07-15 16:12:43.551,-0.0343973543606067,-0.0252751850261422,-0.0596725395892828,0.0157908338738171
2025-07-15 16:12:43.555,-0.0317517341707472,-0.0261139113540515,-0.057865645718065,0.0122276257874631
2025-07-15 16:12:43.559,-0.0279367650170116,-0.0276633351919098,-0.0556001003921963,0.0127666063590716
2025-07-15 16:12:43.563,-0.0271539474956295,-0.0293364775011458,-0.0564904251702275,0.0147076923980613
2025-07-15 16:12:43.567,-0.0300476930504508,-0.0283260331334323,-0.0583737263482058,0.0158715735556822
2025-07-15 16:12:43.571,-0.0316702132581871,-0.0243014890969614,-0.0559717025101834,0.0170332987883054
2025-07-15 16:12:43.575,-0.0288032704888924,-0.0210087703833692,-0.0498120410171046,0.0204903232012483
2025-07-15 16:12:43.579,-0.0247016271437137,-0.0211439961564767,-0.0458456234346888,0.0257024999693661
2025-07-15 16:12:43.583,-0.0226939371621033,-0.0231335610953367,-0.0458274983823955,0.0290910728023745
2025-07-15 16:12:43.587,-0.0200719937080826,-0.0240342034600587,-0.0441061972837605,0.029196884555857
2025-07-15 16:12:43.590,-0.013450436953002,-0.0220230654375246,-0.0354735024958778,0.0276471010380239
2025-07-15 16:12:43.594,-0.0059109773753503,-0.0170672770652685,-0.0229782545351527,0.0255029208566059
2025-07-15 16:12:43.598,-0.0026649512728271,-0.0131601588248981,-0.0158251101821626,0.0237587604929303
2025-07-15 16:12:43.602,-0.002240351367254,-0.0157073137503699,-0.0179476651925528,0.0245538854039466
2025-07-15 16:12:43.606,0.0019237754591706,-0.0212564776549058,-0.0193327022603932,0.0270452501679875
2025-07-15 16:12:43.610,0.0122739683107637,-0.0173827829723558,-0.0051088147150718,0.02605731853984
2025-07-15 16:12:43.614,0.0244800547797442,-0.0006128964622207,0.0238671582747662,0.0184391329467105
2025-07-15 16:12:43.618,0.0328734093266668,0.0157292375701192,0.0486026468638635,0.0073824855378377
2025-07-15 16:12:43.622,0.0346692478437552,0.0212079847480384,0.0558772325691256,-0.0022748756708448
2025-07-15 16:12:43.626,0.0307700903609645,0.0230759423530913,0.0538460327027718,-0.0100525157584523
2025-07-15 16:12:43.630,0.025974874065697,0.0301343020532566,0.0561091761189976,-0.0169505823471469
2025-07-15 16:12:43.633,0.0259308009666075,0.0360298836180981,0.061960684595059,-0.0196549357244501
2025-07-15 16:12:43.637,0.0305955931217076,0.0320993562064129,0.0626949493487639,-0.0144483586795941
2025-07-15 16:12:43.641,0.0335255288894745,0.024156212631956,0.0576817415535099,-0.0045627539651907
2025-07-15 16:12:43.645,0.0304550642397372,0.0220818128134032,0.0525368770970306,0.0021120966885023
2025-07-15 16:12:43.649,0.0240968681067502,0.0228856382941241,0.0469825064556311,0.0004124883715899
2025-07-15 16:12:43.653,0.0164090838459009,0.0182509705843575,0.0346600544954395,-0.0078506542622432
2025-07-15 16:12:43.657,0.0026729178958218,0.0097875053190188,0.0124604232914025,-0.0140173127812999
2025-07-15 16:12:43.661,-0.019720704661734,0.0025326663052179,-0.0171880382678457,-0.0106586507951264
2025-07-15 16:12:43.665,-0.0433282080680688,-0.0071741119573897,-0.0505023199253736,-0.0015919518707305
2025-07-15 16:12:43.669,-0.0596289891946439,-0.0218665665978064,-0.0814955556816965,0.0025160824229841
2025-07-15 16:12:43.673,-0.0692185799817252,-0.030923808249296,-0.1001423881089791,-0.0018633048960301
2025-07-15 16:12:43.676,-0.0757655880292522,-0.0255069643071064,-0.101272552202114,-0.0086679478965084
2025-07-15 16:12:43.680,-0.0778814001803292,-0.0165520983087869,-0.0944334983430264,-0.0117316404990481
2025-07-15 16:12:43.684,-0.0752171393100439,-0.0198813762727195,-0.0950985154257036,-0.0106478332503046
2025-07-15 16:12:43.688,-0.0750030023839524,-0.0311470644089134,-0.1061500666245959,-0.0091192142664404
2025-07-15 16:12:43.692,-0.0825250927853707,-0.0346839972968703,-0.1172090899018461,-0.0109334649668632
2025-07-15 16:12:43.696,-0.090762566535667,-0.0307579119741059,-0.1215204783172891,-0.0160271068390102
2025-07-15 16:12:43.700,-0.0905121407814558,-0.0322983986217608,-0.1228105391994769,-0.0201193060285919
2025-07-15 16:12:43.704,-0.0857538160687114,-0.0385809705818648,-0.1243347864356556,-0.020370893947161
2025-07-15 16:12:43.708,-0.0864733205130646,-0.0365185569825527,-0.1229918772687422,-0.0191410108581144
2025-07-15 16:12:43.712,-0.0914989771974948,-0.0275566772974927,-0.1190556542559742,-0.0189423701810793
2025-07-15 16:12:43.715,-0.0924996520967807,-0.0280322210709434,-0.1205318729172606,-0.0186449668137596
2025-07-15 16:12:43.719,-0.0900646105298543,-0.0402750879248847,-0.1303396981930916,-0.0185474267428274
2025-07-15 16:12:43.723,-0.0913726016545331,-0.0476401935427967,-0.1390127949239236,-0.0217387686029085
2025-07-15 16:12:43.727,-0.0960637744758478,-0.0420877115467754,-0.1381514857371834,-0.0267311372284368
2025-07-15 16:12:43.731,-0.0978951470025495,-0.0334965553896226,-0.1313917020952281,-0.0274640474709329
2025-07-15 16:12:43.735,-0.096610964581923,-0.0294424479860382,-0.1260534122598452,-0.0233292094781422
2025-07-15 16:12:43.739,-0.0964935724946874,-0.0314047150356303,-0.1278982872106201,-0.0197771419825714
2025-07-15 16:12:43.743,-0.0978424219868728,-0.049830990186288,-0.1476734118416108,-0.0166744934357622
2025-07-15 16:12:43.747,-0.0999536683740379,-0.0900780594510424,-0.1900317274821019,-0.0067912498017912
2025-07-15 16:12:43.751,-0.1051648271374049,-0.1278028661661681,-0.2329676929494975,0.0111182377102786
2025-07-15 16:12:43.755,-0.1077617260659279,-0.1395073654862704,-0.2472690911867087,0.0306055088013918
2025-07-15 16:12:43.758,-0.0860133261568941,-0.1449080153896447,-0.2309213411693919,0.0526130357500384
2025-07-15 16:12:43.762,-0.0202134401998863,-0.1637724811844175,-0.1839859209958844,0.08674099595912
2025-07-15 16:12:43.766,0.0869818126812322,-0.1532490916915759,-0.0662672786109915,0.1332208030651682
2025-07-15 16:12:43.770,0.2224631654028662,-0.0608332354496511,0.1616299303637672,0.1803058857703307
2025-07-15 16:12:43.774,0.3768739722882817,0.0906611732072256,0.4675351459175023,0.22080823310751
2025-07-15 16:12:43.778,0.5162762954050415,0.2481610269861022,0.7644373228242142,0.2494823744803384
2025-07-15 16:12:43.782,0.5618092701407102,0.4048088479403638,0.9666181185248272,0.2427693093507456
2025-07-15 16:12:43.786,0.4439665267132626,0.5541476015611169,0.998114128729016,0.1667067519282607
2025-07-15 16:12:43.790,0.1675607693662255,0.6478867505950414,0.8154475204270586,0.0110602337721894
2025-07-15 16:12:43.794,-0.1964039356206153,0.6678983389005915,0.4714944037566134,-0.1969214376138123
2025-07-15 16:12:43.798,-0.5462329536973363,0.6467183893693929,0.1004854361590908,-0.4028877218997493
2025-07-15 16:12:43.801,-0.770273552484625,0.5783280468311136,-0.1919455051559934,-0.5397616437386801
2025-07-15 16:12:43.805,-0.8019675372318681,0.416013324587799,-0.3859542121357845,-0.559447393781992
2025-07-15 16:12:43.809,-0.6826858521212609,0.1778121905070723,-0.5048736610953359,-0.4733075867648911
2025-07-15 16:12:43.813,-0.5272793594156466,-0.0435785458001899,-0.5708579046868744,-0.3457644017313452
2025-07-15 16:12:43.817,-0.4202869572331075,-0.180665189661445,-0.600952146355537,-0.2366949824188567
2025-07-15 16:12:43.821,-0.3731621842962767,-0.2317627502177919,-0.6049249339647589,-0.1628831498346589
2025-07-15 16:12:43.825,-0.3595407620794795,-0.2215977526936739,-0.5811385142136276,-0.1134037959110812
2025-07-15 16:12:43.829,-0.3475785472176947,-0.1809994134705875,-0.528577960118942,-0.0773619613595744
2025-07-15 16:12:43.833,-0.3099854919138965,-0.1444445721350991,-0.4544300634700207,-0.048690841905059
2025-07-15 16:12:43.837,-0.2413504923534414,-0.1236332124111838,-0.3649837041758758,-0.0232263135454376
2025-07-15 16:12:43.841,-0.1660009373076167,-0.1012289841307232,-0.2672299208398173,-0.0026262154206469
2025-07-15 16:12:43.844,-0.1115978102960812,-0.0708106611740441,-0.1824084708621425,0.0084676684436653
2025-07-15 16:12:43.848,-0.0826117016104173,-0.0534827747193412,-0.1360944757125726,0.0131537241462899
2025-07-15 16:12:43.852,-0.0683404810659387,-0.0604735385657462,-0.1288140190052809,0.0200109561947479
2025-07-15 16:12:43.856,-0.0608106573710179,-0.0723147129021347,-0.1331253696375115,0.0297427158232524
2025-07-15 16:12:43.860,-0.0548188587387983,-0.0705841349727786,-0.1254029930669102,0.0353447196264129
2025-07-15 16:12:43.864,-0.0452947584904555,-0.0629616213109217,-0.1082563791479523,0.0348300721089867
2025-07-15 16:12:43.868,-0.033988582745481,-0.0623673271288302,-0.0963559092122214,0.0333526798934161
2025-07-15 16:12:43.872,-0.0284901598222015,-0.0632458610728293,-0.0917360202242852,0.0339072483616756
2025-07-15 16:12:43.876,-0.0292486898888662,-0.0546876940969325,-0.083936383306526,0.0344150886249908
2025-07-15 16:12:43.880,-0.0266360832782611,-0.0420749515858284,-0.0687110341765178,0.0331477637730388
2025-07-15 16:12:43.883,-0.0149104464645452,-0.0379664998559547,-0.0528769456247956,0.0308472288474282
2025-07-15 16:12:43.887,-0.0004902811344087,-0.0396529481042802,-0.0401432285349235,0.0277369715534723
2025-07-15 16:12:43.891,0.0085017347923594,-0.0341790952655145,-0.0256773597614113,0.0233415284222869
2025-07-15 16:12:43.895,0.0137681782865828,-0.0229197234713168,-0.0091515444651757,0.020158536765556
2025-07-15 16:12:43.899,0.0219194482294946,-0.0221605104099572,-0.000241061453287,0.0229869046551423
2025-07-15 16:12:43.903,0.0332588738594459,-0.0368014344623342,-0.003542559868238,0.032407872109948
2025-07-15 16:12:43.907,0.043088743258525,-0.0515270803913149,-0.0084383363907362,0.0432726576836663
2025-07-15 16:12:43.911,0.0517746177712497,-0.054138262641743,-0.0023636441211251,0.0519090963519673
2025-07-15 16:12:43.915,0.0649334388488238,-0.0511324395980285,0.0138010000072924,0.0593433802717526
2025-07-15 16:12:43.919,0.0833547408636381,-0.0522690761356909,0.0310856654913625,0.0653374573634333
2025-07-15 16:12:43.923,0.1009173357304395,-0.0550360761697004,0.0458812603309731,0.0670659871553661
2025-07-15 16:12:43.926,0.1142106313462876,-0.0539164891203688,0.0602941430029426,0.0667608266621782
2025-07-15 16:12:43.930,0.1271953494478853,-0.0525388919046538,0.0746564583268968,0.0712856702009653
2025-07-15 16:12:43.934,0.1440679649178696,-0.0567905486604403,0.0872774170474666,0.0806210248917093
2025-07-15 16:12:43.938,0.1633017970593724,-0.0639816057053848,0.099320192150242,0.0870127429215242
2025-07-15 16:12:43.942,0.18134255550215,-0.0667711259070703,0.1145714303975681,0.0875569366257395
2025-07-15 16:12:43.946,0.1970298615925831,-0.0632170272658598,0.1338128351353578,0.0867998988503996
2025-07-15 16:12:43.950,0.2093419100405673,-0.0578431440541138,0.1514987668009177,0.0875483446999089
2025-07-15 16:12:43.954,0.2161620241144599,-0.0556557998031127,0.160506225131404,0.0893793695680793
2025-07-15 16:12:43.958,0.2190433268407629,-0.0573849342919521,0.161658393374502,0.0930526563150796
2025-07-15 16:12:43.962,0.2240030316682326,-0.0586148922368799,0.1653881402626701,0.0985612065842814
2025-07-15 16:12:43.966,0.2339933353071828,-0.054292664490228,0.1797006716535526,0.1033115372919797
