Timestamp,Lead I (LA-RA),Lead II (LL-LA),Lead III (LL-RA),Vx-RL,FMS,Condition
2025-07-15 16:19:34.988,-0.0690063140582181,-0.0181645289498431,-0.0871708436377671,-0.0148165742584134,0,NB
2025-07-15 16:19:34.992,-0.0554755437282439,-0.0106071264965107,-0.0660826708521077,-0.0148489731905921,0,NB
2025-07-15 16:19:34.996,-0.0442400754615898,-0.0032887623977603,-0.0475288384843593,-0.0101416118242736,0,NB
2025-07-15 16:19:35.000,-0.0371325650432196,-0.0046604885661139,-0.0417930542319843,-0.0065196966843511,0,NB
2025-07-15 16:19:35.004,-0.0310943257638616,-0.0136101632207978,-0.0447044896048923,-0.0090636964931462,0,NB
2025-07-15 16:19:35.008,-0.0236580178210688,-0.0184628273432475,-0.0421208457820269,-0.0143227948463985,0,NB
2025-07-15 16:19:35.012,-0.0145813694501848,-0.0139351658754891,-0.0285165359407829,-0.017958222560648,0,NB
2025-07-15 16:19:35.016,-0.0057796519267444,-0.0068341001241733,-0.0126137526634467,-0.0200013312042996,0,NB
2025-07-15 16:19:35.020,-0.0007195042487788,-0.0034922394891634,-0.004211744347923,-0.0192677112690082,0,NB
2025-07-15 16:19:35.023,-0.000297157076883,-0.0020196270189264,-0.0023167847031313,-0.0134510983793215,0,NB
2025-07-15 16:19:35.027,0.0003244637845006,0.0008067811751969,0.0011312443551992,-0.0061673860993985,0,NB
2025-07-15 16:19:35.031,0.0070602849558873,0.0040929847569933,0.0111532691112012,-0.0047062871859941,0,NB
2025-07-15 16:19:35.035,0.0194412708643043,0.0070510665111972,0.0264923367765305,-0.0104188229449015,0,NB
2025-07-15 16:19:35.039,0.0316864408485585,0.0109650702474064,0.042651510499768,-0.0169798101415947,0,NB
2025-07-15 16:19:35.043,0.041309975217975,0.0140989513564468,0.0554089259812194,-0.0178826655101279,0,NB
2025-07-15 16:19:35.047,0.0515258257982009,0.0113802454647759,0.0629060706728177,-0.0127300768193733,0,NB
2025-07-15 16:19:35.051,0.0636176154359352,0.0023370658541637,0.0659546807028282,-0.005941046489642,0,NB
2025-07-15 16:19:35.055,0.0736708254575605,-0.0061047299680481,0.0675660949051228,-0.000819214802598,0,NB
2025-07-15 16:19:35.059,0.0802959455873979,-0.0078680714976138,0.0724278735085043,0.0036871075595191,0,NB
2025-07-15 16:19:35.063,0.0883965193533498,-0.0042517429303446,0.0841447758449397,0.0103285431329269,0,NB
2025-07-15 16:19:35.066,0.1012316403139649,0.0003616492483792,0.1015932889873334,0.0187134719915189,0,NB
2025-07-15 16:19:35.070,0.1156269749407712,0.0042578616989411,0.1198848360676852,0.0245385900833528,0,NB
2025-07-15 16:19:35.074,0.1282815277859077,0.006662650101367,0.1349441773184355,0.0247167071687721,0,NB
2025-07-15 16:19:35.078,0.1402712202562498,0.0055500332888029,0.1458212529795496,0.0216169491647847,0,NB
2025-07-15 16:19:35.082,0.152799868231635,0.0010860973216337,0.1538859649909672,0.0193972031490447,0,NB
2025-07-15 16:19:35.086,0.1639707164475386,-0.0031121702137938,0.1608585456745271,0.0182087762913921,0,NB
2025-07-15 16:19:35.090,0.1719943197171285,-0.0050221974184435,0.1669721217427062,0.0163402863896797,0,NB
2025-07-15 16:19:35.094,0.1781724074155927,-0.0064613363732751,0.171711070489744,0.0153894910260882,0,NB
2025-07-15 16:19:35.098,0.1849484666165095,-0.0085863058954363,0.1763621601718108,0.0178870752187655,0,NB
2025-07-15 16:19:35.102,0.1928107292060129,-0.0090219310228668,0.1837887976370605,0.0221447338157449,0,NB
2025-07-15 16:19:35.106,0.2009612908434119,-0.0055246672302744,0.1954366230703263,0.0241119239950095,0,NB
2025-07-15 16:19:35.109,0.2100984291968085,-0.0005053455019203,0.2095930831555013,0.0231441378479796,0,NB
2025-07-15 16:19:35.113,0.2216466986850462,0.0004408936598948,0.2220875918089209,0.023778131699755,0,NB
2025-07-15 16:19:35.117,0.2338794585532264,-0.004963836094818,0.2289156219256349,0.0310408008192076,0,NB
2025-07-15 16:19:35.121,0.241788327538968,-0.0121410718497333,0.2296472551597583,0.0426800342461332,0,NB
2025-07-15 16:19:35.125,0.2420328781300907,-0.0144339849274063,0.2275988926766072,0.0490834656635229,0,NB
2025-07-15 16:19:35.129,0.2359141550838051,-0.0108086118993357,0.2251055426617479,0.045456506451779,0,NB
2025-07-15 16:19:35.133,0.2261932779672334,-0.0061896122973737,0.2200036651504154,0.0391911525250015,0,NB
2025-07-15 16:19:35.137,0.2128420656947245,-0.0040624900933822,0.2087795750852145,0.0385790915539011,0,NB
2025-07-15 16:19:35.141,0.1940196797454144,-0.0026861367232024,0.1913335425094399,0.0401659903705649,0,NB
2025-07-15 16:19:35.145,0.1699802111333013,-0.000291732613693,0.1696884780101156,0.0353363172043662,0,NB
2025-07-15 16:19:35.148,0.143490442492186,0.0007433070593983,0.1442337490453243,0.024228472776269,0,NB
2025-07-15 16:19:35.152,0.1170880780730385,-0.0013134937943938,0.115774583775685,0.0142698450793841,0,NB
2025-07-15 16:19:35.156,0.0917348144436953,-0.0026305356299425,0.089104278314094,0.0080146103670992,0,NB
2025-07-15 16:19:35.160,0.067260001151696,0.0011302206365947,0.0683902212917992,0.0014415112639287,0,NB
2025-07-15 16:19:35.164,0.0433256755466231,0.0070210867870065,0.0503467618402669,-0.0066762315350319,0,NB
2025-07-15 16:19:35.168,0.0210602099587814,0.0077127465485889,0.0287729560172628,-0.0127228577585339,0,NB
2025-07-15 16:19:35.172,0.0031491916649514,0.0021477587118389,0.0052969498899475,-0.0159267884467155,0,NB
2025-07-15 16:19:35.176,-0.0093695927157983,-0.0024507372863487,-0.0118203304859267,-0.0197736844140024,0,NB
2025-07-15 16:19:35.180,-0.0188909060798102,-0.0013108790547325,-0.020201785615342,-0.025427977032776,0,NB
2025-07-15 16:19:35.184,-0.0277155293359069,0.0010036490957368,-0.0267118807178148,-0.0306174786713303,0,NB
2025-07-15 16:19:35.188,-0.0347838455362387,-0.0012590666070296,-0.0360429126176967,-0.034284638464463,0,NB
2025-07-15 16:19:35.191,-0.0382389260528586,-0.0056621455612137,-0.0439010720855354,-0.0372194909045278,0,NB
2025-07-15 16:19:35.195,-0.0389123653018353,-0.0068373363601058,-0.0457497021306109,-0.0397073049870644,0,NB
2025-07-15 16:19:35.199,-0.0387633389882095,-0.0065968609775167,-0.045360200431419,-0.0415424647834907,0,NB
2025-07-15 16:19:35.203,-0.0379170032117995,-0.010832005779188,-0.0487490094535573,-0.0420633069780829,0,NB
2025-07-15 16:19:35.207,-0.0356483788956514,-0.0187644605059938,-0.0544128398613417,-0.0397263438907167,0,NB
2025-07-15 16:19:35.211,-0.0327923334408736,-0.0232959885285433,-0.0560883224265097,-0.0352528242430412,0,NB
2025-07-15 16:19:35.215,-0.0312143814246217,-0.0217228773155729,-0.0529372591945366,-0.0332171887342393,0,NB
2025-07-15 16:19:35.219,-0.0317306144827068,-0.0193200346764239,-0.0510506496104914,-0.0361942456728527,0,NB
2025-07-15 16:19:35.223,-0.0333630036747133,-0.0213501259571512,-0.0547131300804395,-0.0416753368136173,0,NB
2025-07-15 16:19:35.227,-0.0340533845438579,-0.0264862762399158,-0.0605396612299103,-0.0470488344352237,0,NB
2025-07-15 16:19:35.231,-0.0326170115348063,-0.0294515562415758,-0.0620685682200121,-0.0505304039378591,0,NB
2025-07-15 16:19:35.234,-0.0304273509347986,-0.0276879062158178,-0.0581152575914551,-0.0488194957634215,0,NB
2025-07-15 16:19:35.238,-0.0294758778751974,-0.0248671493444889,-0.0543430276578431,-0.0417999197843544,0,NB
2025-07-15 16:19:35.242,-0.02855620296678,-0.0266876705321854,-0.0552438739348293,-0.0346445768611843,0,NB
2025-07-15 16:19:35.246,-0.0242062948696616,-0.0311468983693177,-0.0553531936725859,-0.0313279177038319,0,NB
2025-07-15 16:19:35.250,-0.0162405434281959,-0.0282738235771381,-0.0445143674363899,-0.0329978165027779,0,NB
2025-07-15 16:19:35.254,-0.0094826250576001,-0.0159746978653757,-0.0254573233514934,-0.039791834473636,0,NB
2025-07-15 16:19:35.258,-0.0083984745976897,-0.0075669976882464,-0.0159654727122958,-0.0466095038482145,0,NB
2025-07-15 16:19:35.262,-0.0114387635499469,-0.0121835163908561,-0.0236222803651343,-0.0455666123919879,0,NB
2025-07-15 16:19:35.266,-0.0117370122414485,-0.0173275121023111,-0.0290645247657986,-0.0393586467751759,0,NB
2025-07-15 16:19:35.270,-0.0032997727130631,-0.0063807756523398,-0.0096805487850781,-0.0405585275015728,0,NB
2025-07-15 16:19:35.273,0.012852672166785,0.0144830045742722,0.0273356763234116,-0.0527347347138569,0,NB
2025-07-15 16:19:35.277,0.0281577506977632,0.0247416888206363,0.052899439102583,-0.0656711382189697,0,NB
2025-07-15 16:19:35.281,0.0332546204393933,0.0202923732717903,0.0535469932973998,-0.0722729112300495,0,NB
2025-07-15 16:19:35.285,0.0270427704044804,0.0167896757876085,0.0438324457804609,-0.0762116111647301,0,NB
2025-07-15 16:19:35.289,0.0188600374774521,0.0226548433176505,0.0415148803853608,-0.081120710289392,0,NB
2025-07-15 16:19:35.293,0.0191765660705352,0.0275896604227787,0.0467662260852181,-0.0846086197463718,0,NB
2025-07-15 16:19:35.297,0.0277429330101877,0.0220207243054469,0.049763656909315,-0.0848225278629538,0,NB
2025-07-15 16:19:35.301,0.0343148189391178,0.0115963676431013,0.0459111861778173,-0.0843947424341141,0,NB
2025-07-15 16:19:35.305,0.0311932056920285,0.0054590347433687,0.0366522400327099,-0.085462690383472,0,NB
2025-07-15 16:19:35.309,0.0197590825362423,0.0030180953958215,0.0227771775308406,-0.0861168145762775,0,NB
2025-07-15 16:19:35.313,0.0041271920508967,-2.7711100444244643e-06,0.004124420541153,-0.0849560025160024,0,NB
2025-07-15 16:19:35.316,-0.0143898939480849,-0.0031085680666639,-0.0174984624127916,-0.0848072345794065,0,NB
2025-07-15 16:19:35.320,-0.0339162835180268,-0.0065901232826743,-0.0405064071972293,-0.0874268757446667,0,NB
2025-07-15 16:19:35.324,-0.0496734375387059,-0.0156932727859705,-0.0653667107199205,-0.0890278709007715,0,NB
2025-07-15 16:19:35.328,-0.0587233018902176,-0.0304050371935219,-0.0891283394776929,-0.0866706206675005,0,NB
2025-07-15 16:19:35.332,-0.0632013217400541,-0.0400698168800147,-0.1032711390126316,-0.0836775103290452,0,NB
2025-07-15 16:19:35.336,-0.0666294601584163,-0.0377607648603017,-0.1043902254099916,-0.0825253662416054,0,NB
2025-07-15 16:19:35.340,-0.0696697189188752,-0.0319888200657056,-0.1016585393747582,-0.0796834731749387,0,NB
2025-07-15 16:19:35.344,-0.0709002536668179,-0.0339944326743853,-0.1048946867303098,-0.0747373471664939,0,NB
2025-07-15 16:19:35.348,-0.0701727810371244,-0.0406412671332632,-0.1108140485583685,-0.0753068515397289,0,NB
2025-07-15 16:19:35.352,-0.0696053278147278,-0.0414893637961727,-0.1110946919978406,-0.0842463545752667,0,NB
2025-07-15 16:19:35.356,-0.0710500384082431,-0.0370255334334653,-0.1080755722277531,-0.0923262331031528,0,NB
2025-07-15 16:19:35.359,-0.0737724916484491,-0.0362505686392355,-0.1100230606728587,-0.0923458528506669,0,NB
2025-07-15 16:19:35.363,-0.0756489260957003,-0.0394769713636053,-0.1151258978435972,-0.0898757169189736,0,NB
2025-07-15 16:19:35.367,-0.0757552461101179,-0.0384484600145568,-0.1142037065081794,-0.092669283881595,0,NB
2025-07-15 16:19:35.371,-0.0747815651970249,-0.0329134601500358,-0.1076950257298793,-0.0992189878358106,0,NB
2025-07-15 16:19:35.375,-0.0738559383075312,-0.031887216039157,-0.1057431547288097,-0.103197148533472,0,NB
2025-07-15 16:19:35.379,-0.0740643402426216,-0.0369956355639966,-0.1110599761880515,-0.1015145678119716,0,NB
2025-07-15 16:19:35.383,-0.0763169789087204,-0.039092344986894,-0.1154093242764868,-0.0949043001078783,0,NB
2025-07-15 16:19:35.387,-0.0801824959573098,-0.0335944220706799,-0.1137769184083803,-0.0868871098576887,0,NB
2025-07-15 16:19:35.391,-0.0830297537274294,-0.026456651720582,-0.1094864058278572,-0.0834035264162302,0,NB
2025-07-15 16:19:35.395,-0.082133585815065,-0.0257578277318822,-0.1078914139262462,-0.0863872320207014,0,NB
2025-07-15 16:19:35.398,-0.0786496695833249,-0.0390643571308156,-0.1177140270930552,-0.0869462744168916,0,NB
2025-07-15 16:19:35.402,-0.0786029901615764,-0.0702202517863574,-0.1488232423265562,-0.0741029336401343,0,NB
2025-07-15 16:19:35.406,-0.0879593739722907,-0.1042359054030187,-0.1921952797535334,-0.0514042528202843,0,NB
2025-07-15 16:19:35.410,-0.1033954921000023,-0.1154218471359369,-0.2188173396137193,-0.0329102143469684,0,NB
2025-07-15 16:19:35.414,-0.1054437662027553,-0.110521983813503,-0.2159657503937705,-0.0198779974178861,0,NB
2025-07-15 16:19:35.418,-0.0667360953577521,-0.1278755817040092,-0.1946116774391333,0.0048178944044369,0,NB
2025-07-15 16:19:35.422,0.0220848652314719,-0.1618092267450638,-0.1397243618907003,0.0523102425856714,0,NB
2025-07-15 16:19:35.426,0.1401098328036537,-0.1392155522140103,0.0008942802129057,0.1103300419241877,0,NB
2025-07-15 16:19:35.430,0.2664959543214641,-0.0204087852822372,0.2460871686627003,0.1603986808714422,0,NB
2025-07-15 16:19:35.434,0.4068843705699256,0.1347499516205997,0.5416343218140343,0.1981965964976579,0,NB
2025-07-15 16:19:35.438,0.5506980519481661,0.2568235700517444,0.8075216216235566,0.2174983898075487,0,NB
2025-07-15 16:19:35.441,0.6188773035120532,0.3571091087324521,0.9759864118684471,0.1872574831101879,0,NB
2025-07-15 16:19:35.445,0.5113492991345784,0.4758137805840569,0.9871630793427592,0.0718603301032628,0,NB
2025-07-15 16:19:35.449,0.2078611067515662,0.6087090333334003,0.8165701397090702,-0.1303805967691087,0,NB
2025-07-15 16:19:35.453,-0.2015233096063145,0.7188224046726428,0.5172990946904733,-0.3774986624579822,0,NB
2025-07-15 16:19:35.457,-0.5623082669832802,0.7541599815240632,0.1918517141651564,-0.5933294267002662,0,NB
2025-07-15 16:19:35.461,-0.7348792479461865,0.654299085095148,-0.0805801632264818,-0.6932368949362376,0,NB
2025-07-15 16:19:35.465,-0.6878671845478536,0.4139397374419532,-0.2739274474813566,-0.6435183016937572,0,NB
2025-07-15 16:19:35.469,-0.5231442203866632,0.1271666280947334,-0.3959775926673991,-0.4990609536690789,0,NB
2025-07-15 16:19:35.473,-0.3755560784707868,-0.090529175760991,-0.4660852546070855,-0.3517729798332849,0,NB
2025-07-15 16:19:35.477,-0.3017823129019249,-0.2009227589407545,-0.5027050722178016,-0.2490207462808321,0,NB
2025-07-15 16:19:35.481,-0.2808688254143915,-0.2318516959085897,-0.5127205216980822,-0.1828595838771227,0,NB
2025-07-15 16:19:35.484,-0.2747257307798311,-0.2157422626692889,-0.4904679938242624,-0.1338670408163352,0,NB
2025-07-15 16:19:35.488,-0.255625518109135,-0.1764646883746681,-0.4320902068588584,-0.0944388049780001,0,NB
2025-07-15 16:19:35.492,-0.2106442759011831,-0.1372707936527686,-0.3479150699288424,-0.0634761250347297,0,NB
2025-07-15 16:19:35.496,-0.1504580495519918,-0.1070041749296561,-0.2574622248564807,-0.0424797549878477,0,NB
2025-07-15 16:19:35.500,-0.0997613395172055,-0.0779251482678371,-0.1776864881599247,-0.0329089998903387,0,NB
2025-07-15 16:19:35.504,-0.0700426754566105,-0.0499482169757013,-0.1199908928071866,-0.0299450738662142,0,NB
2025-07-15 16:19:35.508,-0.053931109934736,-0.0361025867178925,-0.0900336970273913,-0.0264032333521065,0,NB
2025-07-15 16:19:35.512,-0.0429656772713776,-0.0385320862145645,-0.081497763860619,-0.023097747579269,0,NB
2025-07-15 16:19:35.516,-0.0349576370204149,-0.0419636897843544,-0.0769213271794799,-0.0246557917982028,0,NB
2025-07-15 16:19:35.520,-0.0271813435978375,-0.0374431063186107,-0.0646244502912311,-0.027432134143676,0,NB
2025-07-15 16:19:35.523,-0.0169124593229698,-0.0328896175231304,-0.0498020772208744,-0.0237209491827661,0,NB
2025-07-15 16:19:35.527,-0.0074247680959134,-0.0343181747228138,-0.0417429431934375,-0.0158363326646773,0,NB
2025-07-15 16:19:35.531,-0.0029078030269923,-0.0347073368303488,-0.0376151402320726,-0.0139336073315636,0,NB
2025-07-15 16:19:35.535,0.0002636840795914,-0.0283142539495501,-0.0280505702448372,-0.0199048999221655,0,NB
2025-07-15 16:19:35.539,0.007931396697572,-0.0209470969567359,-0.0130157006341782,-0.0244846417956221,0,NB
2025-07-15 16:19:35.543,0.017447377271089,-0.0189995983826794,-0.001552221486623,-0.0223026353603059,0,NB
2025-07-15 16:19:35.547,0.0225454690206837,-0.0196854898805456,0.0028599787650798,-0.019064558147944,0,NB
2025-07-15 16:19:35.551,0.0252695439033813,-0.0182350381026585,0.0070345054254548,-0.0197378297673221,0,NB
2025-07-15 16:19:35.555,0.0324169582121494,-0.0163513082732457,0.016065649563328,-0.0203206108091698,0,NB
2025-07-15 16:19:35.559,0.0431710586160507,-0.0181576589891271,0.0250133992511751,-0.0170498766774852,0,NB
2025-07-15 16:19:35.563,0.0511614092674029,-0.0232988105564695,0.0278625983351093,-0.0136506041176653,0,NB
2025-07-15 16:19:35.566,0.0566939400525609,-0.0283619268062444,0.0283320128702286,-0.0135938095975587,0,NB
2025-07-15 16:19:35.570,0.0664466978517249,-0.0321413983641598,0.0343052991109937,-0.0136900342694635,0,NB
2025-07-15 16:19:35.574,0.0819635681834878,-0.0366710740164861,0.0452924937900458,-0.009014113248409,0,NB
2025-07-15 16:19:35.578,0.0971793487841828,-0.0436903267216267,0.0534890216854229,0.0018443832619386,0,NB
2025-07-15 16:19:35.582,0.1072778266545848,-0.0512165023739981,0.0560613239031483,0.0155314518854706,0,NB
2025-07-15 16:19:35.586,0.1151709727095071,-0.0552109861953004,0.0599599861361421,0.0238244269942545,0,NB
2025-07-15 16:19:35.590,0.1300750358171844,-0.0549123588654377,0.0751626765730674,0.0201909372672606,0,NB
2025-07-15 16:19:35.594,0.1587736868296679,-0.0529899421176102,0.1057837443330561,0.0092798078237541,0,NB
2025-07-15 16:19:35.598,0.1929527708697176,-0.0502319798498191,0.1427207906405623,0.002809190933792,0,NB
2025-07-15 16:19:35.602,0.2100364808431555,-0.0461022019659742,0.1639342784971346,0.0059211926545196,0,NB
2025-07-15 16:19:35.606,0.1984592237369679,-0.0436361310912804,0.1548230922648126,0.0142907295819997,0,NB
2025-07-15 16:19:35.609,0.1770521878605964,-0.0444649662803492,0.1325872211988673,0.0216027516982583,0,NB
2025-07-15 16:19:35.613,0.1724669023738081,-0.0401573028675872,0.1323095991244746,0.024387093633929,0,NB
2025-07-15 16:19:35.617,0.1819170605641932,-0.0210933189497769,0.1608237412319458,0.0232536064783925,0,NB
2025-07-15 16:19:35.621,0.1801832203918135,0.0044481583164539,0.1846313783248147,0.0224726372139459,0,NB
2025-07-15 16:19:35.625,0.1620525523621026,0.0131067650450123,0.1751593170229601,0.0260520252791254,0,NB
2025-07-15 16:19:35.629,0.1533420275439659,-0.0064804384744175,0.1468615886849751,0.033585238376587,0,NB
2025-07-15 16:19:35.633,0.1750300949852379,-0.0399986456569325,0.1350314489430478,0.040872102706583,0,NB
2025-07-15 16:19:35.637,0.216136485558611,-0.0655914660217132,0.1505450191505827,0.0444153025048448,0,NB
2025-07-15 16:19:35.641,0.2493269392066687,-0.0746668529844461,0.1746600858350196,0.0451398458962378,0,NB
2025-07-15 16:19:35.645,0.2602512440839933,-0.0711011331371187,0.1891501105591737,0.0475388926783088,0,NB
2025-07-15 16:19:35.648,0.25518711103276,-0.0630856661572952,0.1921014444871558,0.0547811446507282,0,NB
2025-07-15 16:19:35.652,0.247288132763438,-0.0603572806777265,0.1869308516963637,0.0649388808695019,0,NB
2025-07-15 16:19:35.656,0.2408087188054505,-0.0677206522310866,0.1730880661839825,0.0724687379112482,0,NB
2025-07-15 16:19:35.660,0.2294112397275271,-0.0781311050710542,0.1512801342654759,0.0734973823830052,0,NB
2025-07-15 16:19:35.664,0.209481291971102,-0.0811623546382667,0.1283189369412993,0.0696514904039814,0,NB
2025-07-15 16:19:35.668,0.1885479595553854,-0.076606806629506,0.1119411525334064,0.0657108188199883,0,NB
2025-07-15 16:19:35.672,0.1720877977856359,-0.0696965961311356,0.1023912012609257,0.0628707977337844,0,NB
2025-07-15 16:19:35.676,0.1472258042795668,-0.057273030938525,0.0899527729467234,0.0569858018229396,0,NB
2025-07-15 16:19:35.680,0.0964932800513899,-0.0320752765451712,0.0644180031114149,0.0453692652172453,0,NB
2025-07-15 16:19:35.684,0.0315280883764307,-0.0008070590183295,0.030721028962549,0.0316919318907497,0,NB
2025-07-15 16:19:35.688,-0.0073148224068705,0.0134021175653553,0.0060872947618961,0.0213814620382881,0,NB
2025-07-15 16:19:35.691,5.1354050394761264e-05,-0.0069628874959596,-0.0069115338429758,0.015459645507444,0,NB
2025-07-15 16:19:35.695,0.022721225859359,-0.0524575712281466,-0.0297363457666461,0.0114915463713968,0,NB
2025-07-15 16:19:35.699,0.0184416167755014,-0.0936730310727106,-0.0752314146955707,0.0086408180096085,0,NB
2025-07-15 16:19:35.703,-0.0104421324727262,-0.1099279907293816,-0.1203701236012951,0.0096608712098911,0,NB
2025-07-15 16:19:35.707,-0.0244545294293217,-0.1069007752307942,-0.1313553050601115,0.016910113556556,0,NB
2025-07-15 16:19:35.711,-3.677786941694815e-05,-0.107091107750282,-0.1071278860201234,0.0263337913614371,0,NB
2025-07-15 16:19:35.715,0.0469410499786477,-0.1254469717835823,-0.0785059222056185,0.0285153453165664,0,NB
2025-07-15 16:19:35.719,0.0828989435463953,-0.1507111532986881,-0.0678122101534776,0.0192887022864614,0,NB
2025-07-15 16:19:35.723,0.0823993627977866,-0.152163672972636,-0.0697643105767041,0.0070112191899735,0,NB
2025-07-15 16:19:35.727,0.0391936211911894,-0.1136433750284454,-0.07444975423952,0.0040913020835419,0,NB
2025-07-15 16:19:35.731,-0.0293388831366221,-0.057008773862423,-0.0863476574013742,0.0130003370129359,0,NB
2025-07-15 16:19:35.734,-0.0902714225768546,-0.0184321900248174,-0.1087036130041167,0.0256082795585908,0,NB
2025-07-15 16:19:35.738,-0.1188596994069628,-0.0077232616821938,-0.1265829614919915,0.0327197166783576,0,NB
2025-07-15 16:19:35.742,-0.1116730353905245,-0.0101710060897729,-0.1218440418834691,0.0300926277356101,0,NB
2025-07-15 16:19:35.746,-0.0765431323660651,-0.0208244267847248,-0.0973675595538844,0.0212471709364943,0,NB
2025-07-15 16:19:35.750,-0.025994835657315,-0.0488281109686241,-0.0748229470287548,0.016820766918738,0,NB
2025-07-15 16:19:35.754,0.0171909927657933,-0.0886302738178877,-0.0714392814548857,0.0242619981983266,0,NB
2025-07-15 16:19:35.758,0.0300413156870439,-0.1153737492525361,-0.0853324339684383,0.0389591166640145,0,NB
2025-07-15 16:19:35.762,0.0136677378782944,-0.1147516622617972,-0.1010839247862563,0.0507848563118873,0,NB
2025-07-15 16:19:35.766,-0.0073144392508975,-0.0978036667556745,-0.1051181064086927,0.0544837789728229,0,NB
2025-07-15 16:19:35.770,-0.0147252816214954,-0.0826399080734557,-0.0973651900965401,0.0510445491785829,0,NB
2025-07-15 16:19:35.773,-0.0140078868980813,-0.0762070372066952,-0.0902149245061946,0.0464713257306783,0,NB
2025-07-15 16:19:35.777,-0.0178743758117665,-0.0754401582668766,-0.0933145344797322,0.0489353581540199,0,NB
2025-07-15 16:19:35.781,-0.0248435045107772,-0.074388271157751,-0.0992317760686975,0.0598882137010771,0,NB
2025-07-15 16:19:35.785,-0.0218061414624868,-0.0675365381683247,-0.0893426800299068,0.0709606086572501,0,NB
2025-07-15 16:19:35.789,-0.0005990907375272,-0.0525619399823675,-0.0531610311183386,0.0739272941873044,0,NB
2025-07-15 16:19:35.793,0.0359329106975837,-0.0328507406704555,0.0030821696292338,0.0687904535491808,0,NB
2025-07-15 16:19:35.797,0.0784952205334908,-0.0175095267786551,0.0609856933580835,0.0604967892392701,0,NB
2025-07-15 16:19:35.801,0.1125039334581647,-0.0173116380232199,0.0951922950397622,0.0521770768581803,0,NB
2025-07-15 16:19:35.805,0.1200125887559503,-0.034638166106512,0.0853744222554874,0.0421864177497895,0,NB
2025-07-15 16:19:35.809,0.0940782154294645,-0.0549562911507824,0.0391219238856196,0.0279770432885805,0,NB
2025-07-15 16:19:35.813,0.0504820736512081,-0.0560049468042519,-0.0055228735447681,0.0146498138177638,0,NB
2025-07-15 16:19:35.816,0.014273216610999,-0.0330942731107971,-0.0188210568895488,0.0136782410325616,0,NB
2025-07-15 16:19:35.820,-0.0013526310065314,-0.0098812923554823,-0.011233923749923,0.0270916530969653,0,NB
2025-07-15 16:19:35.824,0.0060871220240194,-0.0128430838557229,-0.0067559622182589,0.0421660027984636,0,NB
2025-07-15 16:19:35.828,0.0360810860590707,-0.0388882123995901,-0.0028071267255134,0.0490399820791271,0,NB
2025-07-15 16:19:35.832,0.0756178253818093,-0.0620019003574357,0.0136159246416465,0.0507542519459657,0,NB
2025-07-15 16:19:35.836,0.0962826868810377,-0.0677851046064123,0.0284975818942834,0.0503536901165125,0,NB
2025-07-15 16:19:35.840,0.0773930391110363,-0.0657218709708169,0.0116711677617733,0.0449845666431046,0,NB
2025-07-15 16:19:35.844,0.0234362290678442,-0.0686871597667683,-0.0452509310755143,0.036977580285745,0,NB
2025-07-15 16:19:35.848,-0.0470083223102707,-0.0713808784417084,-0.1183892011260894,0.034444209165665,0,NB
2025-07-15 16:19:35.852,-0.1167718131683754,-0.0533818634711139,-0.1701536770108069,0.0391219255245259,0,NB
2025-07-15 16:19:35.856,-0.1687133794503167,-0.0089095467272792,-0.1776229265464928,0.0453604878787248,0,NB
2025-07-15 16:19:35.859,-0.1807356306842394,0.0280197574464081,-0.1527158736045087,0.0489016766657809,0,NB
2025-07-15 16:19:35.863,-0.1396605192514372,0.0100874534903587,-0.1295730661250849,0.0491917189857751,0,NB
2025-07-15 16:19:35.867,-0.0673148987424444,-0.0605563800942414,-0.1278712791976302,0.0477151199104873,0,NB
2025-07-15 16:19:35.871,-0.016200654000105,-0.1226111806616107,-0.1388118350198018,0.047931220084429,0,NB
2025-07-15 16:19:35.875,-0.0183437274116985,-0.1298116511826185,-0.1481553789497733,0.0519415542467806,0,NB
2025-07-15 16:19:35.879,-0.0483819244486444,-0.1078432049475375,-0.1562251297487309,0.0577614559323359,0,NB
2025-07-15 16:19:35.883,-0.0584717527641246,-0.1078257921306153,-0.1662975452440455,0.065010550592008,0,NB
2025-07-15 16:19:35.887,-0.0389634285913373,-0.1290499794486421,-0.1680134083861251,0.0779691787642764,0,NB
2025-07-15 16:19:35.891,-0.0221431791901943,-0.1294226957043124,-0.1515658752376346,0.0958999353662705,0,NB
2025-07-15 16:19:35.895,-0.0359953113713575,-0.0979765360078405,-0.1339718477191146,0.1075038232478107,0,NB
2025-07-15 16:19:35.898,-0.0756717709358803,-0.0702165288694189,-0.1458883001418021,0.1035786624945081,0,NB
2025-07-15 16:19:35.902,-0.1094009871007398,-0.0704059908167341,-0.1798069782506509,0.0900864308485032,0,NB
2025-07-15 16:19:35.906,-0.0955945721735791,-0.0790070101964635,-0.1746015826999247,0.0811184184101281,0,NB
2025-07-15 16:19:35.910,-0.0187012220215184,-0.0683314744781765,-0.0870326968260413,0.081165159309034,0,NB
2025-07-15 16:19:35.914,0.0704289209039484,-0.0439105149561134,0.0265184056251154,0.0817470778277492,0,NB
2025-07-15 16:19:35.918,0.0849218380824883,-0.0372745252313375,0.0476473125318333,0.0772969498187872,0,NB
2025-07-15 16:19:35.922,-0.0057291277615567,-0.0642447457041863,-0.0699738737816626,0.0761483078100954,0,NB
2025-07-15 16:19:35.926,-0.1502340831992534,-0.0951106672957488,-0.2453447508071417,0.0883337467848158,0,NB
2025-07-15 16:19:35.930,-0.2797507253870903,-0.0803311815695497,-0.3600819072649043,0.1077297564600199,0,NB
2025-07-15 16:19:35.934,-0.3440251712843929,-0.0238023595696316,-0.367827531158831,0.1186323246842571,0,NB
2025-07-15 16:19:35.938,-0.3038692917322271,-0.0096032952495426,-0.3134725872832421,0.1232986143195312,0,NB
2025-07-15 16:19:35.941,-0.158240681478412,-0.108648599578245,-0.2668892813542817,0.1479045143973221,0,NB
2025-07-15 16:19:35.945,0.0306827643158103,-0.2611615412897556,-0.2304787772674793,0.2054298924887991,0,NB
2025-07-15 16:19:35.949,0.1925164528510624,-0.313390353227058,-0.1208739006659826,0.2672880757604398,0,NB
2025-07-15 16:19:35.953,0.3232959758179586,-0.1960925941437653,0.1272033813873838,0.2992879422979363,0,NB
2025-07-15 16:19:35.957,0.4686694860462669,-0.0069291427149646,0.4617403430481935,0.3121351359839819,0,NB
2025-07-15 16:19:35.961,0.6322265115807777,0.1246216948097524,0.7568482061115942,0.3364585540373812,0,NB
2025-07-15 16:19:35.965,0.7338450547079263,0.1907634109481892,0.9246084653808484,0.3536654224254916,0,NB
2025-07-15 16:19:35.969,0.672951376434605,0.2725196807841336,0.9454710569465096,0.2939741811457426,0,NB
2025-07-15 16:19:35.973,0.4093471288062464,0.4165890474201274,0.8259361759575423,0.1101125261917649,0,NB
2025-07-15 16:19:35.977,-0.0100914357195764,0.5930743845931721,0.582982948608828,-0.1634610910711769,0,NB
2025-07-15 16:19:35.981,-0.4495717574416579,0.7182939596562594,0.2687222019536173,-0.4172960190807736,0,NB
2025-07-15 16:19:35.984,-0.7230490186934478,0.6940777701885048,-0.0289712487629106,-0.534513071383546,0,NB
2025-07-15 16:19:35.988,-0.7241810172819205,0.4849510744466696,-0.239229943090134,-0.4796974089760268,0,NB
2025-07-15 16:19:35.992,-0.5339160446457974,0.1727068610185949,-0.3612091838782923,-0.3243415451634017,0,NB
2025-07-15 16:19:35.996,-0.3419368976372305,-0.1044034808721823,-0.4463403787566638,-0.1707022743746163,0,NB
2025-07-15 16:19:36.000,-0.2674514280426125,-0.2603002404230327,-0.527751668709757,-0.0647467173341369,0,NB
2025-07-15 16:19:36.004,-0.2967275659478889,-0.2907323838151119,-0.5874599500042188,0.0056915463748476,0,NB
2025-07-15 16:19:36.008,-0.3540002103289827,-0.2364530174387172,-0.5904532280054797,0.0586076184053937,0,NB
2025-07-15 16:19:36.012,-0.3718613942129967,-0.1545688970317766,-0.5264302914787986,0.0941896457446048,0,NB
2025-07-15 16:19:36.016,-0.3215084992046508,-0.0966786614620481,-0.4181871608974267,0.1110262083381597,0,NB
2025-07-15 16:19:36.020,-0.228887315688211,-0.0791032359483913,-0.3079905518644898,0.1182353714677704,0,NB
2025-07-15 16:19:36.024,-0.1506406806386432,-0.0810853509012868,-0.2317260317647462,0.1267029630727695,0,NB
2025-07-15 16:19:36.027,-0.1128034709047815,-0.0800552608586902,-0.1928587319847876,0.1401537863812877,0,NB
2025-07-15 16:19:36.031,-0.0937427664284928,-0.0765449610003699,-0.1702877276467957,0.1561102803506212,0,NB
2025-07-15 16:19:36.035,-0.0719471763481046,-0.0818533049587848,-0.1538004815219124,0.16703838477297,0,NB
2025-07-15 16:19:36.039,-0.0539189855463355,-0.0939773570516441,-0.1478963428102112,0.1628119965107618,0,NB
2025-07-15 16:19:36.043,-0.0461321616423871,-0.0969112265036892,-0.1430433883551856,0.1421709377521608,0,NB
2025-07-15 16:19:36.047,-0.0377739658050336,-0.0836672199495645,-0.1214411859603941,0.1196990769390434,0,NB
2025-07-15 16:19:36.051,-0.025184895460172,-0.067217576938422,-0.0924024726013654,0.1105343028104017,0,NB
2025-07-15 16:19:36.055,-0.0210358192572671,-0.0623857286956554,-0.08342154815304,0.1105621503191722,0,NB
2025-07-15 16:19:36.059,-0.0264898216626077,-0.0702794361629046,-0.0967692580229094,0.1053661776425129,0,NB
2025-07-15 16:19:36.063,-0.0236259842901449,-0.0850741289125927,-0.1087001133970644,0.096814760530956,0,NB
2025-07-15 16:19:36.066,-0.0071057144402909,-0.0990552012384822,-0.1061609158700116,0.1024380015962673,0,NB
2025-07-15 16:19:36.070,0.0044554089917148,-0.1004441352775644,-0.09598872647443,0.1248440051462493,0,NB
2025-07-15 16:19:36.074,0.0008391672987005,-0.0882803868313054,-0.0874412197187854,0.1414741595409093,0,NB
2025-07-15 16:19:36.078,-0.001551756193553,-0.0863791128714559,-0.0879308692484921,0.1362047227826116,0,NB
2025-07-15 16:19:36.082,0.0119676049724923,-0.1152550028098014,-0.1032873980177758,0.1244622785486878,0,NB
2025-07-15 16:19:36.086,0.0298369435385179,-0.1549486791345202,-0.1251117357737332,0.1310520925711876,0,NB
2025-07-15 16:19:36.090,0.0358739866736212,-0.1676609547218278,-0.1317869682237114,0.1564711167092484,0,NB
2025-07-15 16:19:36.094,0.0377333873550124,-0.1522691269596146,-0.1145357397778142,0.1820213565769398,0,NB
2025-07-15 16:19:36.098,0.0516819719554325,-0.1400523776302968,-0.0883704058452825,0.1972322840379479,0,NB
2025-07-15 16:19:36.102,0.0720864857399102,-0.1417285521395033,-0.0696420665671985,0.2071307441814831,0,NB
2025-07-15 16:19:36.106,0.0818881411180007,-0.1407093518805982,-0.0588212109279775,0.2211405531863124,0,NB
2025-07-15 16:19:36.109,0.0846236457394607,-0.1355492141565492,-0.050925568580495,0.2427237337588936,0,NB
2025-07-15 16:19:36.113,0.0982485040292492,-0.1443696787395114,-0.0461211748712087,0.2610362828305022,0,NB
2025-07-15 16:19:36.117,0.1222869015058269,-0.1642113151594701,-0.0419244138117883,0.2575084873895726,0,NB
2025-07-15 16:19:36.121,0.1387623266173119,-0.1638360614702684,-0.0250737350087669,0.2327516309946499,0,NB
2025-07-15 16:19:36.125,0.1436007694833674,-0.1250020638692663,0.0185987054600933,0.20988495568927,0,NB
2025-07-15 16:19:36.129,0.150957033760619,-0.0673073814382459,0.0836496521704546,0.1993857968977428,0,NB
2025-07-15 16:19:36.133,0.1661208399658342,-0.0277753141419035,0.1383455256746699,0.1873206801072346,0,NB
2025-07-15 16:19:36.137,0.1779952010953587,-0.030653590749635,0.1473416101989307,0.1679179168756293,0,NB
2025-07-15 16:19:36.141,0.1805341609903135,-0.0730997079801937,0.1074344528651288,0.1597277877626616,0,NB
2025-07-15 16:19:36.145,0.1830037587642231,-0.124962357407603,0.0580414012134104,0.1802233488471011,0,NB
2025-07-15 16:19:36.149,0.1982937312352919,-0.148897918338937,0.0493958127555449,0.220264556236137,0,NB
2025-07-15 16:19:36.152,0.2303694261994623,-0.1322345489708378,0.0981348770903573,0.2495713416149456,0,NB
2025-07-15 16:19:36.156,0.2656612818467382,-0.0924722307125752,0.1731890509978343,0.2454568629177339,0,NB
2025-07-15 16:19:36.160,0.2759696005452472,-0.054960810613864,0.2210087897966668,0.2139430516935043,0,NB
2025-07-15 16:19:36.164,0.2501576820127167,-0.0428966005807929,0.2072610812992922,0.1800226484962633,0,NB
2025-07-15 16:19:36.168,0.2206536270302209,-0.074769640867197,0.1458839860328914,0.1644762387810563,0,NB
2025-07-15 16:19:36.172,0.2268499891833986,-0.1381579455161136,0.0886920435392864,0.1731683397322717,0,NB
2025-07-15 16:19:36.176,0.2534340075581304,-0.1787952130862428,0.0746387943454991,0.1940007330644582,0,NB
2025-07-15 16:19:36.180,0.2456590624308911,-0.1535093552589755,0.0921497070473104,0.2035481121580576,0,NB
2025-07-15 16:19:36.184,0.1892398557452314,-0.0843332665904596,0.1049065890324802,0.1916849658388588,0,NB
2025-07-15 16:19:36.188,0.1297076244071173,-0.0281487769908362,0.1015588472962849,0.1705789892327076,0,NB
2025-07-15 16:19:36.191,0.1037783636439379,-0.0077080131293816,0.0960703503963228,0.150265887954214,0,NB
2025-07-15 16:19:36.195,0.0966030322365917,-0.0052808197292484,0.0913222123906922,0.1271823297981822,0,NB
2025-07-15 16:19:36.199,0.0793901097134691,-0.0090748255091094,0.0703152840897314,0.1010412979969633,0,NB
2025-07-15 16:19:36.203,0.0500080414106356,-0.0268462955411634,0.0231617457571867,0.0792134787569368,0,NB
2025-07-15 16:19:36.207,0.0226152634225494,-0.0552319719951108,-0.032616708682844,0.0662152214446273,0,NB
2025-07-15 16:19:36.211,0.0048447837547825,-0.0715136821912827,-0.0666688985452473,0.0644462023307297,0,NB
2025-07-15 16:19:36.215,-0.0046970137768552,-0.0658623792949259,-0.0705593931788298,0.0756842020192234,0,NB
2025-07-15 16:19:36.219,-0.0122376652794241,-0.0546566208261431,-0.0668942862103803,0.0916950072219164,0,NB
2025-07-15 16:19:36.223,-0.0251889549567835,-0.0504125641021941,-0.0756015191615468,0.0935303912918412,0,NB
2025-07-15 16:19:36.227,-0.043625002079675,-0.0404890533495757,-0.084114055530163,0.0687164381536522,0,NB
2025-07-15 16:19:36.231,-0.0579705735739929,-0.0080217546231502,-0.0659923282966248,0.0261215671659557,0,NB
2025-07-15 16:19:36.234,-0.0615986831686138,0.0363720391968891,-0.0252266440692301,-0.0099944734609522,0,NB
2025-07-15 16:19:36.238,-0.0601470490424268,0.052391779787246,-0.0077552693503063,-0.018598766665084,0,NB
2025-07-15 16:19:36.242,-0.061800029714159,0.007526016057027,-0.0542740137503642,0.0052060301005237,0,NB
2025-07-15 16:19:36.246,-0.0648522315840591,-0.0763796020848916,-0.1412318337608947,0.0436098678521707,0,NB
2025-07-15 16:19:36.250,-0.0634621417045929,-0.1300439725744375,-0.1935061143693569,0.0590283511701648,0,NB
2025-07-15 16:19:36.254,-0.0603803933861725,-0.1084760601278322,-0.168856453601991,0.0268279174193766,0,NB
2025-07-15 16:19:36.258,-0.0629060892484532,-0.0395254854935236,-0.102431574827807,-0.026462846271693,0,NB
2025-07-15 16:19:36.262,-0.069019841055129,0.0170345467219619,-0.0519852944176952,-0.0476720464793509,0,NB
2025-07-15 16:19:36.266,-0.070120397451306,0.0381488163145824,-0.0319715812200082,-0.0263763773025559,0,NB
2025-07-15 16:19:36.270,-0.0663847255581311,0.0444681171684168,-0.0219166084708937,-0.0029927335549431,0,NB
2025-07-15 16:19:36.274,-0.0657020659963767,0.0571507371785911,-0.0085513288966138,-0.0057585257505921,0,NB
2025-07-15 16:19:36.277,-0.0684334684850532,0.0733017847262778,0.0048683161638663,-0.0219024946620094,0,NB
2025-07-15 16:19:36.281,-0.0679271040537446,0.0808077828280208,0.0128806786978822,-0.0321800191901861,0,NB
2025-07-15 16:19:36.285,-0.0643748576323052,0.0784972500189353,0.0141223923119675,-0.0349782170719757,0,NB
2025-07-15 16:19:36.289,-0.0635980711234237,0.0743741076629104,0.0107760364672285,-0.034817088762629,0,NB
2025-07-15 16:19:36.293,-0.0642395935158225,0.0717902259318054,0.0075506323454561,-0.034229942763036,0,NB
2025-07-15 16:19:36.297,-0.0586863176839751,0.0677859301456507,0.0090996123919981,-0.0361721833018379,0,NB
2025-07-15 16:19:36.301,-0.0461395223635128,0.0651630346048427,0.0190235121729605,-0.039497153529253,0,NB
2025-07-15 16:19:36.305,-0.0370844301699379,0.0732512310543556,0.0361668008183253,-0.0376629640970234,0,NB
2025-07-15 16:19:36.309,-0.0418880624728495,0.0895774947302614,0.0476894321933042,-0.0292203677336968,0,NB
2025-07-15 16:19:36.313,-0.0547418147598876,0.0960531636611696,0.0413113488380717,-0.0193591877592262,0,NB
2025-07-15 16:19:36.316,-0.0540854387185631,0.0862064100518094,0.0321209712709501,-0.0085909590950756,0,NB
2025-07-15 16:19:36.320,-0.0274759932055286,0.0782671444336721,0.0507911511678129,0.004676000175838,0,NB
2025-07-15 16:19:36.324,0.0084914975821066,0.0847377134236764,0.0932292109475766,0.0111427504631828,0,NB
2025-07-15 16:19:36.328,0.0264747315962929,0.0904728591504386,0.1169475906895874,0.0016669757262765,0,NB
2025-07-15 16:19:36.332,0.0225365406561594,0.0807753638400818,0.1033119044397332,-0.0100586646509974,0,NB
2025-07-15 16:19:36.336,0.0158656365513573,0.0690247118111679,0.0848903483075633,0.0002414433906777,0,NB
2025-07-15 16:19:36.340,0.0187215678355336,0.075269757327074,0.0939913251097427,0.0331232894104797,0,NB
2025-07-15 16:19:36.344,0.0249303657376499,0.0963258233592216,0.1212561890452691,0.0634100308611143,0,NB
2025-07-15 16:19:36.348,0.0258677745916241,0.1155741288336302,0.1414419033741551,0.0706411509081954,0,NB
2025-07-15 16:19:36.352,0.021655521286774,0.1265729098055156,0.1482284310422932,0.0573677569424001,0,NB
2025-07-15 16:19:36.356,0.016660177933398,0.1305686312930796,0.1472288091783712,0.0404092270826664,0,NB
2025-07-15 16:19:36.359,0.0128941042655073,0.1236994145539931,0.1365935187727996,0.0344255117241752,0,NB
2025-07-15 16:19:36.363,0.0063090582228446,0.1041101454637002,0.1104192036403456,0.0429966868687003,0,NB
2025-07-15 16:19:36.367,-0.0112372766316568,0.083787259444033,0.0725499827669019,0.0582636248417791,0,NB
2025-07-15 16:19:36.371,-0.0394090682433306,0.0774419997352706,0.0380329314480124,0.0651812190561378,0,NB
2025-07-15 16:19:36.375,-0.0623876874657537,0.0849870696316444,0.0225993821233797,0.0493929317245081,0,NB
2025-07-15 16:19:36.379,-0.0672774185240712,0.0961348917380545,0.0288574731720357,0.009408257569415,0,NB
2025-07-15 16:19:36.383,-0.0648412712376,0.1031253950676695,0.038284123788587,-0.0369444725675691,0,NB
2025-07-15 16:19:36.387,-0.0721144186485404,0.0994163208354898,0.027301902146619,-0.0654142561943009,0,NB
2025-07-15 16:19:36.391,-0.0770365583647318,0.0802748026820295,0.0032382442782404,-0.0680772846463981,0,NB
2025-07-15 16:19:36.395,-0.0518944649594607,0.0574817284134543,0.0055872634155319,-0.0587962750810565,0,NB
2025-07-15 16:19:36.399,-0.0085688638759753,0.0583469142365016,0.0497780503223693,-0.0538499674958663,0,NB
2025-07-15 16:19:36.402,0.003987630920223,0.0928217990087828,0.0968094298916234,-0.053607955887487,0,NB
2025-07-15 16:19:36.406,-0.0241944625887068,0.1328028731316253,0.1086084105065359,-0.0502374980594071,0,NB
2025-07-15 16:19:36.410,-0.0482362434972838,0.1449969056189382,0.096760662085804,-0.045736744009187,0,NB
2025-07-15 16:19:36.414,-0.0549644128797506,0.1369011345461446,0.0819367216307471,-0.0483801808878011,0,NB
2025-07-15 16:19:36.418,-0.0912122805527618,0.1417625502313883,0.0505502696434603,-0.056180596584273,0,NB
2025-07-15 16:19:36.422,-0.1689094624268737,0.1599579555609324,-0.0089515069004288,-0.0588338068216,0,NB
2025-07-15 16:19:36.426,-0.2220470087802482,0.1555762833884168,-0.0664707254259641,-0.0521746283606122,0,NB
2025-07-15 16:19:36.430,-0.2029393100218592,0.1206745033239336,-0.0822648067319692,-0.0382964538701669,0,NB
2025-07-15 16:19:36.434,-0.1504513499872697,0.0957789994700503,-0.0546723505509869,-0.0180764636255893,0,NB
2025-07-15 16:19:36.438,-0.1205225569627309,0.1047263418306469,-0.0157962151654557,0.0048489354972149,0,NB
2025-07-15 16:19:36.441,-0.1097662477051003,0.114694210648139,0.0049279629097724,0.0208067878705196,0,NB
2025-07-15 16:19:36.445,-0.0895623585265505,0.0913629085763457,0.0018005500164411,0.0245016322922035,0,NB
2025-07-15 16:19:36.449,-0.0731435695704694,0.0605008858362203,-0.012642683767479,0.0213297923359381,0,NB
2025-07-15 16:19:36.453,-0.1094407683574895,0.0861152763630057,-0.023325492027502,0.0179878468822903,0,NB
2025-07-15 16:19:36.457,-0.2200636513145923,0.1969188592732075,-0.0231447920745346,0.0149140153007188,0,NB
2025-07-15 16:19:36.461,-0.3527725654212441,0.3329404816443814,-0.019832083810346,0.0131518436658892,0,NB
2025-07-15 16:19:36.465,-0.3972709962527856,0.3627171022925755,-0.0345538939937395,0.0231368112438139,0,NB
2025-07-15 16:19:36.469,-0.2674743768900562,0.2031306967976781,-0.0643436801257937,0.0587488450722028,0,NB
2025-07-15 16:19:36.473,0.0044641401253564,-0.0415244749360019,-0.0370603348443424,0.1201799084132439,0,NB
2025-07-15 16:19:36.477,0.2707779517349153,-0.1332175533672419,0.1375603983333834,0.188925157249693,0,NB
2025-07-15 16:19:36.481,0.4144901893640174,0.0281066106389168,0.442596799968365,0.2454884790870387,0,NB
2025-07-15 16:19:36.484,0.4865304045686868,0.2592284520815526,0.7457588566157012,0.2847948990499068,0,NB
2025-07-15 16:19:36.488,0.618506352166506,0.3216535475570654,0.9401598996886994,0.30468674288923,0,NB
2025-07-15 16:19:36.492,0.795931423566511,0.2214103130021092,1.0173417365329531,0.2852322032688914,0,NB
2025-07-15 16:19:36.496,0.82459702438177,0.1693978890787859,0.9939949134243368,0.1918911024516053,0,NB
2025-07-15 16:19:36.500,0.5543109759956097,0.3081288908699845,0.8624398668292865,0.0053621459367813,0,NB
2025-07-15 16:19:36.504,0.0592149209430349,0.5768794260377517,0.6360943469441638,-0.2436884174057196,0,NB
2025-07-15 16:19:36.508,-0.4223008613386083,0.7961391730495672,0.373838311673466,-0.4669636132434555,0,NB
2025-07-15 16:19:36.512,-0.6819587308583942,0.8175684714241855,0.1356097405275321,-0.5686415963807903,0,NB
2025-07-15 16:19:36.516,-0.683808799275738,0.6289613856798908,-0.0548474136343344,-0.5245745867630732,0,NB
2025-07-15 16:19:36.520,-0.5561449498850781,0.3535150910062091,-0.2026298589176404,-0.3988273472967027,0,NB
2025-07-15 16:19:36.524,-0.4648298907340331,0.1417420688298407,-0.3230878219438179,-0.27319627661546,0,NB
2025-07-15 16:19:36.527,-0.4851597459045403,0.0650905169419402,-0.4200692290031337,-0.1817906922945362,0,NB
2025-07-15 16:19:36.531,-0.5566471389924025,0.1023904026408006,-0.4542567363925225,-0.1176910093788008,0,NB
2025-07-15 16:19:36.535,-0.5533018495982096,0.1873831308026692,-0.3659187188367498,-0.0711144850511385,0,NB
2025-07-15 16:19:36.539,-0.4289066511716016,0.2510251036851772,-0.1778815475284312,-0.0402159327490401,0,NB
2025-07-15 16:19:36.543,-0.260654076355201,0.2425120227377818,-0.0181420536604009,-0.0176197248208315,0,NB
2025-07-15 16:19:36.547,-0.1198472259265333,0.1494798820151562,0.0296326560451134,0.0095141472561523,0,NB
2025-07-15 16:19:36.551,-0.0040532129334698,0.019129343550071,0.0150761305727769,0.0408609297609583,0,NB
2025-07-15 16:19:36.555,0.0571508069574843,-0.0656934118822613,-0.0085426049693212,0.0616744962283181,0,NB
2025-07-15 16:19:36.559,-0.011627244239494,-0.0640133704077085,-0.0756406146927285,0.0655756399148591,0,NB
2025-07-15 16:19:36.563,-0.1726618714889855,-0.0146513252061851,-0.1873131967413435,0.0608535263646259,0,NB
2025-07-15 16:19:36.566,-0.2602533842630437,0.0201554440460912,-0.2400979402634971,0.0532188957654416,0,NB
2025-07-15 16:19:36.570,-0.1866611170412075,0.0187626386345162,-0.1678984784538905,0.0421623842384019,0,NB
2025-07-15 16:19:36.574,-0.0414846183940718,-0.0050526667021904,-0.046537285144412,0.0315221161301469,0,NB
2025-07-15 16:19:36.578,0.0420082034752947,-0.0317736978625422,0.0102345055638649,0.02550422835104,0,NB
2025-07-15 16:19:36.582,0.020974328144709,-0.0397484834539398,-0.0187741553585697,0.0196227331938553,0,NB
2025-07-15 16:19:36.586,-0.0645605933783027,-0.0083353292186987,-0.0728959226469521,0.0078529944430509,0,NB
2025-07-15 16:19:36.590,-0.1482611257988207,0.0571171238019486,-0.0911440020477089,-0.0090702574430134,0,NB
2025-07-15 16:19:36.594,-0.1736236994535443,0.1148129657525896,-0.0588107337525694,-0.0282349333841684,0,NB
2025-07-15 16:19:36.598,-0.1306067820526584,0.1219573955512533,-0.0086493865535461,-0.0475774489949438,0,NB
2025-07-15 16:19:36.602,-0.0629065864314627,0.0780389715452904,0.0151323850611028,-0.0625249520683961,0,NB
2025-07-15 16:19:36.606,-0.0101485717577557,0.0181855571304015,0.008036985319133,-0.0691043517164753,0,NB
2025-07-15 16:19:36.609,0.0323334641597035,-0.0268585705263632,0.0054748935790803,-0.0704277933025552,0,NB
2025-07-15 16:19:36.613,0.0668275109373995,-0.04215698925844,0.0246705216241317,-0.0728835798469216,0,NB
2025-07-15 16:19:36.617,0.0576991120952234,-0.0165313982672248,0.0411677137726021,-0.0773327055482445,0,NB
2025-07-15 16:19:36.621,-0.0052551544067522,0.0412168499914682,0.0359616955286432,-0.0791767544420861,0,NB
2025-07-15 16:19:36.625,-0.0547040051905319,0.081599065035049,0.0268950597877948,-0.0744051558384738,0,NB
2025-07-15 16:19:36.629,-0.0203139246518393,0.0550053261763847,0.0346914014672666,-0.0621814556868019,0,NB
2025-07-15 16:19:36.633,0.0745098561152037,-0.024103361666156,0.0504064943912064,-0.0448215150556574,0,NB
2025-07-15 16:19:36.637,0.147402240641601,-0.0894792764339998,0.0579229641491815,-0.0276206474846354,0,NB
2025-07-15 16:19:36.641,0.1650089047330922,-0.0995225225029101,0.0654863821712553,-0.0173062919765079,0,NB
2025-07-15 16:19:36.645,0.1611463014073001,-0.0705667667016954,0.0905795346461926,-0.01794540046959,0,NB
2025-07-15 16:19:36.649,0.1649995753625536,-0.0385806272054342,0.1264189480971463,-0.0230248213258439,0,NB
2025-07-15 16:19:36.652,0.1685737431418952,-0.019767534172979,0.148806208908418,-0.0141206138968551,0,NB
2025-07-15 16:19:36.656,0.1631035556068995,-0.0111019861891576,0.1520015693568899,0.0193617041155016,0,NB
2025-07-15 16:19:36.660,0.1606595713965201,-0.0063326821721947,0.1543268891631294,0.0615736865858607,0,NB
2025-07-15 16:19:36.664,0.1705948439126655,-0.0037958238224723,0.1667990200284669,0.088970553053431,0,NB
2025-07-15 16:19:36.668,0.1833734952172799,-0.0056121475732335,0.177761347581802,0.103070503122167,0,NB
2025-07-15 16:19:36.672,0.187087447068508,-0.0113951177021874,0.1756923293038488,0.1246995036524151,0,NB
2025-07-15 16:19:36.676,0.1843057681880483,-0.0148407724046258,0.169464995720809,0.161535916471622,0,NB
2025-07-15 16:19:36.680,0.186334556203104,-0.0121101953924471,0.1742243607476125,0.2013522760177131,0,NB
2025-07-15 16:19:36.684,0.1986869263646725,-0.0102402227305286,0.1884467035705567,0.2334105185748845,0,NB
2025-07-15 16:19:36.688,0.2153301832714361,-0.0175116312294992,0.1978185519781672,0.2593940371532792,0,NB
2025-07-15 16:19:36.691,0.2248818366773286,-0.0279711591306028,0.1969106774830166,0.2836159894289588,0,NB
2025-07-15 16:19:36.695,0.2234977680374891,-0.0284624408824341,0.1950353270910857,0.3046682894300908,0,NB
2025-07-15 16:19:36.699,0.2207998043082663,-0.0206629755944945,0.2001368286492408,0.3195226092622703,0,NB
2025-07-15 16:19:36.703,0.226470147373728,-0.0198022749648052,0.2066678723441627,0.329221140308863,0,NB
2025-07-15 16:19:36.707,0.2322325465552715,-0.0284846677987981,0.2037478786919248,0.3366530674418918,0,NB
2025-07-15 16:19:36.711,0.2203001940551372,-0.0313675198821225,0.1889326741084447,0.3414446954211733,0,NB
2025-07-15 16:19:36.715,0.1901284690292486,-0.0232105656859714,0.1669179032781987,0.3412661804914221,0,NB
2025-07-15 16:19:36.719,0.1579167579765032,-0.0204438678471716,0.1374728900639323,0.3373841249321537,0,NB
2025-07-15 16:19:36.723,0.1295388417919463,-0.0318750430463685,0.0976637986804594,0.3331807330108057,0,NB
2025-07-15 16:19:36.727,0.0978543634285541,-0.038337564977437,0.0595167983862505,0.3271932103466952,0,NB
2025-07-15 16:19:36.731,0.0645025519014216,-0.0203460141644438,0.0441565376717607,0.3160091620668933,0,NB
2025-07-15 16:19:36.734,0.0397742649567325,0.0077452804893014,0.0475195453804035,0.3042410921689452,0,NB
2025-07-15 16:19:36.738,0.0257358023776167,0.0136821349070435,0.039417937219269,0.3011171263869862,0,NB
2025-07-15 16:19:36.742,0.0138126995359437,-0.0055767977490813,0.0082359017219578,0.3065366547481956,0,NB
2025-07-15 16:19:36.746,-0.0120907428194157,-0.01413140257749,-0.0262221454619067,0.3098268227508671,0,NB
2025-07-15 16:19:36.750,-0.0644353310018535,0.0167018628926152,-0.0477334681746834,0.3025201882519321,0,NB
2025-07-15 16:19:36.754,-0.1190104394696806,0.0654703003693006,-0.0535401391657112,0.2869630080378509,0,NB
2025-07-15 16:19:36.758,-0.1206583547377583,0.0806501739130842,-0.0400081808893712,0.2741327749125675,0,NB
2025-07-15 16:19:36.762,-0.0655682000167791,0.0457477389051329,-0.0198204611761197,0.2739881426617037,0,NB
2025-07-15 16:19:36.766,-0.0326768989476418,0.0038868993875853,-0.0287899996248909,0.2833825770026716,0,NB
2025-07-15 16:19:36.770,-0.0736054463647498,-0.0021545202618374,-0.0757599666914676,0.2865670227089424,0,NB
2025-07-15 16:19:36.774,-0.1286812225092189,0.0093953679605166,-0.1192858546129325,0.274891311786629,0,NB
2025-07-15 16:19:36.777,-0.1198084644880833,-0.0048699465760938,-0.1246784111278773,0.2595545558763789,0,NB
2025-07-15 16:19:36.781,-0.0618238148395722,-0.0431651347812614,-0.1049889496846969,0.2554037931007459,0,NB
2025-07-15 16:19:36.785,-0.0144364724219755,-0.0708919112412337,-0.0853283837272521,0.2599406934733729,0,NB
2025-07-15 16:19:36.789,0.0085423123130235,-0.0784934782266899,-0.0699511659771739,0.2588618768324742,0,NB
2025-07-15 16:19:36.793,0.020854643188019,-0.0825467844415167,-0.0616921413162511,0.2454730628331142,0,NB
2025-07-15 16:19:36.797,0.0183422602192426,-0.0902141552996041,-0.0718718951429862,0.2240327681200456,0,NB
2025-07-15 16:19:36.801,0.0002790961461848,-0.0929137026150343,-0.0926346065316887,0.1980144661999101,0,NB
2025-07-15 16:19:36.805,-0.0159088919341861,-0.0799258928082087,-0.0958347848048891,0.165957122335543,0,NB
2025-07-15 16:19:36.809,-0.0267707441603816,-0.0496774260196971,-0.0764481702417204,0.1308166698661834,0,NB
2025-07-15 16:19:36.813,-0.0437716253290663,-0.0207668699748288,-0.0645384953650751,0.104543888524335,0,NB
2025-07-15 16:19:36.816,-0.058679578891975,-0.0213915165713809,-0.0800710955246425,0.0948993792631051,0,NB
2025-07-15 16:19:36.820,-0.0538954904808039,-0.0523387811357762,-0.106234271677708,0.0920362550330644,0,NB
2025-07-15 16:19:36.824,-0.0387174297114163,-0.0784900729296655,-0.1172075027013994,0.0802748385907126,0,NB
2025-07-15 16:19:36.828,-0.0327590461923801,-0.0721413227000333,-0.1049003689519857,0.0621245435989027,0,NB
2025-07-15 16:19:36.832,-0.0300182309848897,-0.0451850076418044,-0.0752032386861522,0.0562566157150693,0,NB
2025-07-15 16:19:36.836,-0.017766460082133,-0.0252839345842059,-0.043050394725763,0.0705808652636169,0,NB
2025-07-15 16:19:36.840,-0.0089636936541006,-0.0201429216468189,-0.0291066153596944,0.0925895009263055,0,NB
2025-07-15 16:19:36.844,-0.01874306947513,-0.0196073684096137,-0.0383504379426124,0.1091191198186402,0,NB
2025-07-15 16:19:36.848,-0.0297287560579667,-0.0167410533871405,-0.046469809502589,0.1217217124841494,0,NB
2025-07-15 16:19:36.852,-0.0165733816796142,-0.0115929172516795,-0.0281662989887642,0.1393758507674766,0,NB
2025-07-15 16:19:36.856,0.0111180911036272,-0.0037812901337916,0.0073368009127955,0.1675121661136986,0,NB
2025-07-15 16:19:36.859,0.0237105771823774,0.0063776055965323,0.0300881827227864,0.2059970145591482,0,NB
2025-07-15 16:19:36.863,0.0173912022733022,0.0143857097412541,0.0317769119590779,0.2487227649755026,0,NB
2025-07-15 16:19:36.867,0.012905577962151,0.0173487027999982,0.0302542807067825,0.2871971312361013,0,NB
2025-07-15 16:19:36.871,0.0169605621381998,0.0195220542579409,0.0364826163410229,0.3248205724008318,0,NB
2025-07-15 16:19:36.875,0.0174370121192871,0.0248910415281723,0.0423280535931506,0.3822027665659532,0,NB
2025-07-15 16:19:36.879,0.0130709414937615,0.0268247456667957,0.0398956871070718,0.4709248355509589,0,NB
2025-07-15 16:19:36.883,0.0160930389637591,0.0149290126106599,0.0310220515212267,0.5619569439599992,0,NB
2025-07-15 16:19:36.887,0.0244384774316614,-0.0070660541293736,0.0173724232492508,0.6013341969341819,0,NB
2025-07-15 16:19:36.891,0.0200052981355244,-0.0237362044735445,-0.0037309063904226,0.566727678934062,0,NB
2025-07-15 16:19:36.895,-0.0014101910451131,-0.0333472703599874,-0.0347574614566177,0.4929157845417939,0,NB
2025-07-15 16:19:36.899,-0.0231765023422309,-0.0539954886233299,-0.0771719910165791,0.4310564855652956,0,NB
2025-07-15 16:19:36.902,-0.0355051358686892,-0.0950032014072942,-0.1305083373268177,0.3917991040734616,0,NB
2025-07-15 16:19:36.906,-0.047621532641898,-0.1395657574052386,-0.1871872900974866,0.3357909542022786,0,NB
2025-07-15 16:19:36.910,-0.0659315106400645,-0.1666639371746578,-0.2325954478642176,0.2215748511700692,0,NB
2025-07-15 16:19:36.914,-0.080077613913759,-0.174152031863285,-0.2542296458258649,0.0631486034262432,0,NB
2025-07-15 16:19:36.918,-0.0804390934797825,-0.1714323975043799,-0.2518714910326647,-0.0717816996623133,0,NB
2025-07-15 16:19:36.922,-0.0743021356746889,-0.1660224657330853,-0.2403246014558482,-0.1349043038742498,0,NB
2025-07-15 16:19:36.926,-0.0735629208304436,-0.1655568764461149,-0.2391197973238413,-0.1584121111207978,0,NB
2025-07-15 16:19:36.930,-0.0773175423627487,-0.1756114694162758,-0.2529290118255096,-0.220703042423952,0,NB
2025-07-15 16:19:36.934,-0.0776561442654001,-0.1867379697198322,-0.2643941140311941,-0.3534890746138291,0,NB
2025-07-15 16:19:36.938,-0.0746213993659387,-0.1819511089562191,-0.2565725083676183,-0.5077886771027936,0,NB
2025-07-15 16:19:36.941,-0.0743034428024954,-0.165068958452185,-0.2393724012993851,-0.6163463823109017,0,NB
2025-07-15 16:19:36.945,-0.0768217982216601,-0.1592534852307545,-0.2360752834962627,-0.6635712550694735,0,NB
2025-07-15 16:19:36.949,-0.0763195101579468,-0.1698555637316819,-0.2461750739327523,-0.6827935217429622,0,NB
2025-07-15 16:19:36.953,-0.0710818124617424,-0.1766426208127318,-0.2477244333169264,-0.7055252763643081,0,NB
2025-07-15 16:19:36.957,-0.0655996716275402,-0.1713399129163549,-0.2369395845855637,-0.7294051996160865,0,NB
2025-07-15 16:19:36.961,-0.0633260657779133,-0.1712974292000727,-0.2346234950187918,-0.7326259007008287,0,NB
2025-07-15 16:19:36.965,-0.0635668865617066,-0.1850594365648042,-0.2486263231664578,-0.7100351835120626,0,NB
2025-07-15 16:19:36.969,-0.0645613573874256,-0.1941672007270113,-0.2587285581535079,-0.6826997971981936,0,NB
2025-07-15 16:19:36.973,-0.0648156125607714,-0.1813881875975816,-0.2462038001965344,-0.6712340597568267,0,NB
2025-07-15 16:19:36.977,-0.0626379634775467,-0.1545002448222516,-0.2171382083371221,-0.6759801029036853,0,NB
2025-07-15 16:19:36.981,-0.0579671802365405,-0.1343096444553143,-0.1922768247282701,-0.686701317773311,0,NB
2025-07-15 16:19:36.984,-0.0541969516451165,-0.1361918039877315,-0.1903887556682008,-0.6949369546768966,0,NB
2025-07-15 16:19:36.988,-0.056521595553558,-0.1622551017897748,-0.2187766973776116,-0.6926451057158567,0,NB
2025-07-15 16:19:36.992,-0.0675082305672536,-0.1933475627777277,-0.2608557933783583,-0.6726354717158141,0,NB
2025-07-15 16:19:36.996,-0.0813010609008429,-0.1998272271716947,-0.2811282881050062,-0.6352529474852142,0,NB
2025-07-15 16:19:37.000,-0.0789895093065862,-0.1846958620328713,-0.26368537137073,-0.5868033552758344,0,NB
2025-07-15 16:19:37.004,-0.0351465603479856,-0.1912653003359025,-0.2264118607138563,-0.5310806417608762,0,NB
2025-07-15 16:19:37.008,0.0573263498876545,-0.228856256796079,-0.1715299069373572,-0.470831832024517,0,NB
2025-07-15 16:19:37.012,0.1719607930642526,-0.2293752880740935,-0.0574144950378534,-0.413591636628655,0,NB
2025-07-15 16:19:37.016,0.2836894890411851,-0.1384288380593161,0.1452606509551344,-0.3612886241565917,0,NB
2025-07-15 16:19:37.020,0.4115360864782089,-0.0049118860545819,0.4066242003984358,-0.3020983743207713,0,NB
2025-07-15 16:19:37.024,0.5739396700030277,0.093579126916245,0.6675187968953448,-0.2384923845850102,0,NB
2025-07-15 16:19:37.027,0.7000399064333294,0.1647086472136281,0.8647485536240268,-0.215248843253593,0,NB
2025-07-15 16:19:37.031,0.6538238408286277,0.26843435101653,0.9222581918235592,-0.2878005119685568,0,NB
2025-07-15 16:19:37.035,0.3695159190978251,0.4215506942914193,0.791066613369397,-0.4645604859886322,0,NB
2025-07-15 16:19:37.039,-0.0671061788838457,0.583789992568692,0.5166838136665496,-0.6926018469361788,0,NB
2025-07-15 16:19:37.043,-0.466251610905293,0.6828915582642341,0.2166399473418106,-0.8847124643448453,0,NB
2025-07-15 16:19:37.047,-0.6588186733174033,0.6404766993937528,-0.0183419739393899,-0.9633240076391684,0,NB
2025-07-15 16:19:37.051,-0.6168211476441973,0.4424411182895617,-0.174380029368478,-0.9101393438375708,0,NB
2025-07-15 16:19:37.055,-0.4632382188525117,0.1838304089324004,-0.2794078099321194,-0.7785820387948276,0,NB
2025-07-15 16:19:37.059,-0.3432815964621004,-0.0116770056355048,-0.3549586021082113,-0.6443340186751946,0,NB
2025-07-15 16:19:37.063,-0.3033572404556364,-0.1020461599481238,-0.4054034004128916,-0.5481267093366716,0,NB
2025-07-15 16:19:37.066,-0.3034631101629932,-0.1234684493573053,-0.4269315595274441,-0.4866493003827064,0,NB
2025-07-15 16:19:37.070,-0.2947441569619108,-0.1170177215280817,-0.411761878495065,-0.4406933494392893,0,NB
2025-07-15 16:19:37.074,-0.2554076324193736,-0.1004918120302324,-0.355899444453008,-0.402317456679214,0,NB
2025-07-15 16:19:37.078,-0.1900844922188224,-0.0824207355294736,-0.2725052277501031,-0.3778701747950687,0,NB
2025-07-15 16:19:37.082,-0.1224335496893591,-0.0648818065626259,-0.1873153562517616,-0.3691562110274832,0,NB
2025-07-15 16:19:37.086,-0.0736367496209508,-0.0446780532472605,-0.118314802865756,-0.3624644934902667,0,NB
2025-07-15 16:19:37.090,-0.0438422488151552,-0.0282197230981929,-0.0720619719089726,-0.3456117395787581,0,NB
2025-07-15 16:19:37.094,-0.0244948377789436,-0.028633901077776,-0.053128738850596,-0.3267788155924577,0,NB
2025-07-15 16:19:37.098,-0.0156719977634495,-0.0412724093321675,-0.0569444070874314,-0.3242711005578673,0,NB
2025-07-15 16:19:37.102,-0.0166007176952946,-0.0452346172723199,-0.0618353349571196,-0.3430766127591574,0,NB
2025-07-15 16:19:37.106,-0.0157886926364939,-0.0361251867285496,-0.0519138793524417,-0.3693356100261692,0,NB
2025-07-15 16:19:37.109,-0.0065647805608554,-0.0332996964493593,-0.0398644769957045,-0.3840708725837353,0,NB
2025-07-15 16:19:37.113,0.0022432195129819,-0.0465016065913896,-0.0442583870617897,-0.3799674350708714,0,NB
2025-07-15 16:19:37.117,0.003511315515982,-0.0584762155761983,-0.0549649000412547,-0.3671586897593211,0,NB
2025-07-15 16:19:37.121,0.0049195748727908,-0.0515411598084348,-0.0466215849144466,-0.360199353898468,0,NB
2025-07-15 16:19:37.125,0.0140362642319336,-0.0325944210924693,-0.0185581568372688,-0.359761516588778,0,NB
2025-07-15 16:19:37.129,0.0242642586520531,-0.0205649805714149,0.0036992781060979,-0.3558820530362186,0,NB
2025-07-15 16:19:37.133,0.0267929363061489,-0.0228401425212135,0.0039527938127735,-0.347600565102081,0,NB
2025-07-15 16:19:37.137,0.0256876759562611,-0.0332871522479174,-0.0075994762614961,-0.3443860594906721,0,NB
2025-07-15 16:19:37.141,0.0303545928987876,-0.043332393057596,-0.0129778001264334,-0.3468567696089564,0,NB
2025-07-15 16:19:37.145,0.0408984143728042,-0.0477618414565094,-0.0068634270490165,-0.3429435501452256,0,NB
2025-07-15 16:19:37.149,0.051138798215696,-0.0467328559452391,0.0044059423075864,-0.3305411046540684,0,NB
2025-07-15 16:19:37.152,0.0604206243649371,-0.0467212768775771,0.0136993475268755,-0.3313616463327894,0,NB
2025-07-15 16:19:37.156,0.0726830527103438,-0.0535953319860263,0.0190877207661632,-0.3682363806289834,0,NB
2025-07-15 16:19:37.160,0.0878049515941015,-0.0624702408560542,0.0253347107823416,-0.4321514537717526,0,NB
2025-07-15 16:19:37.164,0.1018691457807887,-0.0616503979288493,0.0402187478987754,-0.4887156652832828,0,NB
2025-07-15 16:19:37.168,0.1124207356914634,-0.0488516617318087,0.0635690740089484,-0.5198843027198354,0,NB
2025-07-15 16:19:37.172,0.1190879905204715,-0.0356813640304407,0.0834066265417485,-0.5390286203530286,0,NB
2025-07-15 16:19:37.176,0.1246129311977896,-0.0335834702845975,0.09102946096749,-0.5589246191684949,0,NB
2025-07-15 16:19:37.180,0.1359507477079053,-0.0420677504716874,0.093882997293185,-0.5712971680144141,0,NB
2025-07-15 16:19:37.184,0.1557781200906088,-0.0523972724966001,0.1033808476535242,-0.5705782988174137,0,NB
2025-07-15 16:19:37.188,0.1749590292109165,-0.058079176693222,0.1168798525797128,-0.5708522159101397,0,NB
2025-07-15 16:19:37.192,0.1842622146799193,-0.0609060543626447,0.123356160381982,-0.5821933666894624,0,NB
2025-07-15 16:19:37.195,0.1896390817836265,-0.0675424056350509,0.1220966762160808,-0.5923880108802497,0,NB
2025-07-15 16:19:37.199,0.2025520941568978,-0.0787874367997844,0.1237646574272688,-0.5867545288695187,0,NB
2025-07-15 16:19:37.203,0.2189196233269307,-0.0862935156573655,0.132626107742296,-0.5690721182534686,0,NB
2025-07-15 16:19:37.207,0.2245070089078245,-0.0865346742687659,0.1379723347145692,-0.5546305884387386,0,NB
2025-07-15 16:19:37.211,0.2205620276683939,-0.0912059981569353,0.1293560295898953,-0.5537512360205963,0,NB
2025-07-15 16:19:37.215,0.2240758364015504,-0.1106414077296431,0.113434428753116,-0.5616987878660479,0,NB
2025-07-15 16:19:37.219,0.2390368016500092,-0.133054806894011,0.1059819948398645,-0.5605923235010022,0,NB
2025-07-15 16:19:37.223,0.2496723779123124,-0.1383025520889254,0.1113698259101157,-0.5423561785961728,0,NB
2025-07-15 16:19:37.227,0.2495368293742962,-0.1282931577122948,0.1212436717517837,-0.5274739814914244,0,NB
2025-07-15 16:19:37.231,0.2531153838692139,-0.1220590843033897,0.1310562996585179,-0.5396755675016869,0,NB
2025-07-15 16:19:37.234,0.2660838155566198,-0.1219340608178701,0.1441497548342025,-0.5697011224497176,0,NB
2025-07-15 16:19:37.238,0.2683508060368988,-0.1100905584638731,0.1582602476714374,-0.5908800931565836,0,NB
2025-07-15 16:19:37.242,0.2458309538773775,-0.0824351771036709,0.1633957768753195,-0.5975902260769386,0,NB
2025-07-15 16:19:37.246,0.2172177018986753,-0.0599043047270319,0.1573133972763337,-0.6028914996772783,0,NB
2025-07-15 16:19:37.250,0.2041857088402118,-0.0575466685892226,0.1466390403585565,-0.6154584502775499,0,NB
2025-07-15 16:19:37.254,0.1949411623350667,-0.0646905724721083,0.1302505899735836,-0.6367791350296035,0,NB
2025-07-15 16:19:37.258,0.1683678988459176,-0.0656809642423844,0.1026869347175118,-0.66190587813393,0,NB
2025-07-15 16:19:37.262,0.1358640497382648,-0.062464247716235,0.0733998021392545,-0.6754649556083856,0,NB
2025-07-15 16:19:37.266,0.1215891602397721,-0.065313029902278,0.0562761304576878,-0.6660693752574791,0,NB
2025-07-15 16:19:37.270,0.1168398831102719,-0.07239717520594,0.0444427080276325,-0.6445908109431936,0,NB
2025-07-15 16:19:37.274,0.0967569996233062,-0.0711411742762698,0.0256158254738102,-0.6327531077082253,0,NB
2025-07-15 16:19:37.277,0.0702211400486177,-0.0576289221643662,0.0125922180144363,-0.6397665009375526,0,NB
2025-07-15 16:19:37.281,0.0677490643351199,-0.044912034048644,0.0228370304196987,-0.6627292297826155,0,NB
2025-07-15 16:19:37.285,0.0872908695238091,-0.0476779532562179,0.0396129164039027,-0.6981481676132288,0,NB
2025-07-15 16:19:37.289,0.0936086910942067,-0.0614168157956672,0.0321918754383878,-0.7365013937112167,0,NB
2025-07-15 16:19:37.293,0.06520784575973,-0.062464093927017,0.0027437519761348,-0.7576967206403564,0,NB
2025-07-15 16:19:37.297,0.0109520659132615,-0.0352846673252326,-0.0243326012654447,-0.7530768719708164,0,NB
2025-07-15 16:19:37.301,-0.0436166719759573,0.0007266999309098,-0.0428899718955175,-0.7422642423311319,0,NB
2025-07-15 16:19:37.305,-0.0622851021641646,0.0057987986927366,-0.0564863033183822,-0.7482608178455896,0,NB
2025-07-15 16:19:37.309,-0.0236679554422471,-0.0289437940469254,-0.052611749332405,-0.7692085116394389,0,NB
2025-07-15 16:19:37.313,0.033973199826858,-0.0608085417777376,-0.0268353417909191,-0.7934368895484042,0,NB
2025-07-15 16:19:37.317,0.0383681839155201,-0.0444728868617596,-0.0061047027834141,-0.8197205886792399,0,NB
2025-07-15 16:19:37.320,-0.0256403374945293,0.0168034024904474,-0.0088369348378806,-0.8424044458587799,0,NB
2025-07-15 16:19:37.324,-0.106954717832258,0.0924669315380778,-0.0144877861241643,-0.8491410901854648,0,NB
2025-07-15 16:19:37.328,-0.1766982195478347,0.1688957460832895,-0.007802473291216,-0.8526058010330833,0,NB
2025-07-15 16:19:37.332,-0.2472712231696276,0.2363085750680727,-0.0109626479255218,-0.8803472993586775,0,NB
2025-07-15 16:19:37.336,-0.2987675059497029,0.2628518570344728,-0.0359156487361033,-0.9198245557438492,0,NB
2025-07-15 16:19:37.340,-0.2825548104204149,0.2299108955566605,-0.0526439146808407,-0.930721268577114,0,NB
2025-07-15 16:19:37.344,-0.2125478191481088,0.1713165500747872,-0.0412312688869614,-0.916235444010426,0,NB
2025-07-15 16:19:37.348,-0.1561756352768053,0.1317777971887785,-0.0243978378991023,-0.913697750456676,0,NB
2025-07-15 16:19:37.352,-0.1208093566343674,0.1055308423280967,-0.0152785141146616,-0.9192985463682852,0,NB
2025-07-15 16:19:37.356,-0.0483629095955056,0.0575941869195754,0.0092312775192616,-0.8985076883890313,0,NB
2025-07-15 16:19:37.359,0.0675402763967586,-0.0153546812907527,0.052185595304757,-0.8628326016143517,0,NB
2025-07-15 16:19:37.363,0.160342259665347,-0.0827962948782337,0.0775459649883802,-0.8583319672493674,0,NB
2025-07-15 16:19:37.367,0.193533535872438,-0.1196517788894544,0.0738817571864928,-0.8847025923695431,0,NB
2025-07-15 16:19:37.371,0.1915872231078036,-0.1242747992936219,0.0673124240208911,-0.8986337901349319,0,NB
2025-07-15 16:19:37.375,0.1691011499480605,-0.1144775263117434,0.054623623846618,-0.889514529809853,0,NB
2025-07-15 16:19:37.379,0.1152848033488088,-0.1107122635972722,0.004572539964413,-0.8838000679183288,0,NB
2025-07-15 16:19:37.383,0.0457958752222015,-0.1098291587846484,-0.0640332833477045,-0.8847598208897258,0,NB
2025-07-15 16:19:37.387,-0.0004379471528915,-0.0877960274342727,-0.0882339743697444,-0.8685698606561609,0,NB
2025-07-15 16:19:37.391,-0.009888511534256,-0.039540651897789,-0.0494291632111509,-0.8281661911475211,0,NB
2025-07-15 16:19:37.395,0.0046374538638219,0.0058399351609616,0.0104773892483786,-0.777450505035479,0,NB
2025-07-15 16:19:37.399,0.0294268987356384,0.0223023688256808,0.0517292677865439,-0.7290886967873079,0,NB
2025-07-15 16:19:37.402,0.0465043306863282,0.0184328322228431,0.0649371631364898,-0.686623649077846,0,NB
2025-07-15 16:19:37.406,0.0384966125897205,0.0172907008736412,0.0557873136938401,-0.6269180056841243,0,NB
2025-07-15 16:19:37.410,0.0187272911515844,0.0214158635140111,0.0401431548988708,-0.4920596540909045,0,NB
2025-07-15 16:19:37.414,0.0204317113116857,0.0169357380886964,0.0373674496352123,-0.252212190097958,0,NB
2025-07-15 16:19:37.418,0.0428459587613961,0.0027478574490064,0.0455938164467966,0.0253706233338768,0,NB
2025-07-15 16:19:37.422,0.0480152590194499,-0.006906116987561,0.0411091422709622,0.2292365837130961,0,NB
2025-07-15 16:19:37.426,0.0218389132690116,-0.0074153798849409,0.0144235336259181,0.3243828880446783,0,NB
2025-07-15 16:19:37.430,-0.0051036063580371,-0.0098849657103541,-0.0149885718249457,0.3665763529740035,0,NB
2025-07-15 16:19:37.434,-0.0120526506489997,-0.0189534697752002,-0.0310061201795807,0.4060802091781073,0,NB
2025-07-15 16:19:37.438,-0.0203646508538441,-0.0241140478877842,-0.0444786984949005,0.4380114765699093,0,NB
2025-07-15 16:19:37.442,-0.0498523400394466,-0.0197012926304504,-0.0695536324205969,0.4536821733370537,0,NB
2025-07-15 16:19:37.445,-0.0805622585474464,-0.015751085529744,-0.0963133438262256,0.486374238416733,0,NB
2025-07-15 16:19:37.449,-0.0862027780241185,-0.0194269692076998,-0.1056297469798941,0.5738800083016076,0,NB
2025-07-15 16:19:37.453,-0.0769337415385249,-0.0210447490238354,-0.0979784903088727,0.7006820409707246,0,NB
2025-07-15 16:19:37.457,-0.0783976841747713,-0.0106581296362034,-0.0890558135552872,0.8118425510841449,0,NB
2025-07-15 16:19:37.461,-0.0892822172911949,0.0038389469840019,-0.0854432700498593,0.8736257847402528,0,NB
2025-07-15 16:19:37.465,-0.0906328995010651,0.0090939698080493,-0.0815389294348105,0.8924915586862919,0,NB
2025-07-15 16:19:37.469,-0.0829623429170338,0.0073901290091228,-0.0755722136485822,0.8891353629919032,0,NB
2025-07-15 16:19:37.473,-0.0841726213541703,0.0096894916808187,-0.0744831294123031,0.8833483619470912,0,NB
2025-07-15 16:19:37.477,-0.0974317079266034,0.0147436889718718,-0.082688018692213,0.8911930546102576,0,NB
2025-07-15 16:19:37.481,-0.1067527390439116,0.0137363683489021,-0.0930163704316773,0.912509700235008,0,NB
2025-07-15 16:19:37.484,-0.1037500089694291,0.0106823925916812,-0.093067616113595,0.9308120732665462,0,NB
2025-07-15 16:19:37.488,-0.0985665819200944,0.016199964987886,-0.0823666166668182,0.9383740041936804,0,NB
2025-07-15 16:19:37.492,-0.1008146264662699,0.0237804063114496,-0.0770342198882741,0.9482247767158962,0,NB
2025-07-15 16:19:37.496,-0.1056138599947206,0.0164030166047522,-0.0892108431227061,0.972392172462064,0,NB
2025-07-15 16:19:37.500,-0.1053911708139096,-0.0041058426634808,-0.1094970132094817,1.0028239342229135,0,NB
2025-07-15 16:19:37.504,-0.1031983016247912,-0.0174227401232836,-0.1206210414793124,1.0238146198155054,0,NB
2025-07-15 16:19:37.508,-0.1051067101824744,-0.0130794169926782,-0.1181861269056094,1.0324987256333422,0,NB
2025-07-15 16:19:37.512,-0.108330915074825,1.4454070607312214e-05,-0.1083164607341398,1.037760438819993,0,NB
2025-07-15 16:19:37.516,-0.1070280025571798,0.0055981847298437,-0.1014298175567321,1.0462153807590306,0,NB
2025-07-15 16:19:37.520,-0.1044221813634957,-0.0111618198363028,-0.115584000928608,1.0572399485125832,0,NB
2025-07-15 16:19:37.524,-0.1102021402071952,-0.0492452586433405,-0.1594473985789314,1.0674545535984712,0,NB
2025-07-15 16:19:37.527,-0.1279907602110787,-0.0778596799842325,-0.2058504399234385,1.0751974061737404,0,NB
2025-07-15 16:19:37.531,-0.1482736752922349,-0.0695096411895116,-0.2177833162094818,1.084003767705651,0,NB
2025-07-15 16:19:37.535,-0.1480086554206608,-0.0526921726423656,-0.2007008277903407,1.103451482046801,0,NB
2025-07-15 16:19:37.539,-0.0999842490232728,-0.0807253903567569,-0.1807096391072146,1.1415395433125557,0,NB
2025-07-15 16:19:37.543,0.0014397134484111,-0.138729866080098,-0.1372901523588934,1.193699828065752,0,NB
2025-07-15 16:19:37.547,0.1286976784351692,-0.1461658086294014,-0.0174681299212221,1.2455927316352122,0,NB
2025-07-15 16:19:37.551,0.2577704551440407,-0.0673953626047046,0.190375092812656,1.2899621360036155,0,NB
2025-07-15 16:19:37.555,0.3957387448637626,0.0484337682402298,0.4441725133772682,1.3267672957319696,0,NB
2025-07-15 16:19:37.559,0.5281513025347857,0.1523443529743581,0.68049565578215,1.3377289266416466,0,NB
2025-07-15 16:19:37.563,0.5685568802873004,0.2517985167607131,0.8203553973210295,1.2856845588263277,0,NB
2025-07-15 16:19:37.567,0.4225542081869712,0.3710031855248842,0.7935573939850856,1.1622888508571851,0,NB
2025-07-15 16:19:37.570,0.0910569182713327,0.5127773207157049,0.603834239260153,1.014389358026977,0,NB
2025-07-15 16:19:37.574,-0.3152782964551289,0.65246670632558,0.3371884101431256,0.9009384660394648,0,NB
2025-07-15 16:19:37.578,-0.6392864145235435,0.7231348600663579,0.0838484458152715,0.8475957431452545,0,NB
2025-07-15 16:19:37.582,-0.7644972413220993,0.6455307540099797,-0.1189664870395663,0.8587749174240851,0,NB
2025-07-15 16:19:37.586,-0.6921319636672643,0.4250071008718649,-0.2671248625229689,0.9373497334928514,0,NB
2025-07-15 16:19:37.590,-0.5345611797817609,0.1745102777083363,-0.3600509018015209,1.0668038126288428,0,NB
2025-07-15 16:19:37.594,-0.4105016666206751,0.0025131366551974,-0.4079885296940106,1.2025751908484503,0,NB
2025-07-15 16:19:37.598,-0.3581516569249124,-0.07664761746294,-0.4347992741164461,1.3066245330418311,0,NB
2025-07-15 16:19:37.602,-0.348079116615513,-0.1057147975354345,-0.4537939138796572,1.3757895280200774,0,NB
2025-07-15 16:19:37.606,-0.3401554525938315,-0.1173020046364345,-0.4574574569595206,1.42468577103941,0,NB
2025-07-15 16:19:37.609,-0.311820909636141,-0.1232175903945567,-0.435038499760576,1.4593196933150598,0,NB
2025-07-15 16:19:37.613,-0.2591960472493922,-0.1236192508550663,-0.382815297834595,1.4796953602818568,0,NB
2025-07-15 16:19:37.617,-0.1942472654705067,-0.1084737108907257,-0.3027209760915127,1.4912604394602802,0,NB
2025-07-15 16:19:37.621,-0.1365515209835911,-0.075858761800995,-0.2124102825153788,1.4982681116052166,0,NB
2025-07-15 16:19:37.625,-0.0987872971042513,-0.0485738809368968,-0.1473611777726741,1.4957430526593305,0,NB
2025-07-15 16:19:37.629,-0.0800688942761377,-0.0486735651548305,-0.1287424591629565,1.4799058757408177,0,NB
2025-07-15 16:19:37.633,-0.0717213597917516,-0.064663564831842,-0.1363849243558162,1.4584461207719823,0,NB
2025-07-15 16:19:37.637,-0.0648432910577089,-0.0698622229125405,-0.1347055137029494,1.4414972386161715,0,NB
2025-07-15 16:19:37.641,-0.0543199591645636,-0.0630164615018294,-0.1173364203998622,1.4310194963309253,0,NB
2025-07-15 16:19:37.645,-0.0409805031049473,-0.0635825028262818,-0.1045630056653318,1.4251405171860143,0,NB
2025-07-15 16:19:37.649,-0.029586399067524,-0.0747276678537278,-0.1043140666557264,1.4216698723025685,0,NB
2025-07-15 16:19:37.652,-0.0226933379020142,-0.0793916341467783,-0.1020849717837407,1.4134435975466677,0,NB
2025-07-15 16:19:37.656,-0.0181805162459823,-0.0704031076095774,-0.0885836235912612,1.3938731339789705,0,NB
2025-07-15 16:19:37.660,-0.0133822654159956,-0.0584373427998013,-0.0718196079522372,1.368552667719577,0,NB
2025-07-15 16:19:37.664,-0.0083423199836396,-0.0507101711508269,-0.0590524908714191,1.3474843669499386,0,NB
2025-07-15 16:19:37.668,-0.0033276002837943,-0.0450237223021294,-0.048351322323379,1.3285885143275584,0,NB
2025-07-15 16:19:37.672,0.0035487335764495,-0.0428986812621426,-0.0393499474238595,1.3029483765826095,0,NB
2025-07-15 16:19:37.676,0.0130033352292271,-0.0478132996370058,-0.0348099641467134,1.270575406884646,0,NB
2025-07-15 16:19:37.680,0.0217695930216445,-0.0543366839982883,-0.0325670907161888,1.237702339231228,0,NB
2025-07-15 16:19:37.684,0.0278013842854332,-0.0550317863240227,-0.0272304017786725,1.2053495040023643,0,NB
2025-07-15 16:19:37.688,0.0356563004354146,-0.0515793416481098,-0.0159230409534306,1.172276755136577,0,NB
2025-07-15 16:19:37.692,0.0503426416562782,-0.0488688180372527,0.0014738238775696,1.1426589723412208,0,NB
2025-07-15 16:19:37.695,0.0677644426884776,-0.0470738343255679,0.0206906086208279,1.119968708686104,0,NB
2025-07-15 16:19:37.699,0.0791622212999763,-0.04551289581191,0.0336493257454439,1.0985213011891064,0,NB
2025-07-15 16:19:37.703,0.0844163596233892,-0.0462257590925298,0.0381906007876576,1.0720597160684564,0,NB
2025-07-15 16:19:37.707,0.0921738481834738,-0.0514238241067648,0.0407500243328846,1.0461199466969429,0,NB
2025-07-15 16:19:37.711,0.1062664279496148,-0.0614023124507435,0.0448641157544796,1.0292223961836109,0,NB
2025-07-15 16:19:37.715,0.1212680645690826,-0.0727459950888621,0.0485220697353345,1.015665866975628,0,NB
2025-07-15 16:19:37.719,0.1328760652785469,-0.077881688581592,0.0549943769515801,0.9910494068306605,0,NB
2025-07-15 16:19:37.723,0.1436823687828585,-0.0715663858685993,0.0721159831683871,0.9528701071690698,0,NB
2025-07-15 16:19:37.727,0.1565306187419228,-0.0576502667993947,0.0988803521962018,0.9137992574326472,0,NB
2025-07-15 16:19:37.731,0.1695944950891301,-0.0456127033940792,0.1239817919483284,0.8856029932385067,0,NB
2025-07-15 16:19:37.734,0.1803994433721326,-0.0418018025315616,0.1385976410934768,0.8681824568703268,0,NB
2025-07-15 16:19:37.738,0.1893996373136567,-0.04519029629496,0.144209341271251,0.8538755194000702,0,NB
2025-07-15 16:19:37.742,0.1977060847985665,-0.0494499052051267,0.1482561798456915,0.8369788034715546,0,NB
2025-07-15 16:19:37.746,0.2052020529682222,-0.0499640808643291,0.1552379723558946,0.8178652978675319,0,NB
2025-07-15 16:19:37.750,0.2123943904440209,-0.0493173554306558,0.1630770352651504,0.7990304055225009,0,NB
2025-07-15 16:19:37.754,0.2213001444026842,-0.0522655576018886,0.1690345870524032,0.7794672601575213,0,NB
2025-07-15 16:19:37.758,0.2330297838995675,-0.0571775495567465,0.1758522345943041,0.7577521746864689,0,NB
2025-07-15 16:19:37.762,0.2455522431157552,-0.0592484787300163,0.1863037646371429,0.7391677444874105,0,NB
2025-07-15 16:19:37.766,0.2546456994467485,-0.0596287146985988,0.1950169849995144,0.7299018562647972,0,NB
2025-07-15 16:19:37.770,0.2571501431706022,-0.0632046823585347,0.1939454610634501,0.7251127918786159,0,NB
2025-07-15 16:19:37.774,0.2530372616841961,-0.0689785377654791,0.1840587241701692,0.7147519990771264,0,NB
2025-07-15 16:19:37.777,0.2440432252257217,-0.0702950097762997,0.1737482157009623,0.698122647863726,0,NB
2025-07-15 16:19:37.781,0.2309537346709811,-0.0646768496111222,0.1662768853115208,0.6804458714907942,0,NB
2025-07-15 16:19:37.785,0.2128492405664886,-0.0571482855993171,0.1557009552190465,0.6609659280212472,0,NB
2025-07-15 16:19:37.789,0.1884344315169839,-0.0523096359664826,0.1361247958026626,0.6354552255371562,0,NB
2025-07-15 16:19:37.793,0.158142392288076,-0.0487941209622547,0.1093482715782535,0.6045943345474304,0,NB
2025-07-15 16:19:37.797,0.1256493935520785,-0.0443962646271342,0.0812531291776451,0.5729530944930284,0,NB
2025-07-15 16:19:37.801,0.0959951640938581,-0.0409988605167739,0.0549963038301776,0.5435803310680932,0,NB
2025-07-15 16:19:37.805,0.0708765820928825,-0.0400247394603007,0.0308518428861965,0.5156462919389292,0,NB
2025-07-15 16:19:37.809,0.0478842061778434,-0.0375102180726662,0.0103739883592787,0.4861801947531142,0,NB
2025-07-15 16:19:37.813,0.0256045156769327,-0.028373739540289,-0.0027692236088382,0.4548915720881957,0,NB
2025-07-15 16:19:37.817,0.0062158020036321,-0.0131720303956021,-0.0069562281369067,0.425572524006002,0,NB
2025-07-15 16:19:37.820,-0.0084436261881228,0.0023091884759954,-0.0061344374563058,0.4011227872315354,0,NB
2025-07-15 16:19:37.824,-0.0193563946254773,0.0124205423978298,-0.0069358519710799,0.3796370454236449,0,NB
2025-07-15 16:19:37.828,-0.0272512767089773,0.0149966624969247,-0.0122546139549001,0.3558333617131823,0,NB
2025-07-15 16:19:37.832,-0.0315899739175242,0.0115066004018943,-0.0200833732578181,0.3259739072610371,0,NB
2025-07-15 16:19:37.836,-0.0340409246159001,0.0060778339605789,-0.0279630903965536,0.2935733452397245,0,NB
2025-07-15 16:19:37.840,-0.0378316395885394,0.0036904752017097,-0.0341411641270365,0.2678803203351698,0,NB
2025-07-15 16:19:37.844,-0.0423294466552299,0.0071937207771366,-0.0351357256175083,0.2525204984457619,0,NB
2025-07-15 16:19:37.848,-0.0434876116440558,0.0140605988018755,-0.0294270125808441,0.239746999660418,0,NB
2025-07-15 16:19:37.852,-0.0408049580734514,0.016976879076611,-0.0238280787344107,0.2198808351249766,0,NB
2025-07-15 16:19:37.856,-0.0387663703185082,0.0117916985044262,-0.0269746715503504,0.191363116821222,0,NB
2025-07-15 16:19:37.859,-0.0399393057738767,0.0042900241236888,-0.0356492813853995,0.1596765725231033,0,NB
2025-07-15 16:19:37.863,-0.0411569092147354,0.0035506970253714,-0.0376062119237148,0.1320232529077696,0,NB
2025-07-15 16:19:37.867,-0.0388180818563657,0.0102549779956765,-0.0285631035938672,0.1124418459518319,0,NB
2025-07-15 16:19:37.871,-0.0345938069810944,0.0178497529732217,-0.0167440537395093,0.0969282995881876,0,NB
2025-07-15 16:19:37.875,-0.032956302371249,0.0226240435003186,-0.0103322586011948,0.0762609059227034,0,NB
2025-07-15 16:19:37.879,-0.0350618041860011,0.0264968774063953,-0.0085649265088442,0.0487684297249216,0,NB
2025-07-15 16:19:37.883,-0.038001089636244,0.0317885816012812,-0.0062125077629839,0.02621847479647,0,NB
2025-07-15 16:19:37.887,-0.0391682476978943,0.0371417553095175,-0.0020264921146844,0.0198797132739026,0,NB
2025-07-15 16:19:37.891,-0.0386264040895032,0.0382101845241974,-0.0004162192899106,0.0231402650665059,0,NB
2025-07-15 16:19:37.895,-0.0371614664616806,0.0328511836042496,-0.0043102825807756,0.0173497916103103,0,NB
2025-07-15 16:19:37.899,-0.0346016538415892,0.0261033072156361,-0.0084983463480395,-0.004396493097029,0,NB
2025-07-15 16:19:37.902,-0.030965009211785,0.0260294637283206,-0.0049355452037496,-0.0298264670940053,0,NB
2025-07-15 16:19:37.906,-0.0272824705076916,0.0332128804387447,0.0059304102127652,-0.0472216246509055,0,NB
2025-07-15 16:19:37.910,-0.0239972928586594,0.0401244884614871,0.0161271958860904,-0.0608094019682814,0,NB
2025-07-15 16:19:37.914,-0.0193647853382922,0.0432426777333576,0.0238778926796555,-0.079255299354374,0,NB
2025-07-15 16:19:37.918,-0.0106792227779133,0.0487218223635741,0.0380425998720642,-0.0998389995967912,0,NB
2025-07-15 16:19:37.922,0.0020675420693979,0.0609672665788319,0.0630348089368468,-0.1138958280115737,0,NB
2025-07-15 16:19:37.926,0.0143077462730748,0.0721207016772822,0.0864284482408421,-0.1213038533502806,0,NB
2025-07-15 16:19:37.930,0.0201550143235377,0.0719189249994466,0.0920739396149278,-0.1328903324190887,0,NB
2025-07-15 16:19:37.934,0.0178716182609307,0.0648439919924983,0.0827156105471667,-0.1606389875869643,0,NB
2025-07-15 16:19:37.938,0.0123671978808904,0.0656651546853899,0.0780323528623609,-0.2046351439626479,0,NB
2025-07-15 16:19:37.942,0.0120832892985545,0.0768267474444637,0.0889100370412776,-0.2490740331987286,0,NB
2025-07-15 16:19:37.945,0.0205489345878736,0.0833365114728277,0.1038854463606213,-0.2778707247404406,0,NB
2025-07-15 16:19:37.949,0.0307112037109397,0.0742611256005412,0.1049723296131905,-0.2933087162552529,0,NB
2025-07-15 16:19:37.953,0.0320775758875805,0.0558278345640757,0.0879054107557597,-0.3092651854013545,0,NB
2025-07-15 16:19:37.957,0.0228406156693004,0.0388250079584164,0.0616656239342595,-0.3299399229745968,0,NB
2025-07-15 16:19:37.961,0.0089705329366724,0.0273992219801705,0.0363697552252951,-0.3486783973855915,0,NB
2025-07-15 16:19:37.965,-0.0064166868294541,0.023055338777946,0.0166386522587729,-0.3630526037189542,0,NB
2025-07-15 16:19:37.969,-0.024224579074008,0.0244373039626726,0.0002127252013377,-0.3764779351542991,0,NB
2025-07-15 16:19:37.973,-0.0413373864433633,0.0225173786076231,-0.0188200075204431,-0.388653952349535,0,NB
2025-07-15 16:19:37.977,-0.0509673909001518,0.0101314502196792,-0.0408359403630071,-0.3968606053455391,0,NB
2025-07-15 16:19:37.981,-0.0526186152068333,-0.0060282330120669,-0.0586468478995143,-0.4033645770031664,0,NB
2025-07-15 16:19:37.984,-0.054188124709555,-0.0141320941712805,-0.0683202185590797,-0.4130722148555735,0,NB
2025-07-15 16:19:37.988,-0.0608450278025403,-0.0129869370767517,-0.0738319645548089,-0.4276588629840578,0,NB
2025-07-15 16:19:37.992,-0.0679003045683922,-0.0108199017854453,-0.0787202060269567,-0.4457657778315934,0,NB
2025-07-15 16:19:37.996,-0.069419328940463,-0.0126683645867958,-0.0820876931983266,-0.4643026167774374,0,NB
2025-07-15 16:19:38.000,-0.0679257658028163,-0.0148984679820775,-0.0828242334536074,-0.4795393219063027,0,NB
2025-07-15 16:19:38.004,-0.0688847900189916,-0.0123913009535894,-0.0812760906385375,-0.4915066191952845,0,NB
2025-07-15 16:19:38.008,-0.0710399909080008,-0.0080925210477604,-0.0791325116191613,-0.5046689808360536,0,NB
2025-07-15 16:19:38.012,-0.0701071582553482,-0.01000159381291,-0.0801087517294736,-0.5201644977684491,0,NB
2025-07-15 16:19:38.016,-0.0675286494173572,-0.0182296385981584,-0.0857582876743767,-0.5321350579631261,0,NB
2025-07-15 16:19:38.020,-0.0674563877872739,-0.0230993877905211,-0.0905557752339217,-0.5369554639078513,0,NB
2025-07-15 16:19:38.024,-0.0686624615600235,-0.0190840462035836,-0.0877465074171117,-0.5409312652525466,0,NB
2025-07-15 16:19:38.027,-0.0674027169472053,-0.0125333477132265,-0.079936064311673,-0.5523532087374508,0,NB
2025-07-15 16:19:38.031,-0.0653960074105086,-0.0115033812165094,-0.0768993882759199,-0.5705019001325125,0,NB
2025-07-15 16:19:38.035,-0.0670815715087473,-0.014307419983949,-0.0813889911389341,-0.588369521633878,0,NB
2025-07-15 16:19:38.039,-0.0709525116592693,-0.0122906750947793,-0.0832431863977029,-0.6017605251511162,0,NB
2025-07-15 16:19:38.043,-0.0711286121828827,-0.0025881741878852,-0.0737167860121796,-0.6113401565470009,0,NB
2025-07-15 16:19:38.047,-0.0670725171050127,0.0019394186562282,-0.0651330980879221,-0.6189087427861131,0,NB
2025-07-15 16:19:38.051,-0.0659659832595422,-0.0191196898883908,-0.0850856727845133,-0.6239845174262296,0,NB
2025-07-15 16:19:38.055,-0.0748595192161575,-0.0649347842699552,-0.139794303120224,-0.6238921851866145,0,NB
2025-07-15 16:19:38.059,-0.092399269524991,-0.1014721905535852,-0.1938714597105728,-0.6172878680363565,0,NB
2025-07-15 16:19:38.063,-0.1046056735239995,-0.1020450464212571,-0.2066507195751299,-0.6046998253269817,0,NB
2025-07-15 16:19:38.067,-0.0870225903441176,-0.0914744236037816,-0.1784970135753649,-0.5846280043129429,0,NB
2025-07-15 16:19:38.070,-0.0229016111123362,-0.1127101805159993,-0.1356117912534844,-0.5552505726752538,0,NB
2025-07-15 16:19:38.074,0.0745208790928371,-0.1510615131829654,-0.0765406337133649,-0.5206995653585252,0,NB
2025-07-15 16:19:38.078,0.1789943412715939,-0.136849633036383,0.0421447086138516,-0.4869357490891884,0,NB
2025-07-15 16:19:38.082,0.2957275075617461,-0.032863437526412,0.2628640704161664,-0.4530119561116698,0,NB
2025-07-15 16:19:38.086,0.4427836692197721,0.1241206600325025,0.566904329635243,-0.4212381363855026,0,NB
2025-07-15 16:19:38.090,0.5714399309433185,0.2800779414874603,0.8515178728154185,-0.4184874858869196,0,NB
2025-07-15 16:19:38.094,0.5681407600030834,0.417259744111696,0.9854005045009636,-0.4905595418612293,0,NB
2025-07-15 16:19:38.098,0.3669121284831532,0.5407781640250547,0.9076902928962656,-0.6633883022091338,0,NB
2025-07-15 16:19:38.102,0.0168174103931309,0.6507628128720222,0.6675802236551112,-0.9113818340183364,0,NB
2025-07-15 16:19:38.106,-0.3587098805865159,0.7264703748204717,0.3677604946253295,-1.16195489539114,0,NB
2025-07-15 16:19:38.109,-0.6254728320686631,0.7145574486287112,0.0890846169525865,-1.329920408602272,0,NB
2025-07-15 16:19:38.113,-0.698831748968983,0.5668276253058905,-0.132004123269087,-1.365923091839386,0,NB
2025-07-15 16:19:38.117,-0.6026577494933549,0.3154374577004247,-0.2872202913973046,-1.2896829202957527,0,NB
2025-07-15 16:19:38.121,-0.4495974435914975,0.0671115847935756,-0.382485858401102,-1.1703347934293196,0,NB
2025-07-15 16:19:38.125,-0.3372246736394764,-0.0955001191264995,-0.4327247923683351,-1.0675809358968502,0,NB
2025-07-15 16:19:38.129,-0.2868733511519162,-0.1674613904368798,-0.4543347411901233,-0.9987418548191124,0,NB
2025-07-15 16:19:38.133,-0.2754996392804802,-0.1817096193832746,-0.4572092582637882,-0.955589996776974,0,NB
2025-07-15 16:19:38.137,-0.2756211210382284,-0.1661428233351345,-0.4417639439724071,-0.9278639472165332,0,NB
2025-07-15 16:19:38.141,-0.2598102944328504,-0.1401912708732539,-0.400001564904619,-0.9055574930169014,0,NB
2025-07-15 16:19:38.145,-0.211392021051231,-0.1137874209656022,-0.3251794416147541,-0.8805998722892019,0,NB
2025-07-15 16:19:38.149,-0.144509930892191,-0.0851316347745718,-0.2296415652637756,-0.8558879245923321,0,NB
2025-07-15 16:19:38.152,-0.0901037307696216,-0.0561299776005189,-0.1462337079663882,-0.8399939949378673,0,NB
2025-07-15 16:19:38.156,-0.0601928573954287,-0.0400573345337474,-0.1002501915251326,-0.8322196213106576,0,NB
2025-07-15 16:19:38.160,-0.0444311718106513,-0.0415641277134697,-0.0859952991198905,-0.8260087516777013,0,NB
2025-07-15 16:19:38.164,-0.0345336178705856,-0.0452950771641614,-0.0798286946300436,-0.8225994432360235,0,NB
2025-07-15 16:19:38.168,-0.0296195437931434,-0.0375882378698882,-0.0672077812578384,-0.8269587303401206,0,NB
2025-07-15 16:19:38.172,-0.0239445864625969,-0.0249049390326613,-0.048849525089979,-0.8358663276199674,0,NB
2025-07-15 16:19:38.176,-0.0118720248606813,-0.0191126375185166,-0.030984661974074,-0.8417676284540159,0,NB
2025-07-15 16:19:38.180,-0.0006655369954148,-0.0182543454913165,-0.0189198820815828,-0.8425451736476978,0,NB
2025-07-15 16:19:38.184,0.0007486623423107,-0.01484906981869,-0.0141004070710887,-0.840843636286326,0,NB
2025-07-15 16:19:38.188,-0.0003954107814011,-0.0120766877034427,-0.0124720980796904,-0.8401872109289171,0,NB
2025-07-15 16:19:38.192,0.0076242053588606,-0.0164422738291657,-0.0088180680655955,-0.8440469678697972,0,NB
2025-07-15 16:19:38.195,0.0197275563153979,-0.0221063698233238,-0.0023788131036232,-0.8532367359570279,0,NB
2025-07-15 16:19:38.199,0.0239884704956056,-0.0195363846790571,0.0044520862205725,-0.8644550159941605,0,NB
2025-07-15 16:19:38.203,0.0247084494270115,-0.0143741281438608,0.0103343216867433,-0.87360072386423,0,NB
2025-07-15 16:19:38.207,0.0348050445536962,-0.0194801921461665,0.0153248528104049,-0.8793850367511946,0,NB
2025-07-15 16:19:38.211,0.0514170299357713,-0.0320235240019625,0.0193935063358864,-0.8846870830785484,0,NB
2025-07-15 16:19:38.215,0.0602429112233623,-0.0369139563342019,0.0233289552905033,-0.89409688495066,0,NB
2025-07-15 16:19:38.219,0.0611259804631775,-0.0308124861563,0.0303134947074115,-0.9074818200983432,0,NB
2025-07-15 16:19:38.223,0.0682302744431731,-0.0252190460383688,0.0430112288043248,-0.918596851747918,0,NB
2025-07-15 16:19:38.227,0.0842864647559205,-0.0259414887840686,0.0583449763702277,-0.922646001129504,0,NB
2025-07-15 16:19:38.231,0.0959469223582623,-0.0260873214668035,0.0698596012886461,-0.9214475946348964,0,NB
2025-07-15 16:19:38.234,0.0988965680051575,-0.0226064543839273,0.0762901140171505,-0.919451889033008,0,NB
2025-07-15 16:19:38.238,0.1065112824045874,-0.0246424927790386,0.0818687900200902,-0.9182087230731748,0,NB
2025-07-15 16:19:38.242,0.1259033288631466,-0.0378151236325628,0.0880882056236493,-0.9161382360841022,0,NB
2025-07-15 16:19:38.246,0.144727663071329,-0.0522674618472622,0.0924602016155219,-0.9119080976513758,0,NB
2025-07-15 16:19:38.250,0.1521997063926886,-0.0571008041757599,0.0950989026066093,-0.9071906614905204,0,NB
2025-07-15 16:19:38.254,0.1570391321538167,-0.0575694809330157,0.0994696516086449,-0.9052215647787468,0,NB
2025-07-15 16:19:38.258,0.1720932507330392,-0.0649912513319615,0.1071019997870933,-0.9054705237220134,0,NB
2025-07-15 16:19:38.262,0.1921876834229163,-0.0753415077692398,0.1168461760377123,-0.9027746452260584,0,NB
2025-07-15 16:19:38.266,0.1991818495631394,-0.0710086845776217,0.1281731653672819,-0.8952650403715559,0,NB
2025-07-15 16:19:38.270,0.1843792340690432,-0.0435539234065854,0.1408253110418537,-0.8895414235709913,0,NB
2025-07-15 16:19:38.274,0.1602958687147111,-0.0082237500199359,0.1520721190719378,-0.8933552276438576,0,NB
2025-07-15 16:19:38.277,0.1522726422859732,0.0064450691628418,0.158717711823675,-0.9056459368292028,0,NB
2025-07-15 16:19:38.281,0.1744682935427347,-0.0119718713324976,0.1624964225823878,-0.9177294996296288,0,NB
2025-07-15 16:19:38.285,0.2080901963834337,-0.0391180800013642,0.1689721167512823,-0.923035309014212,0,NB
2025-07-15 16:19:38.289,0.2147658728455956,-0.0358962581400851,0.1788696150720056,-0.92223945359648,0,NB
2025-07-15 16:19:38.293,0.1845769329561404,0.0012694045483211,0.1858463378683466,-0.9185150044019668,0,NB
2025-07-15 16:19:38.297,0.1548234396681848,0.0327023549015069,0.1875257949305205,-0.9124220196313382,0,NB
2025-07-15 16:19:38.301,0.1617327590662712,0.0308804512599505,0.1926132106835558,-0.9068437986153204,0,NB
2025-07-15 16:19:38.305,0.1931080313766018,0.0151620818966336,0.2082701136272727,-0.9130108185796122,0,NB
2025-07-15 16:19:38.309,0.2131366601683536,0.010803473970464,0.2239401344898862,-0.9402471124825746,0,NB
2025-07-15 16:19:38.313,0.2135371529376666,0.0042384543223086,0.2177756076077154,-0.9798513218691498,0,NB
2025-07-15 16:19:38.317,0.2118776142150095,-0.0315896775150436,0.1802879370437198,-1.0116284267203182,0,NB
2025-07-15 16:19:38.320,0.2146279986231405,-0.0873336048203919,0.1272943941425547,-1.0266263638188284,0,NB
2025-07-15 16:19:38.324,0.2115235583450614,-0.1229970243297703,0.0885265343516692,-1.0317013238507815,0,NB
2025-07-15 16:19:38.328,0.2007500894886142,-0.1194097399171568,0.0813403499042714,-1.0346783844057956,0,NB
2025-07-15 16:19:38.332,0.1924234019164694,-0.0989070339980145,0.0935163682468978,-1.0378836734742842,0,NB
2025-07-15 16:19:38.336,0.1854692767050022,-0.0888488129909075,0.0966204640379224,-1.043042851545202,0,NB
2025-07-15 16:19:38.340,0.1639582305934976,-0.0870054422341952,0.0769527886791201,-1.0503474804234294,0,NB
2025-07-15 16:19:38.344,0.1210255928604888,-0.0763926370312944,0.0446329561451906,-1.0528781297177026,0,NB
2025-07-15 16:19:38.348,0.070008014985989,-0.0560636628299628,0.0139443524673881,-1.0399147753304412,0,NB
2025-07-15 16:19:38.352,0.0289348737719565,-0.0395721556420812,-0.0106372815639828,-1.0088986919475067,0,NB
2025-07-15 16:19:38.356,0.0054138771233122,-0.0332786413457697,-0.027864763921007,-0.9723643643190834,0,NB
2025-07-15 16:19:38.360,-0.0025089302660959,-0.0318495875123506,-0.0343585174811555,-0.9474907501753834,0,NB
2025-07-15 16:19:38.363,-0.0010615047328102,-0.0295743542701766,-0.0306358587104922,-0.9336453441071292,0,NB
2025-07-15 16:19:38.367,3.777310056755825e-05,-0.0239612157458375,-0.0239234423584576,-0.9066327772789718,0,NB
2025-07-15 16:19:38.371,-0.0090625955291441,-0.0133423926003857,-0.022404987848115,-0.8482529683162563,0,NB
2025-07-15 16:19:38.375,-0.0289355596740927,-0.0006261618387622,-0.029561721236047,-0.7804046258555131,0,NB
2025-07-15 16:19:38.379,-0.0483128716214576,0.0059794104039445,-0.0423334609456249,-0.7520390407114134,0,NB
2025-07-15 16:19:38.383,-0.0552340869152277,0.0009316596958746,-0.0543024269534434,-0.7840292852942816,0,NB
2025-07-15 16:19:38.387,-0.0472382714882357,-0.0163841368672226,-0.0636224080956031,-0.8438408976008385,0,NB
2025-07-15 16:19:38.391,-0.0328159957707662,-0.0415923479561869,-0.0744083434722689,-0.8855600492746322,0,NB
2025-07-15 16:19:38.395,-0.0320683644713456,-0.0537443863528103,-0.0858127505745661,-0.8947320711597849,0,NB
2025-07-15 16:19:38.399,-0.066925114432434,-0.0212979051670089,-0.0882230193559955,-0.88248983785203,0,NB
2025-07-15 16:19:38.402,-0.1317540871571836,0.053284630664972,-0.0784694562553578,-0.8580588784736688,0,NB
2025-07-15 16:19:38.406,-0.1800174938477058,0.1149756317850165,-0.0650418618316387,-0.8206821295692301,0,NB
2025-07-15 16:19:38.410,-0.1603432098900271,0.1142609684238284,-0.0460822412405197,-0.7696618425863064,0,NB
2025-07-15 16:19:38.414,-0.0700106566242647,0.0663361721761955,-0.0036744842286243,-0.7174619123346941,0,NB
2025-07-15 16:19:38.418,0.0342018526217063,0.0263255102605336,0.0605273630947089,-0.6856441687866248,0,NB
2025-07-15 16:19:38.422,0.0882336452034466,0.0189972878375625,0.1072309332470546,-0.679013636729986,0,NB
2025-07-15 16:19:38.426,0.0877898430897492,0.0110800511430023,0.0988698944330413,-0.6739113601365172,0,NB
2025-07-15 16:19:38.430,0.0832943202023658,-0.0439635581233932,0.0393307622729397,-0.6372079488967349,0,NB
2025-07-15 16:19:38.434,0.0975338410496205,-0.1328224883326033,-0.0352886470962262,-0.5453299870306387,0,NB
2025-07-15 16:19:38.438,0.0898229109008756,-0.1753666053118142,-0.0855436942311441,-0.3967824566347688,0,NB
2025-07-15 16:19:38.442,0.0316793522162048,-0.1198609830189508,-0.0881816306291611,-0.2284522436541467,0,NB
2025-07-15 16:19:38.445,-0.0294822304452248,-0.0210278000247483,-0.0505100303028396,-0.1016335872337256,0,NB
2025-07-15 16:19:38.449,-0.0274555075163265,0.0199521691856655,-0.0075033381708475,-0.0443324039280506,0,NB
2025-07-15 16:19:38.453,0.0330295784985934,-0.0247788585998897,0.0082507200511763,-0.0168189554454712,0,NB
2025-07-15 16:19:38.457,0.078502421589505,-0.0861500096515086,-0.0076475879161687,0.0475032022169647,0,NB
2025-07-15 16:19:38.461,0.042972489468294,-0.0794206252188687,-0.0364481356113552,0.1678944079125248,0,NB
2025-07-15 16:19:38.465,-0.0650104899514386,0.0100777955801483,-0.0549326942394251,0.2917465669465425,0,NB
2025-07-15 16:19:38.469,-0.1575353478734535,0.1093223651456713,-0.0482129826034768,0.3529925634105547,0,NB
2025-07-15 16:19:38.473,-0.1488457334282384,0.1289754058343004,-0.0198703274766234,0.348991871506795,0,NB
2025-07-15 16:19:38.477,-0.057848320054784,0.0635420894996765,0.0056937695553967,0.3364061313694287,0,NB
2025-07-15 16:19:38.481,0.0113770233230256,-0.0087470175796815,0.0026300058464753,0.3536289209487144,0,NB
2025-07-15 16:19:38.485,0.0069827739605871,-0.0367776330720524,-0.0297948590159878,0.3819514755952269,0,NB
2025-07-15 16:19:38.488,-0.0163731580515585,-0.0513600287060919,-0.0677331866694032,0.388927590631331,0,NB
2025-07-15 16:19:38.492,-0.0044668424885021,-0.0871171856782555,-0.0915840280855051,0.3764943355723629,0,NB
2025-07-15 16:19:38.496,0.0151374561131631,-0.1177492060423235,-0.1026117498553097,0.3718656263392765,0,NB
2025-07-15 16:19:38.500,0.0035629960940359,-0.1093267232687681,-0.1057637271085526,0.3884509417858582,0,NB
2025-07-15 16:19:38.504,-0.0130160636270862,-0.0795474487881228,-0.0925635123563729,0.4101816824172189,0,NB
2025-07-15 16:19:38.508,0.0012957387450789,-0.0586295824946442,-0.0573338436978381,0.4151260512966878,0,NB
2025-07-15 16:19:38.512,0.0174803484642735,-0.0383600720580476,-0.0208797235494671,0.4061537383831034,0,NB
2025-07-15 16:19:38.516,-0.0149652535246503,-0.0027092314046758,-0.0176744848926732,0.4049465606573327,0,NB
2025-07-15 16:19:38.520,-0.0861052118953617,0.0301091299812016,-0.0559960818848738,0.417185022568048,0,NB
2025-07-15 16:19:38.524,-0.137896571903873,0.0339770914557293,-0.1039194804259926,0.4241719795083633,0,NB
2025-07-15 16:19:38.527,-0.1372626493579921,0.0129875361729921,-0.1242751131702508,0.4167502235537209,0,NB
2025-07-15 16:19:38.531,-0.1027746031161755,-0.0116156129166606,-0.1143902160257144,0.4180666436371118,0,NB
2025-07-15 16:19:38.535,-0.0740197996122567,-0.0236426102084459,-0.0976624098209362,0.4560987246803013,0,NB
2025-07-15 16:19:38.539,-0.0787819386318158,-0.0080611945223055,-0.0868431331614432,0.5250073157056624,0,NB
2025-07-15 16:19:38.543,-0.1198863649011378,0.04171582466826,-0.0781705402475127,0.5934136765577922,0,NB
2025-07-15 16:19:38.547,-0.1733905860252452,0.0991511504426262,-0.0742394356048311,0.6435500797795894,0,NB
2025-07-15 16:19:38.551,-0.2006542775104322,0.1151733889510818,-0.0854808885889157,0.676499303335782,0,NB
2025-07-15 16:19:38.555,-0.1771740680550065,0.0700876054237398,-0.107086462667852,0.6841189941664958,0,NB
2025-07-15 16:19:38.559,-0.1141412703691812,-0.0015145808421542,-0.1156558512550689,0.6530049474876232,0,NB
2025-07-15 16:19:38.563,-0.0469620343124549,-0.0504316637248211,-0.0973936980884708,0.5998395977625328,0,NB
2025-07-15 16:19:38.567,-0.0083837632327215,-0.0601496080929873,-0.0685333713842651,0.5642519386662299,0,NB
2025-07-15 16:19:38.570,-0.0149384405202493,-0.0444850936464249,-0.0594235342322237,0.5598983605763524,0,NB
2025-07-15 16:19:38.574,-0.0585797614929142,-0.0267711718867895,-0.0853509334522095,0.5662915397418983,0,NB
2025-07-15 16:19:38.578,-0.1043616274119719,-0.0333071600780161,-0.1376687875697551,0.5693840962669674,0,NB
2025-07-15 16:19:38.582,-0.1210830004907192,-0.0713934819840116,-0.192476482561846,0.5768215962626122,0,NB
2025-07-15 16:19:38.586,-0.1174215756919973,-0.1075110428979889,-0.2249326186841425,0.5953667855273066,0,NB
2025-07-15 16:19:38.590,-0.1185221845117295,-0.1093770162400673,-0.227899200852762,0.6233331116017675,0,NB
2025-07-15 16:19:38.594,-0.1094458459293427,-0.1002874718655785,-0.2097333179028714,0.6624875548695455,0,NB
2025-07-15 16:19:38.598,-0.0447335593074517,-0.1136245658630902,-0.1583581252857367,0.7144340400556386,0,NB
2025-07-15 16:19:38.602,0.0799859296086892,-0.1143399673772773,-0.0343540378909103,0.7710832780427843,0,NB
2025-07-15 16:19:38.606,0.2172580478354264,-0.0427264941822916,0.1745315535240465,0.8264157996581543,0,NB
2025-07-15 16:19:38.610,0.3401905655742879,0.0883161681904893,0.4285067336289876,0.8859593903202352,0,NB
2025-07-15 16:19:38.613,0.4571532215947985,0.2229285280715689,0.6800817495235529,0.9447107825284856,0,NB
2025-07-15 16:19:38.617,0.5311713028472824,0.3534315622083683,0.884602864905655,0.9675405113958112,0,NB
2025-07-15 16:19:38.621,0.4663148728317343,0.4990377752809833,0.9653526479558744,0.9118122172104874,0,NB
2025-07-15 16:19:38.625,0.2157926671900261,0.63803382551608,0.8538264925427428,0.7630633046243979,0,NB
2025-07-15 16:19:38.629,-0.1498498098468407,0.7285312031255047,0.5786813931085717,0.5454108229083494,0,NB
2025-07-15 16:19:38.633,-0.4953992239337913,0.7474259098933913,0.2520266857824012,0.3201131160888303,0,NB
2025-07-15 16:19:38.637,-0.7047970118233254,0.6738663081921108,-0.0309307038153762,0.1733343224104602,0,NB
2025-07-15 16:19:38.641,-0.7353563327140253,0.4970690102702161,-0.2382873226344525,0.1636024658103408,0,NB
2025-07-15 16:19:38.645,-0.6352561049993348,0.2618404622099324,-0.3734156429864844,0.2664577889654458,0,NB
2025-07-15 16:19:38.649,-0.5015911469745313,0.0528203163788024,-0.4487708307996791,0.3994086304215706,0,NB
2025-07-15 16:19:38.652,-0.4061524767146474,-0.076060006991531,-0.4822124839171167,0.5040426826276105,0,NB
2025-07-15 16:19:38.656,-0.36433775716584,-0.126740765405486,-0.4910785227888087,0.5768567524469523,0,NB
2025-07-15 16:19:38.660,-0.3572690939209297,-0.128059389228121,-0.4853284833727795,0.631320907907718,0,NB
2025-07-15 16:19:38.664,-0.3563141263924524,-0.1128313914087147,-0.4691455180314249,0.6695318620819249,0,NB
2025-07-15 16:19:38.668,-0.3334300717795285,-0.1063839581652815,-0.4398140301818896,0.692271206426567,0,NB
2025-07-15 16:19:38.672,-0.2760058972350354,-0.1099736598922622,-0.3859795573709459,0.7080328646025803,0,NB
2025-07-15 16:19:38.676,-0.1995474656377709,-0.1060421092247097,-0.30558957511229,0.72350857511355,0,NB
2025-07-15 16:19:38.680,-0.1341214988810251,-0.0918702611072596,-0.2259917602442987,0.7359863150857059,0,NB
2025-07-15 16:19:38.684,-0.0954295310526674,-0.0882968471507879,-0.1837263784659729,0.7393824190118227,0,NB
2025-07-15 16:19:38.688,-0.0766968465366333,-0.1053628547407135,-0.1820597015463417,0.7334498532176926,0,NB
2025-07-15 16:19:38.692,-0.0654661231166882,-0.1245315070690805,-0.1899976304609017,0.7241613005177236,0,NB
2025-07-15 16:19:38.695,-0.0560863473437565,-0.1289077785330092,-0.184994126157874,0.7159283412732899,0,NB
2025-07-15 16:19:38.699,-0.0469542041238142,-0.1281920976339587,-0.1751463020450033,0.7060343218589683,0,NB
2025-07-15 16:19:38.703,-0.0375098692043808,-0.1379090525723598,-0.1754189220702055,0.6890336731670852,0,NB
2025-07-15 16:19:38.707,-0.0296106517580182,-0.1538302430467965,-0.1834408951043646,0.6654677083840916,0,NB
2025-07-15 16:19:38.711,-0.0250328761970673,-0.1639638467384125,-0.1889967232408726,0.6428163275926967,0,NB
2025-07-15 16:19:38.715,-0.0217374191577014,-0.1696557468895511,-0.1913931663584095,0.6279400912259139,0,NB
2025-07-15 16:19:38.719,-0.0164824432316937,-0.1784247243376719,-0.1949071678863847,0.6206941246699353,0,NB
2025-07-15 16:19:38.723,-0.0092451974445282,-0.1879630233209048,-0.1972082210883687,0.6143501539150676,0,NB
2025-07-15 16:19:38.727,-0.0021595475841949,-0.1904289168988946,-0.1925884648117706,0.601635588360822,0,NB
2025-07-15 16:19:38.731,0.0041697916764641,-0.1839684349179456,-0.1797986435756374,0.5822013418341508,0,NB
2025-07-15 16:19:38.735,0.0111286705406658,-0.1716439126132029,-0.1605152424121158,0.5641452328735836,0,NB
2025-07-15 16:19:38.738,0.0196381774260264,-0.1559009509277336,-0.1362627738468871,0.5548352388677191,0,NB
2025-07-15 16:19:38.742,0.0288754939796333,-0.1387610512538155,-0.1098855576249673,0.5508460109046754,0,NB
2025-07-15 16:19:38.746,0.0380248700796758,-0.1224354057439595,-0.0844105360203238,0.5427690809588697,0,NB
2025-07-15 16:19:38.750,0.0479730501590189,-0.1079398926398793,-0.0599668428418847,0.5292075269868951,0,NB
2025-07-15 16:19:38.754,0.0593927001695517,-0.0957969187242581,-0.0364042189208801,0.5181286334121004,0,NB
2025-07-15 16:19:38.758,0.0704364227810059,-0.0867009204695668,-0.0162644980600843,0.5154573035144402,0,NB
2025-07-15 16:19:38.762,0.079379922514562,-0.0798852421802227,-0.0005053200422475,0.5213371160959543,0,NB
2025-07-15 16:19:38.766,0.0885150826579625,-0.0741767646061437,0.0143383176706285,0.5348708091151324,0,NB
2025-07-15 16:19:38.770,0.1018245723319772,-0.0705170163467308,0.0313075555994339,0.551368586856609,0,NB
2025-07-15 16:19:38.774,0.1191779311189848,-0.0684540256836906,0.0507239050445394,0.55810273678848,0,NB
2025-07-15 16:19:38.777,0.1358385968957267,-0.0628038795182743,0.0730347169818701,0.5451426310453711,0,NB
2025-07-15 16:19:38.781,0.1478281441531971,-0.0505415137120699,0.0972866300412534,0.5197567630259665,0,NB
2025-07-15 16:19:38.785,0.1560638043447371,-0.0369359411850605,0.119127862755706,0.501283905439238,0,NB
2025-07-15 16:19:38.789,0.1648706345034742,-0.0282702574552806,0.1366003766398205,0.5011230642581929,0,NB
2025-07-15 16:19:38.793,0.1766238996697101,-0.0238762650164532,0.1527476342404055,0.513256464475365,0,NB
2025-07-15 16:19:38.797,0.1884274939529776,-0.0211415203851057,0.1672859731510128,0.5245241642520124,0,NB
2025-07-15 16:19:38.801,0.1958880974915508,-0.0217656968832176,0.1741224001878432,0.5269555384626519,0,NB
2025-07-15 16:19:38.805,0.2000206882851101,-0.0267454241146,0.173275263746231,0.5194363946918248,0,NB
2025-07-15 16:19:38.809,0.2066276691997233,-0.0308073548577652,0.1758203139137027,0.5072298447210659,0,NB
2025-07-15 16:19:38.813,0.2179271047067463,-0.0279425052149435,0.1899845990598689,0.4997213567343893,0,NB
2025-07-15 16:19:38.817,0.2297757522843317,-0.0190437210997903,0.2107320307493649,0.4991063450232746,0,NB
2025-07-15 16:19:38.820,0.2384217577882603,-0.0102982830698552,0.2281234742800339,0.4963925483516859,0,NB
2025-07-15 16:19:38.824,0.2437822198723852,-0.0064935020795279,0.237288717351134,0.4861830653246136,0,NB
2025-07-15 16:19:38.828,0.2448777051939176,-0.0075831314295053,0.2372945733194515,0.4745779499305229,0,NB
2025-07-15 16:19:38.832,0.2391039032603013,-0.0099850372031043,0.2291188656093466,0.4666420714201911,0,NB
2025-07-15 16:19:38.836,0.2271437893251462,-0.0102676254045716,0.2168761634700435,0.4590359183411323,0,NB
2025-07-15 16:19:38.840,0.2123531450344134,-0.0079415940676745,0.2044115505135289,0.4489772249873563,0,NB
2025-07-15 16:19:38.844,0.1952456650891808,-0.0049559493283593,0.1902897153049526,0.4388902520828466,0,NB
2025-07-15 16:19:38.848,0.1738419541797592,-0.0028956547548005,0.1709462989665885,0.4299630915876222,0,NB
2025-07-15 16:19:38.852,0.1488146818779787,-0.0011850961003514,0.1476295853169912,0.4199951657161166,0,NB
2025-07-15 16:19:38.856,0.1239058704289253,0.0014030717203203,0.1253089416865516,0.4088485655007917,0,NB
2025-07-15 16:19:38.860,0.1015339187792871,0.0037172875780634,0.1052512058926749,0.3997827504119038,0,NB
2025-07-15 16:19:38.863,0.0812309586140306,0.0023830627183683,0.0836140208657112,0.3943134267461142,0,NB
2025-07-15 16:19:38.867,0.062452400516777,-0.0039379425288915,0.0585144575192924,0.3896784306269487,0,NB
2025-07-15 16:19:38.871,0.0461946074227531,-0.0115623365825076,0.0346322703701043,0.3829835585271736,0,NB
2025-07-15 16:19:38.875,0.0333321438415468,-0.0151385041092598,0.0181936392608628,0.3758373790536058,0,NB
2025-07-15 16:19:38.879,0.0233696070663961,-0.0143086902993289,0.0090609162942345,0.3722929810606645,0,NB
2025-07-15 16:19:38.883,0.015197502733394,-0.0142109410379899,0.0009865612210268,0.3725845995000028,0,NB
2025-07-15 16:19:38.887,0.0079035252057218,-0.0179726407823948,-0.0100691160522304,0.3722320407810754,0,NB
2025-07-15 16:19:38.891,0.0012303396188155,-0.022881404659084,-0.0216510655164913,0.3685846380172464,0,NB
2025-07-15 16:19:38.895,-0.0040014842200043,-0.0262786404768352,-0.0302801251737922,0.365107451736835,0,NB
2025-07-15 16:19:38.899,-0.0067689601228114,-0.0296858955494557,-0.0364548561503448,0.3661769979632313,0,NB
2025-07-15 16:19:38.902,-0.0076877289775578,-0.0337685335253057,-0.0414562629818609,0.37004600411698,0,NB
2025-07-15 16:19:38.906,-0.0089321155705997,-0.0349888050956659,-0.0439209211454522,0.3716179414262886,0,NB
2025-07-15 16:19:38.910,-0.0115562117458103,-0.0314074927325354,-0.0429637049575622,0.3702335162549923,0,NB
2025-07-15 16:19:38.914,-0.0140610255809517,-0.0271672356354606,-0.0412282616962235,0.3692660282064959,0,NB
2025-07-15 16:19:38.918,-0.0149976194009451,-0.0270007732592365,-0.0419983931406714,0.3696679119150501,0,NB
2025-07-15 16:19:38.922,-0.0153781239540816,-0.0296522701111457,-0.0450303945455697,0.3684541321031724,0,NB
2025-07-15 16:19:38.926,-0.0162605835774573,-0.030595982351031,-0.0468565664081908,0.362662615127255,0,NB
2025-07-15 16:19:38.930,-0.0164022793330474,-0.0284617780424026,-0.0448640578550825,0.3534770535100445,0,NB
2025-07-15 16:19:38.934,-0.015252846478861,-0.0252921500033492,-0.0405449969621997,0.3469866372409924,0,NB
2025-07-15 16:19:38.938,-0.014513503264909,-0.0231740679790588,-0.0376875717235697,0.3479710323385037,0,NB
2025-07-15 16:19:38.942,-0.0133957459376847,-0.0229401474471036,-0.0363358938631721,0.3520672588976266,0,NB
2025-07-15 16:19:38.945,-0.0076091467056936,-0.0229731851914037,-0.0305823323746579,0.3506249147217372,0,NB
2025-07-15 16:19:38.949,0.0032129539693878,-0.0195670156728381,-0.0163540621809154,0.3434895062215609,0,NB
2025-07-15 16:19:38.953,0.0127184459279751,-0.0134644400558083,-0.0007459946047117,0.3369391733747712,0,NB
2025-07-15 16:19:38.957,0.015830409561975,-0.0126049239977765,0.0032254850889828,0.3303159685880083,0,NB
2025-07-15 16:19:38.961,0.0149443311301834,-0.0201137533968633,-0.0051694227403058,0.3178587347669875,0,NB
2025-07-15 16:19:38.965,0.0161195235439795,-0.0245444415178362,-0.0084249184467902,0.3016610325487542,0,NB
2025-07-15 16:19:38.969,0.0223576925663571,-0.0138053626485267,0.0085523294457153,0.2884553915761385,0,NB
2025-07-15 16:19:38.973,0.0314657178696382,0.0052619503802045,0.0367276677797085,0.2758475872590931,0,NB
2025-07-15 16:19:38.977,0.0382344610529778,0.0150138130585742,0.0532482736437167,0.2554915265516833,0,NB
2025-07-15 16:19:38.981,0.038500406183538,0.0121650819441231,0.0506654876612357,0.2278161787639333,0,NB
2025-07-15 16:19:38.985,0.0332458353893927,0.009489352166117,0.0427351870902261,0.2025177405426939,0,NB
2025-07-15 16:19:38.988,0.0288661219772772,0.0133174911492126,0.0421836126634013,0.1866358531250173,0,NB
2025-07-15 16:19:38.992,0.0308834282593119,0.0159305692353086,0.0468139970344052,0.178850937182364,0,NB
2025-07-15 16:19:38.996,0.037287332420487,0.0120168464859055,0.0493041784483475,0.1728920748344879,0,NB
2025-07-15 16:19:39.000,0.0408374240177362,0.0068582160427052,0.0476956396039795,0.1643754873547145,0,NB
2025-07-15 16:19:39.004,0.0372745902598475,0.0038811955267654,0.0411557853325227,0.1568372955309885,0,NB
2025-07-15 16:19:39.008,0.0275661174606623,-0.0021062057173093,0.025459911292558,0.158155730466127,0,NB
2025-07-15 16:19:39.012,0.0130957367146968,-0.0127372789001435,0.0003584573666617,0.1668328119476657,0,NB
2025-07-15 16:19:39.016,-0.0059460850543649,-0.0196854975653845,-0.0256315830655011,0.1681783170476994,0,NB
2025-07-15 16:19:39.020,-0.0267107518365269,-0.0195095489194969,-0.0462203011991979,0.1517646311715344,0,NB
2025-07-15 16:19:39.024,-0.043594721592647,-0.0225691561836797,-0.0661638782159148,0.1259597307703212,0,NB
2025-07-15 16:19:39.027,-0.0541784414111114,-0.0351081426878892,-0.0892865845350415,0.1052945306387758,0,NB
2025-07-15 16:19:39.031,-0.0612408014803586,-0.0448190617096447,-0.106059863623268,0.0906794516318655,0,NB
2025-07-15 16:19:39.035,-0.0670818967612403,-0.0392667052535674,-0.1063486024452093,0.0748258332205953,0,NB
2025-07-15 16:19:39.039,-0.0702215973315227,-0.0273740112376551,-0.0975956089957888,0.0605037188120103,0,NB
2025-07-15 16:19:39.043,-0.0702533242482638,-0.0254586194763286,-0.0957119441471465,0.0571720948424053,0,NB
2025-07-15 16:19:39.047,-0.0711930389760251,-0.0312396448213819,-0.1024326842165455,0.0623681477326634,0,NB
2025-07-15 16:19:39.051,-0.0755582304240048,-0.0304383679370788,-0.1059965987769957,0.0626274096351614,0,NB
2025-07-15 16:19:39.055,-0.079318566188952,-0.0225489865034732,-0.1018675531043795,0.0530292414865921,0,NB
2025-07-15 16:19:39.059,-0.0784112040778716,-0.019635654347766,-0.0980468588331628,0.0425848333845308,0,NB
2025-07-15 16:19:39.063,-0.0761819078712898,-0.0220648633933415,-0.0982467716681566,0.0397896412843883,0,NB
2025-07-15 16:19:39.067,-0.0777354752109649,-0.0165972000467937,-0.0943326756576331,0.0426246751720004,0,NB
2025-07-15 16:19:39.070,-0.0809690352660771,-0.001216213780723,-0.0821852494425279,0.0435414973778107,0,NB
2025-07-15 16:19:39.074,-0.0806693321754394,0.0083220137684368,-0.0723473187980131,0.039072855585211,0,NB
2025-07-15 16:19:39.078,-0.0782366763725384,0.0037918784373354,-0.0744447983216936,0.0329565493152738,0,NB
2025-07-15 16:19:39.082,-0.0793647832396326,-0.0022307373390992,-0.0815955209611055,0.0294814005249542,0,NB
2025-07-15 16:19:39.086,-0.0837646894323866,0.0021104666632018,-0.0816542231471709,0.0255864179538601,0,NB
2025-07-15 16:19:39.090,-0.0852304955076515,0.0110419183668065,-0.0741885775138649,0.0150165786653822,0,NB
2025-07-15 16:19:39.094,-0.0817764295897449,0.0140079693186219,-0.0677684606391693,0.0003313512357443,0,NB
2025-07-15 16:19:39.098,-0.078199861901186,0.0055470961114152,-0.0726527661532241,-0.0068450502112142,0,NB
2025-07-15 16:19:39.102,-0.0781706086885694,-0.0206962668427646,-0.0988668758901087,-0.0004131984141008,0,NB
2025-07-15 16:19:39.106,-0.080160038407202,-0.0622369892158786,-0.1423970279766431,0.0118454664255116,0,NB
2025-07-15 16:19:39.110,-0.0797005290224643,-0.0958367117440024,-0.1755372411146468,0.0195459964546926,0,NB
2025-07-15 16:19:39.113,-0.0677862293579089,-0.1071865031854417,-0.174972732886467,0.025354253580838,0,NB
2025-07-15 16:19:39.117,-0.0290592949142966,-0.1172616891189299,-0.1463209843713342,0.0428966488626766,0,NB
2025-07-15 16:19:39.121,0.0486376039321254,-0.136822645420483,-0.0881850418209946,0.079229852319309,0,NB
2025-07-15 16:19:39.125,0.1640347385039096,-0.1234309490162361,0.0406037891608012,0.1253124657771069,0,NB
2025-07-15 16:19:39.129,0.3076848676965761,-0.0396932916329521,0.2679915757422762,0.1678713862942039,0,NB
2025-07-15 16:19:39.133,0.4628510282182861,0.0879229116412079,0.5507739395435077,0.204797011258899,0,NB
2025-07-15 16:19:39.137,0.5842040666012172,0.2304484875543368,0.814652553845302,0.2355136673843019,0,NB
2025-07-15 16:19:39.141,0.5983526107288928,0.4083749400615233,1.0067275504862792,0.2365237118369442,0,NB
2025-07-15 16:19:39.145,0.4575546362400916,0.6122767190598886,1.0698313550018153,0.1660341092686347,0,NB
2025-07-15 16:19:39.149,0.1821025923861103,0.7598329049704136,0.9419354970641074,0.0023594496688676,0,NB
2025-07-15 16:19:39.152,-0.1590146415883837,0.7985066757666878,0.6394920338919057,-0.2280288347202515,0,NB
2025-07-15 16:19:39.156,-0.4778742223329162,0.7579146963256433,0.2800404737127618,-0.4564708918144704,0,NB
2025-07-15 16:19:39.160,-0.6822231765214763,0.6622591305246951,-0.0199640462703392,-0.604577271985183,0,NB
2025-07-15 16:19:39.164,-0.7199504263008558,0.4942960269757028,-0.2256543995925251,-0.6310729544803206,0,NB
2025-07-15 16:19:39.168,-0.6269250843791757,0.2715315570642682,-0.3553935275759484,-0.5591173944508132,0,NB
2025-07-15 16:19:39.172,-0.4972217443164721,0.068028799093735,-0.4291929454770773,-0.450605980463641,0,NB
2025-07-15 16:19:39.176,-0.4025149839309113,-0.0590201037245424,-0.4615350879030068,-0.3549000476220753,0,NB
2025-07-15 16:19:39.180,-0.3576595768582259,-0.109239415617517,-0.4668989927166518,-0.2875575266512383,0,NB
2025-07-15 16:19:39.184,-0.3448189728720913,-0.1099598906754753,-0.4547788637817913,-0.244074934954764,0,NB
2025-07-15 16:19:39.188,-0.3393691973974603,-0.0914031504446866,-0.4307723480694557,-0.2149676560427568,0,NB
2025-07-15 16:19:39.192,-0.3184848388283931,-0.0796204556871291,-0.3981052947357857,-0.1901618885129817,0,NB
2025-07-15 16:19:39.195,-0.2708722199216828,-0.0778107900011175,-0.3486830101360232,-0.1641577992195944,0,NB
2025-07-15 16:19:39.199,-0.2055219743077565,-0.0651403995044156,-0.270662374018334,-0.1407266066743316,0,NB
2025-07-15 16:19:39.203,-0.1429641306078088,-0.0355443317527363,-0.1785084625595919,-0.1264108227344203,0,NB
2025-07-15 16:19:39.207,-0.0975089026025044,-0.0152706382126322,-0.1127795410070044,-0.121492574774425,0,NB
2025-07-15 16:19:39.211,-0.0717164038863789,-0.0216992892664596,-0.09341569333739,-0.1230137776591995,0,NB
2025-07-15 16:19:39.215,-0.0612781553980969,-0.0340251627434084,-0.0953033183186195,-0.1297606022051568,0,NB
2025-07-15 16:19:39.219,-0.0573896262490457,-0.0290042417617716,-0.0863938681805694,-0.1373322160122188,0,NB
2025-07-15 16:19:39.223,-0.0505774572898277,-0.0177865224102453,-0.0683639798625706,-0.1375765859484185,0,NB
2025-07-15 16:19:39.227,-0.0401243285732634,-0.0214243801489915,-0.0615487088773143,-0.1299022644749959,0,NB
2025-07-15 16:19:39.231,-0.0340316542042235,-0.0337775164216607,-0.0678091707732149,-0.1245987782532677,0,NB
2025-07-15 16:19:39.235,-0.0342725714601279,-0.0357270032080777,-0.0699995748078916,-0.1301084701076038,0,NB
2025-07-15 16:19:39.238,-0.0312338117353525,-0.0290647545662869,-0.0602985664339907,-0.1435405567387332,0,NB
2025-07-15 16:19:39.242,-0.0194544254816029,-0.0298219950381922,-0.0492764206447146,-0.1564436483546503,0,NB
2025-07-15 16:19:39.246,-0.0076429349998074,-0.0384319600715055,-0.0460748951883495,-0.1644078715523216,0,NB
2025-07-15 16:19:39.250,-0.0036023003588624,-0.0414556536768293,-0.0450579541448011,-0.1675961839605304,0,NB
2025-07-15 16:19:39.254,-0.0004221370704522,-0.0374490941337764,-0.037871231305863,-0.1671456888763014,0,NB
2025-07-15 16:19:39.258,0.0104255634090637,-0.0379639409050652,-0.0275383775902655,-0.1661696085618096,0,NB
2025-07-15 16:19:39.262,0.0227601461862338,-0.0447063200539623,-0.0219461739541117,-0.1681116300652052,0,NB
2025-07-15 16:19:39.266,0.027019064988299,-0.0467840489513188,-0.0197649840412667,-0.1692832833209844,0,NB
2025-07-15 16:19:39.270,0.0293001423739595,-0.0418801819674582,-0.0125800396640708,-0.1624820763323189,0,NB
2025-07-15 16:19:39.274,0.0425189475317805,-0.0412918171381207,0.0012271303304211,-0.1520468596506055,0,NB
2025-07-15 16:19:39.277,0.0641317132440933,-0.0497853900710229,0.0143463231175953,-0.1518731508131447,0,NB
2025-07-15 16:19:39.281,0.0795102412074864,-0.0572205804293203,0.0222896607309148,-0.1629510673365756,0,NB
2025-07-15 16:19:39.285,0.0848018926039429,-0.0565743311463459,0.0282275614182479,-0.1680741165234129,0,NB
2025-07-15 16:19:39.289,0.0905234925834588,-0.0550275312052342,0.0354959613462677,-0.1578770696581386,0,NB
2025-07-15 16:19:39.293,0.1028010590755807,-0.0592481728599088,0.0435528861913357,-0.1474879281837356,0,NB
2025-07-15 16:19:39.297,0.1159347805686243,-0.0637142616851846,0.0522205188672826,-0.1537575455641591,0,NB
2025-07-15 16:19:39.301,0.1259140040302615,-0.0628504855554366,0.0630635184667521,-0.1682947943349219,0,NB
2025-07-15 16:19:39.305,0.1377287258636225,-0.0628721841464445,0.0748565417166469,-0.1709332132500093,0,NB
2025-07-15 16:19:39.309,0.1540477909264997,-0.0715998617904564,0.0824479291430402,-0.1615508988198563,0,NB
2025-07-15 16:19:39.313,0.1682231113685046,-0.0846324230460804,0.0835906883374568,-0.1576951163711224,0,NB
2025-07-15 16:19:39.317,0.1755485685300771,-0.0907958385186891,0.0847527300345811,-0.1639255495982318,0,NB
2025-07-15 16:19:39.320,0.1818902726987822,-0.0870982989903253,0.0947919737393857,-0.166578811636549,0,NB
2025-07-15 16:19:39.324,0.19371646832801,-0.0809081864858747,0.112808281880602,-0.1610933525544181,0,NB
2025-07-15 16:19:39.328,0.2076241954510368,-0.0787997213283807,0.1288244741689835,-0.1599735930199073,0,NB
2025-07-15 16:19:39.332,0.217345325248757,-0.0794426390722567,0.1379026862309269,-0.167822235616999,0,NB
2025-07-15 16:19:39.336,0.225437768403756,-0.0783375397316468,0.1471002287344271,-0.1729255332127821,0,NB
2025-07-15 16:19:39.340,0.2405324663372849,-0.0749859925312975,0.1655464738759551,-0.168859482150338,0,NB
2025-07-15 16:19:39.344,0.2639664351019885,-0.0731845963726133,0.190781838807079,-0.1618066794427288,0,NB
2025-07-15 16:19:39.348,0.2831509486634803,-0.0755757619083399,0.207575186840772,-0.1569928434390276,0,NB
2025-07-15 16:19:39.352,0.2812023650653667,-0.0788698182521909,0.2023325469067378,-0.1574972285190534,0,NB
2025-07-15 16:19:39.356,0.2583205018156595,-0.0762625758643619,0.1820579260526622,-0.1652600042291707,0,NB
2025-07-15 16:19:39.360,0.2450942857510253,-0.0669777167415147,0.1781165691185881,-0.1673448857204702,0,NB
2025-07-15 16:19:39.363,0.2799891896686435,-0.0605199245482958,0.2194692652371463,-0.1476819304443478,0,NB
2025-07-15 16:19:39.367,0.3561426421676709,-0.0655184536843248,0.2906241886079715,-0.1263334126738602,0,NB
