Timestamp,GSR_Filtered,PPG_Filtered
2025-05-06 16:23:42.203,1.246279360529427e-05,0.0230439962402429
2025-05-06 16:23:42.264,9.535106639079032e-05,0.0716987638256619
2025-05-06 16:23:42.325,0.0002581303208065,0.1947357111256672
2025-05-06 16:23:42.386,0.0003579892178343,0.3201706327942962
2025-05-06 16:23:42.447,0.0002185051926395,0.3250097083863248
2025-05-06 16:23:42.508,-8.730606532320447e-05,0.1772860469804986
2025-05-06 16:23:42.569,-0.000310852203825,0.0020497368837295
2025-05-06 16:23:42.630,-0.000307490473004,-0.0443468039988196
2025-05-06 16:23:42.691,-0.0001403832734637,0.0699331131840012
2025-05-06 16:23:42.752,4.239137462736199e-05,0.220608951917006
2025-05-06 16:23:42.813,0.0001616574576801,0.2302859308426656
2025-05-06 16:23:42.874,0.000222530395721,0.0529299191830913
2025-05-06 16:23:42.935,0.000212987618507,-0.1240923589882127
2025-05-06 16:23:42.996,9.530663894782196e-05,-0.0620383900106565
2025-05-06 16:23:43.057,-7.019205239483516e-05,0.2110332639437249
2025-05-06 16:23:43.118,-0.0001373879597578,0.4073788617319016
2025-05-06 16:23:43.179,-7.203843141828784e-05,0.3580636945834407
2025-05-06 16:23:43.240,5.088935516189536e-06,0.2117482309990422
2025-05-06 16:23:43.301,1.091630302643532e-05,0.1760483073598198
2025-05-06 16:23:43.362,-1.2647062255346976e-05,0.2337521078135728
2025-05-06 16:23:43.423,-1.0440215212379549e-05,0.2303781051505649
2025-05-06 16:23:43.484,2.897386965406159e-05,0.1155319749453472
2025-05-06 16:23:43.545,9.294563398807722e-05,-0.0233842250974081
2025-05-06 16:23:43.606,0.0001192158629297,-0.0909900367132829
2025-05-06 16:23:43.667,5.739109317182169e-05,-0.0536061939403429
2025-05-06 16:23:43.728,2.2560482760034697e-06,0.0618240479199055
2025-05-06 16:23:43.789,8.223661425934497e-05,0.1687924278824812
2025-05-06 16:23:43.850,0.0002254201365054,0.177990396181135
2025-05-06 16:23:43.911,0.0002651975617423,0.1054136135968997
2025-05-06 16:23:43.972,0.0002159797884131,0.0682080086164435
2025-05-06 16:23:44.033,0.0002033843378392,0.1336275070872238
2025-05-06 16:23:44.094,0.0001985452589001,0.2233046886591989
2025-05-06 16:23:44.155,5.567511855599879e-05,0.2054037359432254
2025-05-06 16:23:44.216,-0.0001850254492079,0.055359124712957
2025-05-06 16:23:44.277,-0.0002263067872065,-0.1044726439223333
2025-05-06 16:23:44.338,3.971765008278207e-05,-0.1285878526819814
2025-05-06 16:23:44.399,7.337031215886181e-05,0.0005042056833436
2025-05-06 16:23:44.459,-0.0007944995923053,0.1652276877984046
2025-05-06 16:23:44.520,-0.0021293791703329,0.2501382382288834
2025-05-06 16:23:44.581,-0.0024237939899844,0.2418291126114138
2025-05-06 16:23:44.642,-0.000985446545354,0.1905227785571753
2025-05-06 16:23:44.703,0.0009504205398147,0.1407655611628085
2025-05-06 16:23:44.764,0.0017580760113634,0.1196684315172965
2025-05-06 16:23:44.825,0.0013298770454369,0.1240705750435204
2025-05-06 16:23:44.886,0.000689645892983,0.1022215866659537
2025-05-06 16:23:44.947,0.000440126530933,0.0194921124813747
2025-05-06 16:23:45.008,0.0003951960748222,-0.0566821453759201
2025-05-06 16:23:45.069,0.0002854367248382,-0.0263337855899518
2025-05-06 16:23:45.130,0.0001537194783747,0.0907389419360732
2025-05-06 16:23:45.191,0.0001320879918587,0.1732474921153389
2025-05-06 16:23:45.252,0.0001690588005861,0.1666322623899419
2025-05-06 16:23:45.313,9.985758505505414e-05,0.1287691239125783
2025-05-06 16:23:45.374,-7.820285358240392e-05,0.0289654595704739
2025-05-06 16:23:45.435,-0.0001578609131137,0.0205954908232784
2025-05-06 16:23:45.496,-1.930782420737577e-05,0.1292078987182751
2025-05-06 16:23:45.557,0.0001562385876907,0.1734889534938205
2025-05-06 16:23:45.618,0.0001101459468482,0.001415688527186
2025-05-06 16:23:45.679,-0.0001336271598076,-0.2588772337077197
2025-05-06 16:23:45.740,-0.0003174531274237,-0.3271865007217682
2025-05-06 16:23:45.801,-0.0003288374781975,-0.140939412286891
2025-05-06 16:23:45.862,-0.0002960429222132,0.0692957969010112
2025-05-06 16:23:45.923,-0.0003026758941828,0.1058485288884715
2025-05-06 16:23:45.984,-0.0002790067621674,0.0266143262226188
2025-05-06 16:23:46.045,-0.0001972814543406,-0.0229091970241191
2025-05-06 16:23:46.106,-0.0001127465501816,-0.0131751626783135
2025-05-06 16:23:46.167,-2.0811905331566185e-05,0.0283525854130747
2025-05-06 16:23:46.228,9.4444500092775e-05,0.0962279914660059
2025-05-06 16:23:46.289,0.0001377804339653,0.1203091110807551
2025-05-06 16:23:46.350,4.47345623252977e-05,-0.0168620396526863
2025-05-06 16:23:46.411,-5.367995799918543e-05,-0.2628956259952659
2025-05-06 16:23:46.472,-8.764090024739173e-06,-0.3745439717469974
2025-05-06 16:23:46.533,0.0001110783205687,-0.2305058988127116
2025-05-06 16:23:46.594,0.0001477059532447,-0.0044184048738616
2025-05-06 16:23:46.655,9.634732948373552e-05,0.0823101866082648
2025-05-06 16:23:46.716,4.571533361769169e-05,0.0378006232929576
2025-05-06 16:23:46.777,9.907513726370604e-06,0.0273652885808573
2025-05-06 16:23:46.838,-2.237022934857437e-05,0.1313292691908853
2025-05-06 16:23:46.899,-1.646774377696227e-05,0.2650431353630098
2025-05-06 16:23:46.959,2.3870593255492705e-05,0.2874447758115321
2025-05-06 16:23:47.020,5.3008027096438366e-05,0.1453904425816671
2025-05-06 16:23:47.081,9.002855152974997e-05,-0.0626777690052015
2025-05-06 16:23:47.142,0.0001622913632611,-0.1661294769402511
2025-05-06 16:23:47.203,0.000180102589668,-0.0941964073143498
2025-05-06 16:23:47.264,5.073734677592239e-05,0.0481813972363409
2025-05-06 16:23:47.325,-0.0001243190089218,0.1072363447535131
2025-05-06 16:23:47.386,-0.0001416787218701,0.0563489346223484
2025-05-06 16:23:47.447,1.706988328879975e-05,0.0054728880877629
2025-05-06 16:23:47.508,0.0001402948243995,0.0503882400969072
2025-05-06 16:23:47.569,7.811237450339347e-05,0.148406544010339
2025-05-06 16:23:47.630,-5.166154732478763e-05,0.1556494179935779
2025-05-06 16:23:47.691,-6.156535953684722e-05,-0.0073674166258436
2025-05-06 16:23:47.752,1.8485915557993792e-05,-0.2369823274176829
2025-05-06 16:23:47.813,2.2848644407027236e-05,-0.3358940021394698
2025-05-06 16:23:47.874,-7.686103233521562e-05,-0.2349724352889474
2025-05-06 16:23:47.935,-0.0001717142608916,-0.0683169411207059
2025-05-06 16:23:47.996,-0.0002059313616777,0.0020966316088667
2025-05-06 16:23:48.057,-0.0001933647184743,-0.0311428872324743
2025-05-06 16:23:48.118,-0.000125991974405,-0.059707923693167
2025-05-06 16:23:48.179,-1.4459976718499909e-05,-0.0127229422613895
2025-05-06 16:23:48.240,5.299296579434992e-05,0.0884695191505283
2025-05-06 16:23:48.301,1.7035894556210234e-05,0.1698707897036631
2025-05-06 16:23:48.362,-3.917521224678159e-05,0.1441420842351513
2025-05-06 16:23:48.423,1.1126464503998452e-05,-0.0203771340891053
2025-05-06 16:23:48.484,0.0001511817119179,-0.2106448883525216
2025-05-06 16:23:48.545,0.0002263923596406,-0.230885214773057
2025-05-06 16:23:48.606,0.0001476429016165,-0.0287692446494583
2025-05-06 16:23:48.667,5.897814016678532e-06,0.2102992740349883
2025-05-06 16:23:48.728,-5.962650603700723e-05,0.2644303593243504
2025-05-06 16:23:48.789,-1.9513090872954385e-05,0.1141939370351435
2025-05-06 16:23:48.850,8.458968556894509e-05,-0.066328179276802
2025-05-06 16:23:48.911,0.0002134576665994,-0.0993891687599754
2025-05-06 16:23:48.972,0.0002760899179216,0.0420985507739201
2025-05-06 16:23:49.033,0.0001618791546918,0.2069963388399185
2025-05-06 16:23:49.094,-7.238889930555267e-05,0.1907762103319792
2025-05-06 16:23:49.155,-0.0002254306020419,-0.0363397117782128
2025-05-06 16:23:49.216,-0.0002296858066908,-0.2508072595375826
2025-05-06 16:23:49.277,-0.0002061552241358,-0.2250335438318913
2025-05-06 16:23:49.338,-0.0002218196256125,-0.016172383621769
2025-05-06 16:23:49.399,-0.0002115164936166,0.122968498454692
2025-05-06 16:23:49.459,-0.0001391006237338,0.0875089025851899
2025-05-06 16:23:49.520,-4.695689508566641e-05,0.0165746994312608
2025-05-06 16:23:49.581,3.6497660164041976e-05,0.0505933582205056
2025-05-06 16:23:49.642,0.0001057322629608,0.1588504679266615
2025-05-06 16:23:49.703,0.000137285417942,0.2337020247984042
2025-05-06 16:23:49.764,0.0001278460314987,0.2107879453210545
2025-05-06 16:23:49.825,0.0001129727858271,0.0780913266605823
2025-05-06 16:23:49.886,0.0001066732779812,-0.1001057042962485
2025-05-06 16:23:49.947,0.0001010336126389,-0.1766598691370561
2025-05-06 16:23:50.008,0.0001135349295121,-0.0836828114724053
2025-05-06 16:23:50.069,0.0001390934671928,0.0218330829766948
2025-05-06 16:23:50.130,0.0001110824339577,-0.0656833731065445
2025-05-06 16:23:50.191,3.180414542735865e-06,-0.299854792415313
2025-05-06 16:23:50.252,-0.000103094312544,-0.432196519443171
2025-05-06 16:23:50.313,-0.0001238101468308,-0.3636125876846172
2025-05-06 16:23:50.374,-8.46180715602721e-05,-0.2626240218286775
2025-05-06 16:23:50.435,-6.947846011069478e-05,-0.2822797211214811
2025-05-06 16:23:50.496,-8.637179598602723e-05,-0.3303281311938886
2025-05-06 16:23:50.557,-6.52916523125601e-05,-0.2332337818343893
2025-05-06 16:23:50.618,-8.70261689217423e-06,-0.0033344243105019
2025-05-06 16:23:50.679,-2.4035280320778687e-05,0.2103708832342126
2025-05-06 16:23:50.740,-0.0001399024123644,0.3610509139034152
2025-05-06 16:23:50.801,-0.0002156001523344,0.5086559291111706
2025-05-06 16:23:50.862,-0.0001215209243272,0.6185875795141592
2025-05-06 16:23:50.923,7.345546906397234e-05,0.5743459189207162
2025-05-06 16:23:50.984,0.0001738598873069,0.4070102164989604
2025-05-06 16:23:51.045,0.0001018261440076,0.2823601908894729
2025-05-06 16:23:51.106,-1.549436069711199e-07,0.2218553043849361
2025-05-06 16:23:51.167,2.581942596158587e-05,0.0783441265353238
2025-05-06 16:23:51.228,0.0001216595139036,-0.1617376165059529
2025-05-06 16:23:51.289,0.0001319833212006,-0.3042473257745541
2025-05-06 16:23:51.350,6.888105734828962e-05,-0.2459517223917864
2025-05-06 16:23:51.411,4.9326534588230286e-05,-0.122970783073643
2025-05-06 16:23:51.472,5.261558794452392e-05,-0.0875056663566744
2025-05-06 16:23:51.533,-2.223164619579257e-05,-0.117805609928761
2025-05-06 16:23:51.594,-0.0001274557094747,-0.116715704436612
2025-05-06 16:23:51.655,-0.0001212825478703,-0.0652579350323971
2025-05-06 16:23:51.716,-1.6070208819443484e-06,-0.018103344737225
2025-05-06 16:23:51.777,9.603104758487798e-05,-0.0273875395589087
2025-05-06 16:23:51.838,9.61620350642956e-05,-0.1095727416506236
2025-05-06 16:23:51.899,5.01002308970976e-05,-0.2314338750958297
2025-05-06 16:23:51.959,2.6086907736308656e-05,-0.3057844157410543
2025-05-06 16:23:52.020,1.9311538273925627e-05,-0.2575658591316183
2025-05-06 16:23:52.081,-6.417969528510321e-06,-0.1157789077622655
2025-05-06 16:23:52.142,-3.877574694304966e-05,0.0128460538834489
2025-05-06 16:23:52.203,-5.078669449845084e-05,0.0631343949479101
2025-05-06 16:23:52.264,-7.753398584637915e-05,0.0478565274412463
2025-05-06 16:23:52.325,-0.0001512834004919,0.0104617391201962
2025-05-06 16:23:52.386,-0.0001952519163249,0.0135799744612328
2025-05-06 16:23:52.447,-0.0001036748237681,0.1077860224210155
2025-05-06 16:23:52.508,8.230237396499207e-05,0.2316395370807606
2025-05-06 16:23:52.569,0.0001826948907246,0.2369529461235634
2025-05-06 16:23:52.630,0.0001026240025547,0.1006451523472927
2025-05-06 16:23:52.691,-2.6777282734148574e-05,0.0013775661885549
2025-05-06 16:23:52.752,-3.13798797456188e-05,0.0835764876117841
2025-05-06 16:23:52.813,4.352853901907885e-05,0.2440233022337277
2025-05-06 16:23:52.874,1.9754378924837303e-05,0.265634651451039
2025-05-06 16:23:52.935,-0.000112922366149,0.1030326036835463
2025-05-06 16:23:52.996,-0.0001900294652426,-0.0693680362646088
2025-05-06 16:23:53.057,-0.0001351093562563,-0.0827726170010707
2025-05-06 16:23:53.118,-2.49675230654485e-05,0.0251558411440981
2025-05-06 16:23:53.179,7.320900826840779e-05,0.0625053321287728
2025-05-06 16:23:53.240,0.0001463142829479,-0.0849183254707128
2025-05-06 16:23:53.301,0.0001659442913582,-0.3098436144053505
2025-05-06 16:23:53.362,0.000134297482618,-0.4017347111235163
2025-05-06 16:23:53.423,0.0001297091767194,-0.2890931349874521
2025-05-06 16:23:53.484,0.000172844206988,-0.1021119794924978
2025-05-06 16:23:53.545,0.0001498467120812,0.0003239133427229
2025-05-06 16:23:53.606,-7.921955400280234e-06,-0.0125419363488431
2025-05-06 16:23:53.667,-0.0001852130121436,-0.0590709577419586
2025-05-06 16:23:53.728,-0.000236477660282,-0.038608455158281
2025-05-06 16:23:53.789,-0.0001640541385686,0.0888609808724704
2025-05-06 16:23:53.850,-5.252374292095848e-05,0.2497483546741569
2025-05-06 16:23:53.911,5.2334864489079406e-05,0.2973556323278042
2025-05-06 16:23:53.972,0.0001115269151297,0.1709968875377033
2025-05-06 16:23:54.033,6.427436911543497e-05,-0.0010809672112173
2025-05-06 16:23:54.094,-7.019662613945626e-05,-0.0336746218994661
2025-05-06 16:23:54.155,-0.00015366875124,0.0842840292833539
2025-05-06 16:23:54.216,-7.678893822640423e-05,0.1798607780432171
2025-05-06 16:23:54.277,9.493470874747305e-05,0.1292011780918127
2025-05-06 16:23:54.338,0.0001773592462028,-0.0045031791560778
2025-05-06 16:23:54.399,8.318919327386145e-05,-0.092379131052838
2025-05-06 16:23:54.459,-5.575956474479645e-05,-0.0796783997585307
2025-05-06 16:23:54.520,-6.205213375158622e-05,0.0245035659179481
2025-05-06 16:23:54.581,2.352899567605056e-05,0.1505359881510285
2025-05-06 16:23:54.642,7.553820364024348e-06,0.1339311045285812
2025-05-06 16:23:54.703,-0.0001361531008102,-0.129454128789029
2025-05-06 16:23:54.764,-0.000212872073784,-0.4484520632070776
2025-05-06 16:23:54.825,-0.0001078681921732,-0.4791335571754764
2025-05-06 16:23:54.886,4.744193121808818e-05,-0.1694818795528565
2025-05-06 16:23:54.947,8.910216830400746e-05,0.1537258785742111
2025-05-06 16:23:55.008,5.4845829685999226e-05,0.2050008273670321
2025-05-06 16:23:55.069,7.559908466000975e-05,0.0466003850334682
2025-05-06 16:23:55.130,0.0001304595815806,-0.078487565393743
2025-05-06 16:23:55.191,9.786432900150429e-05,-0.0414660197656724
2025-05-06 16:23:55.252,-1.496516101972787e-06,0.0989923096506034
2025-05-06 16:23:55.313,-3.575198916565148e-05,0.1903901410595615
2025-05-06 16:23:55.374,3.2623712716856604e-06,0.1233102705209597
2025-05-06 16:23:55.435,2.404700315663148e-05,-0.0500405728731461
2025-05-06 16:23:55.496,3.3063086279549963e-05,-0.1600095533696396
2025-05-06 16:23:55.557,8.132359071807963e-05,-0.128497522196726
2025-05-06 16:23:55.618,9.001282932824148e-05,-0.0488674102620891
2025-05-06 16:23:55.679,-5.0048822510476814e-05,-0.022288992072889
2025-05-06 16:23:55.740,-0.0002523096500522,-0.0413507047692164
2025-05-06 16:23:55.801,-0.0002901345668809,-0.0653883136438558
2025-05-06 16:23:55.862,-8.176915823974287e-05,-0.0713105570274047
2025-05-06 16:23:55.923,0.000192018573529,-0.0220202911748264
2025-05-06 16:23:55.984,0.0002851679178016,0.0735054036477542
2025-05-06 16:23:56.045,0.0001563254773112,0.1015963749822353
2025-05-06 16:23:56.106,-1.1741129801611145e-07,0.0061196608448769
2025-05-06 16:23:56.167,-1.0325104208197735e-05,-0.0586302718949624
2025-05-06 16:23:56.228,5.362762783233405e-05,0.070286207020414
2025-05-06 16:23:56.289,6.650771439619079e-06,0.2911466527419502
2025-05-06 16:23:56.350,-0.000151930386092,0.3835295545572525
2025-05-06 16:23:56.411,-0.0002465555293645,0.3495288046345923
2025-05-06 16:23:56.472,-0.0001983943386181,0.368980169534955
2025-05-06 16:23:56.533,-0.0001029395187901,0.4548821443506371
2025-05-06 16:23:56.594,-4.648932101605792e-05,0.3971771297020749
2025-05-06 16:23:56.655,-1.2808452477528924e-05,0.0791384294772645
2025-05-06 16:23:56.716,2.62327534269957e-05,-0.3405876057544318
2025-05-06 16:23:56.777,6.492030841875434e-05,-0.6236684538769655
2025-05-06 16:23:56.838,0.0001156206685131,-0.6951298568929181
2025-05-06 16:23:56.899,0.0001905973561638,-0.6223655273661334
2025-05-06 16:23:56.959,0.0002258095272804,-0.4644254257045975
2025-05-06 16:23:57.020,0.0001373770572708,-0.257709896600947
2025-05-06 16:23:57.081,-3.369223655605975e-05,-0.0888728920174065
2025-05-06 16:23:57.142,-0.0001415825317073,-0.0298874977896285
2025-05-06 16:23:57.203,-0.0001107798270118,-0.0119489867970787
2025-05-06 16:23:57.264,-5.852110218038874e-06,0.07809627024827
2025-05-06 16:23:57.325,6.381758333293917e-05,0.183317278290512
2025-05-06 16:23:57.386,5.013833018821937e-05,0.1439627064788012
2025-05-06 16:23:57.447,-4.785121652999612e-06,-0.0168782301706822
2025-05-06 16:23:57.508,-3.0973608622234184e-05,-0.0785149249312436
2025-05-06 16:23:57.569,-3.0024175601679447e-05,0.067732248553024
2025-05-06 16:23:57.630,-6.20679276547045e-05,0.2707520474873459
2025-05-06 16:23:57.691,-0.0001216939796591,0.3361574952160711
2025-05-06 16:23:57.752,-0.000117709136972,0.2538037581788726
2025-05-06 16:23:57.813,-1.316493041279339e-05,0.1527627932610749
2025-05-06 16:23:57.874,9.048999519815562e-05,0.1261350044508873
2025-05-06 16:23:57.935,7.92373655990895e-05,0.1522854896178253
2025-05-06 16:23:57.996,5.6677939636765205e-06,0.1391633888100945
2025-05-06 16:23:58.057,2.592651807660711e-05,0.0261120409675734
2025-05-06 16:23:58.118,0.0001466577829037,-0.1301494927792237
2025-05-06 16:23:58.179,0.0002052397469103,-0.1956711599164956
2025-05-06 16:23:58.240,0.0001295033773013,-0.1253875055289376
2025-05-06 16:23:58.301,1.0168444309363008e-05,-0.0299153396564665
2025-05-06 16:23:58.362,-9.163411054343803e-05,-0.0136176382435896
2025-05-06 16:23:58.423,-0.0001914738879926,-0.0327260375671977
2025-05-06 16:23:58.484,-0.0002575122621091,-0.0056298313996542
2025-05-06 16:23:58.545,-0.0002288804566404,0.0362184961916706
2025-05-06 16:23:58.606,-0.0001311098610532,0.0246682774751436
2025-05-06 16:23:58.667,-4.969426819344733e-05,-0.0129735843844965
2025-05-06 16:23:58.728,-1.4170213297925632e-05,-0.0251881831565656
2025-05-06 16:23:58.789,2.5288476445599894e-05,-0.0513048313397228
2025-05-06 16:23:58.850,0.0001123039216389,-0.1339029916856641
2025-05-06 16:23:58.911,0.0002044181158348,-0.1971431226532121
2025-05-06 16:23:58.972,0.0002170837351991,-0.1479321544535182
2025-05-06 16:23:59.033,0.0001590850668153,-0.0390546804114596
2025-05-06 16:23:59.094,0.0001386154093897,-0.0045501070275902
2025-05-06 16:23:59.155,0.00018007357494,-0.0629886891287311
2025-05-06 16:23:59.216,0.0001528681954172,-0.095028046943817
2025-05-06 16:23:59.277,-2.4823459137617567e-05,-0.0162716533421985
2025-05-06 16:23:59.338,-0.0002291768095376,0.117705096439648
2025-05-06 16:23:59.399,-0.000288146949947,0.2032128627103137
2025-05-06 16:23:59.459,-0.0002051887121066,0.2117690532969391
2025-05-06 16:23:59.520,-0.0001159981469308,0.1731747523536166
2025-05-06 16:23:59.581,-7.952545485829648e-05,0.0954418027821683
2025-05-06 16:23:59.642,-2.8130327026052363e-05,-0.0172982641574385
2025-05-06 16:23:59.703,7.475868968168312e-05,-0.0992330443978269
2025-05-06 16:23:59.764,0.0001370334631245,-0.0759402914608723
2025-05-06 16:23:59.825,6.623615630024676e-05,0.0171376116150938
2025-05-06 16:23:59.886,-7.741470107144668e-05,0.0664349154893038
2025-05-06 16:23:59.947,-0.0001530077645324,0.0419997933024356
2025-05-06 16:24:00.008,-0.0001082025117144,0.0238247921791407
2025-05-06 16:24:00.069,1.1729868098625742e-05,0.0388769194263951
2025-05-06 16:24:00.130,0.0001394479021332,-0.0056088883005389
2025-05-06 16:24:00.191,0.0001889109845109,-0.1499225254349141
2025-05-06 16:24:00.252,0.0001057192770988,-0.2580876896655907
2025-05-06 16:24:00.313,-1.7664403628947816e-05,-0.1914158523124267
2025-05-06 16:24:00.374,-3.0192362774172408e-05,-0.0223575862747568
2025-05-06 16:24:00.435,3.799198105235979e-05,0.0701419605406594
2025-05-06 16:24:00.496,1.6734702569429513e-05,0.0536757773203274
2025-05-06 16:24:00.557,-0.0001101512586297,0.0310396913480846
2025-05-06 16:24:00.618,-0.0001758111186817,0.0353295886246435
2025-05-06 16:24:00.679,-0.0001051428752898,0.0256890545188961
2025-05-06 16:24:00.740,5.071214941891425e-06,0.0435999136256449
2025-05-06 16:24:00.801,8.794796338779206e-05,0.1538402022934869
2025-05-06 16:24:00.862,0.0001728811933668,0.2537289142861664
2025-05-06 16:24:00.923,0.0002330035980498,0.1750755534665414
2025-05-06 16:24:00.984,0.0001697108067811,-0.0362100705174421
2025-05-06 16:24:01.045,-2.7404020788885216e-06,-0.1616928429455638
2025-05-06 16:24:01.106,-0.000121132338297,-0.110424025597174
2025-05-06 16:24:01.167,-8.566082008380038e-05,0.0066289392389763
2025-05-06 16:24:01.228,3.2434929753521505e-06,0.0612619787191321
2025-05-06 16:24:01.289,-9.49499462919479e-06,0.0224722844026888
2025-05-06 16:24:01.350,-0.0001040957525166,-0.0656696480854155
2025-05-06 16:24:01.411,-0.0001008219195265,-0.1254133074914069
2025-05-06 16:24:01.472,5.379400273361533e-05,-0.113267834960874
2025-05-06 16:24:01.533,0.0001521300374728,-0.0805486364897814
2025-05-06 16:24:01.594,3.699988218794478e-05,-0.096182401121836
2025-05-06 16:24:01.655,-0.0001150968696083,-0.1204844472800633
2025-05-06 16:24:01.716,-7.090727610403742e-05,-0.0632703488911737
2025-05-06 16:24:01.777,8.851128672036832e-05,0.0531655928257243
2025-05-06 16:24:01.838,0.0001485621656365,0.114585988026354
2025-05-06 16:24:01.899,9.03702834485312e-05,0.0829636441606598
2025-05-06 16:24:01.959,-2.9982093779940194e-06,0.0303193537808076
2025-05-06 16:24:02.020,-0.0001162386970591,0.0217245477207608
2025-05-06 16:24:02.081,-0.0001974370224698,0.0566096713738241
2025-05-06 16:24:02.142,-0.0001409131804973,0.1020278353789835
2025-05-06 16:24:02.203,1.5564060952636203e-05,0.10880556369868
2025-05-06 16:24:02.264,0.0001001099526624,0.0254878837208712
2025-05-06 16:24:02.325,4.105946399057403e-05,-0.1287264042185055
2025-05-06 16:24:02.386,-9.609485620204612e-05,-0.2276395662556482
2025-05-06 16:24:02.447,-0.0002529283959048,-0.1592264425818815
2025-05-06 16:24:02.508,-0.0003742931082344,0.0149753999882244
2025-05-06 16:24:02.569,-0.0003515694260955,0.1143551965002094
2025-05-06 16:24:02.630,-0.0001552117735857,0.0783678795418061
2025-05-06 16:24:02.691,6.609018061907857e-05,0.0434816817937271
2025-05-06 16:24:02.752,0.0001739270597984,0.1303364760451136
2025-05-06 16:24:02.813,0.0002260581829434,0.2709819782611469
2025-05-06 16:24:02.874,0.0003341124552044,0.321141285742662
2025-05-06 16:24:02.935,0.0004442929141364,0.2356271285306763
2025-05-06 16:24:02.996,0.0004226949409271,0.053196436149088
2025-05-06 16:24:03.057,0.000288011965264,-0.1904427201352564
2025-05-06 16:24:03.118,0.0001769527773947,-0.4322028081343966
2025-05-06 16:24:03.179,0.0001017215150542,-0.5351623014493452
2025-05-06 16:24:03.240,-5.139008756921473e-05,-0.4002065103391433
2025-05-06 16:24:03.301,-0.0002546689212806,-0.1128504736090716
2025-05-06 16:24:03.362,-0.0003078511191855,0.1289234301569373
2025-05-06 16:24:03.423,-0.0001656967377625,0.2313568715992813
2025-05-06 16:24:03.484,-5.684706195798119e-05,0.2479631589670508
2025-05-06 16:24:03.545,-0.0001349458849716,0.2237231134957534
2025-05-06 16:24:03.606,-0.0002277921316016,0.1327808214797489
2025-05-06 16:24:03.667,-0.0001129098456595,-0.0093781830957326
2025-05-06 16:24:03.728,0.0001256438714056,-0.1066990461895199
2025-05-06 16:24:03.789,0.0002269941240051,-0.1127343370749235
2025-05-06 16:24:03.850,0.0001318101223411,-0.0951684887148826
2025-05-06 16:24:03.911,5.253103014561063e-06,-0.1121833945487298
2025-05-06 16:24:03.972,-4.801039750146363e-05,-0.1175764303429379
2025-05-06 16:24:04.033,-6.714816735520303e-05,-0.0446360334556943
2025-05-06 16:24:04.094,-9.11102120196216e-05,0.0910208241240244
2025-05-06 16:24:04.155,-0.0001224829413322,0.2117012553705312
2025-05-06 16:24:04.216,-0.0001689154476049,0.2473748284069773
2025-05-06 16:24:04.277,-0.0001954996679133,0.1792492201581821
2025-05-06 16:24:04.338,-0.0001340175341614,0.0593160324679769
2025-05-06 16:24:04.399,-1.0865792148578408e-05,-0.027459016473483
2025-05-06 16:24:04.459,5.957744828114032e-05,-0.0548258371443287
2025-05-06 16:24:04.520,5.597108740945299e-05,-0.0847316468877641
2025-05-06 16:24:04.581,8.330028183337899e-05,-0.1732516210381982
2025-05-06 16:24:04.642,0.0001798892361925,-0.2643869613246059
2025-05-06 16:24:04.703,0.0002405653907698,-0.2301806361663788
2025-05-06 16:24:04.764,0.0001875317191092,-0.0435229123033094
2025-05-06 16:24:04.825,8.259950724465932e-05,0.1511121250388763
2025-05-06 16:24:04.886,1.895724485088633e-05,0.2026229530844664
2025-05-06 16:24:04.947,5.679748775444854e-06,0.1221311044216756
2025-05-06 16:24:05.008,-5.333261812167457e-06,0.0165531422556022
2025-05-06 16:24:05.069,-4.055555477374889e-05,-0.056746606531102
2025-05-06 16:24:05.130,-7.018849876451394e-05,-0.0803068709271541
2025-05-06 16:24:05.191,-4.391489974269144e-05,-0.0213396494236419
2025-05-06 16:24:05.252,1.7586151034446398e-05,0.0958218958354713
2025-05-06 16:24:05.313,7.114735710109236e-06,0.1436385368209843
2025-05-06 16:24:05.374,-0.0001082352232386,0.0483943028469083
2025-05-06 16:24:05.435,-0.0001694230756723,-0.0737329446408229
2025-05-06 16:24:05.496,-1.778710172667214e-05,-0.0729345101801801
2025-05-06 16:24:05.557,0.0002336956173573,0.0109335889158009
2025-05-06 16:24:05.618,0.0003016723446442,0.0339636618362251
2025-05-06 16:24:05.679,0.0001041068627542,-0.0083528850463846
2025-05-06 16:24:05.740,-0.0001465502677903,0.0032801137109496
2025-05-06 16:24:05.801,-0.0002461379313244,0.0906908220161224
2025-05-06 16:24:05.862,-0.0002178127089719,0.1394355026704773
2025-05-06 16:24:05.923,-0.0001785068845486,0.0775628362595666
2025-05-06 16:24:05.984,-0.0001445995562548,-0.0382107202075063
2025-05-06 16:24:06.045,-4.656653903651416e-05,-0.1270102645140741
2025-05-06 16:24:06.106,0.0001324985045968,-0.1711122556022934
2025-05-06 16:24:06.167,0.0002782324812227,-0.1720584237504366
2025-05-06 16:24:06.228,0.0002385115107048,-0.1082429271303523
2025-05-06 16:24:06.289,2.18390291187805e-05,0.0067892672505763
2025-05-06 16:24:06.350,-0.0001803254531985,0.0860984729588622
2025-05-06 16:24:06.411,-0.0002221282269344,0.063661982253225
2025-05-06 16:24:06.472,-0.0001450343665845,-0.0108335458505954
2025-05-06 16:24:06.533,-5.2817902151601096e-05,-0.042579019503469
2025-05-06 16:24:06.594,2.4624303550077425e-05,-0.0202078818603101
2025-05-06 16:24:06.655,0.0001015860816582,0.0008397644952488
2025-05-06 16:24:06.716,0.0001673722339843,0.0014643803209187
2025-05-06 16:24:06.777,0.0001893481155051,-0.0008603379816607
2025-05-06 16:24:06.838,0.0001555685777589,-0.0121401545363985
2025-05-06 16:24:06.899,9.105360499908844e-05,-0.0282350356931933
2025-05-06 16:24:06.959,3.06169215103214e-05,0.0084143135717549
2025-05-06 16:24:07.020,-8.976432668140402e-06,0.1167939526417836
2025-05-06 16:24:07.081,-3.282183534787841e-05,0.2038119735149926
2025-05-06 16:24:07.142,-6.465967093680146e-05,0.1844506755099787
2025-05-06 16:24:07.203,-0.0001216802544003,0.0969870707059127
2025-05-06 16:24:07.264,-0.0001703569256502,0.0106084308674676
2025-05-06 16:24:07.325,-0.0001532441020459,-0.0731061119768634
2025-05-06 16:24:07.386,-8.400101213921155e-05,-0.1473591692836263
2025-05-06 16:24:07.447,-3.452118007403226e-05,-0.1579061222796623
2025-05-06 16:24:07.508,-6.150895996242772e-06,-0.1036240671794062
2025-05-06 16:24:07.569,6.308288452780699e-05,-0.0514895079999212
2025-05-06 16:24:07.630,0.0001456242007419,-0.010559163699091
2025-05-06 16:24:07.691,0.0001386391846059,0.0721613045273905
2025-05-06 16:24:07.752,5.864592170152967e-05,0.1688419650492278
2025-05-06 16:24:07.813,5.113904715277121e-05,0.1703669074302791
2025-05-06 16:24:07.874,0.0001543316441483,0.0562117040354664
2025-05-06 16:24:07.935,0.0002139232358265,-0.062160183787713
2025-05-06 16:24:07.996,0.0001087643030851,-0.0972542459665014
2025-05-06 16:24:08.057,-7.911854249787895e-05,-0.0848169131805265
2025-05-06 16:24:08.118,-0.0001935898206292,-0.0981509079071327
2025-05-06 16:24:08.179,-0.0001813786207065,-0.1456202117452145
2025-05-06 16:24:08.240,-9.50365887023954e-05,-0.1910989031137427
2025-05-06 16:24:08.301,-2.8284333398777856e-05,-0.2038753927414424
2025-05-06 16:24:08.362,-6.444379313360642e-05,-0.1418553812476501
2025-05-06 16:24:08.423,-0.0001891788602833,0.0294224461184436
2025-05-06 16:24:08.484,-0.0002550576951475,0.2326362453781333
2025-05-06 16:24:08.545,-0.0001442197798875,0.2992337005343867
2025-05-06 16:24:08.606,3.530263936349958e-05,0.1896997808994532
2025-05-06 16:24:08.667,7.022292802253208e-05,0.0736321252442407
2025-05-06 16:24:08.728,-1.974108001189823e-05,0.0837346711166225
2025-05-06 16:24:08.789,2.0998272445169e-05,0.1321895532545059
2025-05-06 16:24:08.850,0.0002568216496063,0.0879207138915943
2025-05-06 16:24:08.911,0.0003714906826882,-0.020891679310644
2025-05-06 16:24:08.972,0.0001147239325122,-0.1075914832240381
2025-05-06 16:24:09.033,-0.000245944918215,-0.1766606326208825
2025-05-06 16:24:09.094,-0.000241022505768,-0.236687478113274
2025-05-06 16:24:09.155,0.0001065689204236,-0.1936132527254749
2025-05-06 16:24:09.216,0.0003015434008639,0.0157248398567286
2025-05-06 16:24:09.277,0.0001302367850187,0.2538607665702398
2025-05-06 16:24:09.338,-5.8730283551285847e-05,0.2930855786473347
2025-05-06 16:24:09.399,1.6596718812761563e-05,0.091600318340528
2025-05-06 16:24:09.459,0.0001272217046452,-0.1454472596614036
2025-05-06 16:24:09.520,-6.092007294477621e-06,-0.2047160539040616
2025-05-06 16:24:09.581,-0.0002056651852437,-0.0874077674262451
2025-05-06 16:24:09.642,-0.0001448819622191,0.0456168250894759
2025-05-06 16:24:09.703,0.0001097752368047,0.0768664197164129
2025-05-06 16:24:09.764,0.0002206140275357,0.0052786973434294
2025-05-06 16:24:09.825,7.963788284439257e-05,-0.1140655510573875
2025-05-06 16:24:09.886,-0.0001230205859127,-0.1891974584571941
2025-05-06 16:24:09.947,-0.0002237250175372,-0.112714860556333
2025-05-06 16:24:10.008,-0.0002094105897573,0.0988758580573205
2025-05-06 16:24:10.069,-0.0001007475044866,0.2474433079488342
2025-05-06 16:24:10.130,5.606185662760289e-05,0.1761556746278895
2025-05-06 16:24:10.191,0.0001415187523064,-0.0117233147713238
2025-05-06 16:24:10.252,8.364011097315699e-05,-0.0929604000600284
2025-05-06 16:24:10.313,-2.450326090819077e-05,-0.021490175234627
2025-05-06 16:24:10.374,-5.217224964882513e-05,0.0511648268232711
2025-05-06 16:24:10.435,-1.341791708718356e-05,0.0103416572854551
2025-05-06 16:24:10.496,-2.106940919215391e-06,-0.0965651395205296
2025-05-06 16:24:10.557,-1.5807630101543153e-05,-0.1558463628997743
2025-05-06 16:24:10.618,5.444011221257053e-07,-0.1025381784981273
2025-05-06 16:24:10.679,3.2983385616489664e-06,0.0522433941244622
2025-05-06 16:24:10.740,-7.320577689949779e-05,0.2122521229698625
2025-05-06 16:24:10.801,-0.0001562214148328,0.2290021331082073
2025-05-06 16:24:10.862,-0.0001359190728301,0.0531940334695539
2025-05-06 16:24:10.923,-4.548190106232655e-05,-0.1563824761680077
2025-05-06 16:24:10.984,2.389306471213264e-05,-0.1898330206394248
2025-05-06 16:24:11.045,7.591475811102179e-05,-0.0459635215289034
2025-05-06 16:24:11.106,0.0001362991932518,0.0767931602267827
2025-05-06 16:24:11.167,0.0001610007928196,0.0430696907067789
2025-05-06 16:24:11.228,0.0001260152520053,-0.0791022814094625
2025-05-06 16:24:11.289,8.226824525024354e-05,-0.1451920952906336
2025-05-06 16:24:11.350,6.705385646093267e-05,-0.0918379319237496
2025-05-06 16:24:11.411,6.007766454639307e-05,0.0527277290999101
2025-05-06 16:24:11.472,3.458225631026672e-05,0.2171487156639196
2025-05-06 16:24:11.533,-1.3623730359051409e-06,0.3100647766350184
2025-05-06 16:24:11.594,-1.4768909781208275e-05,0.2701037817395244
2025-05-06 16:24:11.655,-8.43555540249931e-06,0.1290985714507826
2025-05-06 16:24:11.716,-4.077188960134021e-05,-0.0191970919031108
2025-05-06 16:24:11.777,-0.0001133521939399,-0.1219097829248942
2025-05-06 16:24:11.838,-0.0001104343885052,-0.2011186790711177
2025-05-06 16:24:11.899,3.292030929677299e-05,-0.2903805891999629
2025-05-06 16:24:11.959,0.000190753524517,-0.3634070905723022
2025-05-06 16:24:12.020,0.0002048233446103,-0.3338733400910867
2025-05-06 16:24:12.081,9.710880775342545e-05,-0.1536339995337309
2025-05-06 16:24:12.142,-9.726298904225882e-06,0.0868096735033836
2025-05-06 16:24:12.203,-0.0001005862931972,0.2298333544362442
2025-05-06 16:24:12.264,-0.0002311705383597,0.2394188863621582
2025-05-06 16:24:12.325,-0.000337201308204,0.2178768830035585
2025-05-06 16:24:12.386,-0.0002893261611388,0.2164540985093897
2025-05-06 16:24:12.447,-0.0001473104950475,0.1653172772254039
2025-05-06 16:24:12.508,-0.0001330755549815,0.0374865124577503
2025-05-06 16:24:12.569,-0.0002763194790176,-0.0644399600569072
2025-05-06 16:24:12.630,-0.0003050192581259,-0.0668961672016727
2025-05-06 16:24:12.691,-2.377387828839644e-05,-0.0460088988786148
2025-05-06 16:24:12.752,0.0003742867658079,-0.0946104424468285
2025-05-06 16:24:12.813,0.0005430337045474,-0.1655650027853334
2025-05-06 16:24:12.874,0.0004141192916685,-0.1451128746718606
2025-05-06 16:24:12.935,0.0002228368391088,-0.0228193014862091
2025-05-06 16:24:12.996,0.0001695375171899,0.0935425623963563
2025-05-06 16:24:13.057,0.0002157346118789,0.1084145381755212
2025-05-06 16:24:13.118,0.0002199028060824,0.0315206366293061
2025-05-06 16:24:13.179,0.0001445500105305,-0.0524853316575157
2025-05-06 16:24:13.240,4.591011521927893e-05,-0.0736830562625676
2025-05-06 16:24:13.301,-6.160591049983512e-05,-0.026883632320107
2025-05-06 16:24:13.362,-0.0001913329394832,0.0434208432395676
2025-05-06 16:24:13.423,-0.0002725788572835,0.0791518094882914
2025-05-06 16:24:13.484,-0.0002232235093047,0.048809339563396
2025-05-06 16:24:13.545,-0.0001194952811845,-0.0073871766820106
2025-05-06 16:24:13.606,-0.0001113200484321,-0.0017111985198813
2025-05-06 16:24:13.667,-0.0001872338878262,0.0783302443867337
2025-05-06 16:24:13.728,-0.0002104962275852,0.1226791572631441
2025-05-06 16:24:13.789,-0.000147099242128,0.0470736422518608
2025-05-06 16:24:13.850,-7.637844714179865e-05,-0.0782514506259832
2025-05-06 16:24:13.911,-4.135026550229626e-05,-0.1341136872387018
2025-05-06 16:24:13.972,-3.214434305698828e-05,-0.1090301154928359
2025-05-06 16:24:14.033,-2.862986492612828e-05,-0.0626935910794543
2025-05-06 16:24:14.094,1.196260837382697e-05,-0.0228949070647736
2025-05-06 16:24:14.155,9.97506629889788e-05,-0.0043814279379821
2025-05-06 16:24:14.216,0.000159262825636,-0.0288949231039511
2025-05-06 16:24:14.277,0.0001542243953528,-0.0459794403565045
2025-05-06 16:24:14.338,0.0001698810000983,0.0477226833382128
2025-05-06 16:24:14.399,0.000237098423595,0.2226540100032829
2025-05-06 16:24:14.459,0.0002268014429055,0.2819230411433915
2025-05-06 16:24:14.520,7.17166887802246e-05,0.1271765186297389
2025-05-06 16:24:14.581,-7.787565890130875e-05,-0.0681516102643466
2025-05-06 16:24:14.642,-8.355885661698437e-05,-0.0951265866635796
2025-05-06 16:24:14.703,-3.081890128535156e-05,-0.0052764200340119
2025-05-06 16:24:14.764,-3.845632966096553e-05,-0.0029366952219919
2025-05-06 16:24:14.825,-3.2596974608166975e-05,-0.1387989111478517
2025-05-06 16:24:14.886,9.3312253211476e-05,-0.286168444660909
2025-05-06 16:24:14.947,0.0002372279648661,-0.3377782816354306
2025-05-06 16:24:15.008,0.0001892580413968,-0.2622669930143135
2025-05-06 16:24:15.069,-9.336257472877116e-05,-0.0542695491271115
2025-05-06 16:24:15.130,-0.0004043407972785,0.2122092877369502
2025-05-06 16:24:15.191,-0.0004838591852806,0.3606235264494596
2025-05-06 16:24:15.252,-0.0003005570360843,0.28788908140664
2025-05-06 16:24:15.313,-7.832372817404937e-05,0.1066717573166947
2025-05-06 16:24:15.374,1.1520011882891845e-05,0.0041509148714864
2025-05-06 16:24:15.435,5.102181595994571e-05,0.0186232234635735
2025-05-06 16:24:15.496,0.0001598862927153,0.0489853434368265
2025-05-06 16:24:15.557,0.0002482691173124,0.0234259991981923
2025-05-06 16:24:15.618,0.0001752877420463,-0.0436738343545312
2025-05-06 16:24:15.679,2.8941952864557693e-05,-0.1202864201133234
2025-05-06 16:24:15.740,6.20418626836649e-06,-0.1749780483976804
2025-05-06 16:24:15.801,8.076485015199646e-05,-0.1433304473582487
2025-05-06 16:24:15.862,5.52274243666572e-05,0.0156815895613145
2025-05-06 16:24:15.923,-8.483307767921203e-05,0.2132790820635765
2025-05-06 16:24:15.984,-0.0001464746480526,0.277040874655617
2025-05-06 16:24:16.045,-5.966105773898532e-05,0.1472902864901056
2025-05-06 16:24:16.106,3.4226833065382764e-05,-0.0463758816928559
2025-05-06 16:24:16.167,4.0089179894853126e-05,-0.1471555647191333
2025-05-06 16:24:16.228,1.5723925768557878e-05,-0.1353543607246575
2025-05-06 16:24:16.289,1.4036614314437389e-05,-0.0945278459514077
2025-05-06 16:24:16.350,2.8919816931293197e-05,-0.0964508955400039
2025-05-06 16:24:16.411,7.026208997201489e-05,-0.1539587169752305
2025-05-06 16:24:16.472,0.0001150855352259,-0.2136699047371762
2025-05-06 16:24:16.533,7.18471216475927e-05,-0.1772863915445023
2025-05-06 16:24:16.594,-5.295654940424069e-05,-0.0011717453174505
2025-05-06 16:24:16.655,-9.511433130247522e-05,0.2132101868731933
2025-05-06 16:24:16.716,1.8330042828306144e-05,0.2959951063680596
2025-05-06 16:24:16.777,0.0001275588556937,0.1973657426807206
2025-05-06 16:24:16.838,8.639988511420812e-05,0.0462420977032744
2025-05-06 16:24:16.899,-2.3496146680540056e-05,-0.0027284627800889
2025-05-06 16:24:16.959,-7.443554641367707e-05,0.0642931003719785
2025-05-06 16:24:17.020,-0.0001118305215353,0.1288893555872309
2025-05-06 16:24:17.081,-0.0002123037164222,0.0750072561250568
2025-05-06 16:24:17.142,-0.0002791331808499,-0.0955191174914413
2025-05-06 16:24:17.203,-0.0001841949372122,-0.2421293914093659
2025-05-06 16:24:17.264,-1.4428346525806123e-05,-0.2010727986295702
2025-05-06 16:24:17.325,3.128074255418464e-05,0.0168598034049886
2025-05-06 16:24:17.386,-3.736275287340744e-05,0.1920095335183325
2025-05-06 16:24:17.447,-1.402171420762028e-06,0.1491211175882783
2025-05-06 16:24:17.508,0.0001965775859214,-0.0196059092149109
2025-05-06 16:24:17.569,0.0003169062581942,-0.1014331499355819
2025-05-06 16:24:17.630,0.0001918823333784,-0.0602976885354083
2025-05-06 16:24:17.691,2.51174122710446e-06,-0.0334360118010606
2025-05-06 16:24:17.752,-1.595765920614141e-06,-0.0776709476607308
2025-05-06 16:24:17.813,0.0001277925155018,-0.098991675396595
2025-05-06 16:24:17.874,0.000154935505312,-0.0462498922225046
2025-05-06 16:24:17.935,1.7988690326597997e-05,0.0006081306324171
2025-05-06 16:24:17.996,-0.0001319428769706,-0.0008372243753009
2025-05-06 16:24:18.057,-0.000173781757504,0.0354748370309168
2025-05-06 16:24:18.118,-0.0001284099740937,0.1414887986926827
2025-05-06 16:24:18.179,-7.188250674246825e-05,0.1851169512602143
2025-05-06 16:24:18.240,-4.919469525811266e-05,0.0826526723863178
2025-05-06 16:24:18.301,-3.866997347459863e-05,-0.0375249510687619
2025-05-06 16:24:18.362,2.145001068407744e-05,-0.0400850415794109
2025-05-06 16:24:18.423,0.0001138492515028,0.0007913004812871
2025-05-06 16:24:18.484,0.0001163284250166,-0.0467237406597263
2025-05-06 16:24:18.545,-9.674188455946164e-06,-0.1428598361203161
2025-05-06 16:24:18.606,-0.0001234568091983,-0.1656047618670096
2025-05-06 16:24:18.667,-0.0001115738946022,-0.1114362828456447
2025-05-06 16:24:18.728,-4.175633510174504e-05,-0.0446817718560373
2025-05-06 16:24:18.789,1.5751011828647355e-06,0.0465091569500274
2025-05-06 16:24:18.850,4.933884101721657e-05,0.1808344023635195
2025-05-06 16:24:18.911,0.0001019784630387,0.2660121333741695
2025-05-06 16:24:18.972,7.415501024784121e-05,0.2083395159803612
2025-05-06 16:24:19.033,-8.797952945482978e-06,0.0655430426725204
2025-05-06 16:24:19.094,-6.324153927910619e-06,-0.0356417186379436
2025-05-06 16:24:19.155,7.042768858276817e-05,-0.0619430509133874
2025-05-06 16:24:19.216,5.901360793410021e-05,-0.0602577274910819
2025-05-06 16:24:19.277,-4.478856091081402e-05,-0.0662521151159752
2025-05-06 16:24:19.338,-7.08551323021376e-05,-0.104152272502039
2025-05-06 16:24:19.399,4.234754933047668e-06,-0.1865507300844299
2025-05-06 16:24:19.459,1.3297015510930497e-05,-0.2440908343655254
2025-05-06 16:24:19.520,-9.7212013327807e-05,-0.153921746128574
2025-05-06 16:24:19.581,-0.0001789499351392,0.0822793739438353
2025-05-06 16:24:19.642,-0.000118329054893,0.2770573179547778
2025-05-06 16:24:19.703,3.513190349749903e-05,0.2615791707885243
2025-05-06 16:24:19.764,0.0001685991905733,0.0888426946473108
2025-05-06 16:24:19.825,0.000205247789715,-0.0494190674513419
2025-05-06 16:24:19.886,0.0001456061698696,-0.0620243954806381
2025-05-06 16:24:19.947,6.77556717473778e-05,-0.0205945123150944
2025-05-06 16:24:20.008,2.215954553377123e-05,-0.0056756636208936
2025-05-06 16:24:20.069,-4.314702728711348e-05,-0.0130577475578132
2025-05-06 16:24:20.130,-0.0001521558707809,-0.0333558343440783
2025-05-06 16:24:20.191,-0.0001942743445656,-0.0836790872190987
2025-05-06 16:24:20.252,-9.17022523979416e-05,-0.1090023400171244
2025-05-06 16:24:20.313,3.2493625150610723e-05,-0.0138272252546168
2025-05-06 16:24:20.374,8.991715212315834e-06,0.1397774143093277
2025-05-06 16:24:20.435,-0.0001325038239472,0.1534567454941985
2025-05-06 16:24:20.496,-0.0002052443123061,-0.0035248106693898
2025-05-06 16:24:20.557,-0.0001043694937326,-0.1131223609351994
2025-05-06 16:24:20.618,8.534568969385033e-05,-0.0328699778449246
2025-05-06 16:24:20.679,0.0001894205798814,0.0951802813475811
2025-05-06 16:24:20.740,0.000121631441112,0.0800180810888767
2025-05-06 16:24:20.801,-1.1469034200633156e-05,-0.0461810592198189
2025-05-06 16:24:20.862,-2.111513663514523e-05,-0.1255151809673791
2025-05-06 16:24:20.923,0.0001172993564567,-0.1045086553114138
2025-05-06 16:24:20.984,0.000228477685844,-0.031271837573129
2025-05-06 16:24:21.045,0.0001971847113919,0.062346772184202
2025-05-06 16:24:21.106,0.000112230346678,0.1428347943353609
2025-05-06 16:24:21.167,6.855185088048285e-05,0.1355968474906172
2025-05-06 16:24:21.228,1.596631497421e-05,0.0322898745639402
2025-05-06 16:24:21.289,-7.358851706135715e-05,-0.0420661290401737
2025-05-06 16:24:21.350,-9.617793044487329e-05,0.0077725041728398
2025-05-06 16:24:21.411,-1.2610600079874649e-05,0.0881727953005661
2025-05-06 16:24:21.472,5.444748926144322e-05,0.0472824633667419
2025-05-06 16:24:21.533,4.158264003355336e-05,-0.0962096442332966
2025-05-06 16:24:21.594,3.855392054405417e-05,-0.1917637548201682
2025-05-06 16:24:21.655,6.485587385290017e-05,-0.1782359613874971
2025-05-06 16:24:21.716,6.825786731715981e-06,-0.1156534581292929
2025-05-06 16:24:21.777,-0.0001416881104527,-0.0276497840474327
2025-05-06 16:24:21.838,-0.0002592228730223,0.1080668478075444
2025-05-06 16:24:21.899,-0.0003622237803572,0.2121819325931851
2025-05-06 16:24:21.959,-0.0005438723437097,0.1477881682534184
2025-05-06 16:24:22.020,-0.0006311476815463,-0.0484793797120103
2025-05-06 16:24:22.081,-0.0003379347405094,-0.1710501034660505
2025-05-06 16:24:22.142,0.0002081527949692,-0.1299786985020238
2025-05-06 16:24:22.203,0.0005377665523899,-0.0472160309623844
2025-05-06 16:24:22.264,0.0004577499009682,-0.0307594787441902
2025-05-06 16:24:22.325,0.0002182599869801,-0.0432935843008518
2025-05-06 16:24:22.386,9.102916346793996e-05,-0.0295745900275202
2025-05-06 16:24:22.447,8.939464747956705e-05,0.012825430585939
2025-05-06 16:24:22.508,0.0001015314210972,0.1083775365728537
2025-05-06 16:24:22.569,8.699156394081243e-05,0.2626458325490332
2025-05-06 16:24:22.630,7.27873575155873e-05,0.3483906315522393
2025-05-06 16:24:22.691,6.406228026320401e-05,0.230559476083569
2025-05-06 16:24:22.752,6.275607311251422e-05,0.0027596298928684
2025-05-06 16:24:22.813,9.980331922784225e-05,-0.1021023259148024
2025-05-06 16:24:22.874,0.0001464579779381,-0.0426426177114431
2025-05-06 16:24:22.935,0.0001083784511225,-0.0098666290191655
2025-05-06 16:24:22.996,4.412286168477088e-06,-0.1189035595360215
2025-05-06 16:24:23.057,-1.3682081081720714e-05,-0.2590186736586461
2025-05-06 16:24:23.118,8.763977412719668e-05,-0.2891099422909765
2025-05-06 16:24:23.179,0.0001369021467798,-0.2002353385641509
2025-05-06 16:24:23.240,1.4832479905597329e-05,-0.0465999899834942
2025-05-06 16:24:23.301,-0.0001652934839845,0.1155244857953982
2025-05-06 16:24:23.362,-0.0002367404530116,0.1946786623521717
2025-05-06 16:24:23.423,-0.0002183580748641,0.1294579325166126
2025-05-06 16:24:23.484,-0.0002454554028843,0.0040569467107199
2025-05-06 16:24:23.545,-0.0003290003363455,-0.03589230997312
2025-05-06 16:24:23.606,-0.0003460338062082,0.0206265344229565
2025-05-06 16:24:23.667,-0.0002508894311666,0.0581385638182983
2025-05-06 16:24:23.728,-0.0001206633578039,0.0159849930050526
2025-05-06 16:24:23.789,4.748843298981931e-06,-0.0635454094003357
2025-05-06 16:24:23.850,0.0001429796747668,-0.1423912711929872
2025-05-06 16:24:23.911,0.0002365078957058,-0.2018517454635031
2025-05-06 16:24:23.972,0.0002006226611682,-0.1652142883171707
2025-05-06 16:24:24.033,0.0001049995298736,0.0357229350916805
2025-05-06 16:24:24.094,0.0001037068450463,0.2978336305872143
2025-05-06 16:24:24.155,0.0001885360436735,0.3997733564655891
2025-05-06 16:24:24.216,0.0002141866975879,0.2614812110154808
2025-05-06 16:24:24.277,0.0001441597462744,0.0339286202582594
2025-05-06 16:24:24.338,7.526242872552669e-05,-0.1028414982690331
2025-05-06 16:24:24.399,5.613428597521714e-05,-0.1240527189300448
2025-05-06 16:24:24.459,4.3502774923945526e-05,-0.1132922249412659
2025-05-06 16:24:24.520,1.5484388908261389e-06,-0.1268142605017576
2025-05-06 16:24:24.581,-4.937165029925541e-05,-0.1450350931331066
2025-05-06 16:24:24.642,-6.791984347167781e-05,-0.1112765926158215
2025-05-06 16:24:24.703,-6.453007268645441e-05,-0.0018902408736019
2025-05-06 16:24:24.764,-0.0001081185208738,0.1223933352081169
2025-05-06 16:24:24.825,-0.0001945054244599,0.1523468902680324
2025-05-06 16:24:24.886,-0.0001911631037931,0.0539600372603115
2025-05-06 16:24:24.947,-3.863216932638153e-05,-0.0653367556658931
2025-05-06 16:24:25.008,0.0001047341742339,-0.0789913315122494
2025-05-06 16:24:25.069,8.226496371969137e-05,-0.0135612149164341
2025-05-06 16:24:25.130,-1.3582145218801322e-05,0.0012786705316349
2025-05-06 16:24:25.191,-2.421722940955385e-06,-0.0556043671711421
2025-05-06 16:24:25.252,9.099777369976954e-05,-0.0745711830036465
2025-05-06 16:24:25.313,0.0001186468668188,-0.0107289036142879
2025-05-06 16:24:25.374,6.748975782315594e-05,0.0604573479330359
2025-05-06 16:24:25.435,1.5443182460925388e-05,0.1067480643845014
2025-05-06 16:24:25.496,-3.823342282040611e-05,0.1847914135518687
2025-05-06 16:24:25.557,-9.600024988335168e-05,0.2734589082812962
2025-05-06 16:24:25.618,-8.012036153419154e-05,0.2324497348651041
2025-05-06 16:24:25.679,1.046426010859923e-06,0.0104914660575559
2025-05-06 16:24:25.740,-3.941037703485588e-07,-0.2403724177678124
2025-05-06 16:24:25.801,-0.0001179507872393,-0.3447023790493408
2025-05-06 16:24:25.862,-0.0001709871287417,-0.2942757529014392
2025-05-06 16:24:25.923,-4.818699331790492e-05,-0.1888434710149271
2025-05-06 16:24:25.984,9.758910191796124e-05,-0.0843048295909556
2025-05-06 16:24:26.045,7.25538999750651e-05,0.0147627272902226
2025-05-06 16:24:26.106,-7.680888064600749e-05,0.0792380754901201
2025-05-06 16:24:26.167,-0.0001401270789423,0.0753458314289395
2025-05-06 16:24:26.228,-2.4388058951077883e-05,0.0442392379061481
2025-05-06 16:24:26.289,0.0001540313227398,0.0657278288744709
2025-05-06 16:24:26.350,0.0002325227007235,0.1272301885186537
2025-05-06 16:24:26.411,0.000181786014056,0.1257893146112055
2025-05-06 16:24:26.472,0.0001005291796413,0.0371186194771811
2025-05-06 16:24:26.533,6.158261216313422e-05,-0.0324588921775454
2025-05-06 16:24:26.594,3.617552783501059e-05,-0.0264094140211074
2025-05-06 16:24:26.655,-1.2264133822116426e-05,-0.0337350821097406
2025-05-06 16:24:26.716,-5.811023217935277e-05,-0.1078680360839343
2025-05-06 16:24:26.777,-7.916947440325335e-05,-0.1368389020639087
2025-05-06 16:24:26.838,-0.0001081117419681,-0.0233090878230644
2025-05-06 16:24:26.899,-0.0001712534266595,0.138943964320336
2025-05-06 16:24:26.959,-0.0002096981788423,0.2060509099000922
2025-05-06 16:24:27.020,-0.0001191798426182,0.1837122802770445
2025-05-06 16:24:27.081,9.147760319621373e-05,0.1548329298004293
2025-05-06 16:24:27.142,0.0002441242423791,0.1196165807088986
2025-05-06 16:24:27.203,0.0001832997259718,0.0390370908898251
2025-05-06 16:24:27.264,-2.0468728128148336e-05,-0.0579073053001155
2025-05-06 16:24:27.325,-0.0001430414480443,-0.1294103253773917
2025-05-06 16:24:27.386,-6.8738762587566e-05,-0.1947137780203449
2025-05-06 16:24:27.447,7.444766485695465e-05,-0.2509488151069157
2025-05-06 16:24:27.508,8.039089714833425e-05,-0.2180750548239331
2025-05-06 16:24:27.569,-5.225037769958115e-05,-0.0725173394466002
2025-05-06 16:24:27.630,-9.98592605626058e-05,0.0679368932810605
2025-05-06 16:24:27.691,7.28277446732841e-05,0.0999628103099089
2025-05-06 16:24:27.752,0.000279303023732,0.0757657026079577
2025-05-06 16:24:27.813,0.0002257715499572,0.0857060796304154
2025-05-06 16:24:27.874,-7.043732326974637e-05,0.0965733147176339
2025-05-06 16:24:27.935,-0.0002710750736308,0.0171817677034286
2025-05-06 16:24:27.996,-0.0001789700719743,-0.1362652861347195
2025-05-06 16:24:28.057,2.6767914792806227e-05,-0.235135536677838
2025-05-06 16:24:28.118,0.0001179329985908,-0.182970029965361
2025-05-06 16:24:28.179,9.49384293630532e-05,-0.0162786279005419
2025-05-06 16:24:28.240,1.5978644379341544e-05,0.1373579863181183
2025-05-06 16:24:28.301,-0.00013256054196,0.1814474734969719
2025-05-06 16:24:28.362,-0.0002667110716849,0.1307813729821878
2025-05-06 16:24:28.423,-0.0002233658435935,0.0802489738589754
2025-05-06 16:24:28.484,-5.318277659267924e-05,0.0971512844671149
2025-05-06 16:24:28.545,1.5150022128141088e-05,0.1432660807140225
2025-05-06 16:24:28.606,-4.021166415769942e-05,0.1104568377723627
2025-05-06 16:24:28.667,-1.2004828503363063e-05,-0.0509464965774425
2025-05-06 16:24:28.728,0.00015089853104,-0.2401309829960549
2025-05-06 16:24:28.789,0.0002601870953607,-0.2832374816897297
2025-05-06 16:24:28.850,0.0002063087576172,-0.1350078822816819
2025-05-06 16:24:28.911,9.782061202120788e-05,0.0500885406776567
2025-05-06 16:24:28.972,5.622582488860924e-05,0.1107678387515278
2025-05-06 16:24:29.033,4.480622927959266e-05,0.0778605627834606
2025-05-06 16:24:29.094,-2.5549576056978827e-05,0.0907909032826802
2025-05-06 16:24:29.155,-0.0001091334637066,0.180879298488518
2025-05-06 16:24:29.216,-8.874856843941091e-05,0.2417035805496446
2025-05-06 16:24:29.277,-1.0339113810053846e-06,0.1776792567539731
2025-05-06 16:24:29.338,1.952174824807221e-06,0.0054637697832482
2025-05-06 16:24:29.399,-8.130194508629335e-05,-0.1772246990696635
2025-05-06 16:24:29.459,-9.860183104104732e-05,-0.2821033442438646
2025-05-06 16:24:29.520,-9.478087161653972e-06,-0.2880772600736588
2025-05-06 16:24:29.581,5.868561995949674e-05,-0.2293743144488596
2025-05-06 16:24:29.642,1.2563660881038085e-05,-0.1500314572934474
2025-05-06 16:24:29.703,-9.771946224527524e-05,-0.0748803440811213
2025-05-06 16:24:29.764,-0.0001314167743826,-0.0073821023481954
2025-05-06 16:24:29.825,2.067575113047144e-05,0.058869862794983
2025-05-06 16:24:29.886,0.0002660101180615,0.1345816797995741
2025-05-06 16:24:29.947,0.0003365551019435,0.2298855893478354
2025-05-06 16:24:30.008,0.0001415320145394,0.3168297221863794
2025-05-06 16:24:30.069,-7.662850317730954e-05,0.3021632144382124
2025-05-06 16:24:30.130,-0.0001158173098291,0.1098977789210038
2025-05-06 16:24:30.191,-9.28909469862867e-05,-0.1881143212560002
2025-05-06 16:24:30.252,-0.0001557339658436,-0.3935813547449281
2025-05-06 16:24:30.313,-0.0001988074538801,-0.3700199844076794
2025-05-06 16:24:30.374,-8.676209584171548e-05,-0.1696989786309579
2025-05-06 16:24:30.435,6.833793529672782e-05,0.0436046702023779
2025-05-06 16:24:30.496,6.936289747662733e-05,0.1584758613801311
2025-05-06 16:24:30.557,-6.791679448812896e-05,0.1885561323084423
2025-05-06 16:24:30.618,-0.0001458935778218,0.2129524655192344
2025-05-06 16:24:30.679,-4.044456956801951e-05,0.25836635373858
2025-05-06 16:24:30.740,0.0001673685622103,0.2487066949368097
2025-05-06 16:24:30.801,0.0002747950230198,0.1055334746552169
2025-05-06 16:24:30.862,0.0001651198618524,-0.1101100828042233
2025-05-06 16:24:30.923,-4.629350131882937e-05,-0.2275480795980369
2025-05-06 16:24:30.984,-0.0001519478377252,-0.1651041020884588
2025-05-06 16:24:31.045,-0.0001264008594244,-0.036572897266328
2025-05-06 16:24:31.106,-9.366368718414384e-05,-0.0030588978154585
2025-05-06 16:24:31.167,-7.124037869842755e-05,-0.061760807541707
2025-05-06 16:24:31.228,1.2198947308477415e-05,-0.0727643122490451
2025-05-06 16:24:31.289,0.0001060513685978,0.01663369680019
2025-05-06 16:24:31.350,0.0001010589727752,0.0907939215938022
2025-05-06 16:24:31.411,3.220578128429081e-05,0.0383840107134226
2025-05-06 16:24:31.472,-6.050484893616997e-06,-0.1038167112000554
2025-05-06 16:24:31.533,-3.956142942621239e-05,-0.2346411849929833
2025-05-06 16:24:31.594,-0.0001055132871656,-0.3143683583871182
2025-05-06 16:24:31.655,-0.000106396952067,-0.3286453497634269
2025-05-06 16:24:31.716,1.754489330225598e-05,-0.2220435113651994
2025-05-06 16:24:31.777,0.0001024850709997,0.0203885244430713
2025-05-06 16:24:31.838,-2.949547782240566e-05,0.2847464565046887
2025-05-06 16:24:31.899,-0.0002384906863701,0.4274640258031618
2025-05-06 16:24:31.959,-0.0001814760552662,0.4236592333049719
2025-05-06 16:24:32.020,0.0001798723221037,0.3374611069483432
2025-05-06 16:24:32.081,0.0004273386189202,0.204957340244963
2025-05-06 16:24:32.142,0.0002506077827052,0.0397092045434231
2025-05-06 16:24:32.203,-6.875653334267698e-05,-0.1028495185863446
2025-05-06 16:24:32.264,-7.779444897768739e-05,-0.1678562776836104
2025-05-06 16:24:32.325,0.0001594322689659,-0.1681282801719915
2025-05-06 16:24:32.386,0.0002356025197953,-0.1350894405597405
2025-05-06 16:24:32.447,8.946910623596674e-05,-0.0609990226377425
2025-05-06 16:24:32.508,2.787974357900899e-05,0.0402657969224186
2025-05-06 16:24:32.569,0.0001432745917128,0.0886745720148435
2025-05-06 16:24:32.630,0.0001782460702555,0.0430596743410724
2025-05-06 16:24:32.691,-6.173783230195849e-06,-0.0101242832445761
2025-05-06 16:24:32.752,-0.0002074524617744,0.0253247609778798
2025-05-06 16:24:32.813,-0.0002293533397798,0.0902541210021769
2025-05-06 16:24:32.874,-0.0001719004515686,0.0363685478368887
2025-05-06 16:24:32.935,-0.0002251516945211,-0.1555668528920323
2025-05-06 16:24:32.996,-0.0003828075826288,-0.3296907371314705
2025-05-06 16:24:33.057,-0.0005213894455484,-0.3350321330657996
2025-05-06 16:24:33.118,-0.0005758319682904,-0.1726537424804129
2025-05-06 16:24:33.179,-0.0004884993181879,0.0397193325045675
2025-05-06 16:24:33.240,-0.0001946020657192,0.1804690852537723
2025-05-06 16:24:33.301,0.0002096113630382,0.1949849163459293
2025-05-06 16:24:33.362,0.0004960808867301,0.1192264772015973
2025-05-06 16:24:33.423,0.0005702513185297,0.0537902190724378
2025-05-06 16:24:33.484,0.0005081274997691,0.0645632832802945
2025-05-06 16:24:33.545,0.0003678067679354,0.0960584648415583
2025-05-06 16:24:33.606,0.0001867908061912,0.0424150252568809
2025-05-06 16:24:33.667,8.152685181114303e-05,-0.085710078777507
2025-05-06 16:24:33.728,0.000123976778126,-0.1476447798213185
2025-05-06 16:24:33.789,0.0001892267593057,-0.0612945834733547
2025-05-06 16:24:33.850,0.0001085567119228,0.0746069240473198
2025-05-06 16:24:33.911,-8.186258870419012e-05,0.1087322814018977
2025-05-06 16:24:33.972,-0.0001899120077299,0.0325916883211566
2025-05-06 16:24:34.033,-0.0001231620016332,-0.0255361202368367
2025-05-06 16:24:34.094,1.8753056116868037e-05,0.0191895804846939
2025-05-06 16:24:34.155,8.355704426830187e-05,0.1027798608163172
2025-05-06 16:24:34.216,1.9698025005241533e-05,0.1038730580220706
2025-05-06 16:24:34.277,-0.0001033247787178,-0.0043321790055063
2025-05-06 16:24:34.338,-0.0001823510198638,-0.1322589976064266
2025-05-06 16:24:34.399,-0.0001753137072657,-0.1824799916845435
2025-05-06 16:24:34.459,-0.0001267681002555,-0.1347743573241194
2025-05-06 16:24:34.520,-0.0001045234587545,-0.0321598167182818
2025-05-06 16:24:34.581,-0.0001014779212341,0.0647891410856373
2025-05-06 16:24:34.642,-5.036743388879467e-05,0.1009055636897645
2025-05-06 16:24:34.703,2.8453868780056695e-05,0.0591986170184881
2025-05-06 16:24:34.764,1.4595698919685544e-05,-0.0015440027107766
2025-05-06 16:24:34.825,-9.814431435722196e-05,0.0035098025408104
2025-05-06 16:24:34.886,-0.0001348579399317,0.0638090845717739
2025-05-06 16:24:34.947,2.485932698364271e-07,0.0718381837830554
2025-05-06 16:24:35.008,0.0001511348782326,-0.0155524587270401
2025-05-06 16:24:35.069,0.0001297115225491,-0.1053691872300287
2025-05-06 16:24:35.130,-9.484440487488918e-06,-0.1101350593807895
2025-05-06 16:24:35.191,-5.475392961825816e-05,-0.0602596300769312
2025-05-06 16:24:35.252,7.070001099777392e-05,-0.0184462359094064
2025-05-06 16:24:35.313,0.0002280542321503,0.0169802839748229
2025-05-06 16:24:35.374,0.000242730224764,0.0624082508387599
2025-05-06 16:24:35.435,7.97271202801335e-05,0.0873763305520052
2025-05-06 16:24:35.496,-0.0001309021537798,0.0645576107792024
2025-05-06 16:24:35.557,-0.0002039821702745,0.0280342898170279
2025-05-06 16:24:35.618,-8.265699032251688e-05,0.0320559162630517
2025-05-06 16:24:35.679,9.289793076227251e-05,0.0737967066427358
2025-05-06 16:24:35.740,0.0001586284745295,0.0820696843423079
2025-05-06 16:24:35.801,0.000107478988018,-0.0117481507736665
2025-05-06 16:24:35.862,2.792708309731931e-05,-0.1731597717121135
2025-05-06 16:24:35.923,-4.093577972803414e-05,-0.2543603769778707
2025-05-06 16:24:35.984,-0.000104793510744,-0.1555327753308119
2025-05-06 16:24:36.045,-0.0001374747625778,0.0187971239614427
2025-05-06 16:24:36.106,-0.0001045227106836,0.074734565518004
2025-05-06 16:24:36.167,-4.746432794666299e-05,-0.0016838859536938
2025-05-06 16:24:36.228,-5.15323263416856e-05,-0.0242579141023272
2025-05-06 16:24:36.289,-9.99137032519345e-05,0.1141070563359829
2025-05-06 16:24:36.350,-5.63319806116807e-05,0.2730201258373448
2025-05-06 16:24:36.411,0.0001262154311015,0.2523660506109327
2025-05-06 16:24:36.472,0.000258758402543,0.0530633753917802
2025-05-06 16:24:36.533,0.000134801994013,-0.1523143758668119
2025-05-06 16:24:36.594,-0.0001295789782365,-0.2401807679953239
2025-05-06 16:24:36.655,-0.0002092266607952,-0.2134404749715421
2025-05-06 16:24:36.716,-5.032452720838737e-05,-0.1204578030777403
2025-05-06 16:24:36.777,6.830369333039112e-05,-0.0149233573781865
2025-05-06 16:24:36.838,4.299926893370775e-06,0.0504831741184776
2025-05-06 16:24:36.899,-7.301919426011452e-05,0.0757830091129482
2025-05-06 16:24:36.959,-3.4874955346037155e-05,0.107511750844655
2025-05-06 16:24:37.020,2.9035661937215173e-05,0.1369461846288311
2025-05-06 16:24:37.081,4.1463271355921056e-05,0.0883977177123656
2025-05-06 16:24:37.142,6.0399117037477626e-05,-0.0418638378638556
2025-05-06 16:24:37.203,0.0001175854536213,-0.1311587704330973
2025-05-06 16:24:37.264,0.0001309152308636,-0.094422022067906
2025-05-06 16:24:37.325,4.718922645222003e-05,-0.0197509212019849
2025-05-06 16:24:37.386,-3.9973423290965726e-05,-0.0341143496700551
2025-05-06 16:24:37.447,-1.7944646924458735e-05,-0.0998121359750933
2025-05-06 16:24:37.508,6.163721684075349e-05,-0.0741307624569347
2025-05-06 16:24:37.569,6.814152355462896e-05,0.0689408313801128
2025-05-06 16:24:37.630,2.9676171724625687e-06,0.2101851521269875
2025-05-06 16:24:37.691,-4.489938870513295e-05,0.2577438858293254
2025-05-06 16:24:37.752,-7.740354681298762e-05,0.2256535608384176
2025-05-06 16:24:37.813,-0.0001388307361464,0.1486909921188642
2025-05-06 16:24:37.874,-0.0001726796171978,0.0312803156609731
2025-05-06 16:24:37.935,-9.16776585446605e-05,-0.1007005758782619
2025-05-06 16:24:37.996,7.161761009272286e-05,-0.1822805862606458
2025-05-06 16:24:38.057,0.000191708286838,-0.1884310386708118
2025-05-06 16:24:38.118,0.0001828688455619,-0.1796727535814923
2025-05-06 16:24:38.179,5.4143379591839935e-05,-0.2075936040551459
2025-05-06 16:24:38.240,-0.0001183973755976,-0.2104128282467008
2025-05-06 16:24:38.301,-0.0002352099828713,-0.0886631918047991
2025-05-06 16:24:38.362,-0.0002336014682307,0.1290379611509857
2025-05-06 16:24:38.423,-0.0001405702973891,0.2839635628629169
2025-05-06 16:24:38.484,-3.2512889923783655e-05,0.2552578790600435
2025-05-06 16:24:38.545,6.339091331360744e-05,0.076943766513816
2025-05-06 16:24:38.606,0.0001694991077759,-0.1040548855107876
2025-05-06 16:24:38.667,0.000261626706537,-0.1605539464600297
2025-05-06 16:24:38.728,0.0002565552052431,-0.0913769203113658
2025-05-06 16:24:38.789,0.000121222133727,-0.000561338098392
2025-05-06 16:24:38.850,-6.545579698222874e-05,0.0294467387827593
2025-05-06 16:24:38.911,-0.0001892442468059,0.0135496541370137
2025-05-06 16:24:38.972,-0.0002048315265624,0.0146263264591951
2025-05-06 16:24:39.033,-0.0001375546217867,0.0632503452674743
2025-05-06 16:24:39.094,-1.8487601442968648e-05,0.1272394928267753
2025-05-06 16:24:39.155,0.0001142771340166,0.1341673985687015
2025-05-06 16:24:39.216,0.000175494529888,0.0441058544873429
2025-05-06 16:24:39.277,0.0001110702599803,-0.0867477931070064
2025-05-06 16:24:39.338,6.481348081438204e-06,-0.1532408827270413
2025-05-06 16:24:39.399,-1.8284713028142243e-05,-0.1163245037388733
2025-05-06 16:24:39.459,1.544482204557879e-05,-0.0326280439056576
2025-05-06 16:24:39.520,2.6053465463398344e-05,0.0156459005070774
2025-05-06 16:24:39.581,3.7885934491580615e-05,-0.0110492689453714
2025-05-06 16:24:39.642,8.646843480870011e-05,-0.0725538533306603
2025-05-06 16:24:39.703,7.696098205822347e-05,-0.0629377490067306
2025-05-06 16:24:39.764,-6.940249261022778e-05,0.0683934106828615
2025-05-06 16:24:39.825,-0.0002389350932211,0.2030285690056508
2025-05-06 16:24:39.886,-0.0002704886111594,0.1734455085555294
2025-05-06 16:24:39.947,-0.0001796269248257,0.0137268882652445
2025-05-06 16:24:40.008,-8.403710170749617e-05,-0.064831709294922
2025-05-06 16:24:40.069,-2.979447972438048e-07,0.0050790321949823
2025-05-06 16:24:40.130,0.0001136243965293,0.0450876536544112
2025-05-06 16:24:40.191,0.0001888997506238,-0.060930908155665
2025-05-06 16:24:40.252,0.0001240233492765,-0.1759380622809774
2025-05-06 16:24:40.313,-4.154877499250484e-06,-0.1536631906473832
2025-05-06 16:24:40.374,-2.5737376394566093e-05,-0.0566557582840776
2025-05-06 16:24:40.435,4.377690050343878e-05,0.0095943056374242
2025-05-06 16:24:40.496,3.5135437847817595e-05,0.0744203019599746
2025-05-06 16:24:40.557,-8.163291693070727e-05,0.1687406157038625
2025-05-06 16:24:40.618,-0.0001584088360823,0.1926294414490166
2025-05-06 16:24:40.679,-0.0001027380483206,0.066944085380362
2025-05-06 16:24:40.740,3.849273892958833e-05,-0.1004857093167969
2025-05-06 16:24:40.801,0.000180957085324,-0.1311352109131143
2025-05-06 16:24:40.862,0.000242377925796,-0.0048398096301944
2025-05-06 16:24:40.923,0.000171333279954,0.1151653130220647
2025-05-06 16:24:40.984,4.88891378721827e-05,0.0744249318237328
2025-05-06 16:24:41.045,3.389517549632522e-05,-0.1000014515264997
2025-05-06 16:24:41.106,0.0001245040749284,-0.2282947959265881
2025-05-06 16:24:41.167,0.0001339349029088,-0.1710422827296056
2025-05-06 16:24:41.228,-2.3256870435684118e-05,0.0192039100593145
2025-05-06 16:24:41.289,-0.0001926393225002,0.1547040829847379
2025-05-06 16:24:41.350,-0.0002109988183293,0.1168859314291266
2025-05-06 16:24:41.411,-0.0001236637763335,-0.0207635752596794
2025-05-06 16:24:41.472,-8.064081763715113e-05,-0.0881846055202924
2025-05-06 16:24:41.533,-0.0001334557631367,-0.0159664241214128
2025-05-06 16:24:41.594,-0.0002122205693684,0.1001475678860217
2025-05-06 16:24:41.655,-0.0002217296463181,0.1268634408828104
2025-05-06 16:24:41.716,-0.0001230665481014,0.0345415815192362
2025-05-06 16:24:41.777,1.6739223490750192e-05,-0.0956966868368411
2025-05-06 16:24:41.838,7.134056150177711e-05,-0.1502874783298969
2025-05-06 16:24:41.899,2.0886304606511567e-05,-0.0669028152374192
2025-05-06 16:24:41.959,8.157712947331209e-06,0.093765752633019
2025-05-06 16:24:42.020,0.0001243698169687,0.1686780216972737
2025-05-06 16:24:42.081,0.0002341700396227,0.0662902515528051
2025-05-06 16:24:42.142,0.000178074805658,-0.0985321908349143
2025-05-06 16:24:42.203,5.036096563028067e-05,-0.1374127294993455
2025-05-06 16:24:42.264,5.072700472676471e-05,-0.030870229342881
2025-05-06 16:24:42.325,0.0001411566143025,0.0659142866333908
2025-05-06 16:24:42.386,0.0001253248935739,0.0423052834296528
2025-05-06 16:24:42.447,1.3140351119708386e-05,-0.0425848319324685
2025-05-06 16:24:42.508,-4.166458699918788e-06,-0.0631252301490308
2025-05-06 16:24:42.569,8.413439100953873e-05,0.0160959995991313
2025-05-06 16:24:42.630,9.204513087144431e-05,0.1200291361752386
2025-05-06 16:24:42.691,-1.6405412567034646e-05,0.1597228735418447
2025-05-06 16:24:42.752,-6.607976697879069e-05,0.1039218796224298
2025-05-06 16:24:42.813,1.821428473420536e-05,-0.0197371386331936
2025-05-06 16:24:42.874,8.597084241755277e-05,-0.1406602148228807
2025-05-06 16:24:42.935,-1.724334323786814e-05,-0.1811224962049789
2025-05-06 16:24:42.996,-0.00025122766106,-0.1272542949082429
2025-05-06 16:24:43.057,-0.0004178490401749,-0.0515663785984171
2025-05-06 16:24:43.118,-0.0003561624340756,-0.0310010620255034
2025-05-06 16:24:43.179,-0.0001292008073088,-0.052466909853933
2025-05-06 16:24:43.240,3.7468570486936365e-05,-0.0264524577419552
2025-05-06 16:24:43.301,5.1636587429240686e-05,0.0914987989140558
2025-05-06 16:24:43.362,4.002792112616634e-05,0.2174720017250434
2025-05-06 16:24:43.423,7.872778181815237e-05,0.2343850759248996
2025-05-06 16:24:43.484,6.817688323042924e-05,0.1523815974976622
2025-05-06 16:24:43.545,-3.513283621394382e-05,0.0793569263459755
2025-05-06 16:24:43.606,-0.000102035453546,0.0509102065414199
2025-05-06 16:24:43.667,-3.5926980684338405e-05,0.0147629661889341
2025-05-06 16:24:43.728,0.0001013872253638,-0.040351277095405
2025-05-06 16:24:43.789,0.0002200481721606,-0.0861854795640119
2025-05-06 16:24:43.850,0.0002945616027124,-0.1545348056026453
2025-05-06 16:24:43.911,0.0002964356653088,-0.2779077507762457
2025-05-06 16:24:43.972,0.0001772465247644,-0.3625878870245773
2025-05-06 16:24:44.033,-2.1471481559396663e-05,-0.2820400874240207
2025-05-06 16:24:44.094,-0.0001401306960891,-0.0751962293519489
2025-05-06 16:24:44.155,-8.581803198917617e-05,0.0969481626681298
2025-05-06 16:24:44.216,1.2868423617982838e-05,0.1732080243992446
2025-05-06 16:24:44.277,-1.866720453664613e-05,0.2235738530368373
2025-05-06 16:24:44.338,-0.0001221183745643,0.2683393649449129
2025-05-06 16:24:44.399,-0.0001120426912625,0.2264572928042043
2025-05-06 16:24:44.459,-1.1696426653114974e-05,0.072696521241767
2025-05-06 16:24:44.520,-9.279096966380475e-06,-0.0931551787942135
2025-05-06 16:24:44.581,-0.0001063216512972,-0.1677575348324869
2025-05-06 16:24:44.642,-0.00011634821422,-0.1276710463836647
2025-05-06 16:24:44.703,-1.384777984943352e-05,-0.0009509057957644
2025-05-06 16:24:44.764,1.938814717085913e-05,0.136379330229368
2025-05-06 16:24:44.825,-7.89597295718733e-05,0.1736388868100553
2025-05-06 16:24:44.886,-0.0001438839988997,0.081896523200957
2025-05-06 16:24:44.947,-4.2322837370610086e-05,-0.027679554117486
2025-05-06 16:24:45.008,0.0001515597878084,-0.0452650906757409
2025-05-06 16:24:45.069,0.0002725022932485,-0.0035046941011717
2025-05-06 16:24:45.130,0.0002411022103465,-3.018458018688497e-05
2025-05-06 16:24:45.191,0.0001092810830142,-0.0465004639621565
2025-05-06 16:24:45.252,-2.0075983615413928e-05,-0.0907399299908396
2025-05-06 16:24:45.313,-0.0001045806950811,-0.1262696312673655
2025-05-06 16:24:45.374,-0.0001681918476542,-0.1611360946759057
2025-05-06 16:24:45.435,-0.0001922615510144,-0.1384268271966975
2025-05-06 16:24:45.496,-0.0001078599890769,-0.0252652398392542
2025-05-06 16:24:45.557,5.073714970153834e-05,0.0847443088303472
2025-05-06 16:24:45.618,0.000135583968865,0.1030232163562705
2025-05-06 16:24:45.679,9.416873436512832e-05,0.0950056101859135
2025-05-06 16:24:45.740,1.758541056157574e-05,0.1434507499078096
2025-05-06 16:24:45.801,-4.413938700861556e-05,0.1700027876821594
2025-05-06 16:24:45.862,-0.0001177343870014,0.0731342367699422
2025-05-06 16:24:45.923,-0.0001647157781754,-0.0589974347237241
2025-05-06 16:24:45.984,-9.655799553467384e-05,-0.0785135593945067
2025-05-06 16:24:46.045,6.206273679415197e-05,-0.0399657378800994
2025-05-06 16:24:46.106,0.0001616776755234,-0.1026212251154794
2025-05-06 16:24:46.167,0.0001076120737077,-0.2198030184710087
2025-05-06 16:24:46.228,-2.4042262814456756e-05,-0.185672618830719
2025-05-06 16:24:46.289,-8.43511814612604e-05,0.0132284949590374
2025-05-06 16:24:46.350,-1.0590057449362631e-05,0.1628911048416913
2025-05-06 16:24:46.411,0.0001421994023805,0.1612876585859674
2025-05-06 16:24:46.472,0.00025495883626,0.1277430105406676
2025-05-06 16:24:46.533,0.0002086112337783,0.1360754315395546
2025-05-06 16:24:46.594,3.407835416935178e-06,0.0962822741245811
2025-05-06 16:24:46.655,-0.0001716207423969,-0.0306272096335519
2025-05-06 16:24:46.716,-0.0001330621983037,-0.1217012091762598
2025-05-06 16:24:46.777,3.3250147776666834e-05,-0.0917085251975289
2025-05-06 16:24:46.838,8.922515905965094e-05,-0.0371591067391428
2025-05-06 16:24:46.899,-3.5983752032308013e-06,-0.0728953073681927
2025-05-06 16:24:46.959,-8.871485696658766e-05,-0.1431316126381766
2025-05-06 16:24:47.020,-0.0001087784497958,-0.1068912371090902
2025-05-06 16:24:47.081,-0.0001174512729555,0.0582504565353997
2025-05-06 16:24:47.142,-9.303618580602048e-05,0.2257547426042285
2025-05-06 16:24:47.203,-1.0149753240482012e-05,0.2583925943351992
2025-05-06 16:24:47.264,2.8931995845100004e-05,0.1343672342313233
2025-05-06 16:24:47.325,-5.640887942458683e-05,-0.0409216015486859
2025-05-06 16:24:47.386,-0.0001882770873716,-0.1390083370173231
2025-05-06 16:24:47.447,-0.0002427888594227,-0.134875271522005
2025-05-06 16:24:47.508,-0.000150516103167,-0.1136373515282897
2025-05-06 16:24:47.569,8.680143856902144e-05,-0.1459313485229258
2025-05-06 16:24:47.630,0.0003246945093849,-0.1899106348701913
2025-05-06 16:24:47.691,0.0003455064068231,-0.1439008460883175
2025-05-06 16:24:47.752,0.0001505478700841,0.017348818062939
2025-05-06 16:24:47.813,1.046110008501563e-05,0.1961461256305542
2025-05-06 16:24:47.874,8.430459418414065e-05,0.2720415679580635
2025-05-06 16:24:47.935,0.00017983155248,0.2184975304743889
2025-05-06 16:24:47.996,5.954047393178952e-05,0.1072324251368648
2025-05-06 16:24:48.057,-0.0001763963775547,0.0260115653499719
2025-05-06 16:24:48.118,-0.00023508310099,0.0047531875115957
2025-05-06 16:24:48.179,-7.117965736319089e-05,0.0006014109170198
2025-05-06 16:24:48.240,7.814382452062283e-05,-0.0465780720279253
2025-05-06 16:24:48.301,7.063455335137609e-05,-0.1289023864002896
2025-05-06 16:24:48.362,-7.653263776525175e-06,-0.1649620116125145
2025-05-06 16:24:48.423,-7.094078381771112e-05,-0.1066142408318937
2025-05-06 16:24:48.484,-0.0001087454941783,-0.0106477963833225
2025-05-06 16:24:48.545,-7.324669801835988e-05,0.0333429793106912
2025-05-06 16:24:48.606,3.734811476925313e-05,0.0068580887490964
2025-05-06 16:24:48.667,7.604726877033398e-05,-0.0330661265491161
2025-05-06 16:24:48.728,-3.863938422497113e-05,-0.0201715177017888
2025-05-06 16:24:48.789,-0.0001506383341077,0.053646121022969
2025-05-06 16:24:48.850,-0.0001008521491744,0.109719858587172
2025-05-06 16:24:48.911,3.0383971028425805e-05,0.0513016046637678
2025-05-06 16:24:48.972,7.758072979262592e-05,-0.0987121362844737
2025-05-06 16:24:49.033,3.8573743030804485e-05,-0.1800149298496334
2025-05-06 16:24:49.094,1.5261053452316644e-05,-0.0825267077056084
2025-05-06 16:24:49.155,2.502189703974597e-05,0.0982667624656236
2025-05-06 16:24:49.216,2.8641415582923295e-05,0.1824619846313193
2025-05-06 16:24:49.277,4.3769891915994736e-05,0.1327530580690677
2025-05-06 16:24:49.338,7.705483240578801e-05,0.048687666260855
2025-05-06 16:24:49.399,5.1160166524895054e-05,-0.0103525734258002
2025-05-06 16:24:49.459,-6.249904892699678e-05,-0.0530168435154927
2025-05-06 16:24:49.520,-0.0001453784700877,-0.0573781312630462
2025-05-06 16:24:49.581,-7.687847141938932e-05,-0.0046472829930796
2025-05-06 16:24:49.642,9.453279090638038e-05,0.0293111470538631
2025-05-06 16:24:49.703,0.0001932166013312,-0.030038377207825
2025-05-06 16:24:49.764,0.0001137947449094,-0.1081593925107314
2025-05-06 16:24:49.825,-4.581972617789735e-05,-0.0686453753107343
2025-05-06 16:24:49.886,-8.895865593265696e-05,0.089727689124573
2025-05-06 16:24:49.947,2.814658862116204e-05,0.237115473876463
2025-05-06 16:24:50.008,0.0001323437104792,0.2772660540242614
2025-05-06 16:24:50.069,7.155540263282461e-05,0.2197025866509595
2025-05-06 16:24:50.130,-8.414084214520897e-05,0.1164883372629167
2025-05-06 16:24:50.191,-0.0001624128291501,-0.0003640360537811
2025-05-06 16:24:50.252,-0.0001104250355002,-0.1192795817589517
2025-05-06 16:24:50.313,9.151797710078204e-07,-0.2347448584471397
2025-05-06 16:24:50.374,9.529202228542388e-05,-0.3466673678773745
2025-05-06 16:24:50.435,0.0001169374031465,-0.4385898000636065
2025-05-06 16:24:50.496,3.443136560207389e-05,-0.4465728026644103
2025-05-06 16:24:50.557,-0.0001056887076555,-0.3060382067352913
2025-05-06 16:24:50.618,-0.0002051940938346,-0.0576364685849363
2025-05-06 16:24:50.679,-0.0002082559763869,0.148015649989661
2025-05-06 16:24:50.740,-0.0001067055634712,0.1921167869823239
2025-05-06 16:24:50.801,7.918214389095142e-05,0.1093076071965371
2025-05-06 16:24:50.862,0.000239670444854,0.0415488622855624
2025-05-06 16:24:50.923,0.0002044477308506,0.081561718538592
2025-05-06 16:24:50.984,-4.599191677103288e-05,0.1848251279522103
2025-05-06 16:24:51.045,-0.000272928254872,0.2381769309759102
2025-05-06 16:24:51.106,-0.0002083768752764,0.1917249330854696
2025-05-06 16:24:51.167,0.0001215009064184,0.1066141118765683
2025-05-06 16:24:51.228,0.0003915766319182,0.0805384518219308
2025-05-06 16:24:51.289,0.0003189710034218,0.1438193653294935
2025-05-06 16:24:51.350,-3.561889837257534e-05,0.2399087393126063
2025-05-06 16:24:51.411,-0.0003389010040362,0.2884468024269154
2025-05-06 16:24:51.472,-0.0003514101774978,0.2347203616537951
2025-05-06 16:24:51.533,-0.0001798315613166,0.0691731314926843
2025-05-06 16:24:51.594,-0.0001037642844292,-0.1357119420830068
2025-05-06 16:24:51.655,-0.0001802821578106,-0.247727901445926
2025-05-06 16:24:51.716,-0.0001739165183839,-0.2258212648238879
2025-05-06 16:24:51.777,5.887776006631341e-05,-0.1944428570827491
2025-05-06 16:24:51.838,0.0003103131615672,-0.2552579838780678
2025-05-06 16:24:51.899,0.0003161242126162,-0.3071905022171118
2025-05-06 16:24:51.959,0.0001497127504575,-0.2086275266932694
2025-05-06 16:24:52.020,9.874033166135531e-05,-0.0328129084715943
2025-05-06 16:24:52.081,0.0002443584850495,0.0353229011884479
2025-05-06 16:24:52.142,0.0003855213977168,-0.0060169674583921
2025-05-06 16:24:52.203,0.0003519718946581,-0.0027012101530366
2025-05-06 16:24:52.264,0.0002026987854618,0.0702363388003285
2025-05-06 16:24:52.325,9.222215182781268e-05,0.0793796180425536
2025-05-06 16:24:52.386,7.651787003879552e-05,-0.0173474201184531
2025-05-06 16:24:52.447,8.928892939427061e-05,-0.1048110518969931
2025-05-06 16:24:52.508,4.374601600270948e-05,-0.1044164206081534
2025-05-06 16:24:52.569,-5.439258397937745e-05,-0.0541922487352907
2025-05-06 16:24:52.630,-0.0001126188356615,0.0062438070033881
2025-05-06 16:24:52.691,-0.0001141926602404,0.0771061355804751
2025-05-06 16:24:52.752,-0.000174650628445,0.1285930396199897
2025-05-06 16:24:52.813,-0.0003403637772599,0.1171771860308072
2025-05-06 16:24:52.874,-0.0005149464566332,0.0735657684978797
2025-05-06 16:24:52.935,-0.0006995346631667,0.076988111601259
2025-05-06 16:24:52.996,-0.000982214812454,0.1337479730079308
2025-05-06 16:24:53.057,-0.0011379357890483,0.16004702736221
2025-05-06 16:24:53.118,-0.0007363979789355,0.1002325977540943
2025-05-06 16:24:53.179,0.0001131343420735,-0.0072436542916717
2025-05-06 16:24:53.240,0.0007029391526663,-0.0913000256011444
2025-05-06 16:24:53.301,0.0006691435780402,-0.107848559747693
2025-05-06 16:24:53.362,0.000413962666113,-0.0492492245632518
2025-05-06 16:24:53.423,0.0003928432834712,0.0328806575738581
2025-05-06 16:24:53.484,0.0005386883075357,0.0476079438889405
2025-05-06 16:24:53.545,0.0005712493126059,-0.0200325769610068
2025-05-06 16:24:53.606,0.0004351298177006,-0.0663493986359261
2025-05-06 16:24:53.667,0.0002625292971606,-0.0119471466999914
2025-05-06 16:24:53.728,0.0001639270383049,0.0754209376707482
2025-05-06 16:24:53.789,0.000164799336784,0.0757434638339748
2025-05-06 16:24:53.850,0.0002209901382921,-0.019512030051448
2025-05-06 16:24:53.911,0.0002487076184352,-0.1135500422390486
2025-05-06 16:24:53.972,0.0001921853047333,-0.1364579165238412
2025-05-06 16:24:54.033,6.0509454007772376e-05,-0.1033059283629368
2025-05-06 16:24:54.094,-0.0001137041121208,-0.0605203166444465
2025-05-06 16:24:54.155,-0.0002891270718295,-0.0292119404930237
2025-05-06 16:24:54.216,-0.000381920494939,-0.0025073910036681
2025-05-06 16:24:54.277,-0.000334512376431,0.032020010865855
2025-05-06 16:24:54.338,-0.0002344076753902,0.0781782763595745
2025-05-06 16:24:54.399,-0.0002213601606465,0.1245542859390273
2025-05-06 16:24:54.459,-0.0002790341725778,0.1397608714508535
2025-05-06 16:24:54.520,-0.0002793331185504,0.0905184715740981
2025-05-06 16:24:54.581,-0.0001944447474076,-0.0116879425904506
2025-05-06 16:24:54.642,-9.835377561429424e-05,-0.0943585431180051
2025-05-06 16:24:54.703,-2.9045796052261453e-05,-0.0906277867827712
2025-05-06 16:24:54.764,1.4230566959763843e-05,-0.0249064244261963
2025-05-06 16:24:54.825,3.100885374355144e-05,0.0056215415755564
2025-05-06 16:24:54.886,3.625275809739172e-05,-0.0469689595102462
2025-05-06 16:24:54.947,1.244524761739372e-05,-0.1063726188673392
2025-05-06 16:24:55.008,-8.644894699726176e-05,-0.05352472209612
2025-05-06 16:24:55.069,-0.0001602642014516,0.1128083887584527
2025-05-06 16:24:55.130,1.7626091659236445e-06,0.2310385642640382
2025-05-06 16:24:55.191,0.0003441482949177,0.1446760793249464
2025-05-06 16:24:55.252,0.0004857213174297,-0.0866958518078531
2025-05-06 16:24:55.313,0.0002387986150708,-0.2262956944125821
2025-05-06 16:24:55.374,-9.182552509582504e-05,-0.1467863663294457
2025-05-06 16:24:55.435,-0.0001341858426907,0.0137391794896332
2025-05-06 16:24:55.496,6.468650497743665e-05,0.0499724108104951
2025-05-06 16:24:55.557,0.0001875611333414,-0.0487056785366138
2025-05-06 16:24:55.618,0.0001160046445058,-0.131074811247278
2025-05-06 16:24:55.679,1.3381012217362382e-05,-0.1014340792216872
2025-05-06 16:24:55.740,-7.70547604899992e-06,0.0081187514778495
2025-05-06 16:24:55.801,-4.1911703499587366e-05,0.1216222899643532
2025-05-06 16:24:55.862,-0.0001448371556368,0.1620856197091763
2025-05-06 16:24:55.923,-0.0001753445032183,0.07069302839589
2025-05-06 16:24:55.984,-4.185790752317608e-05,-0.1007192994035332
2025-05-06 16:24:56.045,9.50103084524214e-05,-0.1810441559740051
2025-05-06 16:24:56.106,6.12549032479574e-05,-0.0830518119028539
2025-05-06 16:24:56.167,-4.8755404176707575e-05,0.0556625331982927
2025-05-06 16:24:56.228,-4.306874449477515e-05,0.0619243821005198
2025-05-06 16:24:56.289,5.033222296078405e-05,-0.0185892886015355
2025-05-06 16:24:56.350,7.229096125520709e-05,-0.003098492491442
2025-05-06 16:24:56.411,1.6070137720113288e-05,0.153645070200375
2025-05-06 16:24:56.472,-2.3899303504638454e-05,0.3170633857772385
2025-05-06 16:24:56.533,-5.9876997794355326e-05,0.3607924993853856
2025-05-06 16:24:56.594,-0.0001268867387875,0.2723738960974012
2025-05-06 16:24:56.655,-0.0001306301781519,0.1206530403368599
2025-05-06 16:24:56.716,-4.87295312609241e-06,0.0114466870373166
2025-05-06 16:24:56.777,0.0001208989194583,0.011124710061861
2025-05-06 16:24:56.838,0.0001101758034155,0.0487582634366927
2025-05-06 16:24:56.899,2.9964308883854963e-05,-0.0205828973191149
2025-05-06 16:24:56.959,-5.189119169543473e-06,-0.2038715174422516
2025-05-06 16:24:57.020,-3.560938696913693e-05,-0.329923327296862
2025-05-06 16:24:57.081,-0.000117940667271,-0.2871072686967015
2025-05-06 16:24:57.142,-0.000151327485076,-0.1879799816376972
2025-05-06 16:24:57.203,-4.135574178631079e-05,-0.1996284617489227
2025-05-06 16:24:57.264,9.609411740578856e-05,-0.299669205705542
2025-05-06 16:24:57.325,8.174184077424332e-05,-0.3219877891245606
2025-05-06 16:24:57.386,-6.16810886176654e-05,-0.1991881150613333
2025-05-06 16:24:57.447,-0.0001398728800929,-0.0359095870158992
2025-05-06 16:24:57.508,-3.877131406304213e-05,0.0562665754121487
2025-05-06 16:24:57.569,0.0001488327399356,0.0847078167130054
2025-05-06 16:24:57.630,0.0002329535081449,0.1073765581142642
2025-05-06 16:24:57.691,0.0001387545362133,0.1327466207152431
2025-05-06 16:24:57.752,4.523858430848236e-06,0.1438734243680086
2025-05-06 16:24:57.813,4.806381015915424e-06,0.161206873481191
2025-05-06 16:24:57.874,9.152038653262652e-05,0.2089589204598322
2025-05-06 16:24:57.935,6.595998031198789e-05,0.2379365669057737
2025-05-06 16:24:57.996,-8.825205655284504e-05,0.1629697102505205
2025-05-06 16:24:58.057,-0.0001587953067866,0.0016774577091815
2025-05-06 16:24:58.118,-4.3882665206557885e-05,-0.103597569671761
2025-05-06 16:24:58.179,7.646108449281399e-05,-0.0592560678985247
2025-05-06 16:24:58.240,1.491905218154596e-05,0.0549833112013682
2025-05-06 16:24:58.301,-0.0001485474389287,0.1068302810042321
2025-05-06 16:24:58.362,-0.0002097261900313,0.0882787061716725
2025-05-06 16:24:58.423,-0.0001333170205033,0.0855770730844429
2025-05-06 16:24:58.484,-3.596087654753144e-05,0.1321312914347102
2025-05-06 16:24:58.545,3.559561994589936e-05,0.1778569224259857
2025-05-06 16:24:58.606,0.0001201564066973,0.1553595807614949
2025-05-06 16:24:58.667,0.0001810642949459,0.0223573660017099
2025-05-06 16:24:58.728,0.000122865601927,-0.1886589383547753
2025-05-06 16:24:58.789,-2.867697431124699e-05,-0.3389842410316013
2025-05-06 16:24:58.850,-0.0001226802370178,-0.3096275431414403
2025-05-06 16:24:58.911,-7.563022298229748e-05,-0.165167365787965
2025-05-06 16:24:58.972,4.369218002425165e-05,-0.0695892692467475
2025-05-06 16:24:59.033,0.0001201009551423,-0.0607846311318027
2025-05-06 16:24:59.094,0.0001099377810618,-0.0493275597206633
2025-05-06 16:24:59.155,6.030277169023234e-05,-0.004739185319271
2025-05-06 16:24:59.216,3.2957505376793057e-05,0.0159560056080118
2025-05-06 16:24:59.277,1.7599972472930466e-05,0.0048670367780704
2025-05-06 16:24:59.338,-3.2144385276522345e-05,0.0172309404981909
2025-05-06 16:24:59.399,-9.397388216022188e-05,0.0498670829267865
2025-05-06 16:24:59.459,-0.000101397824256,0.0378097929962167
2025-05-06 16:24:59.520,-5.500368923900905e-05,-0.0153591846685297
2025-05-06 16:24:59.581,-1.5591302298052347e-05,-0.0241780131592439
2025-05-06 16:24:59.642,-7.511170895435529e-06,0.034853733935546
2025-05-06 16:24:59.703,-3.835222954392322e-06,0.0794949635185265
2025-05-06 16:24:59.764,9.798087625696528e-06,0.0608234685001604
2025-05-06 16:24:59.825,1.4594278474540576e-05,0.0354965353767931
2025-05-06 16:24:59.886,1.2329670521835891e-06,0.0502938771142845
2025-05-06 16:24:59.947,-9.551141904637443e-06,0.0590122925660338
2025-05-06 16:25:00.008,-9.461678590328607e-06,0.011889386266729
2025-05-06 16:25:00.069,-3.29759848203575e-05,-0.0543520754186925
2025-05-06 16:25:00.130,-9.704877751091726e-05,-0.0709733695681585
2025-05-06 16:25:00.191,-0.0001311717201464,-0.0329784196729637
2025-05-06 16:25:00.252,-4.599777794703746e-05,0.0013698237526418
2025-05-06 16:25:00.313,0.0001242517382855,-0.0092254079770319
2025-05-06 16:25:00.374,0.0002286888209297,-0.0364309450244398
2025-05-06 16:25:00.435,0.0001682614792699,-0.0229293301973585
2025-05-06 16:25:00.496,1.0058175360456432e-05,0.0353929032737166
2025-05-06 16:25:00.557,-7.578158796891791e-05,0.0803153634762434
2025-05-06 16:25:00.618,5.265859904601527e-06,0.0684421828961014
2025-05-06 16:25:00.679,0.0001482060837398,0.0181566877338941
2025-05-06 16:25:00.740,0.0001595283765652,-0.0305223708131596
2025-05-06 16:25:00.801,1.467586476024886e-05,-0.0582291868178931
2025-05-06 16:25:00.862,-0.0001087201231854,-0.0576175250657036
2025-05-06 16:25:00.923,-9.929585228302648e-05,-0.0292945674413022
2025-05-06 16:25:00.984,-4.945059877333665e-05,0.0046453032014892
2025-05-06 16:25:01.045,-4.648572664693365e-05,0.0196265060762839
2025-05-06 16:25:01.106,-3.433072621049188e-05,0.0184888729672661
2025-05-06 16:25:01.167,-1.6198862688676617e-06,0.0201895893826391
2025-05-06 16:25:01.228,-6.828261228219364e-05,0.039013223410359
2025-05-06 16:25:01.289,-0.0002352740536374,0.0861634638747831
2025-05-06 16:25:01.350,-0.0002956012684508,0.1499435278906828
2025-05-06 16:25:01.411,-0.0001496340469013,0.1635460576665884
2025-05-06 16:25:01.472,3.154145691836241e-05,0.0567611258134769
2025-05-06 16:25:01.533,9.418239823377036e-05,-0.1301693580430631
2025-05-06 16:25:01.594,0.0001089715540391,-0.249221917559396
2025-05-06 16:25:01.655,0.0001559126443571,-0.2081418218003592
2025-05-06 16:25:01.716,0.0001510490949716,-0.0779928525026406
2025-05-06 16:25:01.777,5.193162464818745e-05,0.0115514300723994
2025-05-06 16:25:01.838,6.46859669402096e-06,0.0242589161434495
2025-05-06 16:25:01.899,0.0001124702825012,0.006151832009005
2025-05-06 16:25:01.959,0.0002345874825573,-0.0056857152596742
2025-05-06 16:25:02.020,0.0002256040662338,0.0076215720942066
2025-05-06 16:25:02.081,0.0001275381088674,0.0545587119318904
2025-05-06 16:25:02.142,4.037744102604639e-05,0.0889138004621468
2025-05-06 16:25:02.203,-4.369422486526034e-06,0.0430827460529038
2025-05-06 16:25:02.264,-3.734534891904373e-06,-0.0477586677256143
2025-05-06 16:25:02.325,-8.493480445554273e-06,-0.0632159984698954
2025-05-06 16:25:02.386,-0.0001263687218955,0.0135298017020294
2025-05-06 16:25:02.447,-0.0003243926466225,0.0536034388257664
2025-05-06 16:25:02.508,-0.0003803436240858,-0.0096068040584999
2025-05-06 16:25:02.569,-0.0002086695747073,-0.0683419781243661
2025-05-06 16:25:02.630,-3.4105518237640016e-05,-0.014691737466171
2025-05-06 16:25:02.691,-5.630993214926949e-05,0.0969168575458305
2025-05-06 16:25:02.752,-0.0001527490476966,0.1372075646664178
2025-05-06 16:25:02.813,-0.0001096815062374,0.056133513150874
2025-05-06 16:25:02.874,3.884412650750359e-05,-0.0957787658748584
2025-05-06 16:25:02.935,0.0001110586524084,-0.2168888360769715
2025-05-06 16:25:02.996,8.728552088852574e-05,-0.2073547732881062
2025-05-06 16:25:03.057,0.0001034528146601,-0.0570752230291244
2025-05-06 16:25:03.118,0.0001920880876447,0.1097514313170704
2025-05-06 16:25:03.179,0.0002382412503633,0.1619463641855145
2025-05-06 16:25:03.240,0.0001832076418499,0.1303576447449511
2025-05-06 16:25:03.301,8.620132242062064e-05,0.14482915277798
2025-05-06 16:25:03.362,-4.227807664757147e-06,0.2077603553477359
2025-05-06 16:25:03.423,-6.929822351961487e-05,0.1760024381989657
2025-05-06 16:25:03.484,-5.319310864561196e-05,-0.0023514586210602
2025-05-06 16:25:03.545,4.98899789369843e-05,-0.1885556538962282
2025-05-06 16:25:03.606,0.0001088119078837,-0.2514376808653545
2025-05-06 16:25:03.667,2.5699229794965997e-05,-0.2224736534480384
2025-05-06 16:25:03.728,-9.696005035723111e-05,-0.1818227250104369
2025-05-06 16:25:03.789,-0.0001162587746829,-0.1289041075969766
2025-05-06 16:25:03.850,-5.998951013308693e-05,-0.0520771403023201
2025-05-06 16:25:03.911,-2.583116617445951e-05,0.0014844522788045
2025-05-06 16:25:03.972,6.199178023110167e-06,0.018287532531454
2025-05-06 16:25:04.033,9.150882872173592e-05,0.0696257986569137
2025-05-06 16:25:04.094,0.0001482635035457,0.1872255587428688
2025-05-06 16:25:04.155,6.161085277902391e-05,0.2866696047827778
2025-05-06 16:25:04.216,-8.966647625929028e-05,0.2838818958272592
2025-05-06 16:25:04.277,-0.0001219305418269,0.200481817160305
2025-05-06 16:25:04.338,-4.5211671541495336e-05,0.0948512831042802
2025-05-06 16:25:04.399,-4.93213626033219e-05,-0.0317876287978773
2025-05-06 16:25:04.459,-0.0001829162564354,-0.1854239074212156
2025-05-06 16:25:04.520,-0.0002653499967405,-0.2891272693411196
2025-05-06 16:25:04.581,-0.0001604118667871,-0.2487403624536686
2025-05-06 16:25:04.642,3.175366451927111e-05,-0.1007932521356779
2025-05-06 16:25:04.703,0.0001215569788572,0.0157726003035596
2025-05-06 16:25:04.764,7.286193289947153e-05,0.0393736639631265
2025-05-06 16:25:04.825,1.017375853358653e-05,0.0262825535123709
2025-05-06 16:25:04.886,5.992394049290901e-06,0.0263443042202462
2025-05-06 16:25:04.947,-8.494566251976852e-06,0.0372036494430448
2025-05-06 16:25:05.008,-6.753211878338337e-05,0.054306525855307
2025-05-06 16:25:05.069,-6.217786564921776e-05,0.0560372996284471
2025-05-06 16:25:05.130,8.33456013192522e-05,-0.0150874008867614
2025-05-06 16:25:05.191,0.0002640377303747,-0.1538254904531477
2025-05-06 16:25:05.252,0.0003316784979197,-0.2339322252938347
2025-05-06 16:25:05.313,0.0002695308570753,-0.1510538538243867
2025-05-06 16:25:05.374,0.000150535206917,0.0289014972359896
2025-05-06 16:25:05.435,1.718426539613505e-05,0.1516988391826841
2025-05-06 16:25:05.496,-0.0001265563623851,0.1559812979001622
2025-05-06 16:25:05.557,-0.0002487918992429,0.1035749657719948
2025-05-06 16:25:05.618,-0.0002688397668564,0.0738404288790749
2025-05-06 16:25:05.679,-0.000142330155658,0.0852788822902287
2025-05-06 16:25:05.740,3.707709131233017e-05,0.0972072285722115
2025-05-06 16:25:05.801,0.0001159839419523,0.0555346669236821
2025-05-06 16:25:05.862,8.169270790786747e-05,-0.0457521323135497
2025-05-06 16:25:05.923,5.028482311901528e-05,-0.1353103818078891
2025-05-06 16:25:05.984,3.963788478631499e-05,-0.1241161008422076
2025-05-06 16:25:06.045,-5.0515269732611504e-05,-0.0057905658650672
2025-05-06 16:25:06.106,-0.0001906159944239,0.1297421850796073
2025-05-06 16:25:06.167,-0.0001945489672886,0.1848137579899666
2025-05-06 16:25:06.228,-3.0883672577694766e-05,0.1348470045234122
2025-05-06 16:25:06.289,8.678436181389223e-05,0.0343786888324201
2025-05-06 16:25:06.350,3.5278552849940954e-05,-0.0402017335258066
2025-05-06 16:25:06.411,-3.354597579447212e-05,-0.067032828583273
2025-05-06 16:25:06.472,2.7959766676788317e-05,-0.0951425515649822
2025-05-06 16:25:06.533,0.0001203332648246,-0.1708020135758055
2025-05-06 16:25:06.594,8.61717896689192e-05,-0.2670660432865332
2025-05-06 16:25:06.655,-2.6362810294599016e-05,-0.3027200105170549
2025-05-06 16:25:06.716,-6.003074402736525e-05,-0.2163857341779147
2025-05-06 16:25:06.777,-4.676562936189922e-06,-0.0245140144480262
2025-05-06 16:25:06.838,2.244341964087929e-05,0.174194401061947
2025-05-06 16:25:06.899,2.639220999886725e-07,0.2694433382697799
2025-05-06 16:25:06.959,1.6278152513167906e-05,0.2421743804005924
2025-05-06 16:25:07.020,6.479890336736092e-05,0.176431953865007
2025-05-06 16:25:07.081,2.781115846159917e-05,0.1491098998862551
2025-05-06 16:25:07.142,-0.0001080102178173,0.1410071511748685
2025-05-06 16:25:07.203,-0.0001859269776207,0.0772949311576578
2025-05-06 16:25:07.264,-0.0001052899188613,-0.0702053519504786
2025-05-06 16:25:07.325,2.4278648491294715e-05,-0.2323122852810492
2025-05-06 16:25:07.386,6.086399035500255e-05,-0.2921298712450786
2025-05-06 16:25:07.447,3.2138489740635574e-05,-0.2016107068643525
2025-05-06 16:25:07.508,2.3578759681455085e-05,-0.0340901323753615
2025-05-06 16:25:07.569,1.4453404088073533e-05,0.1064215154676343
2025-05-06 16:25:07.630,-1.4842945157967856e-05,0.181617359995372
2025-05-06 16:25:07.691,2.1111025691600114e-05,0.1895477727011882
2025-05-06 16:25:07.752,0.0001466615720642,0.125929154931382
2025-05-06 16:25:07.813,0.0002200264158442,0.0285584717035205
2025-05-06 16:25:07.874,0.0001377647456759,-0.0354744937228989
2025-05-06 16:25:07.935,-2.40115731447142e-07,-0.0685881457433853
2025-05-06 16:25:07.996,-5.083695187093035e-05,-0.1241791984057242
2025-05-06 16:25:08.057,-2.922498639473577e-05,-0.1730749643355986
2025-05-06 16:25:08.118,-2.8626165890052373e-05,-0.1198923260904409
2025-05-06 16:25:08.179,-4.854507559148655e-05,0.0237218269697195
2025-05-06 16:25:08.240,-5.096316250700708e-05,0.1210267001426549
2025-05-06 16:25:08.301,-8.01409809025501e-05,0.1035656105216719
2025-05-06 16:25:08.362,-0.0001531690006472,0.0497460829825332
2025-05-06 16:25:08.423,-0.0001502029535222,0.0324941423505418
2025-05-06 16:25:08.484,-3.666688426661488e-06,0.0283620956982047
2025-05-06 16:25:08.545,0.0001318744822815,0.0118680978865249
2025-05-06 16:25:08.606,9.936751469254248e-05,-0.0074880361392404
2025-05-06 16:25:08.667,-2.4382504104938044e-06,-0.0574164703010518
2025-05-06 16:25:08.728,3.467042154124188e-06,-0.1571244216399215
2025-05-06 16:25:08.789,7.345871718553955e-05,-0.2137957111894849
2025-05-06 16:25:08.850,6.675864958502893e-05,-0.1258024818922802
2025-05-06 16:25:08.911,1.4319117396620346e-05,0.0471741590785447
2025-05-06 16:25:08.972,-1.174570564299385e-05,0.1679479320941409
2025-05-06 16:25:09.033,-0.0001111575634363,0.2100328915107611
2025-05-06 16:25:09.094,-0.0003312925633909,0.2161182901529889
2025-05-06 16:25:09.155,-0.0004372279693251,0.1604289922247199
2025-05-06 16:25:09.216,-0.0002138817456227,0.011349677281608
2025-05-06 16:25:09.277,0.0001879810904169,-0.151782277932214
2025-05-06 16:25:09.338,0.0004369463104615,-0.2267636303428105
2025-05-06 16:25:09.399,0.0003959863279188,-0.218792535540954
2025-05-06 16:25:09.459,0.000196268884669,-0.1796946895307953
2025-05-06 16:25:09.520,4.5559825827018825e-05,-0.1054562157681258
2025-05-06 16:25:09.581,4.565743194993941e-06,0.0172393299424921
2025-05-06 16:25:09.642,-3.673552063249423e-05,0.1434137226716154
2025-05-06 16:25:09.703,-0.0001297603285025,0.2220879033984818
2025-05-06 16:25:09.764,-0.0001504163320911,0.2522979790370024
2025-05-06 16:25:09.825,-2.704857735026907e-05,0.2408178415338477
2025-05-06 16:25:09.886,9.506266645002816e-05,0.1741181306257121
2025-05-06 16:25:09.947,7.736588076342017e-05,0.0721123293690012
2025-05-06 16:25:10.008,-1.65690605137353e-06,-0.0045331113817345
2025-05-06 16:25:10.069,-2.766464596203053e-05,-0.0394373724405035
2025-05-06 16:25:10.130,-5.3899286623250775e-05,-0.0855802171769641
2025-05-06 16:25:10.191,-0.0001352142851748,-0.1794727976833186
2025-05-06 16:25:10.252,-0.0001506711293885,-0.2842859033198826
2025-05-06 16:25:10.313,-9.20216283240126e-06,-0.3264986864571474
2025-05-06 16:25:10.374,0.0001350421041471,-0.2587085448078942
2025-05-06 16:25:10.435,0.0001032539648077,-0.0993215936129419
2025-05-06 16:25:10.496,-8.775017373962034e-06,0.0768594970006299
2025-05-06 16:25:10.557,4.143857914606331e-06,0.1979145267505397
2025-05-06 16:25:10.618,0.0001052003433398,0.2322626930907182
2025-05-06 16:25:10.679,0.0001040148057391,0.175304582555118
2025-05-06 16:25:10.740,8.84997084865219e-06,0.0534746343669876
2025-05-06 16:25:10.801,-9.787413465960728e-06,-0.0594024529804816
2025-05-06 16:25:10.862,5.783178505981891e-05,-0.0929440433051403
2025-05-06 16:25:10.923,7.133792521709162e-05,-0.0525302645666764
2025-05-06 16:25:10.984,6.438313420062651e-06,-0.0026772808873867
2025-05-06 16:25:11.045,-6.05652188908391e-05,0.0099574535674462
2025-05-06 16:25:11.106,-0.0001337990270183,-0.0007535650271013
2025-05-06 16:25:11.167,-0.0002228048645112,0.0261202979376496
2025-05-06 16:25:11.228,-0.0002319505190776,0.1305383193963349
2025-05-06 16:25:11.289,-0.000135991728577,0.2491490113923795
2025-05-06 16:25:11.350,-7.8841964064134e-05,0.2499772549194276
2025-05-06 16:25:11.411,-0.0001130236224103,0.0951947711270892
2025-05-06 16:25:11.472,-7.635787304652449e-05,-0.0986714458392741
2025-05-06 16:25:11.533,9.010782987739752e-05,-0.2130835350270537
2025-05-06 16:25:11.594,0.0001794425780081,-0.2501690696920459
2025-05-06 16:25:11.655,7.653502241673998e-05,-0.2472583636410368
2025-05-06 16:25:11.716,-8.674127626637162e-06,-0.1848607711373367
2025-05-06 16:25:11.777,0.0001095271917193,-0.0636856415065985
2025-05-06 16:25:11.838,0.0002666604018027,0.0395228540309893
2025-05-06 16:25:11.899,0.0002207656491453,0.0834961008016318
2025-05-06 16:25:11.959,6.196623269370131e-05,0.1173868451828088
2025-05-06 16:25:12.020,6.47696082669949e-05,0.1501140463581361
2025-05-06 16:25:12.081,0.0002200973064414,0.1065504773244878
2025-05-06 16:25:12.142,0.0002265409933707,-0.0109294150951045
2025-05-06 16:25:12.203,-2.832099574014851e-05,-0.0804949413084942
2025-05-06 16:25:12.264,-0.000280585981349,-0.060767007930329
2025-05-06 16:25:12.325,-0.0002893207845901,-0.0655344792131402
2025-05-06 16:25:12.386,-0.0001540680256657,-0.1514848168104963
2025-05-06 16:25:12.447,-8.652653726217662e-05,-0.1872624482222705
2025-05-06 16:25:12.508,-9.4936425209778e-05,-0.0415204716833214
2025-05-06 16:25:12.569,-6.046537180340841e-05,0.2118619346424252
2025-05-06 16:25:12.630,3.058665032740511e-05,0.3829777748091596
2025-05-06 16:25:12.691,7.089848405183487e-05,0.3843194748436813
2025-05-06 16:25:12.752,-7.098539141998899e-06,0.2676087233107246
2025-05-06 16:25:12.813,-0.0001176428374826,0.1060004047067914
2025-05-06 16:25:12.874,-0.0001043903184723,-0.0573400421280314
2025-05-06 16:25:12.935,4.303273101315029e-05,-0.1761466524337674
2025-05-06 16:25:12.996,0.0001512955230507,-0.2210262547321586
2025-05-06 16:25:13.057,0.0001163547163544,-0.229830256100203
2025-05-06 16:25:13.118,4.5201749759695406e-05,-0.2527522768074349
2025-05-06 16:25:13.179,2.6535335348768563e-05,-0.2552130649090423
2025-05-06 16:25:13.240,-3.3622619784731666e-05,-0.1600774343424167
2025-05-06 16:25:13.301,-0.0001640931829891,0.0248041082413647
2025-05-06 16:25:13.362,-0.0001599717784598,0.196495331642257
2025-05-06 16:25:13.423,8.199668647368186e-05,0.2597894576257561
2025-05-06 16:25:13.484,0.0002929560909879,0.1943743609112083
2025-05-06 16:25:13.545,0.0001887461983388,0.0541380358430936
2025-05-06 16:25:13.606,-9.81521691128685e-05,-0.0731140122411338
2025-05-06 16:25:13.667,-0.0002179127712148,-0.1409199738171283
2025-05-06 16:25:13.728,-7.656436160691881e-05,-0.1710178693018601
2025-05-06 16:25:13.789,0.0001176203509307,-0.1718250869762631
2025-05-06 16:25:13.850,0.0001689797027378,-0.0941403927817216
2025-05-06 16:25:13.911,8.712416274697924e-05,0.0674014502638893
2025-05-06 16:25:13.972,-3.022518021400382e-07,0.2078011594797119
2025-05-06 16:25:14.033,-3.620364137266711e-05,0.2302212180399084
2025-05-06 16:25:14.094,-8.194449509838678e-05,0.1644862141835119
2025-05-06 16:25:14.155,-0.0001753092685008,0.0905710185060882
2025-05-06 16:25:14.216,-0.0002337601307365,0.0127171985039766
2025-05-06 16:25:14.277,-0.0001621307693072,-0.0973294841994135
2025-05-06 16:25:14.338,6.626135004029935e-06,-0.1875980517720687
2025-05-06 16:25:14.399,0.0001281827615415,-0.1721176292904186
2025-05-06 16:25:14.459,8.86993606905379e-05,-0.0668756763722261
2025-05-06 16:25:14.520,-6.206782336415159e-05,0.0255867894831267
2025-05-06 16:25:14.581,-0.0001240846735025,0.0513414112328009
2025-05-06 16:25:14.642,4.527235248407652e-05,0.0395265226656959
2025-05-06 16:25:14.703,0.0003266924132805,0.0342531887186073
2025-05-06 16:25:14.764,0.0004299075289562,0.0629861284366358
2025-05-06 16:25:14.825,0.0002272619216805,0.1236411355491905
2025-05-06 16:25:14.886,-8.977390496594219e-05,0.1528906121058659
2025-05-06 16:25:14.947,-0.0002349510723449,0.0782048169298323
2025-05-06 16:25:15.008,-0.0001385979393769,-0.0674361946685588
2025-05-06 16:25:15.069,9.961086311169092e-06,-0.1748950069784803
2025-05-06 16:25:15.130,3.7759953844702377e-06,-0.2106897010591085
2025-05-06 16:25:15.191,-0.0001316108266861,-0.219580848278233
2025-05-06 16:25:15.252,-0.0001708958498594,-0.1901837227890438
2025-05-06 16:25:15.313,6.727775514643594e-06,-0.0730532219987333
2025-05-06 16:25:15.374,0.0002152044688382,0.0841304878053544
2025-05-06 16:25:15.435,0.0001708231542004,0.1803175455892045
2025-05-06 16:25:15.496,-0.0001130659226741,0.2139872535971649
2025-05-06 16:25:15.557,-0.000309841270541,0.244603796081411
2025-05-06 16:25:15.618,-0.0002137253027252,0.2474229756804766
2025-05-06 16:25:15.679,1.555030494460097e-05,0.1521322517334688
2025-05-06 16:25:15.740,0.0001338583964816,-0.0148880713618861
2025-05-06 16:25:15.801,0.0001020393157782,-0.15182493832172
2025-05-06 16:25:15.862,2.566972138339531e-06,-0.2065650278306822
2025-05-06 16:25:15.923,-8.79532280939146e-05,-0.1867290306274889
2025-05-06 16:25:15.984,-7.933119595558993e-05,-0.1030151526137333
2025-05-06 16:25:16.045,5.556781083595943e-05,0.010695773240398
2025-05-06 16:25:16.106,0.0001712355301209,0.0822125242787973
2025-05-06 16:25:16.167,0.000121397333932,0.0771040847388453
2025-05-06 16:25:16.228,3.571091234120829e-06,0.037722296480049
2025-05-06 16:25:16.289,1.0128931872784475e-05,0.0149837408967573
2025-05-06 16:25:16.350,9.824343772858236e-05,0.0137739843109144
2025-05-06 16:25:16.411,7.74345784662011e-05,0.0040173287754509
2025-05-06 16:25:16.472,-3.241960829419796e-05,-0.0541524730807558
2025-05-06 16:25:16.533,-4.458099319547721e-05,-0.1589582848003384
2025-05-06 16:25:16.594,3.357887489483031e-05,-0.2225400364355976
2025-05-06 16:25:16.655,2.0741725694541328e-05,-0.1582170612626358
2025-05-06 16:25:16.716,-8.259518221885798e-05,-0.0187025803315768
2025-05-06 16:25:16.777,-0.0001019042962107,0.061392719707925
2025-05-06 16:25:16.838,-3.1975052106581e-05,0.0567816601736459
2025-05-06 16:25:16.899,-3.465005319644617e-05,0.0651197250441441
2025-05-06 16:25:16.959,-0.0001193264594498,0.1401765155860817
2025-05-06 16:25:17.020,-0.0001476915556598,0.2211712610939793
2025-05-06 16:25:17.081,-0.0001084665270465,0.2191794454176767
2025-05-06 16:25:17.142,-8.477471062171685e-05,0.1016336709298993
2025-05-06 16:25:17.203,-3.239988467375829e-05,-0.0849679288003698
2025-05-06 16:25:17.264,0.000122731900343,-0.2284774416061654
2025-05-06 16:25:17.325,0.000265715771737,-0.2247163799475751
2025-05-06 16:25:17.386,0.0002192885995756,-0.0845386090934432
2025-05-06 16:25:17.447,1.1823166254664824e-05,0.0596500475195173
2025-05-06 16:25:17.508,-0.0001454727300666,0.0920661226622261
2025-05-06 16:25:17.569,-0.0001050233886136,0.0407671608715626
2025-05-06 16:25:17.630,6.688457573767333e-05,0.0349215828758451
2025-05-06 16:25:17.691,0.0001790276851631,0.1358592883175972
2025-05-06 16:25:17.752,0.0001443901156333,0.2393375708368454
2025-05-06 16:25:17.813,6.944355190145548e-05,0.184483076747391
2025-05-06 16:25:17.874,6.273228950588977e-05,-0.0399474496095057
2025-05-06 16:25:17.935,6.020843856107125e-05,-0.2602308044541334
2025-05-06 16:25:17.996,-3.475098139878128e-05,-0.3112037037718942
2025-05-06 16:25:18.057,-0.000152311611469,-0.1946590968869275
2025-05-06 16:25:18.118,-0.0001589838493308,-0.0274374718814554
2025-05-06 16:25:18.179,-6.544406422739801e-05,0.0775690010918353
2025-05-06 16:25:18.240,1.1592470951277805e-05,0.0661143237599692
2025-05-06 16:25:18.301,9.43943505043514e-06,-0.017113514722288
2025-05-06 16:25:18.362,-5.881155978421141e-05,-0.0334825764442298
2025-05-06 16:25:18.423,-0.0001490209571752,0.1009767098306009
2025-05-06 16:25:18.484,-0.0001829993694203,0.2700241637761114
2025-05-06 16:25:18.545,-9.007114898870401e-05,0.2609693242145755
2025-05-06 16:25:18.606,8.564494515077135e-05,0.0236485334329055
2025-05-06 16:25:18.667,0.0001839815495922,-0.2543208942108454
2025-05-06 16:25:18.728,0.0001116685011485,-0.3488447615924483
2025-05-06 16:25:18.789,-1.5035654033847064e-05,-0.2244391579193173
2025-05-06 16:25:18.850,-2.1842722058164065e-05,-0.0354017965886243
2025-05-06 16:25:18.911,6.32090046868537e-05,0.0678614121794411
2025-05-06 16:25:18.972,6.031858888378404e-05,0.08382777617505
2025-05-06 16:25:19.033,-6.915111840171666e-05,0.0960524850202858
2025-05-06 16:25:19.094,-0.0001601291467174,0.1327620014082594
2025-05-06 16:25:19.155,-8.308126288183177e-05,0.1582592980844386
2025-05-06 16:25:19.216,9.239188793735296e-05,0.14552421304323
2025-05-06 16:25:19.277,0.0001878848222235,0.0761626806011851
2025-05-06 16:25:19.338,0.0001083609556037,-0.0648017504410813
2025-05-06 16:25:19.399,-5.075504040592684e-05,-0.211795800065444
2025-05-06 16:25:19.459,-9.635470724704738e-05,-0.2268544945845801
2025-05-06 16:25:19.520,2.8068607289407333e-05,-0.079700236695638
2025-05-06 16:25:19.581,0.0001523858214994,0.0725011750010424
2025-05-06 16:25:19.642,9.718304796382837e-05,0.0771690864641271
2025-05-06 16:25:19.703,-7.345093738143235e-05,-0.0221964247595961
2025-05-06 16:25:19.764,-0.0001309104485537,-0.059108000125007
2025-05-06 16:25:19.825,-7.718196641793763e-07,0.0472817092757829
2025-05-06 16:25:19.886,0.0001291053964881,0.1953792164023492
2025-05-06 16:25:19.947,7.10938402080186e-05,0.192185881075116
2025-05-06 16:25:20.008,-9.94216920520045e-05,-0.0363671961965789
2025-05-06 16:25:20.069,-0.0001532770937318,-0.3102154629216469
2025-05-06 16:25:20.130,-2.837325885133045e-05,-0.3478593146439296
2025-05-06 16:25:20.191,9.390601123576264e-05,-0.0993903408972862
2025-05-06 16:25:20.252,4.687939147975271e-05,0.1743800099236863
2025-05-06 16:25:20.313,-0.0001084355554059,0.2307186189265031
2025-05-06 16:25:20.374,-0.0001849787756951,0.1313370424332801
2025-05-06 16:25:20.435,-9.737021225518764e-05,0.0846337441241737
2025-05-06 16:25:20.496,6.916128286989325e-05,0.1302809832091943
2025-05-06 16:25:20.557,0.0001572094977897,0.1419881800553882
2025-05-06 16:25:20.618,8.143152730623622e-05,0.0508692098922585
2025-05-06 16:25:20.679,-7.310929710247092e-05,-0.0926448521579899
2025-05-06 16:25:20.740,-0.0001191379936308,-0.2177286408473376
2025-05-06 16:25:20.801,5.423171352481141e-06,-0.2701352043742953
2025-05-06 16:25:20.862,0.0001340333989486,-0.2067311331231222
2025-05-06 16:25:20.923,8.355965637727011e-05,-0.0538296290415077
2025-05-06 16:25:20.984,-8.411499270105141e-05,0.0754929793667952
2025-05-06 16:25:21.045,-0.0001360293749352,0.1027008175252759
2025-05-06 16:25:21.106,4.698140832194701e-06,0.0851025015879397
2025-05-06 16:25:21.167,0.0001437118439413,0.1290177995528472
2025-05-06 16:25:21.228,8.941453422269387e-05,0.23072676182713
2025-05-06 16:25:21.289,-7.115708806028882e-05,0.2720751243268721
2025-05-06 16:25:21.350,-9.989699211017188e-05,0.171760496741556
2025-05-06 16:25:21.411,4.448168374404326e-05,-0.0173592117028628
2025-05-06 16:25:21.472,0.0001603194988165,-0.179645809925934
2025-05-06 16:25:21.533,0.0001186275749996,-0.2543504455810234
2025-05-06 16:25:21.594,2.7118904825218745e-05,-0.2483008810391475
2025-05-06 16:25:21.655,-2.179242505809701e-06,-0.1804565846887095
2025-05-06 16:25:21.716,-3.724325767106168e-05,-0.0715758671884571
2025-05-06 16:25:21.777,-0.0001326758593535,0.0337534818027497
2025-05-06 16:25:21.838,-0.0001603282783196,0.0913977557198873
2025-05-06 16:25:21.899,-2.86871732921428e-05,0.1065274004230179
2025-05-06 16:25:21.959,0.0001059933357412,0.1129212793941941
2025-05-06 16:25:22.020,6.570027419294008e-05,0.091558078730595
2025-05-06 16:25:22.081,-5.4609911850148006e-05,-0.0272497478196606
2025-05-06 16:25:22.142,-5.202116517036177e-05,-0.2351000583018133
2025-05-06 16:25:22.203,4.134555917894895e-05,-0.384534304040019
2025-05-06 16:25:22.264,4.181229641551957e-05,-0.3304047337934688
2025-05-06 16:25:22.325,-5.129104497931923e-05,-0.0944058094268777
2025-05-06 16:25:22.386,-8.298935114074387e-05,0.1605636498044571
2025-05-06 16:25:22.447,-2.8528374573434307e-05,0.2855742534237469
2025-05-06 16:25:22.508,1.5087086199886818e-05,0.2591147280846003
2025-05-06 16:25:22.569,4.04576187182936e-05,0.1887353121349229
2025-05-06 16:25:22.630,9.13480155348048e-05,0.1929767274497691
2025-05-06 16:25:22.691,0.0001044067111821,0.2514571416997284
2025-05-06 16:25:22.752,-3.892449546809687e-06,0.2247921194894391
2025-05-06 16:25:22.813,-0.0001648120576519,0.0566587062968008
2025-05-06 16:25:22.874,-0.0002169333066872,-0.1304307339611899
2025-05-06 16:25:22.935,-9.644318519608694e-05,-0.1886383042776609
2025-05-06 16:25:22.996,9.338656792648608e-05,-0.1123961508445771
2025-05-06 16:25:23.057,0.0001787406596268,-0.011683723184277
2025-05-06 16:25:23.118,9.711465563937589e-05,0.0135143617559668
2025-05-06 16:25:23.179,-1.2181469464779864e-05,-0.0498055881565473
2025-05-06 16:25:23.240,1.0399075168503576e-05,-0.1171566121285187
2025-05-06 16:25:23.301,9.81022786118817e-05,-0.0814984506068464
2025-05-06 16:25:23.362,7.244543526786274e-05,0.0430693084376837
2025-05-06 16:25:23.423,-3.589848483190592e-05,0.0999349940394649
2025-05-06 16:25:23.484,-4.195530869225007e-05,-0.0150754438763304
2025-05-06 16:25:23.545,4.58966390742828e-05,-0.2009798176270107
2025-05-06 16:25:23.606,4.036047942435564e-05,-0.2694370587322096
2025-05-06 16:25:23.667,-6.935140506238514e-05,-0.1636103837549362
2025-05-06 16:25:23.728,-9.643478910495632e-05,-0.0034401660151318
2025-05-06 16:25:23.789,-6.315671884532547e-06,0.0631223614607064
2025-05-06 16:25:23.850,1.819456705989988e-05,0.0228343590535618
2025-05-06 16:25:23.911,-9.780509004674755e-05,-0.0056054817824429
2025-05-06 16:25:23.972,-0.0001873792356008,0.0667116387003261
2025-05-06 16:25:24.033,-9.46499830394746e-05,0.1934336878008148
2025-05-06 16:25:24.094,0.0001055006753251,0.2665795789534384
2025-05-06 16:25:24.155,0.000203805782084,0.2278854592580938
2025-05-06 16:25:24.216,0.000114240306224,0.093962630186238
2025-05-06 16:25:24.277,-1.7153104749371737e-05,-0.0555699337182135
2025-05-06 16:25:24.338,-9.527570110714206e-06,-0.1183880030109889
2025-05-06 16:25:24.399,8.742835300244759e-05,-0.0710439531154775
2025-05-06 16:25:24.459,7.187149507399523e-05,-0.0091618802866461
2025-05-06 16:25:24.520,-7.578825917378436e-05,-0.0226541582712688
2025-05-06 16:25:24.581,-0.0001431521130191,-0.0752114183051605
2025-05-06 16:25:24.642,-1.967431181864313e-05,-0.0705274510174392
2025-05-06 16:25:24.703,0.0001191321581855,0.0116406984715665
2025-05-06 16:25:24.764,6.898131589979249e-05,0.0989938813734195
2025-05-06 16:25:24.825,-0.0001029731501783,0.1049977439095059
2025-05-06 16:25:24.886,-0.0001600068893611,-0.0013795106083997
2025-05-06 16:25:24.947,-3.356539768495373e-05,-0.158256774322208
2025-05-06 16:25:25.008,9.32272516072152e-05,-0.236492241794344
2025-05-06 16:25:25.069,4.823964744767552e-05,-0.1595721503494071
2025-05-06 16:25:25.130,-0.0001097906703661,-0.0030385297282438
2025-05-06 16:25:25.191,-0.0001871765427873,0.0815475314758572
2025-05-06 16:25:25.252,-9.025670613934376e-05,0.0383771087205414
2025-05-06 16:25:25.313,8.692609347324194e-05,-0.0503508084248185
2025-05-06 16:25:25.374,0.0001686730306991,-0.0774364038740285
2025-05-06 16:25:25.435,8.245255964265709e-05,-0.0182452405268787
2025-05-06 16:25:25.496,-4.86458085619524e-05,0.0525544894349263
2025-05-06 16:25:25.557,-5.520822818667289e-05,0.0319508152970604
2025-05-06 16:25:25.618,4.694899010414707e-05,-0.0866882283512465
2025-05-06 16:25:25.679,0.0001115988351496,-0.1693305904776559
2025-05-06 16:25:25.740,0.0001216201796018,-0.0799743585851481
2025-05-06 16:25:25.801,0.0001682693926259,0.1451678350343368
2025-05-06 16:25:25.862,0.0001948641841806,0.3149710076418412
2025-05-06 16:25:25.923,6.11222567636934e-05,0.2843086125279896
2025-05-06 16:25:25.984,-0.0001443962641407,0.1230201515358777
2025-05-06 16:25:26.045,-0.0001884398814721,0.0645759829150794
2025-05-06 16:25:26.106,-8.196743963414981e-05,0.2459157020832924
2025-05-06 16:25:26.167,-5.605470211185424e-05,0.4988761873082005
2025-05-06 16:25:26.228,-0.0001679114767281,0.4883186516030547
2025-05-06 16:25:26.289,-0.0002359704390197,0.1151353201158684
2025-05-06 16:25:26.350,-0.0001496711721527,-0.3147163793425213
2025-05-06 16:25:26.411,1.085269168876038e-05,-0.4455723863302535
2025-05-06 16:25:26.472,0.0001441970010694,-0.3164862441237904
2025-05-06 16:25:26.533,0.0002185548217759,-0.2640069554636877
2025-05-06 16:25:26.594,0.0002123495124719,-0.4268044562367466
2025-05-06 16:25:26.655,0.0001085088026845,-0.588305570258113
2025-05-06 16:25:26.716,-5.170498996605622e-05,-0.5176222830248421
2025-05-06 16:25:26.777,-0.0001798841779527,-0.2152223851125264
2025-05-06 16:25:26.838,-0.0002015724926776,0.2004423902087248
2025-05-06 16:25:26.899,-9.60891879882667e-05,0.5881795158475481
2025-05-06 16:25:26.959,7.640752902837989e-05,0.7371975117649601
2025-05-06 16:25:27.020,0.0001790414493325,0.4951046082945411
2025-05-06 16:25:27.081,0.0001172582022476,0.0127175217195519
2025-05-06 16:25:27.142,-1.471453243046978e-05,-0.3424437929519566
2025-05-06 16:25:27.203,-2.280954023323521e-05,-0.3783344121599099
2025-05-06 16:25:27.264,0.0001018387690863,-0.2571393071422344
2025-05-06 16:25:27.325,0.0001355078478207,-0.2653940474692698
2025-05-06 16:25:27.386,-4.715536903109568e-05,-0.4784303473246263
2025-05-06 16:25:27.447,-0.000243585415216,-0.6423630077298256
2025-05-06 16:25:27.508,-0.0001895056208356,-0.4103594884441756
2025-05-06 16:25:27.569,4.0778300137513606e-05,0.2135772298524757
2025-05-06 16:25:27.630,0.0001318740890673,0.7705144891564899
2025-05-06 16:25:27.691,5.235886857081264e-06,0.8796866710358333
2025-05-06 16:25:27.752,-7.827347156923901e-05,0.7061970236981834
2025-05-06 16:25:27.813,4.533016997794937e-05,0.6125399647956996
2025-05-06 16:25:27.874,0.0001873008145069,0.5768908757999753
2025-05-06 16:25:27.935,0.0001297377295302,0.337811717763977
2025-05-06 16:25:27.996,-2.787952191192742e-05,-0.0892243899577333
2025-05-06 16:25:28.057,-5.415468609008894e-05,-0.4237473312521538
2025-05-06 16:25:28.118,3.622726810964844e-05,-0.5122904172164445
2025-05-06 16:25:28.179,3.429299281934605e-05,-0.415955362594501
2025-05-06 16:25:28.240,-0.0001077447182409,-0.2167161521522665
2025-05-06 16:25:28.301,-0.0002084405477894,0.0203300956000434
2025-05-06 16:25:28.362,-0.0001326018629239,0.1530091716621495
2025-05-06 16:25:28.423,3.770476800445816e-05,0.0512872395838481
2025-05-06 16:25:28.484,0.0001200628493757,-0.1985272957939897
2025-05-06 16:25:28.545,3.416154713969467e-05,-0.3403471219420382
2025-05-06 16:25:28.606,-0.00011987101539,-0.2525817650133033
2025-05-06 16:25:28.667,-0.0001733064621169,-0.078949730528506
2025-05-06 16:25:28.728,-8.004042533659259e-05,0.0073071344330913
2025-05-06 16:25:28.789,4.38756837801849e-05,0.0312937214731885
2025-05-06 16:25:28.850,8.571019239915888e-05,0.0937399074706711
2025-05-06 16:25:28.911,6.603986847804948e-05,0.1420621760573433
2025-05-06 16:25:28.972,5.6382592221307696e-05,0.040668124138094
2025-05-06 16:25:29.033,6.075631770416376e-05,-0.1752289486809554
2025-05-06 16:25:29.094,6.620119649458547e-05,-0.2942114933790863
2025-05-06 16:25:29.155,0.0001003858583514,-0.2016400264559077
2025-05-06 16:25:29.216,0.0001353542224991,-0.0159036337942533
2025-05-06 16:25:29.277,8.104753297277526e-05,0.0997194913166114
2025-05-06 16:25:29.338,-3.105167168949013e-05,0.1331930522120146
2025-05-06 16:25:29.399,-5.252424098994567e-05,0.1500188950462239
2025-05-06 16:25:29.459,1.846119764847815e-05,0.1321444328722739
2025-05-06 16:25:29.520,9.123343968615678e-06,0.0174103196798103
2025-05-06 16:25:29.581,-0.0001252227854787,-0.1344812170265926
2025-05-06 16:25:29.642,-0.0002061688178838,-0.1523009460198022
2025-05-06 16:25:29.703,-0.0001151351842712,0.0113025699502698
2025-05-06 16:25:29.764,3.111418292711827e-05,0.1709313721558961
2025-05-06 16:25:29.825,7.588374809633894e-05,0.1673307763077099
2025-05-06 16:25:29.886,3.846832743658743e-05,0.1239318888459531
2025-05-06 16:25:29.947,2.49165086084065e-05,0.2405336389537478
2025-05-06 16:25:30.008,3.883408018047644e-05,0.4383201107985575
2025-05-06 16:25:30.069,2.311162006358768e-05,0.466146564337669
2025-05-06 16:25:30.130,3.3007123459988714e-06,0.2635072221133129
2025-05-06 16:25:30.191,3.393468578572308e-05,-0.0339517312567681
2025-05-06 16:25:30.252,7.730428695013344e-05,-0.3296918347765675
2025-05-06 16:25:30.313,6.787485214924577e-05,-0.556657294183259
2025-05-06 16:25:30.374,1.6777658278470113e-05,-0.5576515094250539
2025-05-06 16:25:30.435,-2.8799610124134866e-05,-0.2374976622322053
2025-05-06 16:25:30.496,-4.666456319466901e-05,0.2036486396139773
2025-05-06 16:25:30.557,-4.7924580174000046e-05,0.3848075193074845
2025-05-06 16:25:30.618,-8.696675634113323e-05,0.138584028734952
2025-05-06 16:25:30.679,-0.0001882973400239,-0.2906655565372927
2025-05-06 16:25:30.740,-0.000235516842043,-0.5001228791031695
2025-05-06 16:25:30.801,-9.965680220279128e-05,-0.3455751281395824
2025-05-06 16:25:30.862,0.00010566223625,-0.0321171654941409
2025-05-06 16:25:30.923,0.0001256912397418,0.1879265426519729
2025-05-06 16:25:30.984,-3.798769475780504e-05,0.278382302267103
2025-05-06 16:25:31.045,-9.096112942869388e-05,0.3281031504993198
2025-05-06 16:25:31.106,9.058173482254905e-05,0.3161335237361126
2025-05-06 16:25:31.167,0.0002385772997823,0.1303380654520621
2025-05-06 16:25:31.228,0.0001285716036966,-0.1927038832396181
2025-05-06 16:25:31.289,-4.694077191842789e-05,-0.4802962032223529
2025-05-06 16:25:31.350,-2.2106489306900022e-05,-0.7545597839162421
2025-05-06 16:25:31.411,9.932296460778908e-05,-1.175338579612465
2025-05-06 16:25:31.472,8.580688151262838e-05,-1.4201375386439452
2025-05-06 16:25:31.533,5.440996041291001e-06,-0.6827255721003408
2025-05-06 16:25:31.594,3.888233166662876e-05,1.1505755047348285
2025-05-06 16:25:31.655,9.507416220194184e-05,2.821179395863466
2025-05-06 16:25:31.716,-2.50497075574443e-06,2.9363858348666305
2025-05-06 16:25:31.777,-0.0001392314970387,1.6006233633336169
2025-05-06 16:25:31.838,-9.917384551040752e-05,0.1713638507065445
2025-05-06 16:25:31.899,3.375449174851852e-05,-0.3818373494458103
2025-05-06 16:25:31.959,3.611214302770472e-05,-0.2835142153615159
2025-05-06 16:25:32.020,-4.520621336929874e-05,-0.2480687480788273
2025-05-06 16:25:32.081,-1.1085091789087929e-05,-0.5596919979494183
2025-05-06 16:25:32.142,8.672967970088125e-05,-1.005350204791568
2025-05-06 16:25:32.203,2.206815608475533e-05,-1.3334084768702952
2025-05-06 16:25:32.264,-0.0001861106241331,-1.4535859998515064
2025-05-06 16:25:32.325,-0.0002604765011621,-1.3075382140170828
2025-05-06 16:25:32.386,-8.734469257190164e-05,-0.8620644147888359
2025-05-06 16:25:32.447,0.0001182406221327,-0.2876155782429748
2025-05-06 16:25:32.508,0.0001251955087324,0.0835260543389296
2025-05-06 16:25:32.569,-3.7535790772536006e-05,0.108243711924051
2025-05-06 16:25:32.630,-0.0001712647244994,0.0082283341943338
2025-05-06 16:25:32.691,-0.0001445698884297,0.0784490793358216
2025-05-06 16:25:32.752,-2.020055048465325e-06,0.3503568994039841
2025-05-06 16:25:32.813,0.0001270239749666,0.6591104932420789
2025-05-06 16:25:32.874,0.0002001288972409,0.872526639082929
2025-05-06 16:25:32.935,0.0002621636448924,0.9074508230892804
2025-05-06 16:25:32.996,0.0002813904249525,0.7115419540736034
2025-05-06 16:25:33.057,0.0001676920684863,0.3940642362459153
2025-05-06 16:25:33.118,-1.484094416041368e-05,0.2020383885895458
2025-05-06 16:25:33.179,-8.419218799034905e-05,0.2316919098311326
2025-05-06 16:25:33.240,-4.561776155114294e-05,0.3075757743224208
2025-05-06 16:25:33.301,-0.0001115061455794,0.2333787738752615
2025-05-06 16:25:33.362,-0.000334187464223,0.0564330809470778
2025-05-06 16:25:33.423,-0.0004647313592124,0.0197348684222373
2025-05-06 16:25:33.484,-0.0003030568797385,0.2475922634466678
2025-05-06 16:25:33.545,7.386571753797803e-06,0.4824905132597872
2025-05-06 16:25:33.606,0.0001835620318144,0.2809024907291613
2025-05-06 16:25:33.667,0.0001718754496239,-0.3948696632556453
2025-05-06 16:25:33.728,0.0001557221665828,-1.0035077441570988
2025-05-06 16:25:33.789,0.0002445532941568,-1.10205311812316
2025-05-06 16:25:33.850,0.0003095833206973,-0.923656776224264
2025-05-06 16:25:33.911,0.000190458767969,-0.9134164482767524
2025-05-06 16:25:33.972,-3.0015121795327248e-05,-0.980678202893063
2025-05-06 16:25:34.033,-0.0001107849216359,-0.6780034054496434
2025-05-06 16:25:34.094,-1.0817863582560353e-05,0.060868410322697
2025-05-06 16:25:34.155,3.614677157951571e-05,0.7807576021831559
2025-05-06 16:25:34.216,-0.0001041551469044,1.0415949431666816
2025-05-06 16:25:34.277,-0.0002406037666468,0.8206997691489605
2025-05-06 16:25:34.338,-0.0001872979006958,0.3922653926828673
2025-05-06 16:25:34.399,-8.150408942402321e-05,0.0197310230755326
2025-05-06 16:25:34.459,-0.0001075423673482,-0.1562945088263226
2025-05-06 16:25:34.520,-0.0001498749446194,-0.0955848191780296
2025-05-06 16:25:34.581,-3.4780308359592955e-05,0.0990276947128127
2025-05-06 16:25:34.642,0.0001231769357452,0.1966906794766985
2025-05-06 16:25:34.703,0.0001279258583839,0.0661726907814213
2025-05-06 16:25:34.764,3.422815697625915e-05,-0.1560710388670868
2025-05-06 16:25:34.825,1.2846697116743756e-05,-0.2510310866794927
2025-05-06 16:25:34.886,8.218244801088628e-05,-0.1910111148936828
2025-05-06 16:25:34.947,0.0001642336748212,-0.0877977685057134
2025-05-06 16:25:35.008,0.0002262172363699,0.035232284854087
2025-05-06 16:25:35.069,0.0002359934119461,0.224087800838254
2025-05-06 16:25:35.130,0.0001405692749863,0.4009656924629479
2025-05-06 16:25:35.191,-2.4697293779871e-05,0.4029212644118051
2025-05-06 16:25:35.252,-0.0001408889281521,0.2264235723144037
2025-05-06 16:25:35.313,-0.000151639257547,0.0587183277688009
2025-05-06 16:25:35.374,-9.580617512881151e-05,0.016893468155145
2025-05-06 16:25:35.435,-3.265091467470671e-05,-0.0035835667859245
2025-05-06 16:25:35.496,-3.21219411314889e-05,-0.1316875940554221
2025-05-06 16:25:35.557,-0.0001331208217723,-0.2794657534335858
2025-05-06 16:25:35.618,-0.0002260839171212,-0.2432616482822001
2025-05-06 16:25:35.679,-0.0001481109917765,-0.0119318910216958
