Timestamp,Lead I (LA-RA),Lead II (LL-LA),Lead III (LL-RA),Vx-RL,FMS,Condition
2025-05-06 16:32:46.810,0.1360079168723376,-0.0732455054113129,0.0627626454407704,-0.0879750027640947,6.0,NB
2025-05-06 16:32:46.812,0.1308758716841591,-0.0704883213061398,0.0603877844621613,-0.0832701563961479,6.0,NB
2025-05-06 16:32:46.813,0.1322318974276367,-0.0681625015596641,0.0640696300976049,-0.0781130863825549,6.0,NB
2025-05-06 16:32:46.815,0.1380392179572192,-0.0655745922220638,0.0724648601399856,-0.0735844367144404,6.0,NB
2025-05-06 16:32:46.817,0.1438441201284003,-0.0621585177925225,0.0816858369173284,-0.0703880419351938,6.0,NB
2025-05-06 16:32:46.819,0.1441749993799813,-0.0577968202291103,0.086378413879958,-0.0685072065561562,6.0,NB
2025-05-06 16:32:46.821,0.1348401015822451,-0.0529509001963824,0.0818894362166764,-0.0672567004923789,6.0,NB
2025-05-06 16:32:46.823,0.1150300441824938,-0.0484879263001873,0.0665423527738572,-0.0656967563618645,6.0,NB
2025-05-06 16:32:46.825,0.0880321415333444,-0.0452399110353073,0.0427924654330559,-0.0631631322686407,6.0,NB
2025-05-06 16:32:46.827,0.0600706825721872,-0.0435282200611196,0.0165426975021816,-0.0595852684899742,6.0,NB
2025-05-06 16:32:46.829,0.0378186659767769,-0.0429639474990965,-0.0051450464418619,-0.0553790914620844,6.0,NB
2025-05-06 16:32:46.831,0.0257939915834214,-0.0426723276904568,-0.0168781009028679,-0.0509968208183112,6.0,NB
2025-05-06 16:32:46.833,0.0248052141851633,-0.0417926976180384,-0.0169872480889015,-0.046503453919232,6.0,NB
2025-05-06 16:32:46.835,0.0319739668547689,-0.0399220083820614,-0.0079478060550142,-0.0415567886169585,6.0,NB
2025-05-06 16:32:46.837,0.0420701152892827,-0.037241073043893,0.0048292778120133,-0.0358280948109159,6.0,NB
2025-05-06 16:32:46.839,0.0494199969083367,-0.0343020865754943,0.0151181459537796,-0.0294867626046962,6.0,NB
2025-05-06 16:32:46.841,0.0496509271514757,-0.0316606647104357,0.0179904980889265,-0.0232779547417295,6.0,NB
2025-05-06 16:32:46.843,0.0408127067094404,-0.0295831319920735,0.0112298103888854,-0.0180790604520675,6.0,NB
2025-05-06 16:32:46.845,0.0237111920088726,-0.0279755634232607,-0.0042641356999559,-0.0143150703810619,6.0,NB
2025-05-06 16:32:46.847,0.0014919619064205,-0.0265439954625338,-0.0250517977697407,-0.0117522978368422,6.0,NB
2025-05-06 16:32:46.849,-0.021377915661063,-0.0250625471466228,-0.0464402269276317,-0.0098213450892096,6.0,NB
2025-05-06 16:32:46.851,-0.0404810697433783,-0.0235613195051567,-0.0640421532725766,-0.008120240685682,6.0,NB
2025-05-06 16:32:46.853,-0.052762851574551,-0.0223063246104771,-0.0750689401319428,-0.0066247903865465,6.0,NB
2025-05-06 16:32:46.855,-0.0572888328003471,-0.0215976294478979,-0.0788862261485172,-0.0054790993180028,6.0,NB
2025-05-06 16:32:46.856,-0.0551621424089852,-0.0215400989823827,-0.0767020052726646,-0.0046577266811223,6.0,NB
2025-05-06 16:32:46.858,-0.0487681739694891,-0.0219451377364877,-0.0707130755812315,-0.0038574423934769,6.0,NB
2025-05-06 16:32:46.860,-0.0408419801183714,-0.0224095790726298,-0.0632513230549883,-0.0026847116805074,6.0,NB
2025-05-06 16:32:46.862,-0.033789840096664,-0.0224943160022293,-0.0562839199342935,-0.000905258491969,6.0,NB
2025-05-06 16:32:46.864,-0.0293606205715316,-0.0218915628664538,-0.0512519472269315,0.0014825556737864,6.0,NB
2025-05-06 16:32:46.866,-0.0285118055025114,-0.0205207322626713,-0.0490323014998104,0.0043406899403438,6.0,NB
2025-05-06 16:32:46.868,-0.0313500598059161,-0.0185459645323865,-0.0498957880250014,0.0074661832258401,6.0,NB
2025-05-06 16:32:46.870,-0.0371927823682808,-0.0163208832238076,-0.0535134292480109,0.0105634553456126,6.0,NB
2025-05-06 16:32:46.872,-0.0448210825172128,-0.0142692954252066,-0.0590901415870323,0.0132130479765123,6.0,NB
2025-05-06 16:32:46.874,-0.0528474941696181,-0.0127343118238326,-0.0655815696401781,0.0149411704713415,6.0,NB
2025-05-06 16:32:46.876,-0.0600233945201153,-0.0118527271516661,-0.0718758853240634,0.0153837516969971,6.0,NB
2025-05-06 16:32:46.878,-0.06540437768323,-0.0115018784883985,-0.0769060198247361,0.0144860798506105,6.0,NB
2025-05-06 16:32:46.880,-0.0684593928622141,-0.011327112093657,-0.0797862686024879,0.0126505582531087,6.0,NB
2025-05-06 16:32:46.882,-0.0692329329561195,-0.0108334773676122,-0.080066173959571,0.0106850833676108,6.0,NB
2025-05-06 16:32:46.884,-0.0685045584951084,-0.0095348663716555,-0.0780391884931376,0.0094591534243711,6.0,NB
2025-05-06 16:32:46.886,-0.0677354659883111,-0.0071492797699183,-0.0748845093808364,0.00942800122865,6.0,NB
2025-05-06 16:32:46.888,-0.0686518653214917,-0.0037704536260715,-0.0724220825732029,0.0103844724362271,6.0,NB
2025-05-06 16:32:46.890,-0.0725433927512187,0.0001001357897477,-0.0724430205953726,0.0116445739050087,6.0,NB
2025-05-06 16:32:46.892,-0.0795405441284587,0.0037138785894788,-0.0758264291845056,0.0124932341965996,6.0,NB
2025-05-06 16:32:46.894,-0.0881847647139026,0.0063475217110385,-0.0818370066632832,0.0125495067437556,6.0,NB
2025-05-06 16:32:46.896,-0.0955671970818773,0.007546437728177,-0.088020523034054,0.0118866708475253,6.0,NB
2025-05-06 16:32:46.897,-0.0981739005897089,0.0072505704648663,-0.090923093831818,0.0109408271495067,6.0,NB
2025-05-06 16:32:46.899,-0.0932780554111852,0.005782072250399,-0.0874957469000858,0.0102568584834387,6.0,NB
2025-05-06 16:32:46.901,-0.080368875395145,0.0037053298979498,-0.0766633092700424,0.0101393826492853,6.0,NB
2025-05-06 16:32:46.903,-0.0619392611885566,0.0016126661038682,-0.0603263588862773,0.0104157907408828,6.0,NB
2025-05-06 16:32:46.905,-0.0431084562572213,-6.416019139562532e-05,-0.0431723802705134,0.0105496382156275,6.0,NB
2025-05-06 16:32:46.907,-0.0300046352143489,-0.0011324198190733,-0.0311368188694491,0.0100865269399098,6.0,NB
2025-05-06 16:32:46.909,-0.0274335823237424,-0.0015957262817358,-0.0290290724579711,0.0090895855406409,6.0,NB
2025-05-06 16:32:46.911,-0.0368432129971127,-0.0015390125217295,-0.0383819894011476,0.0081919354596521,6.0,NB
2025-05-06 16:32:46.913,-0.0556079011116936,-0.0010084835888159,-0.0566161486331813,0.0082124741852837,6.0,NB
2025-05-06 16:32:46.915,-0.0780508163575916,4.9516129123293e-05,-0.0780010642301684,0.0096330813258409,6.0,NB
2025-05-06 16:32:46.917,-0.0977192205228391,0.0017470090306434,-0.0959719755698465,0.0123027803115887,6.0,NB
2025-05-06 16:32:46.919,-0.1098247369499855,0.0041197040212287,-0.1057047970727712,0.015517624795958,6.0,NB
2025-05-06 16:32:46.921,-0.1127892832753651,0.0069816797541761,-0.105807367709495,0.0183690744371442,6.0,NB
2025-05-06 16:32:46.923,-0.1083485016072494,0.0098843752000892,-0.0984638906170546,0.0201424741204776,6.0,NB
2025-05-06 16:32:46.925,-0.1003156854638728,0.0122374685548956,-0.0880779811310766,0.0205706982352532,6.0,NB
2025-05-06 16:32:46.927,-0.0926475644778626,0.0135336588256743,-0.0791136698987395,0.0198454272737677,6.0,NB
2025-05-06 16:32:46.929,-0.0877183444420065,0.0135431828338751,-0.0741749259102003,0.0184371658089358,6.0,NB
2025-05-06 16:32:46.931,-0.0855845270830295,0.0123755539366374,-0.0732087375401567,0.0168862069456501,6.0,NB
2025-05-06 16:32:46.933,-0.0845199642135188,0.0104073152192274,-0.0741124135028891,0.0156837789408481,6.0,NB
2025-05-06 16:32:46.935,-0.082433893920649,0.0081411246345179,-0.0742925339067312,0.015228370688592,6.0,NB
2025-05-06 16:32:46.937,-0.0783111115969682,0.006049893648238,-0.07226098265258,0.0157900596027475,6.0,NB
2025-05-06 16:32:46.938,-0.0728374408340792,0.0044328045472914,-0.0684044010334954,0.0174541458770523,6.0,NB
2025-05-06 16:32:46.940,-0.0679146153052596,0.0033279616188669,-0.0645864184459081,0.0200451354998583,6.0,NB
2025-05-06 16:32:46.942,-0.0654699179147752,0.0025487199375597,-0.0629209627481178,0.0230721828923895,6.0,NB
2025-05-06 16:32:46.944,-0.0663370983991069,0.0018576035050746,-0.0644792597077795,0.0258031611166593,6.0,NB
2025-05-06 16:32:46.946,-0.0698175922323578,0.0011735993062925,-0.0686437578337235,0.0275391743804838,6.0,NB
2025-05-06 16:32:46.948,-0.0740437802083063,0.0006463998696224,-0.0733971453859766,0.0279923238606013,6.0,NB
2025-05-06 16:32:46.950,-0.0768380670233579,0.0005220863859115,-0.0763157458407922,0.027539153630416,6.0,NB
2025-05-06 16:32:46.952,-0.0765982342724401,0.0009031254303136,-0.0756948741787291,0.0271469502837971,6.0,NB
2025-05-06 16:32:46.954,-0.0728225518375812,0.001596740514603,-0.0712255767413142,0.0279193302882365,6.0,NB
2025-05-06 16:32:46.956,-0.0661236407635828,0.0021676679813527,-0.0639557382286481,0.0304461107115439,6.0,NB
2025-05-06 16:32:46.958,-0.0578543409898076,0.0021571856407229,-0.0556969207972327,0.0343665282968261,6.0,NB
2025-05-06 16:32:46.960,-0.0496203125209499,0.0013346659114347,-0.0482854120769538,0.038506803044502,6.0,NB
2025-05-06 16:32:46.962,-0.0428806535725242,-0.0001557632410977,-0.0430361823559425,0.041543236846941,6.0,NB
2025-05-06 16:32:46.964,-0.0386557271013085,-0.0018381976037545,-0.0404936903893654,0.042728686502688,6.0,NB
2025-05-06 16:32:46.966,-0.0372973196034396,-0.0031312242540715,-0.0404283097282889,0.0422253756239588,6.0,NB
2025-05-06 16:32:46.968,-0.038369549473707,-0.0036490139682056,-0.0420183294971626,0.040951654876887,6.0,NB
2025-05-06 16:32:46.970,-0.0407535675104356,-0.0034224208691606,-0.0441757545704232,0.040155151442151,6.0,NB
2025-05-06 16:32:46.972,-0.0429961792088264,-0.0029250203449833,-0.0459209658088951,0.0409362411267772,6.0,NB
2025-05-06 16:32:46.974,-0.0437715365550805,-0.0028790535575326,-0.0466503563757071,0.0438221447038054,6.0,NB
2025-05-06 16:32:46.976,-0.042287937791553,-0.0039170267552277,-0.0462047308078871,0.0484834231886787,6.0,NB
2025-05-06 16:32:46.978,-0.03856311589326,-0.0062527674096975,-0.0448156496063801,0.0537669636453164,6.0,NB
2025-05-06 16:32:46.979,-0.0335596889437655,-0.0095240543711959,-0.0430835097389717,0.0581490790376196,6.0,NB
2025-05-06 16:32:46.981,-0.0291145442229595,-0.0128911890567194,-0.0420054998974229,0.0604307955215023,6.0,NB
2025-05-06 16:32:46.983,-0.0275199924569026,-0.0153560828169073,-0.0428758421154096,0.0602704286531807,6.0,NB
2025-05-06 16:32:46.985,-0.03071380588139,-0.0161670476031804,-0.0468806205204943,0.0582374574576501,6.0,NB
2025-05-06 16:32:46.987,-0.0393221697039925,-0.0151370518124528,-0.0544589886716945,0.05541570337428,6.0,NB
2025-05-06 16:32:46.989,-0.0520502326710863,-0.0127415778449393,-0.064791577708713,0.0528672278229567,6.0,NB
2025-05-06 16:32:46.991,-0.0658707606189272,-0.0099540233000686,-0.0758245511037878,0.0512587993837232,6.0,NB
2025-05-06 16:32:46.993,-0.0770602327832535,-0.0078752002299179,-0.0849352002068694,0.0507353111177828,6.0,NB
2025-05-06 16:32:46.995,-0.0826098385785507,-0.0072942876012872,-0.0899038934550964,0.0509721738339499,6.0,NB
2025-05-06 16:32:46.997,-0.0812954324925993,-0.0083743704970923,-0.0896695704392536,0.0513632189168848,6.0,NB
2025-05-06 16:32:46.999,-0.0739262001438481,-0.0106362081100499,-0.0845621759433178,0.0513363060174871,6.0,NB
2025-05-06 16:32:47.001,-0.0627951909378946,-0.0132629243360238,-0.0760578832072831,0.0506829888262836,6.0,NB
2025-05-06 16:32:47.003,-0.0507331321517251,-0.0155363216936442,-0.066269221962323,0.0496658357235376,6.0,NB
2025-05-06 16:32:47.005,-0.0402221782660995,-0.0171271866130521,-0.0573491330855371,0.0487724058145635,6.0,NB
2025-05-06 16:32:47.007,-0.0328507881091079,-0.0180893334821825,-0.0509398898081337,0.0483126307009342,6.0,NB
2025-05-06 16:32:47.009,-0.0291848323217976,-0.018632357784558,-0.0478169583119653,0.0482522403452761,6.0,NB
2025-05-06 16:32:47.011,-0.028994768704898,-0.0188792250889413,-0.0478737620368687,0.0484358539491061,6.0,NB
2025-05-06 16:32:47.013,-0.0316765443914441,-0.0187763669094888,-0.0504526796770098,0.0489004876806887,6.0,NB
2025-05-06 16:32:47.015,-0.0366084155801351,-0.0181846465400021,-0.0547928307235859,0.0498727819803827,6.0,NB
2025-05-06 16:32:47.017,-0.0432096982695527,-0.0170554899390813,-0.0602649570840387,0.051440853373436,6.0,NB
2025-05-06 16:32:47.019,-0.0507109566864746,-0.0155606303267129,-0.0662713561320458,0.0533036586528285,6.0,NB
2025-05-06 16:32:47.021,-0.0579457878367828,-0.0140924902867256,-0.0720380473985225,0.054922782008733,6.0,NB
2025-05-06 16:32:47.022,-0.0635134112282341,-0.0131326163343152,-0.0766457968926616,0.0559491941047343,6.0,NB
2025-05-06 16:32:47.024,-0.0663543433053197,-0.0130533796156956,-0.0794074922441714,0.0565107246136658,6.0,NB
2025-05-06 16:32:47.026,-0.0663931461651858,-0.0139525324584011,-0.080345447949892,0.0571062607309252,6.0,NB
2025-05-06 16:32:47.028,-0.0647599647685249,-0.0156048813528293,-0.0803646155291748,0.0582226819200688,6.0,NB
2025-05-06 16:32:47.030,-0.063320706243116,-0.0175525263082814,-0.0808730021480434,0.0599873809261313,6.0,NB
2025-05-06 16:32:47.032,-0.0636882768544266,-0.0192864919122256,-0.0829745386337046,0.0620705646314417,6.0,NB
2025-05-06 16:32:47.034,-0.0662642064638757,-0.0204407069175603,-0.0867046835329336,0.0638265390786632,6.0,NB
2025-05-06 16:32:47.036,-0.069898052900741,-0.0209195247943446,-0.0908173480703338,0.0645393453345583,6.0,NB
2025-05-06 16:32:47.038,-0.0724060242894988,-0.0208934744280667,-0.0932992692125161,0.0636668943102744,6.0,NB
2025-05-06 16:32:47.040,-0.071691911319852,-0.0206461020641683,-0.0923377839051971,0.0610419456148722,6.0,NB
2025-05-06 16:32:47.042,-0.0668763570182298,-0.0203503916104388,-0.0872265191418505,0.0569982650606235,6.0,NB
2025-05-06 16:32:47.044,-0.0588447409850074,-0.019925169454536,-0.0787696809880257,0.0523631429502236,6.0,NB
2025-05-06 16:32:47.046,-0.0499378777885324,-0.0190793101515609,-0.0690169586230201,0.0482511875113675,6.0,NB
2025-05-06 16:32:47.048,-0.0429364396650781,-0.0175098123077946,-0.0604460228947699,0.0456684152015668,6.0,NB
2025-05-06 16:32:47.050,-0.0398120335518001,-0.0150972061081705,-0.0549090108775054,0.0450903120896313,6.0,NB
2025-05-06 16:32:47.052,-0.0408172920751599,-0.0119436888766212,-0.0527607524452017,0.0462716125002007,6.0,NB
2025-05-06 16:32:47.054,-0.0443447237281687,-0.0082277435796044,-0.0525722389917012,0.0484271825794678,6.0,NB
2025-05-06 16:32:47.056,-0.047654844381822,-0.0040036664083711,-0.0516582825580929,0.0506697995135369,6.0,NB
2025-05-06 16:32:47.058,-0.0481836719561929,0.0008635131267916,-0.0473199306086956,0.0524385882028942,6.0,NB
2025-05-06 16:32:47.060,-0.0448405930313775,0.0065162878182595,-0.0383240770025467,0.0537029933850857,6.0,NB
2025-05-06 16:32:47.062,-0.038645439773508,0.0127439548544488,-0.0259012567891914,0.0548786897442867,6.0,NB
2025-05-06 16:32:47.063,-0.0323231877256166,0.0186867594964888,-0.0136362002860564,0.0565220069408621,6.0,NB
2025-05-06 16:32:47.065,-0.0289889758599792,0.0228909120202992,-0.0060978361708739,0.0589573077032141,6.0,NB
2025-05-06 16:32:47.067,-0.0305273825017316,0.0238369166197874,-0.0066902385122227,0.0620406726214568,6.0,NB
2025-05-06 16:32:47.069,-0.0364520557220852,0.0207695407021095,-0.0156822879000564,0.0652126225815369,6.0,NB
2025-05-06 16:32:47.071,-0.0438697577253402,0.0144082002920703,-0.0294613304663297,0.0678114014910987,6.0,NB
2025-05-06 16:32:47.073,-0.0486906406879859,0.0070631789960059,-0.0416272347840791,0.0694265540065224,6.0,NB
2025-05-06 16:32:47.075,-0.0475591094187094,0.0019122827325899,-0.0456465997943127,0.0700403612186165,6.0,NB
2025-05-06 16:32:47.077,-0.0395116762177264,0.0016711903795469,-0.0378402589917628,0.0698708542678326,6.0,NB
2025-05-06 16:32:47.079,-0.0264721895869443,0.0073441219728102,-0.0191278408986802,0.0690649600867737,6.0,NB
2025-05-06 16:32:47.081,-0.0123246427070508,0.0177704291389937,0.0054460129188496,0.0674942979477985,6.0,NB
2025-05-06 16:32:47.083,-0.0010677862293715,0.030191608737047,0.0291240487058049,0.0648102063225731,6.0,NB
2025-05-06 16:32:47.085,0.004952856655336,0.0414430144757479,0.0463960970467485,0.0607484256188772,6.0,NB
2025-05-06 16:32:47.087,0.0057986275220671,0.0491083463415023,0.0549071995642818,0.055531831949667,6.0,NB
2025-05-06 16:32:47.089,0.0033747224208767,0.0521639286312725,0.0555388766304028,0.0500912575793419,6.0,NB
2025-05-06 16:32:47.091,7.979849851908263e-05,0.0510069413890586,0.0510869654130539,0.0458302457537338,6.0,NB
2025-05-06 16:32:47.093,-0.0023716146103988,0.0470086248876784,0.0446372357621073,0.0439538730826551,6.0,NB
2025-05-06 16:32:47.095,-0.0032825384501601,0.041811042582769,0.0385287295268754,0.0447757605744131,6.0,NB
2025-05-06 16:32:47.097,-0.0025484404934749,0.0366346607737582,0.0340864454990181,0.0474987057444211,6.0,NB
2025-05-06 16:32:47.099,-0.0001459378783515,0.0319145729491728,0.0317688600376327,0.0506246693094354,6.0,NB
2025-05-06 16:32:47.101,0.0038693708329203,0.0274684473580644,0.0313380428756325,0.0527090047854681,6.0,NB
2025-05-06 16:32:47.103,0.0088820552850918,0.0230637322732721,0.031946011989543,0.0529890207581579,6.0,NB
2025-05-06 16:32:47.104,0.0133311793571319,0.0189410066630551,0.0322724102681572,0.051575468718732,6.0,NB
2025-05-06 16:32:47.106,0.0149907465400453,0.0158554548125918,0.030846425491843,0.049222755581707,6.0,NB
2025-05-06 16:32:47.108,0.0119529391970621,0.0145554622004059,0.0265086254689251,0.0469081828239763,6.0,NB
2025-05-06 16:32:47.110,0.0037295942941581,0.015077581780233,0.0188074000667388,0.0454245364114233,6.0,NB
2025-05-06 16:32:47.112,-0.0083135671719568,0.0164340127297765,0.0081206694155199,0.0450804709732216,6.0,NB
2025-05-06 16:32:47.114,-0.0215545122339061,0.0170078039407699,-0.0045464846401208,0.0455766124328226,6.0,NB
2025-05-06 16:32:47.116,-0.0333814386248247,0.0154424472828338,-0.0179387679431676,0.046116395239121,6.0,NB
2025-05-06 16:32:47.118,-0.04232233543825,0.011441378186396,-0.0308807341136212,0.0457246700576751,6.0,NB
2025-05-06 16:32:47.120,-0.0484005070077506,0.0059525464269387,-0.0424477376667135,0.0436569902822124,6.0,NB
2025-05-06 16:32:47.122,-0.0526553373404268,0.0006233230417452,-0.0520317915507322,0.0397689856524583,6.0,NB
2025-05-06 16:32:47.124,-0.0562698112317483,-0.0031341334272666,-0.0594037220279501,0.0347319618411495,6.0,NB
2025-05-06 16:32:47.126,-0.0598649057053206,-0.0049108376608158,-0.0647755208349519,0.0299712829455438,6.0,NB
2025-05-06 16:32:47.128,-0.063303122639768,-0.0054763830604842,-0.0687792832900263,0.0272274577995659,6.0,NB
2025-05-06 16:32:47.130,-0.0660307045279896,-0.006307018758031,-0.0723375010427613,0.0278083778374969,6.0,NB
2025-05-06 16:32:47.144,-0.0677407435217599,-0.0087668389009833,-0.0765073603934995,0.0318692181838079,6.0,NB
2025-05-06 16:32:47.146,-0.0689515280382237,-0.0133633950765006,-0.082314701325666,0.0381602089655535,6.0,NB
2025-05-06 16:32:47.147,-0.071022128491291,-0.0193904854971183,-0.0904123924352639,0.0444494124015483,6.0,NB
2025-05-06 16:32:47.149,-0.0754041736929057,-0.0250955540079575,-0.1004995063548775,0.0484362158483681,6.0,NB
2025-05-06 16:32:47.151,-0.0825548820486238,-0.0283485037907068,-0.1109031646639785,0.048723898048471,6.0,NB
2025-05-06 16:32:47.153,-0.091367154238441,-0.0276022131361574,-0.1189691463436718,0.0454226767893359,6.0,NB
2025-05-06 16:32:47.155,-0.0996669184692106,-0.0227440682277258,-0.1224107658053118,0.0401300067034793,6.0,NB
2025-05-06 16:32:47.157,-0.1054814369061988,-0.0153859236531037,-0.120867139822519,0.0352745400532372,6.0,NB
2025-05-06 16:32:47.159,-0.108157458033814,-0.0083428203619233,-0.1165000578404859,0.033062177344608,6.0,NB
2025-05-06 16:32:47.161,-0.1085318986970621,-0.00445454949266,-0.1129862278412409,0.0344843497975822,6.0,NB
2025-05-06 16:32:47.163,-0.1080867005229744,-0.0052849055318845,-0.1133713859274583,0.0389004543760382,6.0,NB
2025-05-06 16:32:47.165,-0.1077591601210528,-0.0103484633349034,-0.1181074035500527,0.0444529213386248,6.0,NB
2025-05-06 16:32:47.167,-0.1072827446460199,-0.0172847419631464,-0.1245672669143975,0.0490958355675928,6.0,NB
2025-05-06 16:32:47.169,-0.105494162889631,-0.0229432005787834,-0.128437143969844,0.0516138154241164,6.0,NB
2025-05-06 16:32:47.171,-0.1013353121619332,-0.024882907283221,-0.1262180001292836,0.0520081403356211,6.0,NB
2025-05-06 16:32:47.173,-0.0948326393393795,-0.0225586312181402,-0.1173910514162552,0.0511072962349754,6.0,NB
2025-05-06 16:32:47.175,-0.0874138886978415,-0.0175951709900106,-0.1050088407203053,0.049832392820131,6.0,NB
2025-05-06 16:32:47.177,-0.0813758050111755,-0.0129884953641451,-0.0943640815881059,0.048689986143713,6.0,NB
2025-05-06 16:32:47.179,-0.0788122594549058,-0.0115947150363188,-0.090406755897537,0.0477191920822404,6.0,NB
2025-05-06 16:32:47.181,-0.0806004314537003,-0.014629414612482,-0.0952296276832149,0.0467161787558942,6.0,NB
2025-05-06 16:32:47.183,-0.086009070698224,-0.0209361149508689,-0.1069449674933537,0.0454554262557816,6.0,NB
2025-05-06 16:32:47.185,-0.0931451391227926,-0.0274455473135531,-0.1205904685176022,0.0437893786001628,6.0,NB
2025-05-06 16:32:47.187,-0.0999655842560994,-0.0306586210880127,-0.1306239876603498,0.0416837454496112,6.0,NB
2025-05-06 16:32:47.188,-0.1052305012241873,-0.0284492612864207,-0.1336795450471644,0.0392698544915692,6.0,NB
2025-05-06 16:32:47.190,-0.108784559049369,-0.0213078166837409,-0.1300921584679579,0.0369135984785261,6.0,NB
2025-05-06 16:32:47.192,-0.1109678476281436,-0.0124146143996016,-0.1233822449418739,0.0352387826318975,6.0,NB
2025-05-06 16:32:47.194,-0.1115759392723271,-0.0064810237933859,-0.1180567461542037,0.0350466602425776,6.0,NB
2025-05-06 16:32:47.196,-0.1091940553481856,-0.0078597202826095,-0.1170535589086613,0.0371241975298295,6.0,NB
2025-05-06 16:32:47.198,-0.1015491899391926,-0.0187659765831449,-0.1203149500209054,0.0420060601005203,6.0,NB
2025-05-06 16:32:47.200,-0.0868016711555967,-0.0384064998899453,-0.1252079547997053,0.0498078449992813,6.0,NB
2025-05-06 16:32:47.202,-0.0649344517468949,-0.0633783966631249,-0.1283126324418934,0.0602399105239918,6.0,NB
2025-05-06 16:32:47.204,-0.0381736582538912,-0.0890801348837256,-0.1272535774449458,0.0728429678418262,6.0,NB
2025-05-06 16:32:47.206,-0.0099280413496565,-0.1113867913475561,-0.1213146172533786,0.0873926635729828,6.0,NB
2025-05-06 16:32:47.208,0.0172462606317016,-0.1277472208601817,-0.1105007449953859,0.1043325346606266,6.0,NB
2025-05-06 16:32:47.210,0.0434091289758637,-0.1372319926095196,-0.093822648581865,0.1250262227080784,6.0,NB
2025-05-06 16:32:47.212,0.0716170043703206,-0.1397082958171333,-0.0680910765728294,0.1515904826128996,6.0,NB
2025-05-06 16:32:47.214,0.106718345364121,-0.1348491289139006,-0.0281305688810327,0.1861317677288173,6.0,NB
2025-05-06 16:32:47.216,0.1533428471950237,-0.1217127699275839,0.0316302916834396,0.2294187232952736,6.0,NB
2025-05-06 16:32:47.218,0.2142203189979648,-0.0990752152305089,0.1151453178850392,0.2793876115282939,6.0,NB
2025-05-06 16:32:47.220,0.289538490470293,-0.0659941628367654,0.2235445414309006,0.3302534974553144,6.0,NB
2025-05-06 16:32:47.222,0.3772540536513273,-0.0218893699249614,0.3553648972161452,0.3730332333531094,6.0,NB
2025-05-06 16:32:47.224,0.4736309269263985,0.034051541332454,0.507682681481089,0.397688457521865,6.0,NB
2025-05-06 16:32:47.226,0.5731021135062794,0.1035465412940166,0.6766488678010447,0.3961145524858591,6.0,NB
2025-05-06 16:32:47.228,0.6670871293767844,0.1889481871211926,0.8560355293042113,0.3645749521431143,6.0,NB
2025-05-06 16:32:47.229,0.7426829430718083,0.2913248154230056,1.0340079710986798,0.3044498964289282,6.0,NB
2025-05-06 16:32:47.231,0.7833095121432189,0.4073317865259397,1.190641511029891,0.2211369465914351,6.0,NB
2025-05-06 16:32:47.233,0.7728666747154924,0.5267682149893798,1.2996351017675405,0.1219082286599287,6.0,NB
2025-05-06 16:32:47.235,0.7023373045700804,0.6333045001037474,1.335642016395291,0.0139085569100998,6.0,NB
2025-05-06 16:32:47.237,0.5751143424094339,0.7094830949214637,1.2845976486996111,-0.0968753287916549,6.0,NB
2025-05-06 16:32:47.239,0.4074548798603275,0.7440577631416863,1.151512854041631,-0.2055877028657222,6.0,NB
2025-05-06 16:32:47.241,0.2236039959289298,0.7372789989963494,0.9608832056804606,-0.3078810220964387,6.0,NB
2025-05-06 16:32:47.243,0.0484090139170113,0.7003623118373803,0.7487715362663631,-0.3992642879379746,6.0,NB
2025-05-06 16:32:47.245,-0.098984310023241,0.6491599310163134,0.550175831277501,-0.4748738206307631,6.0,NB
2025-05-06 16:32:47.247,-0.2082978503714265,0.5960443225702653,0.3877466822370362,-0.5299373674764347,6.0,NB
2025-05-06 16:32:47.249,-0.2780767354555303,0.5449821413991246,0.2669056156909826,-0.5608605085219782,6.0,NB
2025-05-06 16:32:47.251,-0.3135409321340141,0.4922666919741311,0.1787259692471125,-0.5664133702282478,6.0,NB
2025-05-06 16:32:47.253,-0.3236502921581185,0.4316376675727785,0.1079875844491477,-0.548296425173787,6.0,NB
2025-05-06 16:32:47.255,-0.3183026581372036,0.3601214830288546,0.0418190335519359,-0.5107089411902241,6.0,NB
2025-05-06 16:32:47.257,-0.3060504224474469,0.2810321227587584,-0.0250180913763291,-0.459212402469686,6.0,NB
2025-05-06 16:32:47.259,-0.2924347787017967,0.2027659810005569,-0.0896685896983948,-0.3995646444653191,6.0,NB
2025-05-06 16:32:47.261,-0.2791367797730368,0.1347523104854678,-0.1443842615644897,-0.3369843797624836,6.0,NB
2025-05-06 16:32:47.263,-0.2643534610393783,0.0833674199930803,-0.1809858335973346,-0.2758235079057828,6.0,NB
2025-05-06 16:32:47.265,-0.2445938260416243,0.0500289384291716,-0.1945646804590851,-0.2193974142312524,6.0,NB
2025-05-06 16:32:47.267,-0.2173124906836035,0.031887217270075,-0.1854250665943955,-0.1698539185867177,6.0,NB
2025-05-06 16:32:47.269,-0.1830555902239706,0.0239946278076677,-0.1590607559698752,-0.1281374382277602,6.0,NB
2025-05-06 16:32:47.270,-0.1458637724497326,0.0214238429722736,-0.1244397234260312,-0.0940995380750536,6.0,NB
2025-05-06 16:32:47.272,-0.1116804742589556,0.0204082538057191,-0.0912720147955801,-0.0667409640499329,6.0,NB
2025-05-06 16:32:47.274,-0.0857358267544814,0.0184904168258188,-0.0672452046440172,-0.0445902323732698,6.0,NB
2025-05-06 16:32:47.276,-0.0704145977892793,0.0142180160242193,-0.056196376825666,-0.0262089220890252,6.0,NB
2025-05-06 16:32:47.278,-0.0646613297997889,0.0069205155335477,-0.0577406096519765,-0.0106675104045086,6.0,NB
2025-05-06 16:32:47.280,-0.0649778214821606,-0.003231918321043,-0.0682095355115663,0.002244365098441,6.0,NB
2025-05-06 16:32:47.282,-0.0672457519939186,-0.0150393081765057,-0.0822848562178762,0.0121733779241794,6.0,NB
2025-05-06 16:32:47.284,-0.0683857341615633,-0.0263135481827432,-0.094699078759226,0.0186340448633207,6.0,NB
2025-05-06 16:32:47.286,-0.0671966620807943,-0.0344637421219508,-0.101660201013859,0.0215377887180284,6.0,NB
2025-05-06 16:32:47.288,-0.0642666580853622,-0.037580040508884,-0.1018464958199173,0.0215910280741707,6.0,NB
2025-05-06 16:32:47.290,-0.0612670931177252,-0.0354993177749761,-0.0967662085354737,0.020308650755852,6.0,NB
2025-05-06 16:32:47.292,-0.0600642491761684,-0.0301573262890006,-0.0902213735133065,0.0195410472577,6.0,NB
2025-05-06 16:32:47.294,-0.0619395791454872,-0.0248704138411535,-0.0868097914213731,0.0207351627626446,6.0,NB
2025-05-06 16:32:47.296,-0.0670082991031414,-0.0228293828945521,-0.0898374808027796,0.0243460900835117,6.0,NB
2025-05-06 16:32:47.298,-0.0739077561918269,-0.0255764934746779,-0.0994840488361771,0.0297040933070441,6.0,NB
2025-05-06 16:32:47.300,-0.0799696532782042,-0.0322723383771668,-0.1122417911977061,0.035386261271061,6.0,NB
2025-05-06 16:32:47.302,-0.082076674421182,-0.0401529665493775,-0.1222294409052396,0.0399271022199472,6.0,NB
2025-05-06 16:32:47.304,-0.0780384623495425,-0.045959491939259,-0.1239977546403453,0.0425375397258932,6.0,NB
2025-05-06 16:32:47.306,-0.067845176998293,-0.0476060563085399,-0.1154510340959825,0.0434301734246155,6.0,NB
2025-05-06 16:32:47.308,-0.0540210450783296,-0.0452183125349205,-0.0992391588498482,0.0435219424263191,6.0,NB
2025-05-06 16:32:47.310,-0.0407178066825319,-0.0410112226334656,-0.0817288309961764,0.0437111406061072,6.0,NB
2025-05-06 16:32:47.312,-0.0319338992265577,-0.038085154645786,-0.0700188559812976,0.0442865067205087,6.0,NB
2025-05-06 16:32:47.313,-0.0298072533155298,-0.0387682671036494,-0.0685753229386463,0.0449223568863506,6.0,NB
2025-05-06 16:32:47.315,-0.0338816172624736,-0.0433698326720996,-0.0772512528521639,0.0451773771309153,6.0,NB
2025-05-06 16:32:47.317,-0.0416168593574102,-0.0500226110828506,-0.0916392737567409,0.0449958234500196,6.0,NB
2025-05-06 16:32:47.319,-0.0496940036639902,-0.0557202139287094,-0.1054140213238699,0.0448211918129783,6.0,NB
2025-05-06 16:32:47.321,-0.0553611815174824,-0.0579694171951851,-0.1133304028845707,0.0453332652304262,6.0,NB
2025-05-06 16:32:47.323,-0.0572565856561826,-0.0561140221456409,-0.1133704124409355,0.0470413106545698,6.0,NB
2025-05-06 16:32:47.325,-0.0555368698512553,-0.0516039218806428,-0.107140596854456,0.0499383761556672,6.0,NB
2025-05-06 16:32:47.327,-0.0514454743738062,-0.0471177818374528,-0.0985630618166792,0.0533565750139858,6.0,NB
2025-05-06 16:32:47.329,-0.0465904158777526,-0.0450842463772213,-0.0916744683268097,0.0561317585757333,6.0,NB
2025-05-06 16:32:47.331,-0.0422193707271326,-0.046436057984387,-0.0886552352260577,0.0570840484723337,6.0,NB
2025-05-06 16:32:47.333,-0.0387501983169325,-0.050242638262098,-0.0889926435179067,0.0556100786929707,6.0,NB
2025-05-06 16:32:47.335,-0.035742504546792,-0.0543267406294619,-0.0900690525372041,0.0520320672485222,6.0,NB
2025-05-06 16:32:47.337,-0.0323303440092262,-0.0564315342887644,-0.0887616860983437,0.0474720953225308,6.0,NB
2025-05-06 16:32:47.339,-0.0278868881171307,-0.0552971678015699,-0.0831838641894488,0.0433504900495526,6.0,NB
2025-05-06 16:32:47.341,-0.0225138467216302,-0.0511695796356096,-0.0736832351300826,0.0408236451342227,6.0,NB
2025-05-06 16:32:47.343,-0.0170305112432262,-0.045597767296421,-0.0626280878330705,0.0404180670495263,6.0,NB
2025-05-06 16:32:47.345,-0.0124768551343521,-0.0406891554264077,-0.0531658203720335,0.0419326813936156,6.0,NB
2025-05-06 16:32:47.347,-0.0094911897788827,-0.0381953420346645,-0.047686342120912,0.0445621611264181,6.0,NB
2025-05-06 16:32:47.349,-0.0079928755736069,-0.038836220764173,-0.0468289071121684,0.0471821618814919,6.0,NB
2025-05-06 16:32:47.351,-0.0073510239769278,-0.0421246280566567,-0.0494754632543835,0.0487511869881169,6.0,NB
2025-05-06 16:32:47.353,-0.0068713820819829,-0.0467091056412616,-0.0535802993903374,0.0487276403911737,6.0,NB
2025-05-06 16:32:47.354,-0.0062400268554625,-0.0510407591670755,-0.0572805981584505,0.0473057018092012,6.0,NB
2025-05-06 16:32:47.356,-0.0056247026652727,-0.05406334015633,-0.0596878554623648,0.0452917035075837,6.0,NB
2025-05-06 16:32:47.358,-0.0053985485866572,-0.0556251326505733,-0.0610234944162378,0.0436409558346305,6.0,NB
2025-05-06 16:32:47.360,-0.0057412585448608,-0.0564184556734535,-0.0621595279511375,0.0429228600612172,6.0,NB
2025-05-06 16:32:47.362,-0.0064482428741615,-0.057471279558662,-0.0639193367106446,0.0430663614587121,6.0,NB
2025-05-06 16:32:47.364,-0.0070501074003647,-0.0594684016598625,-0.0665183238553875,0.0435466340186945,6.0,NB
2025-05-06 16:32:47.366,-0.0070450766862525,-0.0622974853891389,-0.0693423773564735,0.0438314206021071,6.0,NB
2025-05-06 16:32:47.368,-0.0059978483897456,-0.0650851369701485,-0.0710828011088764,0.0437273665238248,6.0,NB
2025-05-06 16:32:47.370,-0.0034764745797024,-0.066690587981165,-0.0701668787837209,0.0434189497596278,6.0,NB
2025-05-06 16:32:47.372,0.0009961302064725,-0.0663644788807778,-0.0653681653996041,0.043259248277927,6.0,NB
2025-05-06 16:32:47.374,0.0078135404014835,-0.0642067615535853,-0.0563930384182402,0.0434890406950731,6.0,NB
2025-05-06 16:32:47.376,0.0169945010257817,-0.0611800072272353,-0.0441853240388436,0.0440561670174063,6.0,NB
2025-05-06 16:32:47.378,0.0279123727117246,-0.0586660863259547,-0.0307535320314569,0.0446590911261037,6.0,NB
2025-05-06 16:32:47.380,0.0392733566643714,-0.0577894012818595,-0.0185158635984337,0.0449867648842617,6.0,NB
2025-05-06 16:32:47.382,0.0494625957145699,-0.058870607193625,-0.0094078309924612,0.0449412677041048,6.0,NB
2025-05-06 16:32:47.384,0.057158964048706,-0.061327268035354,-0.0041681240032707,0.0446409561533926,6.0,NB
2025-05-06 16:32:47.386,0.0619062016396427,-0.0640772747096192,-0.0021708935786336,0.0442269555296776,6.0,NB
2025-05-06 16:32:47.388,0.0642790811684684,-0.0661764465786681,-0.0018971864245924,0.0436862953438004,6.0,NB
2025-05-06 16:32:47.390,0.0654889753194334,-0.0672895190588593,-0.0018003652923389,0.0428833154247964,6.0,NB
2025-05-06 16:32:47.392,0.0666218292763911,-0.0677548843383172,-0.0011328771898432,0.0417911430003062,6.0,NB
2025-05-06 16:32:47.394,0.0679484704955608,-0.0682881602990111,-0.0003395125294767,0.0406917722107736,6.0,NB
2025-05-06 16:32:47.395,0.0687399065769449,-0.0695457303407424,-0.0008056470875655,0.0400812479444148,6.0,NB
2025-05-06 16:32:47.397,0.0677612167330611,-0.0717757723377295,-0.0040143795042557,0.0402835072324441,6.0,NB
2025-05-06 16:32:47.399,0.0642055918918419,-0.0747017182180249,-0.0104959507708903,0.0411053868791618,6.0,NB
2025-05-06 16:32:47.401,0.0584957714583214,-0.0776738666570101,-0.0191779201660093,0.0418637954628646,6.0,NB
2025-05-06 16:32:47.403,0.0524088279623012,-0.0800005171410597,-0.0275915146668413,0.0417707977636875,6.0,NB
2025-05-06 16:32:47.405,0.0484079731761775,-0.0812774064051875,-0.0328692592583691,0.0403761215548513,6.0,NB
2025-05-06 16:32:47.407,0.0485761032313628,-0.0815494864298098,-0.0329732098022824,0.0377951791550712,6.0,NB
2025-05-06 16:32:47.409,0.053771998110739,-0.0812519360727019,-0.0274797651702925,0.0346462912150788,6.0,NB
2025-05-06 16:32:47.411,0.0634508332645621,-0.08099018078597,-0.0175391753472572,0.0317716162807124,6.0,NB
2025-05-06 16:32:47.413,0.0761473940924935,-0.0812715228819259,-0.005123957224074,0.0298933919973365,6.0,NB
2025-05-06 16:32:47.415,0.0902022772594383,-0.0823025078096292,0.0078999404304053,0.0293736673869092,6.0,NB
2025-05-06 16:32:47.417,0.104227043483758,-0.0839350274029009,0.0202921865020154,0.0301643919194467,6.0,NB
2025-05-06 16:32:47.419,0.1171432861357116,-0.0857903288389522,0.0313531271709576,0.0318957547805086,6.0,NB
2025-05-06 16:32:47.421,0.1280720664682502,-0.0875104660332802,0.0405617697548151,0.0339906307354326,6.0,NB
2025-05-06 16:32:47.423,0.1364248371857791,-0.0889888285765896,0.0474361773508398,0.0357583420624333,6.0,NB
2025-05-06 16:32:47.425,0.1421932961933224,-0.0904042503878369,0.0517892139403472,0.0365018971813793,6.0,NB
2025-05-06 16:32:47.427,0.1460937709420287,-0.0920260398449287,0.0540678986054352,0.0356751761988567,6.0,NB
2025-05-06 16:32:47.429,0.1492924021459693,-0.0939724704683948,0.0553200985569296,0.0330758526891795,6.0,NB
2025-05-06 16:32:47.431,0.1528290857291866,-0.096143446626716,0.0566858053668221,0.0290011449141075,6.0,NB
2025-05-06 16:32:47.433,0.1571448233144895,-0.0983464826334871,0.0587985063515147,0.0242479755059082,6.0,NB
2025-05-06 16:32:47.435,0.1620246445236504,-0.1004323038245163,0.0615925057917419,0.0198718570417424,6.0,NB
2025-05-06 16:32:47.436,0.1669234651045224,-0.1022842851867524,0.0646393444341947,0.0167609468193159,6.0,NB
2025-05-06 16:32:47.438,0.171378721426653,-0.1037073653953837,0.0676715199579491,0.0152237272978935,6.0,NB
2025-05-06 16:32:47.440,0.175226802879931,-0.1043891682070076,0.0708377979879619,0.014813101336029,6.0,NB
2025-05-06 16:32:47.442,0.1785612748368104,-0.1040224420257758,0.0745389954950569,0.0145104783331896,6.0,NB
2025-05-06 16:32:47.444,0.181580933601574,-0.102496527575575,0.079084568070978,0.0132058477709332,6.0,NB
2025-05-06 16:32:47.446,0.1844978370419147,-0.0999955054202274,0.0845024930332218,0.0102183446312012,6.0,NB
2025-05-06 16:32:47.448,0.1875249683500219,-0.0969407690572191,0.090584360085076,0.0055630711860033,6.0,NB
2025-05-06 16:32:47.450,0.1908292724242436,-0.0938474537120575,0.0969819788987854,-0.000160192892818,6.0,NB
2025-05-06 16:32:47.452,0.1943812615860443,-0.0911875328416632,0.1031938883301695,-0.0061337525403269,6.0,NB
2025-05-06 16:32:47.454,0.1978113792399852,-0.0892889262907329,0.1085226119275731,-0.0116755431586222,6.0,NB
2025-05-06 16:32:47.456,0.2004689705803867,-0.0882585725702139,0.1122105563665087,-0.0163721270293757,6.0,NB
2025-05-06 16:32:47.458,0.2017244385883791,-0.087938561693673,0.1137860346143304,-0.0200131345389366,6.0,NB
2025-05-06 16:32:47.460,0.2013173864356918,-0.0879376754762744,0.1133798680345594,-0.022529170381778,6.0,NB
2025-05-06 16:32:47.462,0.199519242629456,-0.0877648614197848,0.1117545376422892,-0.0240693890846233,6.0,NB
2025-05-06 16:32:47.464,0.1970660200995986,-0.0870187469417157,0.1100474289568209,-0.0251185274134521,6.0,NB
2025-05-06 16:32:47.466,0.194972020172404,-0.0855226775222886,0.1094494978246351,-0.0264197544595277,6.0,NB
2025-05-06 16:32:47.468,0.1943056295520236,-0.0833212220357735,0.1109845620698443,-0.0286100209849152,6.0,NB
2025-05-06 16:32:47.470,0.19590020432691,-0.0805632949283883,0.1153370633265281,-0.031777317125597,6.0,NB
2025-05-06 16:32:47.472,0.1999643641613735,-0.0773762752024128,0.1225882422511311,-0.0353048997527097,6.0,NB
2025-05-06 16:32:47.474,0.2056954557708663,-0.0738122212931345,0.1318833871239908,-0.0381727657627992,6.0,NB
2025-05-06 16:32:47.476,0.2111584464395787,-0.0698772952917788,0.1412813031436444,-0.0395092944279925,6.0,NB
2025-05-06 16:32:47.478,0.2136723103324196,-0.065617057668558,0.1480554040121926,-0.0390095599169413,6.0,NB
2025-05-06 16:32:47.479,0.2106884524964588,-0.0612145167371578,0.14947408646769,-0.0369968160514237,6.0,NB
2025-05-06 16:32:47.481,0.200819295744312,-0.0570315047351748,0.1437879410842824,-0.0341677547083371,6.0,NB
2025-05-06 16:32:47.483,0.1845233778178319,-0.0535250304312712,0.130998496829357,-0.0312031176581229,6.0,NB
2025-05-06 16:32:47.485,0.1640907287217873,-0.0510491480862873,0.1130417294397572,-0.0284490027347437,6.0,NB
2025-05-06 16:32:47.487,0.1429184347024129,-0.0496589186763372,0.0932596641817107,-0.02583156128561,6.0,NB
2025-05-06 16:32:47.489,0.1244060185855874,-0.0490516534951415,0.0753545125892524,-0.0230343223610205,6.0,NB
2025-05-06 16:32:47.491,0.110926912704098,-0.0486801814323698,0.0622468781122168,-0.0197927218890122,6.0,NB
2025-05-06 16:32:47.493,0.1032119373727118,-0.0479514306326797,0.0552606529283085,-0.0160871654142985,6.0,NB
2025-05-06 16:32:47.495,0.1002669876708514,-0.0463974758872492,0.0538696573295747,-0.0120980768848834,6.0,NB
2025-05-06 16:32:47.497,0.0997931145945797,-0.043779053633463,0.0560142058721464,-0.007966227549826,6.0,NB
2025-05-06 16:32:47.499,0.0989785672910266,-0.040147077419734,0.0588316341470437,-0.0035834003673497,6.0,NB
2025-05-06 16:32:47.501,0.0954150654559031,-0.035868329967265,0.0595468791203344,0.0013410678419295,6.0,NB
2025-05-06 16:32:47.503,0.0877942239348763,-0.0315639129497416,0.0562304539599297,0.006936084078208,6.0,NB
2025-05-06 16:32:47.505,0.0761056831929594,-0.0279112683192453,0.048194557181855,0.0128536001079119,6.0,NB
2025-05-06 16:32:47.507,0.0613334824834853,-0.0253528767690668,0.0359807473550917,0.0183131932685296,6.0,NB
2025-05-06 16:32:47.509,0.0449568988991964,-0.0238685211085976,0.0210885187728985,0.0225207359148722,6.0,NB
2025-05-06 16:32:47.511,0.028614193107431,-0.0229813831159135,0.0056329503296548,0.0251426272869195,6.0,NB
2025-05-06 16:32:47.513,0.0139950297869159,-0.0220240895658288,-0.0080289200737164,0.0264893575632103,6.0,NB
2025-05-06 16:32:47.515,0.0026975273653173,-0.0205010924047739,-0.0178034259658703,0.0273190534741033,6.0,NB
2025-05-06 16:32:47.517,-0.0041984694572753,-0.018324014339145,-0.0225223453646157,0.0284386009382438,6.0,NB
2025-05-06 16:32:47.519,-0.0067337033632387,-0.0157982337521293,-0.0225317993420825,0.0303511577179238,6.0,NB
2025-05-06 16:32:47.520,-0.006400919699231,-0.0133939817663109,-0.0197947643650245,0.0330978760092527,6.0,NB
2025-05-06 16:32:47.522,-0.0057795536030337,-0.0114472823019875,-0.0172266994807909,0.0363160313715609,6.0,NB
2025-05-06 16:32:47.524,-0.0074786627288598,-0.009962439920909,-0.0174409668919236,0.0394591199797671,6.0,NB
2025-05-06 16:32:47.526,-0.0129203650930888,-0.0086214479481706,-0.0215416779311865,0.0420647168167396,6.0,NB
2025-05-06 16:32:47.528,-0.0216695163710547,-0.0069911845702508,-0.0286605664615589,0.0439336441661152,6.0,NB
2025-05-06 16:32:47.530,-0.0316893241572273,-0.004819321432912,-0.0365085117342181,0.0451671661278495,6.0,NB
2025-05-06 16:32:47.532,-0.0403579867803749,-0.002255516867848,-0.0426133704247655,0.0461128522013954,6.0,NB
2025-05-06 16:32:47.534,-0.0456962559618664,0.0001506487989242,-0.0455454745916897,0.0472478641158389,6.0,NB
2025-05-06 16:32:47.536,-0.0472048887656407,0.0017127353814745,-0.0454920214855083,0.0489639840797676,6.0,NB
2025-05-06 16:32:47.538,-0.0459532890453488,0.0019974793535546,-0.0439556784753672,0.0513037652194211,6.0,NB
2025-05-06 16:32:47.540,-0.0439473958787709,0.0010985485776135,-0.0428487167597631,0.053862847547336,6.0,NB
2025-05-06 16:32:47.542,-0.0431502378452509,-0.0003850412165856,-0.0435351491743063,0.0560400062370281,6.0,NB
2025-05-06 16:32:47.544,-0.0446613910413463,-0.0016455500042798,-0.0463068117874916,0.0575068558295243,6.0,NB
2025-05-06 16:32:47.546,-0.0484204396053488,-0.0020491896596416,-0.0504695006214707,0.058486409598348,6.0,NB
2025-05-06 16:32:47.548,-0.0534918506697988,-0.0013949644295506,-0.0548866870736392,0.0595431927235231,6.0,NB
2025-05-06 16:32:47.550,-0.0586986921474201,5.820847186875026e-05,-0.0586403562876495,0.0610564535972926,6.0,NB
2025-05-06 16:32:47.552,-0.0632266893675578,0.0017731311049487,-0.0614534315388958,0.0628795281357789,6.0,NB
2025-05-06 16:32:47.554,-0.0668611331847681,0.0032126900856514,-0.0636483170579489,0.0644957649988734,6.0,NB
2025-05-06 16:32:47.556,-0.0697353500298863,0.0040780981683655,-0.065657126502518,0.0654733393515942,6.0,NB
2025-05-06 16:32:47.558,-0.07178454095126,0.0044040917838303,-0.0673803244704445,0.0657580646681141,6.0,NB
2025-05-06 16:32:47.560,-0.0723482376108853,0.0044851917173272,-0.0678629218283096,0.0655768464344019,6.0,NB
2025-05-06 16:32:47.561,-0.070342496811066,0.0046929338872612,-0.0656494394654045,0.0651500542209602,6.0,NB
2025-05-06 16:32:47.563,-0.065045253192103,0.0052925230257188,-0.0597526073085896,0.064556685926645,6.0,NB
2025-05-06 16:32:47.565,-0.0570118240047281,0.0063530515677243,-0.0506586501959325,0.0638411324500851,6.0,NB
2025-05-06 16:32:47.567,-0.0483936427597947,0.0077749423564486,-0.0406185788092534,0.0631338590789629,6.0,NB
2025-05-06 16:32:47.569,-0.0422557011173331,0.0093748316133714,-0.0328807485850388,0.0625782755247827,6.0,NB
2025-05-06 16:32:47.571,-0.0411849738586203,0.010945796264714,-0.0302390573605208,0.0621653511826623,6.0,NB
2025-05-06 16:32:47.573,-0.0460172159636941,0.0122790367652337,-0.0337380596363496,0.0617305000237542,6.0,NB
2025-05-06 16:32:47.575,-0.055468957724603,0.0132079336806267,-0.0422609051203994,0.0611509002184586,6.0,NB
2025-05-06 16:32:47.577,-0.0668719215339481,0.0137075220523066,-0.0531642811616719,0.060513927789732,6.0,NB
2025-05-06 16:32:47.579,-0.0775015074561288,0.0139750508218544,-0.0635263388988565,0.0600611382266291,6.0,NB
2025-05-06 16:32:47.581,-0.0856864250598777,0.0143766141985219,-0.0713096937175045,0.0599667488351302,6.0,NB
2025-05-06 16:32:47.583,-0.091154344886637,0.0152487780108724,-0.0759054503531685,0.0601699783197027,6.0,NB
2025-05-06 16:32:47.585,-0.0946081215844454,0.0166877568246122,-0.0779202488952079,0.0604040052286702,6.0,NB
2025-05-06 16:32:47.587,-0.0969277554966434,0.0184841413369132,-0.0784434989768742,0.0603785311529793,6.0,NB
2025-05-06 16:32:47.589,-0.0984985003976348,0.0202451143291429,-0.0782532715645449,0.0599767803116485,6.0,NB
2025-05-06 16:32:47.591,-0.0990267950915375,0.0216029094966971,-0.0774237717402656,0.0593514241153682,6.0,NB
2025-05-06 16:32:47.593,-0.0979085049227922,0.0223626648757832,-0.0755457267997364,0.0588517748680431,6.0,NB
2025-05-06 16:32:47.595,-0.0948830065592335,0.0225242622732148,-0.0723586316126615,0.0587898459895229,6.0,NB
2025-05-06 16:32:47.597,-0.0905169577592345,0.0222268823785832,-0.0682899632737456,0.0591858853009293,6.0,NB
2025-05-06 16:32:47.599,-0.0861396573501361,0.0216894847669843,-0.0644500610651722,0.0596884065844879,6.0,NB
2025-05-06 16:32:47.601,-0.0831954753679804,0.0211573252595888,-0.0620380392200517,0.0597349869970215,6.0,NB
2025-05-06 16:32:47.602,-0.0824108992548061,0.0208291588963662,-0.0615816301370355,0.0588543509435364,6.0,NB
2025-05-06 16:32:47.604,-0.0833682629319668,0.0207803980616437,-0.0625877553292737,0.0569642199062604,6.0,NB
2025-05-06 16:32:47.606,-0.0848128735042296,0.0209341535342138,-0.0638786110904082,0.0545359806003107,6.0,NB
2025-05-06 16:32:47.608,-0.0854674341173226,0.0211016428327694,-0.0643656830234316,0.0524994999406392,6.0,NB
2025-05-06 16:32:47.610,-0.0847541645427441,0.0210625761091574,-0.0636914807450494,0.0518386232951105,6.0,NB
2025-05-06 16:32:47.612,-0.0829414335954979,0.020648501334608,-0.0622928251192432,0.0530515562971038,6.0,NB
2025-05-06 16:32:47.614,-0.0807010510872029,0.0198133325737438,-0.0608876119263578,0.0558409533673047,6.0,NB
2025-05-06 16:32:47.616,-0.0784731634432268,0.0186751291414796,-0.0597979283062215,0.0592848173443338,6.0,NB
2025-05-06 16:32:47.618,-0.0761108276632968,0.0174939711635764,-0.0586167511427777,0.0623592728341809,6.0,NB
2025-05-06 16:32:47.620,-0.0730514898386121,0.0165668504516692,-0.0564845347005183,0.0644261253791233,6.0,NB
2025-05-06 16:32:47.622,-0.0689173924886216,0.0160886403280677,-0.0528286481437326,0.0654083713996204,6.0,NB
2025-05-06 16:32:47.624,-0.0641438842528605,0.0160797486257945,-0.0480640322449797,0.0656432903985906,6.0,NB
2025-05-06 16:32:47.626,-0.0601442001609793,0.0164388300594656,-0.0437052673018324,0.0655482033641649,6.0,NB
2025-05-06 16:32:47.628,-0.0587626802422844,0.0170654080522169,-0.0416971699288866,0.0652972085361779,6.0,NB
2025-05-06 16:32:47.630,-0.0612370838609044,0.0179292685710037,-0.0433077135537935,0.0647413690699425,6.0,NB
2025-05-06 16:32:47.632,-0.0672745237638494,0.0190217010622767,-0.0482527215143117,0.0636552325170813,6.0,NB
2025-05-06 16:32:47.634,-0.0748693285460364,0.0202474701103815,-0.0546217578458274,0.0620863851418749,6.0,NB
2025-05-06 16:32:47.636,-0.0810871582495772,0.0213731441114402,-0.059713914193689,0.0604655744980373,6.0,NB
2025-05-06 16:32:47.638,-0.0834252445729247,0.02208942756451,-0.0613357177310245,0.0593677363201153,6.0,NB
2025-05-06 16:32:47.640,-0.0809653082037884,0.0221434057778273,-0.0588218037984613,0.0591336939191588,6.0,NB
2025-05-06 16:32:47.642,-0.0746741832546614,0.0214453957113086,-0.0532286895169213,0.059647232635605,6.0,NB
2025-05-06 16:32:47.644,-0.0667651525535429,0.020087727465669,-0.0466773276056436,0.0604038767139332,6.0,NB
2025-05-06 16:32:47.645,-0.0595853502419482,0.0182870117433429,-0.0412982415238297,0.0608050388080939,6.0,NB
2025-05-06 16:32:47.647,-0.0546803239856008,0.0163103626853557,-0.0383698648346147,0.0604849909706927,6.0,NB
2025-05-06 16:32:47.649,-0.052458130368239,0.0144382435190206,-0.038019790931746,0.0594590795271623,6.0,NB
2025-05-06 16:32:47.651,-0.0524582166093834,0.012960957101618,-0.0394971641944846,0.0580131063862785,6.0,NB
2025-05-06 16:32:47.653,-0.0539042270261916,0.0121465006252939,-0.0417576317354769,0.0564621277999111,6.0,NB
2025-05-06 16:32:47.655,-0.0561376325427367,0.012127884521884,-0.0440096540110475,0.0549800418774858,6.0,NB
2025-05-06 16:32:47.657,-0.0586960668266534,0.012754555825502,-0.0459414176132618,0.0535940076065667,6.0,NB
2025-05-06 16:32:47.659,-0.0611060995416239,0.0135352696400183,-0.0475707370760655,0.0523109142924149,6.0,NB
2025-05-06 16:32:47.661,-0.0626952006349663,0.0137683565834692,-0.0489267517319479,0.0512697421101314,6.0,NB
2025-05-06 16:32:47.663,-0.062703448177068,0.0128360075483866,-0.0498673487898588,0.050783119014809,6.0,NB
2025-05-06 16:32:47.665,-0.0607082079436273,0.0105277962131659,-0.0501803203906122,0.051202598329208,6.0,NB
2025-05-06 16:32:47.667,-0.0570849742279726,0.0072144943115879,-0.0498703891276284,0.0526968485738083,6.0,NB
2025-05-06 16:32:47.669,-0.0531425993064907,0.0037414924584435,-0.0494010166692793,0.0551031666575069,6.0,NB
2025-05-06 16:32:47.671,-0.0507508681378148,0.0010569518465184,-0.0496938267572223,0.0579316508657881,6.0,NB
2025-05-06 16:32:47.673,-0.0515852908951031,-0.0002368446706034,-0.051822046667768,0.0604917234529722,6.0,NB
2025-05-06 16:32:47.675,-0.0563381928857499,-0.0001548504899832,-0.0564929550648414,0.0620777466024069,6.0,NB
2025-05-06 16:32:47.677,-0.0642761251347154,0.0007250411757092,-0.0635509961690003,0.0621631034324672,6.0,NB
2025-05-06 16:32:47.679,-0.0733800293304818,0.001597499930222,-0.0717824420804082,0.0605565736141897,6.0,NB
2025-05-06 16:32:47.681,-0.0810472517974638,0.0018562615478745,-0.0791909033896714,0.0574786954139107,6.0,NB
2025-05-06 16:32:47.683,-0.0850586770832408,0.0013881361100262,-0.0836704546082781,0.0535398482447914,6.0,NB
2025-05-06 16:32:47.685,-0.0843737209906684,0.0005845002358042,-0.0837891349469525,0.0496340526285849,6.0,NB
2025-05-06 16:32:47.686,-0.0794132620933453,6.858874183324616e-05,-0.0793445881573767,0.0467648328925489,6.0,NB
2025-05-06 16:32:47.688,-0.0717595206003183,0.0002980325327603,-0.0714614035086442,0.0457910445497165,6.0,NB
2025-05-06 16:32:47.690,-0.0634710303238443,0.0012768916600967,-0.0621940547137988,0.0471071087324574,6.0,NB
2025-05-06 16:32:47.692,-0.0563525032687258,0.0025374248552617,-0.0538149950102908,0.0503943470464644,6.0,NB
2025-05-06 16:32:47.694,-0.0515025251513967,0.0033841844904619,-0.0481182577366402,0.0546526489456696,6.0,NB
2025-05-06 16:32:47.696,-0.0493037551213781,0.0032563323812358,-0.0460473402546084,0.0585856928566618,6.0,NB
2025-05-06 16:32:47.698,-0.0497633164141785,0.002027065096304,-0.0477361692784619,0.0611550981884699,6.0,NB
2025-05-06 16:32:47.700,-0.0528765831020568,9.996260508731172e-05,-0.0527765389542291,0.0619838169301793,6.0,NB
2025-05-06 16:32:47.702,-0.0586602279226012,-0.0017562438753689,-0.0604163908192884,0.0613875126862469,6.0,NB
2025-05-06 16:32:47.704,-0.0667635264269664,-0.0027777405164392,-0.0695411865777916,0.0600513101024877,6.0,NB
2025-05-06 16:32:47.706,-0.0759614281557674,-0.0026039783196198,-0.0785653267272677,0.0585924029746657,6.0,NB
2025-05-06 16:32:47.708,-0.0840344709938195,-0.0014849254168982,-0.0855193172361861,0.0573147792369727,6.0,NB
2025-05-06 16:32:47.710,-0.0883429691465287,-0.0001675111935785,-0.0885104016677443,0.0562853012745364,6.0,NB
2025-05-06 16:32:47.712,-0.0869343764952964,0.0004900660431461,-0.0864442322180145,0.0555589475165673,6.0,NB
2025-05-06 16:32:47.714,-0.0796202588867317,-3.06748443970363e-05,-0.0796508559101972,0.0552662065738853,6.0,NB
2025-05-06 16:32:47.716,-0.0683788274386415,-0.0016395758162326,-0.070018325872884,0.0554819628579142,6.0,NB
2025-05-06 16:32:47.718,-0.0567439568321665,-0.0036930627156059,-0.0604369426672982,0.0560635790081405,6.0,NB
2025-05-06 16:32:47.720,-0.0483977981762016,-0.0053318569145367,-0.053729578778435,0.0566659887251244,6.0,NB
2025-05-06 16:32:47.722,-0.0456650029048964,-0.0059107550854869,-0.0515756822819716,0.0569343991001316,6.0,NB
2025-05-06 16:32:47.724,-0.0486844265535291,-0.0052892421484539,-0.0539735935827908,0.0566971915089877,6.0,NB
2025-05-06 16:32:47.726,-0.0556476726571095,-0.0038342850633906,-0.0594818831315283,0.0560096417903006,6.0,NB
2025-05-06 16:32:47.727,-0.0638789592054492,-0.0021615876475528,-0.0660404727195196,0.0550703435662313,6.0,NB
2025-05-06 16:32:47.729,-0.0710618240089658,-0.0008065609669445,-0.0718683112440948,0.0541262469108322,6.0,NB
2025-05-06 16:32:47.731,-0.0759081143682005,-3.943265096390978e-05,-0.0759474736821733,0.0533993049493777,6.0,NB
2025-05-06 16:32:47.733,-0.0780323655072495,0.0001078150290847,-0.0779244775783725,0.0529790875552154,6.0,NB
2025-05-06 16:32:47.735,-0.0773903231479935,-0.0002796852914689,-0.0776699360457176,0.0527036473354821,6.0,NB
2025-05-06 16:32:47.737,-0.0739112820176037,-0.0010467920505937,-0.0749580022396673,0.0521810322286118,6.0,NB
2025-05-06 16:32:47.739,-0.0677046411767905,-0.0018974978161298,-0.0696020677479013,0.0510607467433107,6.0,NB
2025-05-06 16:32:47.741,-0.0596432445557315,-0.0023246858831906,-0.0619678597444362,0.0494306005800303,6.0,NB
2025-05-06 16:32:47.743,-0.0516740943538061,-0.0016898939554251,-0.0533639180966153,0.048003182279943,6.0,NB
2025-05-06 16:32:47.745,-0.0462953624433319,0.0005256708331959,-0.045769621808606,0.0478197434148144,6.0,NB
2025-05-06 16:32:47.747,-0.0452785572460042,0.0044338914115142,-0.0408445964055722,0.0495760673187603,6.0,NB
2025-05-06 16:32:47.749,-0.0484183603264718,0.0095969345996686,-0.0388213566821886,0.0530563873174723,6.0,NB
2025-05-06 16:32:47.751,-0.0532586895395511,0.0151249051807615,-0.0381337157526995,0.0571454869843047,6.0,NB
2025-05-06 16:32:47.753,-0.0561881344381065,0.0199696746759072,-0.0362183916623464,0.0604401481419124,6.0,NB
2025-05-06 16:32:47.755,-0.0543958639990571,0.0232612026392689,-0.0311345938118218,0.0620143643785688,6.0,NB
2025-05-06 16:32:47.757,-0.0475493154114073,0.0245223170217847,-0.0230269313930891,0.0618281168886993,6.0,NB
2025-05-06 16:32:47.759,-0.0381389362585387,0.0237045279409605,-0.0144343418253907,0.0605992835644451,6.0,NB
2025-05-06 16:32:47.761,-0.0302208320078908,0.0211256495615824,-0.0090951163876812,0.0593337020521104,6.0,NB
2025-05-06 16:32:47.763,-0.0272722769165974,0.0174210074394315,-0.0098512037921162,0.058841191724453,6.0,NB
2025-05-06 16:32:47.765,-0.0303841113946633,0.013514722641145,-0.0168693234213831,0.0594502074240948,6.0,NB
2025-05-06 16:32:47.767,-0.0377401346859068,0.0105117863538883,-0.0272282833797432,0.0609585000566212,6.0,NB
2025-05-06 16:32:47.769,-0.0455486710299742,0.009441642504452,-0.0361069640119251,0.0627651755987266,6.0,NB
2025-05-06 16:32:47.770,-0.0498253499466752,0.0109240126372885,-0.0389012732937663,0.0641101101179207,6.0,NB
2025-05-06 16:32:47.772,-0.048069887135869,0.0149351570563295,-0.0331346665906951,0.0643444145470691,6.0,NB
2025-05-06 16:32:47.774,-0.0400674072901288,0.0208206715253277,-0.0192466727859761,0.0631539694511904,6.0,NB
2025-05-06 16:32:47.776,-0.0276312250913807,0.027546548924381,-8.461364390729628e-05,0.0606571532898578,6.0,NB
2025-05-06 16:32:47.778,-0.0136756207880878,0.0340263735854278,0.0203508149299934,0.0573218729589475,6.0,NB
2025-05-06 16:32:47.780,-0.0011768340948037,0.0393354845723614,0.0381587122647767,0.0537334017614711,6.0,NB
2025-05-06 16:32:47.782,0.0076314068800508,0.0427478217801267,0.0503792901063455,0.0503610686737776,6.0,NB
2025-05-06 16:32:47.784,0.0117337805553107,0.0437055795395287,0.0554394211641536,0.0474867589012709,6.0,NB
2025-05-06 16:32:47.786,0.0114686588282755,0.0418935396175178,0.0533622590826158,0.0453041396754077,6.0,NB
2025-05-06 16:32:47.788,0.0083102770215272,0.0374614137459714,0.0457717509258733,0.04402968608165,6.0,NB
2025-05-06 16:32:47.790,0.0043407998849659,0.031231707011779,0.0355725665641328,0.0438748288596753,6.0,NB
2025-05-06 16:32:47.792,0.0015510702688846,0.024652575213963,0.0262037046865329,0.0448793088954136,6.0,NB
2025-05-06 16:32:47.794,0.0011589752890881,0.0193858623638617,0.0205448964465934,0.0467355697368034,6.0,NB
2025-05-06 16:32:47.796,0.0031289747788132,0.0166575124802838,0.0197865456968443,0.0487594462619483,6.0,NB
2025-05-06 16:32:47.798,0.0060580336219103,0.0166782955501262,0.0227363872834447,0.0500978976486594,6.0,NB
2025-05-06 16:32:47.800,0.0075527221967389,0.0184557247753966,0.0260085047502119,0.0501293001144863,6.0,NB
2025-05-06 16:32:47.802,0.0050977619188522,0.0201460308600624,0.025243850186553,0.0488335865284446,6.0,NB
2025-05-06 16:32:47.804,-0.0028110568022307,0.0198320214562075,0.0170210216447839,0.0468330408437958,6.0,NB
2025-05-06 16:32:47.806,-0.0157389301280164,0.0164035230470201,0.0006646494616381,0.0450026092576643,6.0,NB
2025-05-06 16:32:47.808,-0.0311404947501005,0.0101451389875457,-0.0209952996685729,0.0439208040458481,6.0,NB
2025-05-06 16:32:47.810,-0.0452525190014043,0.0027151959367495,-0.0425372673888998,0.0436051041904868,6.0,NB
2025-05-06 16:32:47.811,-0.0547972370953575,-0.0035591570158049,-0.0583563388071746,0.0437290736248389,6.0,NB
2025-05-06 16:32:47.813,-0.0586556954384975,-0.0067879362254402,-0.0654435766909599,0.0440694525412471,6.0,NB
2025-05-06 16:32:47.815,-0.0585072785362431,-0.0064624290400276,-0.0649696529169589,0.0447178779809462,6.0,NB
2025-05-06 16:32:47.817,-0.0579374743511052,-0.0037046473937667,-0.0616420674107218,0.0458330665607289,6.0,NB
2025-05-06 16:32:47.819,-0.0604370601122584,-0.0006646932250017,-0.0611016993599546,0.0471771319031739,6.0,NB
2025-05-06 16:32:47.821,-0.0674270005500514,0.0006018942468714,-0.0668250527169442,0.047912868993607,6.0,NB
2025-05-06 16:32:47.823,-0.0774460512576002,-0.0008393293602997,-0.0782853274418865,0.0469252078919162,6.0,NB
2025-05-06 16:32:47.825,-0.0869360070285254,-0.0043988653009585,-0.0913348195585158,0.0434940987022316,6.0,NB
2025-05-06 16:32:47.827,-0.0921147495910517,-0.00834143811507,-0.1004561353135008,0.0378651080283816,6.0,NB
2025-05-06 16:32:47.829,-0.0908456489982566,-0.010700867058485,-0.1015464640068358,0.0313298693985223,6.0,NB
2025-05-06 16:32:47.831,-0.0835500733048684,-0.010261625216507,-0.0938116467853087,0.025741669731578,6.0,NB
2025-05-06 16:32:47.833,-0.0728985145033616,-0.0071450008447257,-0.0800434639150127,0.0227038294279309,6.0,NB
2025-05-06 16:32:47.835,-0.0626909814187672,-0.0027394086165837,-0.0654303389145395,0.0228257301097444,6.0,NB
2025-05-06 16:32:47.837,-0.0565540128986274,0.0009744966941565,-0.0555794654181385,0.0254200405706673,6.0,NB
2025-05-06 16:32:47.839,-0.0568914285370479,0.0023732504002065,-0.0545181277078617,0.0288122577088985,6.0,NB
2025-05-06 16:32:47.841,-0.0642832512369775,0.0009697221080688,-0.0633134790694175,0.031115294309473,6.0,NB
2025-05-06 16:32:47.843,-0.0774100739009961,-0.002346038090308,-0.0797560622971239,0.0310749403879229,6.0,NB
2025-05-06 16:32:47.845,-0.0934914419750719,-0.0057521357033862,-0.0992435283311241,0.028575227964911,6.0,NB
2025-05-06 16:32:47.847,-0.1090967130782443,-0.007458032901552,-0.1165546969544566,0.0246040346169782,6.0,NB
2025-05-06 16:32:47.849,-0.1210823537190314,-0.0067124949073154,-0.127794799901529,0.0207731556055894,6.0,NB
2025-05-06 16:32:47.851,-0.127376435124582,-0.004286648662613,-0.1316630353521864,0.0186599258734026,6.0,NB
2025-05-06 16:32:47.852,-0.1273779005531871,-0.002104205479495,-0.1294820578898162,0.0192063089289027,6.0,NB
2025-05-06 16:32:47.854,-0.121895397922608,-0.0021708166903859,-0.1240661667745215,0.0223181180704437,6.0,NB
2025-05-06 16:32:47.856,-0.1127594338526777,-0.0053827563250425,-0.1181421426590708,0.0267973136246431,6.0,NB
2025-05-06 16:32:47.858,-0.1023298691386242,-0.0109003011924221,-0.1132301231433948,0.0307267856949638,6.0,NB
2025-05-06 16:32:47.860,-0.0930237297923492,-0.0164809914928565,-0.1095046744301629,0.0322537390425578,6.0,NB
2025-05-06 16:32:47.862,-0.0868607713464939,-0.0196342222497572,-0.1064949470644588,0.030443528063304,6.0,NB
2025-05-06 16:32:47.864,-0.0850392120652833,-0.0189737158578172,-0.1040128816970324,0.0257435718338581,6.0,NB
2025-05-06 16:32:47.866,-0.0876719446508164,-0.0150024371192095,-0.1026743358298472,0.0197782072437242,6.0,NB
2025-05-06 16:32:47.868,-0.0938339794656521,-0.0098759855059684,-0.1037099193019388,0.0145885988986257,6.0,NB
2025-05-06 16:32:47.870,-0.101908247474641,-0.0062738589579199,-0.1081820610275547,0.0117271388858564,6.0,NB
2025-05-06 16:32:47.872,-0.1100346618615586,-0.0059997744252705,-0.1160343911517189,0.0116231539634714,6.0,NB
2025-05-06 16:32:47.874,-0.1164774436894072,-0.0090501793799309,-0.1255275782174096,0.0134576198923814,6.0,NB
2025-05-06 16:32:47.876,-0.1198933643622335,-0.0136162186997792,-0.1335095385080947,0.0155851378046961,6.0,NB
2025-05-06 16:32:47.878,-0.1195767357374178,-0.0170135395091275,-0.1365902309994061,0.0163396313832106,6.0,NB
2025-05-06 16:32:47.880,-0.1156786110302909,-0.0170941199420094,-0.1327726870291634,0.0148542912627832,6.0,NB
2025-05-06 16:32:47.882,-0.1092860406073534,-0.0134557371965297,-0.1227417341496819,0.0114741359392395,6.0,NB
2025-05-06 16:32:47.884,-0.1022277905946474,-0.0078442480323832,-0.1100719952391612,0.0075887323274648,6.0,NB
2025-05-06 16:32:47.886,-0.0965290829291954,-0.0035432948811512,-0.1000723346672211,0.0050807041156425,6.0,NB
2025-05-06 16:32:47.888,-0.0935601837588428,-0.0040682473707327,-0.0976283882193161,0.0057202681656301,6.0,NB
2025-05-06 16:32:47.890,-0.0931521329227108,-0.0118131855445789,-0.1049652757924778,0.0107073131883521,6.0,NB
2025-05-06 16:32:47.892,-0.093181511668189,-0.0272489845525862,-0.1204304537966818,0.0204252318651128,6.0,NB
2025-05-06 16:32:47.893,-0.090064687186015,-0.0489103581199097,-0.1389750031525884,0.0344259795750638,6.0,NB
2025-05-06 16:32:47.895,-0.080108147487161,-0.0739927512948327,-0.1541008569135416,0.0516435155869858,6.0,NB
2025-05-06 16:32:47.897,-0.0610292336913693,-0.0991439287649042,-0.1601731208724906,0.0708126353064414,6.0,NB
2025-05-06 16:32:47.899,-0.0327218562582673,-0.1210757001567941,-0.1537975150994532,0.0910334282039835,6.0,NB
2025-05-06 16:32:47.901,0.0032366171703835,-0.1368618480337459,-0.1336251897890248,0.1123093767716214,6.0,NB
2025-05-06 16:32:47.903,0.0450189350459737,-0.1440388954089119,-0.099019919503758,0.1357590335543018,6.0,NB
2025-05-06 16:32:47.905,0.0919745053432043,-0.1407285349715077,-0.0487539889702405,0.1632385754443702,6.0,NB
2025-05-06 16:32:47.907,0.145132278173677,-0.1259164168704969,0.0192159017562715,0.1963755003146372,6.0,NB
2025-05-06 16:32:47.909,0.2065355305578722,-0.0997946946990911,0.1067408760878694,0.2353230837886531,6.0,NB
2025-05-06 16:32:47.911,0.2779722091325993,-0.0638364629207299,0.2141357861929592,0.277694688467223,6.0,NB
2025-05-06 16:32:47.913,0.3599666027297267,-0.0202467278712079,0.3397199145755622,0.3181312321380713,6.0,NB
2025-05-06 16:32:47.915,0.4514044618374923,0.0292474499782246,0.4806519512699203,0.3488719554396167,6.0,NB
2025-05-06 16:32:47.917,0.5492828340484803,0.0847785868012448,0.6340614600605621,0.3614214429118573,6.0,NB
2025-05-06 16:32:47.919,0.6477552743308965,0.1489609554699998,0.7967162687981532,0.3488426631605178,6.0,NB
2025-05-06 16:32:47.921,0.7365192794353611,0.2258203175056844,0.962339635751677,0.3077162373397323,6.0,NB
2025-05-06 16:32:47.923,0.8000991046699979,0.3178309317052632,1.117930075011493,0.2389242488740553,6.0,NB
2025-05-06 16:32:47.925,0.8201428029581255,0.4222150649368693,1.2423579063495842,0.1471107862460181,6.0,NB
2025-05-06 16:32:47.927,0.7813238830858203,0.5288759616141323,1.3101998829510022,0.0393245528384366,6.0,NB
2025-05-06 16:32:47.929,0.6785047934740515,0.6222265914109785,1.3007314229080056,-0.0764770771997128,6.0,NB
2025-05-06 16:32:47.931,0.5209536653961422,0.6870317415817006,1.207985444758851,-0.1925704507810787,6.0,NB
2025-05-06 16:32:47.933,0.3306968390710004,0.7152148463767931,1.0459117229915496,-0.3020418008908517,6.0,NB
2025-05-06 16:32:47.935,0.1357480191710364,0.7091136082003247,0.8448616646999543,-0.3988718668273159,6.0,NB
2025-05-06 16:32:47.936,-0.0381576501567032,0.6788254787872573,0.6406678657737422,-0.4778515379686555,6.0,NB
2025-05-06 16:32:47.938,-0.1736564161229099,0.6356019940952351,0.4619456149542935,-0.5347291962171721,6.0,NB
2025-05-06 16:32:47.940,-0.2640189674624957,0.5859752477658042,0.3219563171324845,-0.5667904413600932,6.0,NB
2025-05-06 16:32:47.942,-0.3119962892184212,0.5302805444287118,0.2182842918771213,-0.5736392453120001,6.0,NB
2025-05-06 16:32:47.944,-0.3266949386089806,0.4657660006807597,0.1390710985552971,-0.5575994618358391,6.0,NB
2025-05-06 16:32:47.946,-0.3199582231559734,0.391433915810927,0.0714757289346126,-0.5232784062685268,6.0,NB
2025-05-06 16:32:47.948,-0.30321548767791,0.3110688610697601,0.0078534094586685,-0.476391654589715,6.0,NB
2025-05-06 16:32:47.950,-0.2851925057876213,0.2326202758668838,-0.052572194059092,-0.4224343790712974,6.0,NB
2025-05-06 16:32:47.952,-0.2706025295421451,0.1647674176559069,-0.1058350762085963,-0.3658168450253268,6.0,NB
2025-05-06 16:32:47.954,-0.2599541364693331,0.1131889622649827,-0.1467651386854818,-0.3097176036356961,6.0,NB
2025-05-06 16:32:47.956,-0.2505587474217243,0.0787793510438608,-0.1717793609993269,-0.2564400841209477,6.0,NB
2025-05-06 16:32:47.958,-0.2384420321751569,0.0583903201849402,-0.1800516767473387,-0.2078049027145639,6.0,NB
2025-05-06 16:32:47.960,-0.2204065872394977,0.0470866997025813,-0.1733198524388327,-0.165236133709049,6.0,NB
2025-05-06 16:32:47.962,-0.1954426836797095,0.0403764517263214,-0.1550661970166153,-0.1295432888272098,6.0,NB
2025-05-06 16:32:47.964,-0.1651313023067231,0.0353711875591486,-0.1297600799866208,-0.1006538563165187,6.0,NB
2025-05-06 16:32:47.966,-0.1331819221265139,0.0307215559924938,-0.1024603315536501,-0.0775871110272721,6.0,NB
2025-05-06 16:32:47.968,-0.1043892222490347,0.0258526493455403,-0.0785365384960878,-0.0588146305028915,6.0,NB
2025-05-06 16:32:47.970,-0.0832200589938406,0.0202423867273859,-0.0629776380152111,-0.042892309900197,6.0,NB
2025-05-06 16:32:47.972,-0.0723318783756505,0.0132692350661531,-0.0590626091954804,-0.0290244602494675,6.0,NB
2025-05-06 16:32:47.974,-0.0715564574166256,0.0046600732447146,-0.0668963501813852,-0.0172313753908235,6.0,NB
2025-05-06 16:32:47.976,-0.0778810631875524,-0.0049303736209417,-0.0828114029372677,-0.0080501914067249,6.0,NB
2025-05-06 16:32:47.977,-0.0865554627240771,-0.0138268987713504,-0.1003823277486339,-0.0019934277132398,6.0,NB
2025-05-06 16:32:47.979,-0.0928956890006581,-0.0199992565022115,-0.112894911890808,0.0008920278681751,6.0,NB
2025-05-06 16:32:47.981,-0.0940000263578594,-0.022172733359141,-0.1161727262492623,0.0011379145475131,6.0,NB
2025-05-06 16:32:47.983,-0.0896251520198223,-0.0207005137675927,-0.1103256324679325,-0.0003442632878552,6.0,NB
2025-05-06 16:32:47.985,-0.0818712461803123,-0.0176140169166739,-0.0994852299218798,-0.0025740696301584,6.0,NB
2025-05-06 16:32:47.987,-0.0739030141259359,-0.0157450091972224,-0.0896479902818729,-0.0047176641051542,6.0,NB
2025-05-06 16:32:47.989,-0.0683865577487245,-0.0173568972053394,-0.0857434220329557,-0.0061356025417554,6.0,NB
2025-05-06 16:32:47.991,-0.0663993591650774,-0.0230135460898899,-0.0894128724417389,-0.0063423407425529,6.0,NB
2025-05-06 16:32:47.993,-0.0672463982969406,-0.0312923139347624,-0.0985386795190191,-0.0049998208583926,6.0,NB
2025-05-06 16:32:47.995,-0.0690976390628028,-0.0394925591221801,-0.1085901655720843,-0.0019898028783657,6.0,NB
2025-05-06 16:32:47.997,-0.0699553086661543,-0.0449687578281844,-0.1149240339862263,0.0024724633990863,6.0,NB
2025-05-06 16:32:47.999,-0.0684016399550522,-0.0464098305232961,-0.1148114380828775,0.0077517093109563,6.0,NB
2025-05-06 16:32:48.001,-0.0638838118817459,-0.0444273961081989,-0.1083111757138161,0.01283756732779,6.0,NB
2025-05-06 16:32:48.003,-0.056685710982603,-0.0411602191233923,-0.0978458979510174,0.0166249095076391,6.0,NB
2025-05-06 16:32:48.005,-0.0478490586626381,-0.0390927890875395,-0.0869418157112115,0.0183785207214802,6.0,NB
2025-05-06 16:32:48.007,-0.0390707435218391,-0.0397117094720505,-0.0787824210594426,0.0181154668333822,6.0,NB
2025-05-06 16:32:48.009,-0.032361690530238,-0.042750541965742,-0.0751122006515195,0.0166310948421961,6.0,NB
2025-05-06 16:32:48.011,-0.0293630863238391,-0.0464620553533151,-0.0758251099100812,0.015144403392064,6.0,NB
2025-05-06 16:32:48.013,-0.0305981610054122,-0.0487411108052976,-0.0793392401150207,0.0147824220769788,6.0,NB
2025-05-06 16:32:48.015,-0.0351556545225877,-0.0483996627684318,-0.0835552856694966,0.016142683610724,6.0,NB
2025-05-06 16:32:48.017,-0.041076931601704,-0.0458330069284508,-0.0869099069927377,0.0190542388728017,6.0,NB
2025-05-06 16:32:48.018,-0.0462372764969086,-0.0427405637363914,-0.0889778087919116,0.0226059995900004,6.0,NB
2025-05-06 16:32:48.020,-0.0491949577814884,-0.0411499814326528,-0.0903449078760156,0.0255091458929616,6.0,NB
2025-05-06 16:32:48.022,-0.049565694838541,-0.0423429516265215,-0.0919086152276518,0.0267167491041702,6.0,NB
2025-05-06 16:32:48.024,-0.0478479543685911,-0.0462339018416143,-0.0940818250603596,0.0259730299022331,6.0,NB
2025-05-06 16:32:48.026,-0.0449630291810734,-0.051445785444878,-0.0964087835442496,0.0239249927573499,6.0,NB
2025-05-06 16:32:48.028,-0.0418466634517519,-0.0559941743591971,-0.0978408067795525,0.0217319813663356,6.0,NB
2025-05-06 16:32:48.030,-0.0392453503632795,-0.0582552969658446,-0.0975006163395453,0.0204546980227465,6.0,NB
2025-05-06 16:32:48.032,-0.0376399934806933,-0.0577747259071468,-0.0954146884446889,0.0205764716200545,6.0,NB
2025-05-06 16:32:48.034,-0.0371440485867352,-0.0555064124179675,-0.0926504301231514,0.0218557103967197,6.0,NB
2025-05-06 16:32:48.036,-0.0373282134451279,-0.0533121161759215,-0.090640298818777,0.0235342509114334,6.0,NB
2025-05-06 16:32:48.038,-0.0370883094797817,-0.0529461705467319,-0.0900344493138089,0.024779081453228,6.0,NB
2025-05-06 16:32:48.040,-0.0347697400349142,-0.0550773880441263,-0.0898470974519917,0.0251071560587888,6.0,NB
2025-05-06 16:32:48.042,-0.0287110882888955,-0.0589121628568628,-0.0876232205862423,0.0245479546324199,6.0,NB
2025-05-06 16:32:48.044,-0.0181327778422271,-0.0626399425227917,-0.0807726898479465,0.0235064765791202,6.0,NB
2025-05-06 16:32:48.046,-0.0039633024808552,-0.0644421543780545,-0.0684054263634532,0.0225145901695307,6.0,NB
2025-05-06 16:32:48.048,0.0109721901859496,-0.0634898739131956,-0.052517653246501,0.0220562806764768,6.0,NB
2025-05-06 16:32:48.050,0.0227511840626247,-0.0603828631519752,-0.0376316486333705,0.0224674935485625,6.0,NB
2025-05-06 16:32:48.052,0.0279397847806642,-0.056816934749533,-0.0288771195591641,0.0238105658762468,6.0,NB
2025-05-06 16:32:48.054,0.0252251064724433,-0.0546959705154812,-0.0294708337009683,0.0257337237484994,6.0,NB
2025-05-06 16:32:48.056,0.0161973692897362,-0.055184609553431,-0.0389872099984736,0.0274888726998057,6.0,NB
2025-05-06 16:32:48.058,0.0047715596145314,-0.0581937243966987,-0.0534221345846525,0.0282462065408995,6.0,NB
2025-05-06 16:32:48.059,-0.0045210661661119,-0.0625282848853729,-0.0670493208971858,0.0275837010790871,6.0,NB
2025-05-06 16:32:48.061,-0.0085025743304228,-0.0665626673704423,-0.0750652115609351,0.0258073277066927,6.0,NB
2025-05-06 16:32:48.063,-0.0065735189043681,-0.0690498657163313,-0.0756233544754974,0.0238341537220303,6.0,NB
2025-05-06 16:32:48.065,-0.0006175490685431,-0.0696505552768669,-0.0702680741937003,0.0226978317245085,6.0,NB
2025-05-06 16:32:48.067,0.0062639944201817,-0.0689621323194966,-0.0626981077582364,0.0230065420941837,6.0,NB
2025-05-06 16:32:48.069,0.0114250979561869,-0.068098740630369,-0.0566736125697777,0.0246680190497598,6.0,NB
2025-05-06 16:32:48.071,0.013847926476969,-0.068076660084638,-0.05422870356066,0.0269760736499494,6.0,NB
2025-05-06 16:32:48.073,0.0143045238397703,-0.0693212592297958,-0.0550167054040841,0.0289503905529449,6.0,NB
2025-05-06 16:32:48.075,0.0146355403934651,-0.0715280753613253,-0.0568925050264759,0.0297326186446367,6.0,NB
2025-05-06 16:32:48.077,0.0167036765250288,-0.0739194062343822,-0.0572156997830357,0.0288621141193548,6.0,NB
2025-05-06 16:32:48.079,0.0215725016020151,-0.0757219168729997,-0.0541493853312114,0.0263696393761304,6.0,NB
2025-05-06 16:32:48.081,0.0291611196841048,-0.0765759678398296,-0.0474148181885091,0.0227480372614638,6.0,NB
2025-05-06 16:32:48.083,0.0383509079403146,-0.0766632162915237,-0.0383122783632825,0.0188532748619814,6.0,NB
2025-05-06 16:32:48.085,0.0474359963615612,-0.0765465634934962,-0.0291105371463154,0.0156825495004887,6.0,NB
2025-05-06 16:32:48.087,0.0548000224562933,-0.0768750810855361,-0.0220750286724352,0.0139797630925419,6.0,NB
2025-05-06 16:32:48.089,0.0596152185193797,-0.0781103256494341,-0.0184950772174715,0.0138274794038209,6.0,NB
2025-05-06 16:32:48.091,0.0622590200588299,-0.0803551301131499,-0.018096080181436,0.014550189049488,6.0,NB
2025-05-06 16:32:48.093,0.0642014364566744,-0.0833260360383647,-0.0191245697254703,0.0150854204952322,6.0,NB
2025-05-06 16:32:48.095,0.0673549401225258,-0.0864951251468928,-0.0191401551541855,0.0145990140574807,6.0,NB
2025-05-06 16:32:48.097,0.0731484237631127,-0.0893591344015058,-0.0162106807307534,0.0129278000386243,6.0,NB
2025-05-06 16:32:48.099,0.0817448831707987,-0.0916939037562252,-0.0099489906348673,0.0105838846047198,6.0,NB
2025-05-06 16:32:48.101,0.0918036463242956,-0.0936355236506426,-0.0018318473469649,0.0083643790903189,6.0,NB
2025-05-06 16:32:48.102,0.1009711223740679,-0.0955439298533166,0.0054272225038195,0.0068493478426448,6.0,NB
2025-05-06 16:32:48.104,0.1069342599128976,-0.0977569546031179,0.0091773352743737,0.0061168397222004,6.0,NB
2025-05-06 16:32:48.106,0.1085653555023552,-0.1004001313495381,0.0081652540919594,0.0058304461633405,6.0,NB
2025-05-06 16:32:48.108,0.1065895340924527,-0.103342850449395,0.0032467135691149,0.0055631165472267,6.0,NB
2025-05-06 16:32:48.110,0.103372744937251,-0.1062739418889462,-0.0029011670128445,0.0050365566425581,6.0,NB
2025-05-06 16:32:48.112,0.1018392792248274,-0.1088215425020285,-0.0069822332987344,0.0040739750436024,6.0,NB
2025-05-06 16:32:48.114,0.1040462476991093,-0.1106713817921792,-0.0066251040598827,0.0024011247871712,6.0,NB
2025-05-06 16:32:48.116,0.1102336874740542,-0.1116639451211437,-0.0014302275620567,-0.0003914883986921,6.0,NB
2025-05-06 16:32:48.118,0.1189173264546537,-0.1118390608182931,0.0070782957555104,-0.0046141567218026,6.0,NB
2025-05-06 16:32:48.120,0.1279000928541572,-0.1113967445369121,0.0165033784484899,-0.0101790568275903,6.0,NB
2025-05-06 16:32:48.122,0.1354879275482389,-0.1105900805820323,0.0248978770955182,-0.016512163029939,6.0,NB
2025-05-06 16:32:48.124,0.1411763410533346,-0.1096198845469397,0.0315564866353961,-0.0227556095202588,6.0,NB
2025-05-06 16:32:48.126,0.1455746659520115,-0.1086065845092271,0.0369681115880804,-0.0281123524856261,6.0,NB
2025-05-06 16:32:48.128,0.1498736462733019,-0.1076580255687642,0.0422156508894793,-0.0321047018113986,6.0,NB
2025-05-06 16:32:48.130,0.1553066136605101,-0.1069646343820104,0.0483420095219886,-0.0346269546647184,6.0,NB
2025-05-06 16:32:48.132,0.1627985688974878,-0.1068056421419137,0.0559929570637866,-0.0358582481169956,6.0,NB
2025-05-06 16:32:48.134,0.1727116961378963,-0.1074083501616656,0.065303376341298,-0.0361808937821063,6.0,NB
2025-05-06 16:32:48.136,0.1845976430458753,-0.1087415908190943,0.0758560826326381,-0.0361661955533908,6.0,NB
2025-05-06 16:32:48.138,0.1970749116959538,-0.1104129610192653,0.0866619811086134,-0.0365567717392475,6.0,NB
2025-05-06 16:32:48.140,0.2080481800978299,-0.1117786976491473,0.0962695129014006,-0.0381186133803729,6.0,NB
2025-05-06 16:32:48.142,0.2153364469217731,-0.1122208962718341,0.1031155811302979,-0.0413132877658291,6.0,NB
2025-05-06 16:32:48.143,0.2175139823168856,-0.1114306743650351,0.1060833384751824,-0.0459266442790923,6.0,NB
2025-05-06 16:32:48.145,0.2145904327674221,-0.1095271309622704,0.1050633323877554,-0.0509439187678223,6.0,NB
2025-05-06 16:32:48.147,0.2081804388925802,-0.1069364431706206,0.1012440263738939,-0.054895015244963,6.0,NB
2025-05-06 16:32:48.149,0.201049450501712,-0.1041096496942328,0.0969398315292684,-0.0565855414273999,6.0,NB
2025-05-06 16:32:48.151,0.1962296830192375,-0.1012751087428199,0.0949546050608736,-0.0557989320463977,6.0,NB
2025-05-06 16:32:48.153,0.1960433990632852,-0.0983927521666148,0.0976506777342699,-0.053489724301874,6.0,NB
2025-05-06 16:32:48.155,0.2012917130339362,-0.0953082729942185,0.1059834709243526,-0.0512985993798075,6.0,NB
2025-05-06 16:32:48.157,0.2107778048283567,-0.0919524111729683,0.1188254245875561,-0.0507016564499544,6.0,NB
2025-05-06 16:32:48.159,0.2213720518009241,-0.0884321084839219,0.1329399743032506,-0.0523532044253157,6.0,NB
2025-05-06 16:32:48.161,0.2288162094239355,-0.084980814571871,0.1438354259016254,-0.055979409428413,6.0,NB
2025-05-06 16:32:48.163,0.2291975861444385,-0.0818372300633849,0.147360387201885,-0.0607422938640926,6.0,NB
2025-05-06 16:32:48.165,0.2205981302520091,-0.0791349690511785,0.1414631923971683,-0.0656983178607474,6.0,NB
2025-05-06 16:32:48.167,0.204157101550353,-0.0768451952000413,0.1273119376225898,-0.0700153803569952,6.0,NB
2025-05-06 16:32:48.169,0.1839341770798838,-0.0747822034704597,0.1091520049559559,-0.072915431482481,6.0,NB
2025-05-06 16:32:48.171,0.1654991180147461,-0.0726747873033919,0.0928243621303664,-0.0736108553660499,6.0,NB
2025-05-06 16:32:48.173,0.153793050693562,-0.070291851802068,0.0835012303823123,-0.0715158518401063,6.0,NB
2025-05-06 16:32:48.175,0.1511505239232515,-0.0675689905874394,0.083581564898906,-0.0667009183181485,6.0,NB
2025-05-06 16:32:48.177,0.1563109442576296,-0.064650291483329,0.0916606844107723,-0.060209728842031,6.0,NB
2025-05-06 16:32:48.179,0.1648674964249011,-0.0617917548152505,0.1030757733210036,-0.0538414903859934,6.0,NB
2025-05-06 16:32:48.181,0.1710293143393026,-0.0591715012992245,0.1118578448286128,-0.0493864750017462,6.0,NB
2025-05-06 16:32:48.183,0.1699678644122015,-0.0567415251814244,0.1132263711001893,-0.0477459658141592,6.0,NB
2025-05-06 16:32:48.184,0.1596756978385098,-0.0542408467403633,0.1054348830534824,-0.0484711151895493,6.0,NB
2025-05-06 16:32:48.186,0.141485834387323,-0.0513672448643893,0.0901186215693575,-0.0499802522124655,6.0,NB
2025-05-06 16:32:48.188,0.1191308448650292,-0.0479883342398165,0.0711425427659265,-0.0503299313283791,6.0,NB
2025-05-06 16:32:48.190,0.0969761318168277,-0.044261232043356,0.0527149320079764,-0.0481445747578129,6.0,NB
2025-05-06 16:32:48.192,0.0783563429029182,-0.0405982739285471,0.0377581012984218,-0.043234925862476,6.0,NB
2025-05-06 16:32:48.194,0.0647135806057969,-0.0374903695633074,0.0272232434503084,-0.0366025597051423,6.0,NB
2025-05-06 16:32:48.196,0.0557371708646655,-0.0352624586383767,0.0204747447142408,-0.0298735992651036,6.0,NB
2025-05-06 16:32:48.198,0.0501972304619939,-0.0338892522100469,0.0163080108217631,-0.0245007281462261,6.0,NB
2025-05-06 16:32:48.200,0.0468568029900817,-0.0329967960361179,0.013860039613489,-0.0211436444096045,6.0,NB
2025-05-06 16:32:48.202,0.0449122081259726,-0.0320715932981122,0.0128406475884448,-0.0195052105837922,6.0,NB
2025-05-06 16:32:48.204,0.0438230120030709,-0.0307499757471182,0.0130730691274568,-0.0186526114622993,6.0,NB
2025-05-06 16:32:48.206,0.0428605324281175,-0.0290000036098172,0.0138605618042311,-0.0175967534460937,6.0,NB
2025-05-06 16:32:48.208,0.0408805179404553,-0.0270965108184907,0.0137840402175171,-0.0157936009317491,6.0,NB
2025-05-06 16:32:48.210,0.0365937802638927,-0.0254354895760984,0.0111583238822479,-0.0133317784574002,6.0,NB
2025-05-06 16:32:48.212,0.0291858099153594,-0.0243144464570746,0.0048713967408935,-0.0107739517994452,6.0,NB
2025-05-06 16:32:48.214,0.018873061259172,-0.0237956901698775,-0.0049225955442411,-0.0087913282006463,6.0,NB
2025-05-06 16:32:48.216,0.0070273098535862,-0.0237057591661629,-0.0166784158565709,-0.007807625093029,6.0,NB
2025-05-06 16:32:48.218,-0.0042645741997111,-0.0237412022304581,-0.0280057428705411,-0.0078240436469806,6.0,NB
2025-05-06 16:32:48.220,-0.0130615841312408,-0.0235980738957273,-0.0366596243475029,-0.0084552182889744,6.0,NB
2025-05-06 16:32:48.222,-0.0184667861592774,-0.0230620378458012,-0.0415287901952998,-0.0090865510762595,6.0,NB
2025-05-06 16:32:48.224,-0.0210780659508139,-0.0220568572348193,-0.0431348892461221,-0.0090690683693558,6.0,NB
2025-05-06 16:32:48.225,-0.0226749306487424,-0.0206728799584123,-0.0433477765492751,-0.0079337535044457,6.0,NB
2025-05-06 16:32:48.227,-0.0252424761129153,-0.0191630609161829,-0.0444055028689319,-0.0055949354320875,6.0,NB
2025-05-06 16:32:48.229,-0.0298517846998719,-0.0178678010196847,-0.0477195514689878,-0.002433036628441,6.0,NB
2025-05-06 16:32:48.231,-0.0360474499010313,-0.0170694397610322,-0.0531168553216506,0.0008529318616222,6.0,NB
2025-05-06 16:32:48.233,-0.0421346037518009,-0.016848989841013,-0.058983559150362,0.0035889646478107,6.0,NB
2025-05-06 16:32:48.235,-0.0462280862285477,-0.0170388275086117,-0.0632668791730231,0.0054632129220099,6.0,NB
2025-05-06 16:32:48.237,-0.0474104828935753,-0.0173056206485026,-0.0647160688386586,0.0066274245241783,6.0,NB
2025-05-06 16:32:48.239,-0.046214930082101,-0.0173102461777703,-0.0635251414104141,0.0074884515842716,6.0,NB
2025-05-06 16:32:48.241,-0.0441034909120844,-0.016849513443811,-0.0609529693678696,0.0083483417578471,6.0,NB
2025-05-06 16:32:48.243,-0.0423700101902572,-0.0159140739015189,-0.0582840489828419,0.0091792796443436,6.0,NB
2025-05-06 16:32:48.245,-0.0413281886476733,-0.0146606870130704,-0.0559888404491959,0.0096996194896807,6.0,NB
2025-05-06 16:32:48.247,-0.0403849885004485,-0.0133325837125665,-0.0537175369076016,0.0096318006627547,6.0,NB
2025-05-06 16:32:48.249,-0.038895734764873,-0.0121508979781014,-0.0510465973374763,0.0088706473624126,6.0,NB
2025-05-06 16:32:48.251,-0.0371130790906278,-0.0111971238580787,-0.0483101674242851,0.0074448768805907,6.0,NB
2025-05-06 16:32:48.253,-0.0364672564648888,-0.0103475511559062,-0.0468147719550694,0.005414269946544,6.0,NB
2025-05-06 16:32:48.255,-0.0388711778931756,-0.0093379737035887,-0.0482091157749739,0.0028859124298613,6.0,NB
2025-05-06 16:32:48.257,-0.0454317452598581,-0.0079559319959135,-0.0533876412781633,0.0001341400117463,6.0,NB
2025-05-06 16:32:48.259,-0.055411909177432,-0.0062367102206121,-0.061648583279495,-0.0023558340426393,6.0,NB
2025-05-06 16:32:48.261,-0.066190649542516,-0.0045089878150295,-0.0706996011194728,-0.0040406315349648,6.0,NB
2025-05-06 16:32:48.263,-0.0743522220497911,-0.0032368411626551,-0.0775890268711441,-0.0045943064595855,6.0,NB
2025-05-06 16:32:48.265,-0.0773193453455879,-0.0027511672382981,-0.0800704761413981,-0.0041173242780868,6.0,NB
2025-05-06 16:32:48.267,-0.0746221211031397,-0.0030361846462685,-0.0776582691917951,-0.0031377322327001,6.0,NB
2025-05-06 16:32:48.268,-0.0681566123741925,-0.0036897863877873,-0.0718463620659939,-0.0023872936341958,6.0,NB
2025-05-06 16:32:48.270,-0.06137804553202,-0.0040724068149813,-0.0654504154917401,-0.0024401437433343,6.0,NB
2025-05-06 16:32:48.272,-0.0578641221051505,-0.0035818694504808,-0.0614459545330616,-0.0033952365380935,6.0,NB
2025-05-06 16:32:48.274,-0.0598774680031959,-0.0019473848925126,-0.0618248157144881,-0.0048208028595383,6.0,NB
2025-05-06 16:32:48.276,-0.0675101704130728,0.0006013188724662,-0.066908814221134,-0.0060277090454123,6.0,NB
2025-05-06 16:32:48.278,-0.0787482564500611,0.0034143894902215,-0.0753338295230936,-0.0064734398277148,6.0,NB
2025-05-06 16:32:48.280,-0.0903750370753958,0.0057394027489082,-0.0846355967825319,-0.0060049096820987,6.0,NB
2025-05-06 16:32:48.282,-0.0992436605807664,0.0070909678679682,-0.0921526550550372,-0.0048245843762296,6.0,NB
2025-05-06 16:32:48.284,-0.1033452836737128,0.0074457744140944,-0.0958994714678651,-0.003303142506952,6.0,NB
2025-05-06 16:32:48.286,-0.1022966621676233,0.0071683120197101,-0.0951283121986571,-0.0018290535648937,6.0,NB
2025-05-06 16:32:48.288,-0.0971845071996363,0.0067590280244777,-0.0904254410535844,-0.000761595662985,6.0,NB
2025-05-06 16:32:48.290,-0.0899671349424256,0.0066142648620652,-0.0833528317877288,-0.0004152640497361,6.0,NB
2025-05-06 16:32:48.292,-0.0827544461437406,0.0069314114765022,-0.0758229962197094,-0.0009932569563415,6.0,NB
2025-05-06 16:32:48.294,-0.0772271261772667,0.0077420077397722,-0.0694850798570402,-0.0024743326976946,6.0,NB
2025-05-06 16:32:48.296,-0.0742914380491517,0.0089606698119337,-0.0653307295394926,-0.0045367292828561,6.0,NB
2025-05-06 16:32:48.298,-0.0739565004609163,0.0103876118571135,-0.0635688497894545,-0.0066127775973929,6.0,NB
2025-05-06 16:32:48.300,-0.075420131911138,0.0117121458568056,-0.0637079471083865,-0.0080965059752825,6.0,NB
2025-05-06 16:32:48.302,-0.0773567771797259,0.0125889047754592,-0.0647678333038693,-0.0086127611317336,6.0,NB
2025-05-06 16:32:48.304,-0.0783444156055076,0.0127796968567463,-0.0655646794750923,-0.0081862553177706,6.0,NB
2025-05-06 16:32:48.306,-0.0772962377788692,0.0122750540891209,-0.0650211442376787,-0.0071957181570024,6.0,NB
2025-05-06 16:32:48.308,-0.0737502871996632,0.0113089414709942,-0.0624413061089776,-0.0061390888531415,6.0,NB
2025-05-06 16:32:48.309,-0.0679357845318997,0.0102483634430421,-0.0576873813218459,-0.0053564936135732,6.0,NB
2025-05-06 16:32:48.311,-0.0606446327665706,0.0094228021488946,-0.0512217907216733,-0.0048748510393245,6.0,NB
2025-05-06 16:32:48.313,-0.0530160105358703,0.0089975595869854,-0.0440184109298954,-0.0044675449838247,6.0,NB
2025-05-06 16:32:48.315,-0.0463326115152049,0.0089558515430361,-0.037376719820283,-0.0039030769861793,6.0,NB
2025-05-06 16:32:48.317,-0.0418518087769734,0.0091697412088021,-0.0326820272626761,-0.0032191306837076,6.0,NB
2025-05-06 16:32:48.319,-0.0406237714510885,0.0094899918124498,-0.0311337391590122,-0.0028045018334822,6.0,NB
2025-05-06 16:32:48.321,-0.0432299861258925,0.0098029048358872,-0.033427040626762,-0.0031958832655484,6.0,NB
2025-05-06 16:32:48.323,-0.0494438274115525,0.0100452586611291,-0.039398527909852,-0.0047132353765046,6.0,NB
2025-05-06 16:32:48.325,-0.0579686006975933,0.0101946860791172,-0.04777387361866,-0.0071732058243839,6.0,NB
2025-05-06 16:32:48.327,-0.0665208102061282,0.0102625027018485,-0.0562582663645879,-0.0098637696110059,6.0,NB
2025-05-06 16:32:48.329,-0.0724153854828537,0.0103093245725926,-0.0621060196401113,-0.0118146483196148,6.0,NB
2025-05-06 16:32:48.331,-0.0734903603992729,0.0104687488730742,-0.0630215701193249,-0.0122437797446561,6.0,NB
2025-05-06 16:32:48.333,-0.0689419129331161,0.0109253262869554,-0.0580165450835997,-0.0109517754045651,6.0,NB
2025-05-06 16:32:48.335,-0.0596566732154083,0.0118094647142237,-0.0478471667613737,-0.0084437972455266,6.0,NB
2025-05-06 16:32:48.337,-0.0479076800829192,0.0130520581393015,-0.0348555800140225,-0.0057085729446632,6.0,NB
2025-05-06 16:32:48.339,-0.036616991502892,0.0143077331999647,-0.0223092161867089,-0.0037764700956911,6.0,NB
2025-05-06 16:32:48.341,-0.0285506575793514,0.0150333392806478,-0.0135172760126328,-0.0032789374863559,6.0,NB
2025-05-06 16:32:48.343,-0.0257050014869594,0.0147111621629194,-0.0109937968887074,-0.0042014834166564,6.0,NB
2025-05-06 16:32:48.345,-0.0289203754455403,0.0131092659461799,-0.0158110669270656,-0.0059121655154325,6.0,NB
2025-05-06 16:32:48.347,-0.0376760179819338,0.0104388063365732,-0.0272371689324537,-0.0074374036426747,6.0,NB
2025-05-06 16:32:48.349,-0.0501129625411154,0.0073157097423179,-0.0427972099268725,-0.0078837345681644,6.0,NB
2025-05-06 16:32:48.350,-0.063389976134758,0.0045275969389883,-0.0588623361412281,-0.0068362089620555,6.0,NB
2025-05-06 16:32:48.352,-0.0743679400107605,0.0026946995968545,-0.0716731971606912,-0.0045216447231778,6.0,NB
2025-05-06 16:32:48.354,-0.080446737076312,0.0019683135645885,-0.0784783800601238,-0.0016288622417893,6.0,NB
2025-05-06 16:32:48.356,-0.080289064006023,0.0019222680383902,-0.0783667523340781,0.001068943054975,6.0,NB
2025-05-06 16:32:48.358,-0.0741837173131914,0.0017377676183043,-0.072445905902592,0.0029872468799547,6.0,NB
2025-05-06 16:32:48.360,-0.063916519002295,0.00064334819123,-0.0632731268765174,0.0037400006169706,6.0,NB
2025-05-06 16:32:48.362,-0.0522101449352925,-0.0016013856018883,-0.0538114864599604,0.0030265918149737,6.0,NB
2025-05-06 16:32:48.364,-0.0419559000871307,-0.0044767690725237,-0.0464326249214297,0.0006548025285276,6.0,NB
2025-05-06 16:32:48.366,-0.0354781120656694,-0.0069186260463303,-0.0423966936855849,-0.0032314752635126,6.0,NB
2025-05-06 16:32:48.368,-0.0339890353343912,-0.0078882974641833,-0.0418772881623144,-0.0079439665503797,6.0,NB
2025-05-06 16:32:48.370,-0.0373316135327846,-0.0069527242251508,-0.0442842929075361,-0.0123544603248076,6.0,NB
2025-05-06 16:32:48.372,-0.0440784677822446,-0.0045163345434902,-0.0485947572768083,-0.0153467617728909,6.0,NB
2025-05-06 16:32:48.374,-0.0519849621356719,-0.0015888912956516,-0.0535738082108631,-0.0163308627485902,6.0,NB
2025-05-06 16:32:48.376,-0.0586823489544214,0.0007319782689433,-0.0579503253165914,-0.0154787871114661,6.0,NB
2025-05-06 16:32:48.378,-0.0624028002924657,0.0017493108036732,-0.0606534439769466,-0.0135548396415334,6.0,NB
2025-05-06 16:32:48.380,-0.0624857045404055,0.0013786562565295,-0.0611070026123806,-0.0114713371871546,6.0,NB
2025-05-06 16:32:48.382,-0.0594662250085431,2.0101310983528008e-05,-0.0594460778351829,-0.0098581188366095,6.0,NB
2025-05-06 16:32:48.384,-0.0547276275806186,-0.0017756613921126,-0.056503242889724,-0.0089193059575083,6.0,NB
2025-05-06 16:32:48.386,-0.0499189788825007,-0.0036088420930771,-0.0535277746595739,-0.008615363761863,6.0,NB
2025-05-06 16:32:48.388,-0.0464252414702031,-0.0053232391111269,-0.051748434044317,-0.0089150231948185,6.0,NB
2025-05-06 16:32:48.390,-0.0450655816222984,-0.0068990626562163,-0.0519645975506504,-0.0098368687554014,6.0,NB
2025-05-06 16:32:48.392,-0.0460125062087414,-0.0083021719235368,-0.0543146312454062,-0.0112912615786208,6.0,NB
2025-05-06 16:32:48.393,-0.0488435760471124,-0.00942813526305,-0.0582716642796674,-0.0129792366169524,6.0,NB
2025-05-06 16:32:48.395,-0.0526932351845845,-0.01014391099339,-0.0628370989928733,-0.0145091736767561,6.0,NB
2025-05-06 16:32:48.397,-0.0565280810046094,-0.0103382683357723,-0.0668663019674231,-0.01561475517453,6.0,NB
2025-05-06 16:32:48.399,-0.0595046201148764,-0.0099311135680634,-0.0694356860830454,-0.0162626488543224,6.0,NB
2025-05-06 16:32:48.401,-0.0612500143375037,-0.0088877403462483,-0.070137706832318,-0.0165847986659974,6.0,NB
2025-05-06 16:32:48.403,-0.0618939985858659,-0.0073019263026625,-0.0691958767886751,-0.0167234390669245,6.0,NB
2025-05-06 16:32:48.405,-0.0618215826439185,-0.0055152149365683,-0.067336749261765,-0.0167063733575658,6.0,NB
2025-05-06 16:32:48.407,-0.0613096061183523,-0.0041349066307217,-0.065444464251767,-0.0164339198113261,6.0,NB
2025-05-06 16:32:48.423,-0.0603158734476055,-0.0038353185883975,-0.06415114338899,-0.0157947731448011,6.0,NB
2025-05-06 16:32:48.425,-0.0586101166527566,-0.004994927422529,-0.0636049952792148,-0.0148244562266757,6.0,NB
2025-05-06 16:32:48.427,-0.0561782431136935,-0.0074016897364176,-0.0635798838751736,-0.0137579078008043,6.0,NB
2025-05-06 16:32:48.429,-0.0535671636182405,-0.0102682414518365,-0.0638353558701042,-0.0129196156989347,6.0,NB
2025-05-06 16:32:48.431,-0.0518091960013462,-0.0125931755612406,-0.0644023220984373,-0.0125608592443254,6.0,NB
2025-05-06 16:32:48.433,-0.0518462465632219,-0.0136518215783976,-0.0654980184015873,-0.0127860691210033,6.0,NB
2025-05-06 16:32:48.434,-0.0537758846955363,-0.013316515968854,-0.0670923506705715,-0.0135840962083542,6.0,NB
2025-05-06 16:32:48.436,-0.0564667271640773,-0.0120377231758939,-0.0685044001367359,-0.0148829485481143,6.0,NB
2025-05-06 16:32:48.438,-0.0579375420353606,-0.0105316751148955,-0.0684691667804551,-0.0165864261665075,6.0,NB
2025-05-06 16:32:48.440,-0.0564008297700226,-0.0093755599063237,-0.0657763391576205,-0.018619074079997,6.0,NB
2025-05-06 16:32:48.442,-0.0513657073323783,-0.0087466560138557,-0.0601123126600782,-0.0209697444009143,6.0,NB
2025-05-06 16:32:48.444,-0.0440906129558903,-0.0084438781534733,-0.0525344402091131,-0.0236393511087001,6.0,NB
2025-05-06 16:32:48.446,-0.0370745704073709,-0.0081354715863372,-0.0452099908276761,-0.026443994254126,6.0,NB
2025-05-06 16:32:48.448,-0.0328624313236535,-0.0076127876254584,-0.0404751674869431,-0.0288259302939791,6.0,NB
2025-05-06 16:32:48.450,-0.0328320215030329,-0.0068433623513849,-0.0396753321027417,-0.0299364119276406,6.0,NB
2025-05-06 16:32:48.452,-0.0366456423267375,-0.0058109551835934,-0.0424565455091894,-0.0290624244313299,6.0,NB
2025-05-06 16:32:48.454,-0.042660245568929,-0.0043315591342555,-0.0469917525047403,-0.0261314262260436,6.0,NB
2025-05-06 16:32:48.456,-0.0489676636737712,-0.0020550631868563,-0.0510226745010828,-0.0219090988226942,6.0,NB
2025-05-06 16:32:48.458,-0.0543154334804548,0.0013097021651001,-0.0530056787947893,-0.0177248168085519,6.0,NB
2025-05-06 16:32:48.460,-0.0583253927580654,0.0057075478272992,-0.0526177922116533,-0.0148850228119187,6.0,NB
2025-05-06 16:32:48.462,-0.061046434046974,0.0106046622930855,-0.0504417187793335,-0.014103367651998,6.0,NB
2025-05-06 16:32:48.464,-0.0623829086013373,0.0151161952534523,-0.0472666600702462,-0.0152358810062055,6.0,NB
2025-05-06 16:32:48.466,-0.0619197422753777,0.0183184732563192,-0.043601215424031,-0.0174240153436955,6.0,NB
2025-05-06 16:32:48.468,-0.0592215913750509,0.0195599017317376,-0.0396616357567995,-0.0195167496427491,6.0,NB
2025-05-06 16:32:48.470,-0.0542537998335944,0.0186256016123802,-0.0356281440952397,-0.0205245015717684,6.0,NB
2025-05-06 16:32:48.472,-0.0475150500662811,0.0157574336505729,-0.0317575621006117,-0.0199355980330183,6.0,NB
2025-05-06 16:32:48.474,-0.0397771132450909,0.0116218998241576,-0.0281551589382925,-0.0178632922676774,6.0,NB
2025-05-06 16:32:48.475,-0.0316749766036332,0.0072557579293189,-0.0244191640047391,-0.015015971275422,6.0,NB
2025-05-06 16:32:48.477,-0.0234806872198906,0.00391240738122,-0.0195682249308572,-0.0124556220462953,6.0,NB
2025-05-06 16:32:48.479,-0.0151996287865541,0.0027556708422074,-0.0124439027406892,-0.0111968105807196,6.0,NB
2025-05-06 16:32:48.481,-0.0068488560113572,0.0044957138289194,-0.0023530866478633,-0.0118438347603035,6.0,NB
2025-05-06 16:32:48.483,0.0013507979727948,0.0091602765820629,0.0105111304158129,-0.014454891757143,6.0,NB
2025-05-06 16:32:48.485,0.0090176919625179,0.0161253955794128,0.0251431436886057,-0.0186414501530102,6.0,NB
2025-05-06 16:32:48.487,0.0157971806468446,0.0243567561596213,0.0401539931841859,-0.0237553468793578,6.0,NB
2025-05-06 16:32:48.489,0.0214825231030677,0.032694036942404,0.054176616614697,-0.0290323050762776,6.0,NB
2025-05-06 16:32:48.491,0.0259588442148407,0.0400359095206418,0.0659948104928652,-0.0337031890367326,6.0,NB
2025-05-06 16:32:48.493,0.0290619399892266,0.0454080571558255,0.0744700541256316,-0.0371587239844657,6.0,NB
2025-05-06 16:32:48.495,0.0305366033262527,0.0480095818858676,0.0785462424717855,-0.0391419043436305,6.0,NB
2025-05-06 16:32:48.497,0.0301761819016659,0.0473454922659661,0.0775217317551862,-0.0398145275810069,6.0,NB
2025-05-06 16:32:48.499,0.0280360779492183,0.0434496831140682,0.0714858189966591,-0.0396272625633551,6.0,NB
2025-05-06 16:32:48.501,0.024525916801383,0.0370667126511477,0.0615926877112596,-0.0391180281349744,6.0,NB
2025-05-06 16:32:48.503,0.0202748988631848,0.0296110470561066,0.0498860044567706,-0.0387902652604639,6.0,NB
2025-05-06 16:32:48.505,0.0158397917090762,0.0228054488425009,0.0386452993203141,-0.039051178327353,6.0,NB
2025-05-06 16:32:48.507,0.011437536927771,0.0180732402384435,0.0295108361428418,-0.0400842344167173,6.0,NB
2025-05-06 16:32:48.509,0.0068749913632066,0.0159374796835161,0.022812530244011,-0.0416710153690964,6.0,NB
2025-05-06 16:32:48.511,0.0017533652079376,0.0157485717747388,0.017501996442846,-0.0431787132166928,6.0,NB
2025-05-06 16:32:48.513,-0.0041208527117361,0.015937302788827,0.0118165098504711,-0.043874603928203,6.0,NB
2025-05-06 16:32:48.515,-0.0103529842685769,0.0147298872779286,0.0043769631297704,-0.0434321626589537,6.0,NB
2025-05-06 16:32:48.516,-0.0159094261077194,0.011022455421627,-0.0048869102165894,-0.0422738546736035,6.0,NB
2025-05-06 16:32:48.518,-0.0195451187805072,0.0050063830467765,-0.0145386749435122,-0.0414625754391232,6.0,NB
2025-05-06 16:32:48.520,-0.0205352827063857,-0.001796317052258,-0.0223315386899491,-0.0421490039960189,6.0,NB
2025-05-06 16:32:48.522,-0.0193052230285608,-0.007178054648782,-0.0264832163636586,-0.044895708299951,6.0,NB
2025-05-06 16:32:48.524,-0.0175729971254957,-0.009304898928183,-0.0268778345027288,-0.0493032911300825,6.0,NB
2025-05-06 16:32:48.526,-0.017841440362609,-0.0076589059185159,-0.0255002844716666,-0.0541766078618173,6.0,NB
2025-05-06 16:32:48.528,-0.0223689170649973,-0.0033542594119907,-0.0257231143701528,-0.0581338325511093,6.0,NB
2025-05-06 16:32:48.530,-0.0320344197355353,0.0013621007301016,-0.0306722565639861,-0.0603042082683997,6.0,NB
2025-05-06 16:32:48.532,-0.045690048168093,0.0041845890175466,-0.0415053963559298,-0.0607146168393008,6.0,NB
2025-05-06 16:32:48.534,-0.0604738945646026,0.0038554688596655,-0.0566183625638451,-0.0601495023650473,6.0,NB
2025-05-06 16:32:48.536,-0.0730572014800469,0.0007383650498278,-0.0723187729683298,-0.0595951492136058,6.0,NB
2025-05-06 16:32:48.538,-0.081181544678938,-0.0034387467117593,-0.0846202276377992,-0.0596386598879088,6.0,NB
2025-05-06 16:32:48.540,-0.0845875337127858,-0.0065366287541446,-0.0911240984415374,-0.0601951639904726,6.0,NB
2025-05-06 16:32:48.542,-0.0848099541079145,-0.007149598419343,-0.0919594882282367,-0.0607069401885306,6.0,NB
2025-05-06 16:32:48.544,-0.0840643911681473,-0.0053395393822026,-0.0894038659587972,-0.0606651006191815,6.0,NB
2025-05-06 16:32:48.546,-0.0840071932753412,-0.0025797264758106,-0.0865868548403457,-0.0600917961624223,6.0,NB
2025-05-06 16:32:48.548,-0.0851219790311271,-0.0009377102365632,-0.0860596240153042,-0.0596126126509704,6.0,NB
2025-05-06 16:32:48.550,-0.0869530880997187,-0.0019155162132196,-0.0888685387094391,-0.0600250675850665,6.0,NB
2025-05-06 16:32:48.552,-0.0888037450698284,-0.005561096259682,-0.0943647753794757,-0.0616711980750953,6.0,NB
2025-05-06 16:32:48.554,-0.0902885943544711,-0.0103564177970952,-0.1006449458686105,-0.0640875825503844,6.0,NB
2025-05-06 16:32:48.556,-0.0914019616548548,-0.013987458787532,-0.1053893538412675,-0.0661796088667137,6.0,NB
2025-05-06 16:32:48.558,-0.0922306338937894,-0.0146045147661394,-0.1068350817499204,-0.0668000929955886,6.0,NB
2025-05-06 16:32:48.559,-0.0926636494341872,-0.0118820409545306,-0.1045456231706985,-0.0653995961054308,6.0,NB
2025-05-06 16:32:48.561,-0.0923186572055465,-0.0072789505179243,-0.0995975401907549,-0.0623933170505375,6.0,NB
2025-05-06 16:32:48.563,-0.0906803478189112,-0.0033338384045392,-0.094014118364729,-0.0590252754643419,6.0,NB
2025-05-06 16:32:48.565,-0.0873687457337464,-0.0023517256979858,-0.0897204032343066,-0.0567912236901104,6.0,NB
2025-05-06 16:32:48.567,-0.082467384900969,-0.0051651288744777,-0.0876324452278836,-0.0567277748559627,6.0,NB
2025-05-06 16:32:48.569,-0.0767847611282422,-0.0106257164470083,-0.0874104086695816,-0.0588926575144235,6.0,NB
2025-05-06 16:32:48.571,-0.0718314235065131,-0.016120396537871,-0.0879517507781367,-0.062227139689368,6.0,NB
2025-05-06 16:32:48.573,-0.0693637046305055,-0.0188728852359068,-0.0882365202440207,-0.0648683563458212,6.0,NB
2025-05-06 16:32:48.575,-0.0706247923676799,-0.0173595001186647,-0.0879842225186579,-0.0648512279165679,6.0,NB
2025-05-06 16:32:48.577,-0.0756820491832204,-0.0120951563264917,-0.0877771352104193,-0.0609518943433917,6.0,NB
2025-05-06 16:32:48.579,-0.08325665540443,-0.0053887513682318,-0.0886453361519146,-0.0532760288017014,6.0,NB
2025-05-06 16:32:48.581,-0.0911569137103677,-0.0002111085430273,-0.0913679513110334,-0.0432674694165579,6.0,NB
2025-05-06 16:32:48.583,-0.0970865630620221,0.0012492020801727,-0.0958372897039935,-0.0331292241115586,6.0,NB
2025-05-06 16:32:48.585,-0.0994400215953592,-0.0013617262996959,-0.100801676257097,-0.0249733162200771,6.0,NB
2025-05-06 16:32:48.587,-0.0977852156247506,-0.0064073872315951,-0.1041925308324299,-0.0201013770200724,6.0,NB
2025-05-06 16:32:48.589,-0.0929449839011064,-0.0110800914731176,-0.1040250029494567,-0.0186699430974161,6.0,NB
2025-05-06 16:32:48.591,-0.0867181159332133,-0.0128165766898876,-0.0995346198022418,-0.0197725059756282,6.0,NB
2025-05-06 16:32:48.593,-0.0812735146809769,-0.0106564104185813,-0.0919298519066553,-0.0218046587080502,6.0,NB
2025-05-06 16:32:48.595,-0.078273891097965,-0.0059085810995437,-0.0841823986650574,-0.0229376391257471,6.0,NB
2025-05-06 16:32:48.597,-0.077978283957813,-0.0017934219212747,-0.0797716320309865,-0.0215838175311534,6.0,NB
2025-05-06 16:32:48.599,-0.0787809888774983,-0.0021985687911092,-0.0809794835053408,-0.0167837817453273,6.0,NB
2025-05-06 16:32:48.600,-0.0775786953530844,-0.0101143865705976,-0.0876930074181488,-0.0084205114532489,6.0,NB
2025-05-06 16:32:48.602,-0.0709557501845169,-0.0264579484458525,-0.0974136237380001,0.0028458894858157,6.0,NB
2025-05-06 16:32:48.604,-0.0566720726632948,-0.0497653636312046,-0.1064373609738689,0.0159290405268812,6.0,NB
2025-05-06 16:32:48.606,-0.0346549372141379,-0.0767791344910769,-0.1114339959391551,0.0298213675711927,6.0,NB
2025-05-06 16:32:48.608,-0.0068698058458601,-0.1035495359845084,-0.1104192656362235,0.0441111208859877,6.0,NB
2025-05-06 16:32:48.610,0.0239336056025925,-0.1264868523877677,-0.1025531702076204,0.0594251992007878,6.0,NB
2025-05-06 16:32:48.612,0.0559018020027814,-0.1428870167577734,-0.086985137843688,0.0776334858988977,6.0,NB
2025-05-06 16:32:48.614,0.0892329920454407,-0.1508055126987647,-0.0615724434360902,0.1015166832561286,6.0,NB
2025-05-06 16:32:48.616,0.1262526768796504,-0.1486548246284893,-0.0224020702143462,0.1337165525222147,6.0,NB
2025-05-06 16:32:48.618,0.1705345433558125,-0.1351515126522125,0.035383108603661,0.1752066902614968,6.0,NB
2025-05-06 16:32:48.620,0.2256261387895406,-0.1098622512152984,0.1157639659032966,0.2239368749297126,6.0,NB
2025-05-06 16:32:48.622,0.2939531454737724,-0.0738401482668243,0.2201130760123087,0.2743863099692797,6.0,NB
2025-05-06 16:32:48.624,0.3761857076514953,-0.0294754044365864,0.3467103825032011,0.3184068414711377,6.0,NB
2025-05-06 16:32:48.626,0.470867229945841,0.0208533018120223,0.4917206114905276,0.3471004281417646,6.0,NB
2025-05-06 16:32:48.628,0.5736876267250196,0.0767559902949014,0.6504436971322654,0.3529417572610035,6.0,NB
2025-05-06 16:32:48.630,0.6760028226264276,0.1410218587615291,0.817024761822862,0.3313291113236534,6.0,NB
2025-05-06 16:32:48.632,0.7633879466541456,0.2185478003953657,0.9819358277886636,0.2812154910212803,6.0,NB
2025-05-06 16:32:48.634,0.8163655038518727,0.3126695180909321,1.129035103018861,0.2049617972946713,6.0,NB
2025-05-06 16:32:48.636,0.8151961578378202,0.4205787355990517,1.2357749749193858,0.10769427256451,6.0,NB
2025-05-06 16:32:48.638,0.7478378055264429,0.5310379071571499,1.278875794645192,-0.0036374024784431,6.0,NB
2025-05-06 16:32:48.640,0.6167575891400839,0.6269725493442757,1.243730220964323,-0.1213335940298929,6.0,NB
2025-05-06 16:32:48.641,0.4398769457324353,0.6923968489701402,1.1322738776868504,-0.2379091014172179,6.0,NB
2025-05-06 16:32:48.643,0.2447164342230142,0.7196005142005907,0.9643170318521076,-0.3466782306489538,6.0,NB
2025-05-06 16:32:48.645,0.0593599582452287,0.7118211710985731,0.7711812131417124,-0.4418504952028346,6.0,NB
2025-05-06 16:32:48.647,-0.0949629597147043,0.6797860135990459,0.5848231380014427,-0.5183737980092635,6.0,NB
2025-05-06 16:32:48.649,-0.2071637724079267,0.6348732282011298,0.4277095402309285,-0.5720171305274082,6.0,NB
2025-05-06 16:32:48.651,-0.2757382876591172,0.5835751624881288,0.3078369596411011,-0.5999983783025333,6.0,NB
2025-05-06 16:32:48.653,-0.3060587990602226,0.5263753580774374,0.2203166442835388,-0.6019004567795255,6.0,NB
2025-05-06 16:32:48.655,-0.3073046293370826,0.4608752927506905,0.1535707492006346,-0.5802186040282856,6.0,NB
2025-05-06 16:32:48.657,-0.2901313733226165,0.3864362342946598,0.096304947300283,-0.5400468928906341,6.0,NB
2025-05-06 16:32:48.659,-0.2651315801096451,0.3070726709652697,0.0419411776906709,-0.4879434164053837,6.0,NB
2025-05-06 16:32:48.661,-0.2414525700293941,0.2308403278344809,-0.0106121549233855,-0.4304305547574957,6.0,NB
2025-05-06 16:32:48.663,-0.225189467890274,0.166401235575843,-0.0587881446757037,-0.3727006471947137,6.0,NB
2025-05-06 16:32:48.665,-0.2180327202972197,0.1191716765290697,-0.0988609557945508,-0.3179937739445358,6.0,NB
2025-05-06 16:32:48.667,-0.2171249573508125,0.0893902082161943,-0.1277346608048296,-0.2678108503568479,6.0,NB
2025-05-06 16:32:48.669,-0.2165965046117487,0.0729076994650645,-0.143688716396341,-0.2226612641163017,6.0,NB
2025-05-06 16:32:48.671,-0.2102292373365393,0.063780804346105,-0.1464483437440979,-0.1827471811240413,6.0,NB
2025-05-06 16:32:48.673,-0.194037789807155,0.0569461144151057,-0.1370915855999739,-0.1481893038719577,6.0,NB
2025-05-06 16:32:48.675,-0.1676997257654166,0.0496226517621948,-0.1180769836643386,-0.118912837062507,6.0,NB
2025-05-06 16:32:48.677,-0.1344443718780955,0.041136408755819,-0.0933078722822687,-0.0945747691733029,6.0,NB
2025-05-06 16:32:48.679,-0.099700077125127,0.0318178775071683,-0.0678821083441374,-0.0747120624999388,6.0,NB
2025-05-06 16:32:48.681,-0.0691970933213493,0.0219707790937068,-0.0472262225739052,-0.0589687605544071,6.0,NB
2025-05-06 16:32:48.682,-0.0472921143010692,0.0115881259897552,-0.0357038962909641,-0.0471638555011658,6.0,NB
2025-05-06 16:32:48.684,-0.0360527976933706,0.0008049771066967,-0.0352477281663106,-0.0391047008409498,6.0,NB
2025-05-06 16:32:48.686,-0.0351964060689317,-0.0095085542735483,-0.0447048674591655,-0.0342909583934946,6.0,NB
2025-05-06 16:32:48.688,-0.0425915065800369,-0.0177025804930069,-0.0602939936653074,-0.0317918790904134,6.0,NB
2025-05-06 16:32:48.690,-0.0549835135482107,-0.0220835191315305,-0.0770669387165296,-0.0304411438830583,6.0,NB
2025-05-06 16:32:48.692,-0.0687840842728025,-0.0220155952236052,-0.0907995849898252,-0.0291942650896035,6.0,NB
2025-05-06 16:32:48.694,-0.080835712966975,-0.0186251286665956,-0.0994607466299229,-0.0273731682898908,6.0,NB
2025-05-06 16:32:48.696,-0.0889764202007232,-0.0145480563109143,-0.1035243810662367,-0.0246975334859122,6.0,NB
2025-05-06 16:32:48.698,-0.0922238833107944,-0.0127594947027838,-0.1049832821624543,-0.0212251239901544,6.0,NB
2025-05-06 16:32:48.700,-0.0905836678748558,-0.0151016429124123,-0.1056852145297338,-0.0173253102837025,6.0,NB
2025-05-06 16:32:48.702,-0.0846997242551408,-0.0213217705659356,-0.1060213981210074,-0.0136293185932919,6.0,NB
2025-05-06 16:32:48.704,-0.0756000809597467,-0.0291623180719017,-0.1047623018357756,-0.0108056656059057,6.0,NB
2025-05-06 16:32:48.706,-0.0646230062255216,-0.035488003951601,-0.1001109124404807,-0.0091550077735019,6.0,NB
2025-05-06 16:32:48.708,-0.0534010323691849,-0.0378843157417331,-0.0912852498167604,-0.0082742131837705,6.0,NB
2025-05-06 16:32:48.710,-0.043708489619335,-0.035897652337136,-0.079606043121462,-0.007130871179874,6.0,NB
2025-05-06 16:32:48.712,-0.0370810941247421,-0.031261683593025,-0.0683426783809523,-0.004649177682834,6.0,NB
2025-05-06 16:32:48.714,-0.0342967137874715,-0.0269928664428382,-0.0612894804322274,-0.0004743836519863,6.0,NB
2025-05-06 16:32:48.716,-0.0349461292940724,-0.0258454731065852,-0.0607915021631865,0.0046440283163365,6.0,NB
2025-05-06 16:32:48.718,-0.0373646586667954,-0.0289445518530271,-0.0663091098362182,0.0091730031833563,6.0,NB
2025-05-06 16:32:48.720,-0.0391141215692188,-0.0352879434767758,-0.0744019638850294,0.0116330807772146,6.0,NB
2025-05-06 16:32:48.722,-0.0379690468281574,-0.042324959630662,-0.0802939047800062,0.011409984820849,6.0,NB
2025-05-06 16:32:48.724,-0.0330266702034409,-0.0472647147468067,-0.0802912827222017,0.0090543833009011,6.0,NB
2025-05-06 16:32:48.725,-0.0253375691828097,-0.0484265731372394,-0.0737640395332461,0.0059491122407719,6.0,NB
2025-05-06 16:32:48.727,-0.0175697711717694,-0.0459659026086848,-0.0635355704489813,0.00357952525125,6.0,NB
2025-05-06 16:32:48.729,-0.0127098052392873,-0.041659209777698,-0.0543689111694056,0.0027936669040203,6.0,NB
2025-05-06 16:32:48.731,-0.0124339553071212,-0.037922610338706,-0.0503564613102263,0.00342007579049,6.0,NB
2025-05-06 16:32:48.733,-0.0161246444746199,-0.0366023532637198,-0.0527268929287969,0.0044569647354661,6.0,NB
2025-05-06 16:32:48.735,-0.0212108593298623,-0.0381408621492887,-0.0593516161895603,0.0047368962104074,6.0,NB
2025-05-06 16:32:48.737,-0.0246660252031894,-0.0414969075461462,-0.0661628269566783,0.0036487927973777,6.0,NB
2025-05-06 16:32:48.739,-0.0246965608685352,-0.0448164991316905,-0.069512953675024,0.0014546516503387,6.0,NB
2025-05-06 16:32:48.741,-0.0215443218127645,-0.0464773668796998,-0.0680215818112253,-0.0009420505703374,6.0,NB
2025-05-06 16:32:48.743,-0.0169950303278047,-0.0459421584439651,-0.0629370813258583,-0.0025331462564927,6.0,NB
2025-05-06 16:32:48.745,-0.0130744670586339,-0.0439774927970123,-0.0570518518530782,-0.002694243880231,6.0,NB
2025-05-06 16:32:48.747,-0.0108568590488924,-0.0421670341770672,-0.053023784685933,-0.0014125557124774,6.0,NB
2025-05-06 16:32:48.749,-0.0100813607298681,-0.0420271238300143,-0.0521083755029285,0.000797318419603,6.0,NB
2025-05-06 16:32:48.751,-0.0096512559106315,-0.0442038883756253,-0.0538550347244719,0.0032133763613559,6.0,NB
2025-05-06 16:32:48.753,-0.0085417968256173,-0.0481463515315254,-0.056688038288567,0.0052598016632367,6.0,NB
2025-05-06 16:32:48.755,-0.0064823832344146,-0.0523982067649696,-0.0588804794085939,0.0066791432389039,6.0,NB
2025-05-06 16:32:48.757,-0.0040212242359457,-0.0553491742467171,-0.0593702873469769,0.0074639909234415,6.0,NB
2025-05-06 16:32:48.759,-0.0020101666513656,-0.0560545012000351,-0.0580645561498602,0.0076630270750702,6.0,NB
2025-05-06 16:32:48.761,-0.0008930932466133,-0.054687189286456,-0.0555801702543696,0.0072400130884427,6.0,NB
2025-05-06 16:32:48.763,-0.0002570444532023,-0.0523912171599219,-0.0526481487592573,0.0061118574941225,6.0,NB
2025-05-06 16:32:48.765,0.0010914256628486,-0.0506543835866253,-0.0495628445079813,0.004344156130967,6.0,NB
2025-05-06 16:32:48.766,0.0045542552589917,-0.0505750756117249,-0.0460207063927016,0.002329872789143,6.0,NB
2025-05-06 16:32:48.768,0.0109185118532813,-0.0523918021561483,-0.041473175812106,0.0007595630130776,6.0,NB
2025-05-06 16:32:48.770,0.019646201099467,-0.0554440166986251,-0.0357977005801668,0.0003307872528523,6.0,NB
2025-05-06 16:32:48.772,0.0286929035922316,-0.0585202491555935,-0.0298272300055585,0.0013342900247846,6.0,NB
2025-05-06 16:32:48.774,0.0351459918710913,-0.0604223033590629,-0.0252761953713204,0.0033714867905204,6.0,NB
2025-05-06 16:32:48.776,0.0365554381753962,-0.0605145048591699,-0.0239589499866214,0.0054162885109754,6.0,NB
2025-05-06 16:32:48.778,0.0322976641919421,-0.0590157475513092,-0.026717966067118,0.0062436571067053,6.0,NB
2025-05-06 16:32:48.780,0.024123437294172,-0.0568758114018646,-0.0327522562184763,0.0050205932108219,6.0,NB
2025-05-06 16:32:48.782,0.0154726261798506,-0.0552817934210991,-0.0398090487659545,0.0017306168210055,6.0,NB
2025-05-06 16:32:48.784,0.0099281242048729,-0.0550630894708465,-0.0451348462224811,-0.0028240844874609,6.0,NB
2025-05-06 16:32:48.786,0.0097233660990104,-0.056336040569239,-0.0466125548743035,-0.0074400708594748,6.0,NB
2025-05-06 16:32:48.788,0.0150996220037159,-0.0585796014227387,-0.0434798592759744,-0.0110735160791897,6.0,NB
2025-05-06 16:32:48.790,0.0246581596748811,-0.0610528975630204,-0.0363946171891234,-0.0131975669730924,6.0,NB
2025-05-06 16:32:48.792,0.0362234308450576,-0.0632519845330002,-0.0270284324127659,-0.0137953707327309,6.0,NB
2025-05-06 16:32:48.794,0.0476056176264226,-0.065116306790647,-0.0175105672895153,-0.0131078986117015,6.0,NB
2025-05-06 16:32:48.796,0.0569958225474338,-0.066910949949828,-0.0099150049114391,-0.0114003738162431,6.0,NB
2025-05-06 16:32:48.798,0.0631228995867683,-0.0689358638465596,-0.0058128411494322,-0.0089232117682317,6.0,NB
2025-05-06 16:32:48.800,0.0654077338557986,-0.0712793844831214,-0.0058715269085745,-0.0060270005950259,6.0,NB
2025-05-06 16:32:48.802,0.0641773998732551,-0.0737443393709095,-0.0095668151896048,-0.0032437899580357,6.0,NB
2025-05-06 16:32:48.804,0.0607872960332126,-0.075950845343772,-0.0151634244303218,-0.0011849741311855,6.0,NB
2025-05-06 16:32:48.806,0.0574487309968424,-0.0775464465663284,-0.020097590122932,-0.0002811314928555,6.0,NB
2025-05-06 16:32:48.807,0.0566854225696084,-0.0784272965977603,-0.0217417480058854,-0.0005534675995822,6.0,NB
2025-05-06 16:32:48.809,0.0605262980475105,-0.0788617254709122,-0.0183353008039927,-0.0016205577430318,6.0,NB
2025-05-06 16:32:48.811,0.06968770987025,-0.0794197029570067,-0.009731865845787,-0.0029646107860222,6.0,NB
2025-05-06 16:32:48.813,0.0830761842606251,-0.0806929799243236,0.0023833322156738,-0.0042486140839671,6.0,NB
2025-05-06 16:32:48.815,0.0979268492221345,-0.0829382136648904,0.0149887640772913,-0.0054313083508497,6.0,NB
2025-05-06 16:32:48.817,0.1107228222992122,-0.0858808848645719,0.0248420665830625,-0.0066276827860223,6.0,NB
2025-05-06 16:32:48.819,0.1186872194927548,-0.0888488693271907,0.0298384799225314,-0.007898725738982,6.0,NB
2025-05-06 16:32:48.821,0.1212237868767729,-0.0911713613646462,0.0300525558609843,-0.009192765841273,6.0,NB
2025-05-06 16:32:48.823,0.1204892704586672,-0.0925703985634642,0.0279190028316513,-0.0104607551799394,6.0,NB
2025-05-06 16:32:48.825,0.1205713858459863,-0.0932774150553963,0.0272941023258728,-0.0117373000535692,6.0,NB
2025-05-06 16:32:48.827,0.1254994104113229,-0.0938221927580019,0.0316773498098708,-0.0130206323492262,6.0,NB
2025-05-06 16:32:48.829,0.1371045829145885,-0.0946777419640495,0.0424269737522203,-0.014093408356011,6.0,NB
2025-05-06 16:32:48.831,0.1539709120035254,-0.0960098541384042,0.0579611913268569,-0.0145848891358875,6.0,NB
2025-05-06 16:32:48.833,0.1721144001949332,-0.0976530667785312,0.0744614675382575,-0.0143116926998771,6.0,NB
2025-05-06 16:32:48.835,0.1869763525086361,-0.0992626079938759,0.0877138792833417,-0.0135733236530918,6.0,NB
2025-05-06 16:32:48.837,0.1955374482367806,-0.1005110758148244,0.0950265078183562,-0.0131035228084452,6.0,NB
2025-05-06 16:32:48.839,0.1973761604223436,-0.1012178943784117,0.0961584020542341,-0.0137308096198066,6.0,NB
2025-05-06 16:32:48.841,0.1942606960016918,-0.1013675627521157,0.092893269872716,-0.0160104301620881,6.0,NB
2025-05-06 16:32:48.843,0.1887913681389924,-0.1010467833054043,0.0877447220827559,-0.0199870580390104,6.0,NB
2025-05-06 16:32:48.845,0.1830526097280026,-0.1003661328490939,0.0826866147759528,-0.0251179911802916,6.0,NB
2025-05-06 16:32:48.847,0.1780051434999268,-0.0994116097056199,0.078593672360084,-0.0304117160288571,6.0,NB
2025-05-06 16:32:48.848,0.1737509622697432,-0.0982337513468896,0.0755173501684094,-0.0348280636543013,6.0,NB
2025-05-06 16:32:48.850,0.170262296201625,-0.096862979278843,0.0733994568456849,-0.0377886246900712,6.0,NB
2025-05-06 16:32:48.852,0.1679631390368395,-0.0953345027712118,0.0726287768530615,-0.0394526173772898,6.0,NB
2025-05-06 16:32:48.854,0.167750303180775,-0.0937037976802174,0.0740466467373448,-0.0405131396299227,6.0,NB
2025-05-06 16:32:48.856,0.1704682661341277,-0.0920368821846732,0.0784315258268065,-0.0416511043572852,6.0,NB
2025-05-06 16:32:48.858,0.1762117580550226,-0.090373840235233,0.0858380603404294,-0.043093302950497,6.0,NB
2025-05-06 16:32:48.860,0.1839218897180653,-0.0886870667908619,0.0952349661045589,-0.0446227566992589,6.0,NB
2025-05-06 16:32:48.862,0.1915668721534406,-0.0868682835298431,0.1046987324758623,-0.0459688595003639,6.0,NB
2025-05-06 16:32:48.864,0.1968761232404418,-0.0847632583540026,0.1121130094288026,-0.0471821475727723,6.0,NB
2025-05-06 16:32:48.866,0.198275223609735,-0.082244715778231,0.1160306530705137,-0.0486579408732281,6.0,NB
2025-05-06 16:32:48.868,0.1955223041315033,-0.0792968100498508,0.1162256400142846,-0.05080613597155,6.0,NB
2025-05-06 16:32:48.870,0.1897064551783379,-0.076074548775136,0.1136320530206335,-0.0536536184703963,6.0,NB
2025-05-06 16:32:48.872,0.1826663066482766,-0.0728901873967808,0.1097762665452338,-0.0567028321670675,6.0,NB
2025-05-06 16:32:48.874,0.1762345785832071,-0.0700955197416403,0.106139206808663,-0.059171897259077,6.0,NB
2025-05-06 16:32:48.876,0.1717416204174695,-0.0678978210933009,0.1038439479691071,-0.0604582647354094,6.0,NB
2025-05-06 16:32:48.878,0.1699164946693216,-0.066217199346893,0.1036994446552497,-0.0604922877484871,6.0,NB
2025-05-06 16:32:48.880,0.1709807627604492,-0.0646863530295198,0.106294559763097,-0.059724253648321,6.0,NB
2025-05-06 16:32:48.882,0.1746344202045703,-0.0628093735950021,0.1118251973499576,-0.0587711785981367,6.0,NB
2025-05-06 16:32:48.884,0.179847569042548,-0.0602057719574524,0.1196419485379884,-0.0580087453539729,6.0,NB
2025-05-06 16:32:48.886,0.1846918390485819,-0.0568220923984638,0.1278698988157023,-0.0574142605992812,6.0,NB
2025-05-06 16:32:48.888,0.1865797380487582,-0.053001759058357,0.1335781318669064,-0.0567267591837874,6.0,NB
2025-05-06 16:32:48.890,0.1830664683847896,-0.0493598664323344,0.1337067555384444,-0.0557166757628693,6.0,NB
2025-05-06 16:32:48.891,0.1729240558146952,-0.0465040393701563,0.1264201707402355,-0.0543187405627574,6.0,NB
2025-05-06 16:32:48.893,0.1568849841356495,-0.0447366397112375,0.1121484994318475,-0.0525655535997266,6.0,NB
2025-05-06 16:32:48.895,0.1375808951023957,-0.0439042669501104,0.0936767838748285,-0.0504326892139024,6.0,NB
2025-05-06 16:32:48.897,0.1186831508447425,-0.0434833645843184,0.0751999427024146,-0.0477451042224845,6.0,NB
2025-05-06 16:32:48.899,0.1036738364608854,-0.0428428750257303,0.0608311186019054,-0.0442283281831161,6.0,NB
2025-05-06 16:32:48.901,0.0947453719655299,-0.0415233712921508,0.0532221585711803,-0.0396697010550288,6.0,NB
2025-05-06 16:32:48.903,0.0921234361272589,-0.0393956230898277,0.0527279716729391,-0.0340698553491998,6.0,NB
2025-05-06 16:32:48.905,0.0939192240395841,-0.0366604691507397,0.0572589142676096,-0.0276971745928743,6.0,NB
2025-05-06 16:32:48.907,0.0965936215218943,-0.0337282334319624,0.0628655482146254,-0.0210559316320067,6.0,NB
2025-05-06 16:32:48.909,0.0960862009709243,-0.0310439954858761,0.0650423663545415,-0.0148049208156282,6.0,NB
2025-05-06 16:32:48.911,0.0893897136650772,-0.0289333334028865,0.0604565418725247,-0.0096175888653048,6.0,NB
2025-05-06 16:32:48.913,0.0759425671845054,-0.0275311455080253,0.0484115840238097,-0.0059791024706741,6.0,NB
2025-05-06 16:32:48.915,0.0580567266421935,-0.0268055442669127,0.031251345459586,-0.0039806369774096,6.0,NB
2025-05-06 16:32:48.917,0.0399516511998417,-0.0266284327016404,0.0133233823257355,-0.0032068622461102,6.0,NB
2025-05-06 16:32:48.919,0.0257213154248494,-0.0268301225626974,-0.0011086425551059,-0.0028032141313423,6.0,NB
2025-05-06 16:32:48.921,0.0172859731571142,-0.0272154189650251,-0.0099292804560928,-0.001760393789293,6.0,NB
2025-05-06 16:32:48.923,0.0135215790580364,-0.0275684395937525,-0.0140466944045978,0.0006640262075878,6.0,NB
2025-05-06 16:32:48.925,0.0110957055600686,-0.027689445301295,-0.0165935728286127,0.0045899163393061,6.0,NB
2025-05-06 16:32:48.927,0.0064832741863691,-0.0274736270709522,-0.0209901851969237,0.0094268926889648,6.0,NB
2025-05-06 16:32:48.929,-0.0020643627774559,-0.0269784317710456,-0.029042626096888,0.0141187585681489,6.0,NB
2025-05-06 16:32:48.931,-0.0137125786396256,-0.0263963885752027,-0.0401087980080075,0.0176148839057818,6.0,NB
2025-05-06 16:32:48.932,-0.0257276867390823,-0.0259165044834127,-0.0516440212603869,0.019348692344182,6.0,NB
2025-05-06 16:32:48.934,-0.0350741641917326,-0.0255778548450948,-0.0606518483081309,0.0194813753530601,6.0,NB
2025-05-06 16:32:48.936,-0.0399096702424199,-0.0252535812538056,-0.0651630799818076,0.0187767755655159,6.0,NB
2025-05-06 16:32:48.938,-0.0402239863799058,-0.0247857757252834,-0.0650095897859427,0.0181896708105315,6.0,NB
2025-05-06 16:32:48.940,-0.0375339974588572,-0.0241413190291307,-0.0616751433533045,0.0184177880029608,6.0,NB
2025-05-06 16:32:48.942,-0.0340697356629059,-0.0234427526332775,-0.0575123143485442,0.0196452304491946,6.0,NB
2025-05-06 16:32:48.944,-0.0319564335924877,-0.0228565624502129,-0.0548128212956499,0.0215598954232708,6.0,NB
2025-05-06 16:32:48.946,-0.0326511313243824,-0.0224514324104117,-0.0551023882049312,0.0236023218052398,6.0,NB
2025-05-06 16:32:48.948,-0.0366567912143726,-0.0221520020579942,-0.0588086169692359,0.0253058022042328,6.0,NB
2025-05-06 16:32:48.950,-0.0434764958167487,-0.0218198584276612,-0.0652961771635305,0.026523874113753,6.0,NB
2025-05-06 16:32:48.952,-0.051809881113687,-0.0213853583681631,-0.0731950616047511,0.0274179390244677,6.0,NB
2025-05-06 16:32:48.954,-0.0599814225331804,-0.0209135349225119,-0.0808947787572955,0.0282718674689802,6.0,NB
2025-05-06 16:32:48.956,-0.066482298212619,-0.0205388781946603,-0.0870209968670907,0.0293060972901044,6.0,NB
2025-05-06 16:32:48.958,-0.0704158364079661,-0.0203101301934908,-0.0907257862128449,0.0305885136817598,6.0,NB
2025-05-06 16:32:48.960,-0.0716793973342049,-0.0200718725617721,-0.0917510886685744,0.0320188746573645,6.0,NB
2025-05-06 16:32:48.962,-0.0708598986929077,-0.0195019990208029,-0.0903617156674044,0.0333417409501457,6.0,NB
2025-05-06 16:32:48.964,-0.0689415527120346,-0.0183101851754832,-0.0872515550408685,0.0342018687601201,6.0,NB
2025-05-06 16:32:48.966,-0.0669625793636956,-0.0164656193005147,-0.0834280150231818,0.0342798107901688,6.0,NB
2025-05-06 16:32:48.968,-0.065730603115513,-0.0142867569490902,-0.0800171756175176,0.0334819408300696,6.0,NB
2025-05-06 16:32:48.970,-0.0656486977386598,-0.0123267454245486,-0.0779752578847549,0.0320776966406056,6.0,NB
2025-05-06 16:32:48.972,-0.0666562022224961,-0.0111264992284804,-0.0777825153134306,0.030661492912408,6.0,NB
2025-05-06 16:32:48.973,-0.0682794855349444,-0.0109681087823645,-0.079247407303287,0.0298907556712873,6.0,NB
2025-05-06 16:32:48.975,-0.0697985239258992,-0.0117363915075778,-0.0815347275436042,0.0301117301382053,6.0,NB
2025-05-06 16:32:48.977,-0.0705186717815937,-0.0129484797799735,-0.0834669628129485,0.0311443099604053,6.0,NB
2025-05-06 16:32:48.979,-0.0700788062417885,-0.0139570653772723,-0.0840356820351743,0.0324447834593156,6.0,NB
