Timestamp,GSR_Filtered,PPG_Filtered
2025-06-25 13:45:40.379,-8.17687263306447e-05,-84.21750276618009
2025-06-25 13:45:40.387,-2.6279666177495065e-05,-85.20068758940819
2025-06-25 13:45:40.395,2.7773789281049985e-05,-85.55545907926927
2025-06-25 13:45:40.402,7.944173284783943e-05,-85.17163968813317
2025-06-25 13:45:40.410,0.0001278448380351,-83.9491026933749
2025-06-25 13:45:40.418,0.000172199772599,-81.80188040805083
2025-06-25 13:45:40.426,0.0002118408192683,-78.6619122842376
2025-06-25 13:45:40.434,0.0002462368789611,-74.482257685533
2025-06-25 13:45:40.442,0.000275003316009,-69.23961526458089
2025-06-25 13:45:40.449,0.0002979083933203,-62.93601706707562
2025-06-25 13:45:40.457,0.0003148743107806,-55.59959975019671
2025-06-25 13:45:40.465,0.0003259730897972,-47.28439612422368
2025-06-25 13:45:40.473,0.0003314177379508,-38.06913555272558
2025-06-25 13:45:40.481,0.0003315492806116,-28.05508911602157
2025-06-25 13:45:40.488,0.0003268203628891,-17.363042132257636
2025-06-25 13:45:40.496,0.0003177762082046,-6.129519856046851
2025-06-25 13:45:40.504,0.000305033772677,5.497570694091636
2025-06-25 13:45:40.512,0.00028925995978,17.363691060943655
2025-06-25 13:45:40.520,0.00027114975186,29.31260343643143
2025-06-25 13:45:40.527,0.000251405055947,41.19126660486572
2025-06-25 13:45:40.535,0.000230714933744,52.85448177896598
2025-06-25 13:45:40.543,0.0002097376987326,64.16908932552103
2025-06-25 13:45:40.551,0.000189085158269,75.01754222390416
2025-06-25 13:45:40.559,0.0001693091095075,85.30071515349917
2025-06-25 13:45:40.567,0.0001508901039514,94.93984729208626
2025-06-25 13:45:40.574,0.0001342284808415,103.8775599291992
2025-06-25 13:45:40.582,0.0001196377108358,112.077934500862
2025-06-25 13:45:40.590,0.0001073401605391,119.52568036826456
2025-06-25 13:45:40.598,9.7465459149446e-05,126.22446253113796
2025-06-25 13:45:40.606,9.005168106298366e-05,132.19449571100628
2025-06-25 13:45:40.613,8.504950273497989e-05,137.46954142065607
2025-06-25 13:45:40.621,8.23293260666105e-05,142.0934676791872
2025-06-25 13:45:40.629,8.169112115252883e-05,146.11654623816068
2025-06-25 13:45:40.637,8.287651226391575e-05,149.59166922647208
2025-06-25 13:45:40.645,8.558249444733355e-05,152.5706660227952
2025-06-25 13:45:40.652,8.947615073299749e-05,155.10089226558293
2025-06-25 13:45:40.660,9.420979577605888e-05,157.22224683389803
2025-06-25 13:45:40.668,9.943602816511372e-05,158.96475024350227
2025-06-25 13:45:40.676,0.0001048221943011,160.34679026819256
2025-06-25 13:45:40.684,0.0001100637612505,161.37410893557225
2025-06-25 13:45:40.692,0.0001148960868882,162.03957068324146
2025-06-25 13:45:40.699,0.0001191040830362,162.32371578296534
2025-06-25 13:45:40.707,0.0001225293160155,162.19606756090766
2025-06-25 13:45:40.715,0.000125074201189,161.61712786463667
2025-06-25 13:45:40.723,0.0001267031209829,160.5409640013007
2025-06-25 13:45:40.731,0.0001274405004052,158.9182632473327
2025-06-25 13:45:40.738,0.0001273660719443,156.69970912345173
2025-06-25 13:45:40.746,0.0001266077149633,153.8395178875058
2025-06-25 13:45:40.754,0.0001253323351735,150.29896487686537
2025-06-25 13:45:40.762,0.0001237352580056,146.04972897372113
2025-06-25 13:45:40.770,0.0001220285796948,141.0768898840114
2025-06-25 13:45:40.777,0.0001204288997966,137.31154426932343
2025-06-25 13:45:40.785,0.0001191448830058,132.6078987482722
2025-06-25 13:45:40.793,0.0001183651662155,126.9907125654361
2025-06-25 13:45:40.801,0.0001182472036849,120.50940352775586
2025-06-25 13:45:40.809,0.0001189076800878,113.23814738385248
2025-06-25 13:45:40.817,0.000120415083302,105.27499324532272
2025-06-25 13:45:40.824,0.0001227849162435,96.7400063132752
2025-06-25 13:45:40.832,0.0001259778734499,87.77249288811156
2025-06-25 13:45:40.840,0.0001299011515436,78.52740253368043
2025-06-25 13:45:40.848,0.0001344129086445,69.1710368168618
2025-06-25 13:45:40.856,0.0001393297073359,59.8762224025277
2025-06-25 13:45:40.863,0.000144436559004,50.81712796494834
2025-06-25 13:45:40.871,0.0001494989763504,42.16391904825716
2025-06-25 13:45:40.879,0.0001542762794464,34.0774524172899
2025-06-25 13:45:40.887,0.0001585352905808,26.704211388914544
2025-06-25 13:45:40.895,0.0001620634962701,20.171675985135764
2025-06-25 13:45:40.902,0.0001646807890283,14.584306481035672
2025-06-25 13:45:40.910,0.0001662490504275,10.020296260608127
2025-06-25 13:45:40.918,0.0001666790585905,6.529220482616672
2025-06-25 13:45:40.926,0.0001659344239443,4.130672037721544
2025-06-25 13:45:40.934,0.0001640324378738,2.813937229732986
2025-06-25 13:45:40.942,0.0001610418666718,2.5387223944718342
2025-06-25 13:45:40.949,0.0001570778559177,3.236901219393084
2025-06-25 13:45:40.957,0.0001522942354303,4.815212711829879
2025-06-25 13:45:40.965,0.0001468736315777,7.158803267483559
2025-06-25 13:45:40.973,0.0001410158998244,10.135474554365532
2025-06-25 13:45:40.981,0.0001349254838746,13.600473117482617
2025-06-25 13:45:40.988,0.0001287983866252,17.4016386006558
2025-06-25 13:45:40.996,0.0001228094988056,21.38471584461449
2025-06-25 13:45:41.004,0.000117101062133,25.398632120847097
2025-06-25 13:45:41.012,0.0001117730210833,29.300544372064305
2025-06-25 13:45:41.020,0.0001068759185495,32.96047225334627
2025-06-25 13:45:41.027,0.0001024068185117,36.26535045263427
2025-06-25 13:45:41.035,9.830852134924736e-05,39.122357437319
2025-06-25 13:45:41.043,9.447210563357144e-05,41.46140645187657
2025-06-25 13:45:41.051,9.074261069386148e-05,43.23671715207608
2025-06-25 13:45:41.059,8.692749623360472e-05,44.42742146843615
2025-06-25 13:45:41.067,8.280739681132074e-05,45.03719385222095
2025-06-25 13:45:41.074,7.814861189216415e-05,45.09293268043519
2025-06-25 13:45:41.082,7.271670236402623e-05,44.64255505689656
2025-06-25 13:45:41.090,6.629050378273178e-05,43.7520004319704
2025-06-25 13:45:41.098,5.867585137179403e-05,42.50156838215143
2025-06-25 13:45:41.106,4.97183541846068e-05,40.98174163799352
2025-06-25 13:45:41.113,3.931462086277348e-05,39.28866615235723
2025-06-25 13:45:41.121,2.742139177854429e-05,37.51947477255009
2025-06-25 13:45:41.129,1.4062083242676388e-05,35.7676490043209
2025-06-25 13:45:41.137,-6.696650139177214e-07,34.11861353334935
2025-06-25 13:45:41.145,-1.6609718640155542e-05,32.64574983203822
2025-06-25 13:45:41.152,-3.352657714202191e-05,31.40699787537744
2025-06-25 13:45:41.160,-5.112785357643169e-05,30.44218880100586
2025-06-25 13:45:41.168,-6.906988294079319e-05,29.771217043205283
2025-06-25 13:45:41.176,-8.697008722282831e-05,29.39311954012817
2025-06-25 13:45:41.184,-0.0001044216066957,29.28608421759923
2025-06-25 13:45:41.192,-0.0001210095866037,29.40836279983136
2025-06-25 13:45:41.199,-0.0001363283566072,29.700017131926792
2025-06-25 13:45:41.207,-0.0001499985851764,30.08538668530104
2025-06-25 13:45:41.215,-0.0001616834052956,30.476130512414475
2025-06-25 13:45:41.223,-0.0001711025411087,30.774671833518624
2025-06-25 13:45:41.231,-0.0001780436065283,30.877859197363943
2025-06-25 13:45:41.238,-0.000182369959183,30.68065550442568
2025-06-25 13:45:41.246,-0.000184024759898,30.07967504961464
2025-06-25 13:45:41.254,-0.0001830312025102,28.976408290921004
2025-06-25 13:45:41.262,-0.0001794891988506,27.2800027599188
2025-06-25 13:45:41.270,-0.0001735690526114,24.90950432593874
2025-06-25 13:45:41.277,-0.0001655027824634,21.795503422696196
2025-06-25 13:45:41.285,-0.0001555737711781,17.8811731010744
2025-06-25 13:45:41.293,-0.0001441053704356,13.122727056908122
2025-06-25 13:45:41.301,-0.0001314490178765,7.489363372936338
2025-06-25 13:45:41.309,-0.0001179723405411,0.9627911696161636
2025-06-25 13:45:41.317,-0.0001040476355444,-6.463539318355837
2025-06-25 13:45:41.324,-9.00410474411384e-05,-14.785368977212077
2025-06-25 13:45:41.332,-7.630271725098105e-05,-23.988586748849677
2025-06-25 13:45:41.340,-6.31581528480688e-05,-34.05008086389615
2025-06-25 13:45:41.348,-5.0901021306105486e-05,-44.938371238626125
2025-06-25 13:45:41.356,-3.978745639745245e-05,-56.61393605739925
2025-06-25 13:45:41.363,-3.00318347838446e-05,-69.0291788253226
2025-06-25 13:45:41.371,-2.180386524917809e-05,-82.12802025131816
2025-06-25 13:45:41.379,-1.5226790288387131e-05,-95.84513956699836
2025-06-25 13:45:41.387,-1.0376507209603492e-05,-110.1049295136612
2025-06-25 13:45:41.395,-7.281453426146714e-06,-124.8202655033834
2025-06-25 13:45:41.403,-5.923154767454595e-06,-139.89121984363183
2025-06-25 13:45:41.410,-6.23740083081608e-06,-155.20387415372818
2025-06-25 13:45:41.418,-8.116083213737147e-06,-170.62939530584458
2025-06-25 13:45:41.426,-1.1409804596159994e-05,-186.02354100775187
2025-06-25 13:45:41.434,-1.5931424615235876e-05,-201.2267498228589
2025-06-25 13:45:41.442,-2.1460725370885744e-05,-216.06494718312567
2025-06-25 13:45:41.449,-2.775032992592838e-05,-230.35116493072968
2025-06-25 13:45:41.457,-3.453289145167692e-05,-243.88802913897544
2025-06-25 13:45:41.465,-4.152941595653043e-05,-256.4711220637428
2025-06-25 13:45:41.473,-4.845842491824191e-05,-267.89317201380766
2025-06-25 13:45:41.481,-5.504554307620174e-05,-277.9489726553206
2025-06-25 13:45:41.488,-6.103303942394015e-05,-286.44088362043533
2025-06-25 13:45:41.496,-6.618885790573484e-05,-293.1847200269604
2025-06-25 13:45:41.504,-7.0314725422935e-05,-298.0158023384434
2025-06-25 13:45:41.512,-7.325299424951618e-05,-300.79491245628464
2025-06-25 13:45:41.520,-7.489195232509217e-05,-301.4138891852834
2025-06-25 13:45:41.528,-7.516941487270495e-05,-299.80059766208706
2025-06-25 13:45:41.535,-7.407449292186647e-05,-295.9230234053177
2025-06-25 13:45:41.543,-7.164751730578163e-05,-289.79227171899606
2025-06-25 13:45:41.551,-6.797817936703894e-05,-281.46429572399643
2025-06-25 13:45:41.559,-6.320203084488507e-05,-271.04022905328134
2025-06-25 13:45:41.567,-5.749556415132738e-05,-258.6652594324437
2025-06-25 13:45:41.574,-5.107016774477137e-05,-244.5260437640301
2025-06-25 13:45:41.582,-4.416530872052132e-05,-228.84673039404132
2025-06-25 13:45:41.590,-3.704131254808026e-05,-211.88371622152567
2025-06-25 13:45:41.598,-2.997206744000681e-05,-193.9193215501961
2025-06-25 13:45:41.606,-2.3237890378025115e-05,-175.2546108375518
2025-06-25 13:45:41.613,-1.7118701248865627e-05,-156.20162035701702
2025-06-25 13:45:41.621,-1.1887600269937084e-05,-137.07527300799774
2025-06-25 13:45:41.629,-7.804920675015088e-06,-118.18526614259116
2025-06-25 13:45:41.637,-5.112789948004508e-06,-99.82821145331364
2025-06-25 13:45:41.645,-4.030158306341126e-06,-82.28028842183566
2025-06-25 13:45:41.653,-4.748167296958837e-06,-65.79064647640126
2025-06-25 13:45:41.660,-7.425680328134976e-06,-50.57575766076721
2025-06-25 13:45:41.668,-1.218481388209042e-05,-36.814882884615656
2025-06-25 13:45:41.676,-1.910639252331031e-05,-24.64677208945185
2025-06-25 13:45:41.684,-2.8225374982602723e-05,-14.16767316379235
2025-06-25 13:45:41.692,-3.952643160205226e-05,-5.430677414198717
2025-06-25 13:45:41.699,-5.293996871591296e-05,1.5536177592814602
2025-06-25 13:45:41.707,-6.833896223271673e-05,6.815193996959904
2025-06-25 13:45:41.715,-8.553695489729569e-05,10.421552328330286
2025-06-25 13:45:41.723,-0.000104287497247,12.473653529199655
2025-06-25 13:45:41.731,-0.0001242852172208,13.101034164253798
2025-06-25 13:45:41.738,-0.0001451686345879,12.45629724171928
2025-06-25 13:45:41.746,-0.0001665248039406,10.70919132134964
2025-06-25 13:45:41.754,-0.0001878958518308,8.040498223104734
2025-06-25 13:45:41.762,-0.0002087874456463,4.635947290884539
2025-06-25 13:45:41.770,-0.0002286791835835,0.6803639041922582
2025-06-25 13:45:41.778,-0.0002470368254221,-3.647757702761392
2025-06-25 13:45:41.785,-0.0002633261944698,-8.181091334064748
2025-06-25 13:45:41.793,-0.0002770284749708,-12.76758884593301
2025-06-25 13:45:41.801,-0.0002876565106607,-17.273760066986593
2025-06-25 13:45:41.809,-0.000294771584273,-21.587055310138894
2025-06-25 13:45:41.817,-0.0002980000325582,-25.617320042302023
2025-06-25 13:45:41.824,-0.0002970489434911,-29.29732760053953
2025-06-25 13:45:41.832,-0.0002917201216538,-32.582430140295585
2025-06-25 13:45:41.840,-0.0002819215230381,-35.44939894090618
2025-06-25 13:45:41.848,-0.0002676754554622,-37.894551633091886
2025-06-25 13:45:41.856,-0.0002491229939634,-39.93128495521313
2025-06-25 13:45:41.863,-0.0002265242486688,-41.58714669469902
2025-06-25 13:45:41.871,-0.0002002543329101,-42.90058927943662
2025-06-25 13:45:41.879,-0.0001707950981782,-43.91755015916493
2025-06-25 13:45:41.887,-0.0001387229046072,-44.68800108646444
2025-06-25 13:45:41.895,-0.0001046928561427,-45.26260033109907
2025-06-25 13:45:41.903,-6.942004744167911e-05,-45.68956951694251
2025-06-25 13:45:41.910,-3.365846770360159e-05,-46.01190093440753
2025-06-25 13:45:41.918,1.821693738898443e-06,-46.26498254843344
2025-06-25 13:45:41.926,3.625749672183653e-05,-46.47470708785896
2025-06-25 13:45:41.934,6.891654486555444e-05,-46.65610911220035
2025-06-25 13:45:41.942,9.91192195446604e-05,-46.812550388497726
2025-06-25 13:45:41.949,0.0001262590225218,-46.9354499611811
2025-06-25 13:45:41.957,0.0001498203062137,-47.004531782072135
2025-06-25 13:45:41.965,0.0001693927884504,-46.98854063661786
2025-06-25 13:45:41.973,0.0001846823784964,-46.84635741690136
2025-06-25 13:45:41.981,0.0001955179806848,-46.52842867577071
2025-06-25 13:45:41.988,0.000201854076284,-45.97841395448637
2025-06-25 13:45:41.996,0.0002037690151844,-45.134948581995786
2025-06-25 13:45:42.004,0.0002014590905538,-43.93342021673467
2025-06-25 13:45:42.012,0.0001952286208179,-42.30766468290968
2025-06-25 13:45:42.020,0.0001854764114397,-40.191500455372434
2025-06-25 13:45:42.028,0.0001726791061078,-37.52004058407003
2025-06-25 13:45:42.035,0.0001573720601135,-34.230744258962964
2025-06-25 13:45:42.043,0.000140128468458,-30.26419534092492
2025-06-25 13:45:42.051,0.000121537536986,-25.564619622610024
2025-06-25 13:45:42.059,0.0001021824850785,-20.080174319779143
2025-06-25 13:45:42.067,8.261913709124899e-05,-13.763061007125836
2025-06-25 13:45:42.074,6.335583568442045e-05,-6.569526241327408
2025-06-25 13:45:42.082,4.483539537479487e-05,1.540177784061632
2025-06-25 13:45:42.090,2.741977390403452e-05,10.601797069743528
2025-06-25 13:45:42.098,1.1378052025702684e-05,20.646970408034875
2025-06-25 13:45:42.106,-3.1218061376412523e-06,31.702947549390075
2025-06-25 13:45:42.113,-1.601706643738509e-05,43.79207480686162
2025-06-25 13:45:42.121,-2.734998857180701e-05,56.93100725513019
2025-06-25 13:45:42.129,-3.726313452832288e-05,71.12962571442037
2025-06-25 13:45:42.137,-4.599023626001832e-05,86.38965879306838
2025-06-25 13:45:42.145,-5.384278306792021e-05,102.70303443195937
2025-06-25 13:45:42.153,-6.119268087605635e-05,120.05001041804051
2025-06-25 13:45:42.160,-6.845156752352054e-05,138.3971577756153
2025-06-25 13:45:42.168,-7.604760179199753e-05,157.69529327262023
2025-06-25 13:45:42.176,-8.440072692262122e-05,177.8774759906064
2025-06-25 13:45:42.184,-9.389750389946051e-05,198.85719660168485
2025-06-25 13:45:42.192,-0.0001048666113595,220.52689540573363
2025-06-25 13:45:42.199,-0.000117556040335,242.75694521118493
2025-06-25 13:45:42.207,-0.0001321128993201,265.3952269838856
2025-06-25 13:45:42.215,-0.0001485666105543,288.26740950067324
2025-06-25 13:45:42.223,-0.0001668161474324,311.17801932857225
2025-06-25 13:45:42.231,-0.0001866218521941,333.9123553313831
2025-06-25 13:45:42.238,-0.0002076022701839,356.23926427313995
2025-06-25 13:45:42.246,-0.000229236319309,377.91475308992005
2025-06-25 13:45:42.254,-0.0002508709813479,398.6863713392215
2025-06-25 13:45:42.262,-0.0002717345695769,418.2982564079359
2025-06-25 13:45:42.270,-0.0002909554944949,436.4966962796688
2025-06-25 13:45:42.278,-0.0003075863049863,453.0360319342777
2025-06-25 13:45:42.285,-0.00032063262077,467.6846956536302
2025-06-25 13:45:42.293,-0.0003290863960714,480.2311644391082
2025-06-25 13:45:42.301,-0.0003319627699078,490.4896009249972
2025-06-25 13:45:42.309,-0.0003283395708002,498.3049585384508
2025-06-25 13:45:42.317,-0.0003173983519287,503.5573433577842
2025-06-25 13:45:42.324,-0.0002984656241186,506.1654514772232
2025-06-25 13:45:42.332,-0.0002710527180369,506.0889363236973
2025-06-25 13:45:42.340,-0.0002348924584869,503.3296033856998
2025-06-25 13:45:42.348,-0.0001899706124173,497.9313778570974
2025-06-25 13:45:42.356,-0.0001365499184599,489.9790409972697
2025-06-25 13:45:42.363,-7.518445215742143e-05,479.5957805050876
2025-06-25 13:45:42.371,-6.72218695473085e-06,466.93964598486656
2025-06-25 13:45:42.379,6.770599919272115e-05,452.19904046184695
2025-06-25 13:45:42.387,0.0001467118244221,435.5874117603888
2025-06-25 13:45:42.395,0.0002286894068394,417.3373331915489
2025-06-25 13:45:42.403,0.0003118679222311,397.6941816451839
2025-06-25 13:45:42.410,0.0003943746300278,376.90963289743326
2025-06-25 13:45:42.418,0.0004743050794505,355.2351981038267
2025-06-25 13:45:42.426,0.0005497969031778,332.916020853827
2025-06-25 13:45:42.434,0.0006191034190662,310.18513990798306
2025-06-25 13:45:42.442,0.000680663229123,287.25839911741946
2025-06-25 13:45:42.449,0.0007331621066313,264.33015462139167
2025-06-25 13:45:42.457,0.0007755837236006,241.56989250499996
2025-06-25 13:45:42.465,0.0008072462478945,219.11983006097745
2025-06-25 13:45:42.473,0.0008278225900742,197.0935328838916
2025-06-25 13:45:42.481,0.0008373431325814,175.57554026298436
2025-06-25 13:45:42.488,0.0008361810720645,154.62195449090834
2025-06-25 13:45:42.496,0.0008250218691465,134.26191720236162
2025-06-25 13:45:42.504,0.0008048194794024,114.49986876161148
2025-06-25 13:45:42.512,0.0007767428373666,95.31846570610256
2025-06-25 13:45:42.520,0.0007421164101882,76.6820166227914
2025-06-25 13:45:42.528,0.0007023585637895,58.54028853914607
2025-06-25 13:45:42.535,0.0006589210827319,40.8325336159311
2025-06-25 13:45:42.543,0.0006132325804268,23.491589078150724
2025-06-25 13:45:42.551,0.0005666478718591,6.447911218204365
2025-06-25 13:45:42.559,0.0005204047666903,-10.366583814374492
2025-06-25 13:45:42.567,0.0004755892122152,-27.01498465376112
2025-06-25 13:45:42.574,0.0004331092578725,-43.55224955876013
2025-06-25 13:45:42.582,0.0003936779093477,-60.02254721263808
2025-06-25 13:45:42.590,0.0003578045902572,-76.45712947099662
2025-06-25 13:45:42.598,0.0003257946391856,-92.87277227626224
2025-06-25 13:45:42.606,0.000297756044306,-109.27080186242482
2025-06-25 13:45:42.613,0.0002736124589868,-125.63670552098633
2025-06-25 13:45:42.621,0.000253121449069,-141.9403100298021
2025-06-25 13:45:42.629,0.0002358968913346,-158.13649667288792
2025-06-25 13:45:42.637,0.0002214344584348,-174.16640979051314
2025-06-25 13:45:42.645,0.0002091391610031,-189.95910606865024
2025-06-25 13:45:42.653,0.0001983539537858,-205.43358426456365
2025-06-25 13:45:42.660,0.0001883884653237,-220.5011296100161
2025-06-25 13:45:42.668,0.0001785470109037,-235.06790345035165
2025-06-25 13:45:42.676,0.0001681551903991,-249.0377063737227
2025-06-25 13:45:42.684,0.000156584512428,-262.3148417024893
2025-06-25 13:45:42.692,0.0001432745876951,-274.8070053030993
2025-06-25 13:45:42.699,0.0001277524863424,-286.4281268520919
2025-06-25 13:45:42.707,0.0001096488645452,-297.1010867864529
2025-06-25 13:45:42.715,8.871046754571343e-05,-306.7602322603548
2025-06-25 13:45:42.723,6.480865042209979e-05,-315.3536149886205
2025-06-25 13:45:42.731,3.794362669237184e-05,-322.8448747521816
2025-06-25 13:45:42.738,8.244225887371331e-06,-329.21469583203907
2025-06-25 13:45:42.746,-2.4036994925969693e-05,-334.4617712628715
2025-06-25 13:45:42.754,-5.853334578574768e-05,-338.6032231172263
2025-06-25 13:45:42.762,-9.47781935698479e-05,-341.674447122215
2025-06-25 13:45:42.770,-0.0001322233819422,-343.7283765872461
2025-06-25 13:45:42.778,-0.0001702612164385,-344.83419175859666
2025-06-25 13:45:42.785,-0.0002082490579266,-345.07553229025814
2025-06-25 13:45:42.793,-0.0002455353365538,-344.54829766475274
2025-06-25 13:45:42.801,-0.0002814856686344,-343.35813905069654
2025-06-25 13:45:42.809,-0.0003155077574144,-341.6177543060496
2025-06-25 13:45:42.817,-0.0003470738853502,-339.44409610505613
2025-06-25 13:45:42.824,-0.0003757400242272,-336.9555936948055
2025-06-25 13:45:42.832,-0.0004011608468014,-334.2694744503749
2025-06-25 13:45:42.840,-0.0004231001805107,-331.4992548415529
2025-06-25 13:45:42.848,-0.0004414366830208,-328.75245360729133
2025-06-25 13:45:42.856,-0.0004561647349093,-326.1285641037163
2025-06-25 13:45:42.863,-0.0004673907335833,-323.71730869213
2025-06-25 13:45:42.871,-0.0004753251328134,-321.59718610160866
2025-06-25 13:45:42.879,-0.000480270703381,-319.8343131554763
2025-06-25 13:45:42.887,-0.0004826075926171,-318.48155512038124
2025-06-25 13:45:42.895,-0.0004827758351544,-317.57793407488805
2025-06-25 13:45:42.903,-0.0004812560157408,-317.14830180153365
2025-06-25 13:45:42.910,-0.000478548809576,-317.2032623535632
2025-06-25 13:45:42.918,-0.0004751541287012,-317.7393291072395
2025-06-25 13:45:42.926,-0.0004715505869186,-318.73930118910005
2025-06-25 13:45:42.934,-0.0004681759629285,-320.1728440411589
2025-06-25 13:45:42.942,-0.000465409294078,-321.9972579425584
2025-06-25 13:45:42.949,-0.0004635551733172,-324.1584160111484
2025-06-25 13:45:42.957,-0.0004628307514131,-326.59184927444346
2025-06-25 13:45:42.965,-0.0004633558666702,-329.2239510719198
2025-06-25 13:45:42.973,-0.0004651466366108,-331.9732673898744
2025-06-25 13:45:42.981,-0.0004681127513789,-334.75183558757
2025-06-25 13:45:42.988,-0.000472058608045,-337.4665334846997
2025-06-25 13:45:42.996,-0.0004766883195128,-340.0204055114045
2025-06-25 13:45:43.004,-0.0004816145224653,-342.31394273494914
2025-06-25 13:45:43.012,-0.0004863707970678,-344.24630746580567
2025-06-25 13:45:43.020,-0.0004904273985675,-345.716507906712
2025-06-25 13:45:43.028,-0.0004932098895302,-346.62454089603534
2025-06-25 13:45:43.035,-0.0004941201536599,-346.87252908357084
2025-06-25 13:45:43.043,-0.0004925591709118,-346.3658819456508
2025-06-25 13:45:43.051,-0.0004879508423219,-345.0145078602312
2025-06-25 13:45:43.059,-0.0004797660754798,-342.73409747271234
2025-06-25 13:45:43.067,-0.0004675462820659,-339.44748753850786
2025-06-25 13:45:43.074,-0.0004509254017553,-335.0861003116123
2025-06-25 13:45:43.082,-0.0004296495565824,-329.59143753742325
2025-06-25 13:45:43.090,-0.0004035934608922,-322.91659153221804
2025-06-25 13:45:43.098,-0.0003727727683163,-315.0277201220646
2025-06-25 13:45:43.106,-0.0003373516321926,-305.90541884796824
2025-06-25 13:45:43.113,-0.0002976448920589,-295.54591427961464
2025-06-25 13:45:43.121,-0.0002541144777065,-283.96199784819214
2025-06-25 13:45:43.129,-0.0002073598438205,-271.1836213135979
2025-06-25 13:45:43.137,-0.000158102510892,-257.2580832320704
2025-06-25 13:45:43.145,-0.0001071650868591,-242.24975023507915
2025-06-25 13:45:43.153,-5.544546217391182e-05,-226.2392765632073
2025-06-25 13:45:43.160,-3.887169432173316e-06,-209.32230879130785
2025-06-25 13:45:43.168,4.655287517179245e-05,-191.6076886979688
2025-06-25 13:45:43.176,9.493790561026433e-05,-173.21519451857455
2025-06-25 13:45:43.184,0.0001403847268685,-154.2728879944878
2025-06-25 13:45:43.192,0.0001820956273583,-134.9141597718461
2025-06-25 13:45:43.199,0.000219387397994,-115.27458611566183
2025-06-25 13:45:43.207,0.0002517161249621,-95.48872257425356
2025-06-25 13:45:43.215,0.000278696562476,-75.68696298044216
2025-06-25 13:45:43.223,0.000300115141241,-55.992584625530256
2025-06-25 13:45:43.231,0.0003159360021641,-36.51908395780945
2025-06-25 13:45:43.238,0.0003262998121028,-17.36788415739399
2025-06-25 13:45:43.246,0.0003315154806106,1.3735306894698878
2025-06-25 13:45:43.254,0.0003320452351567,19.63302727548643
2025-06-25 13:45:43.262,0.0003284838112042,37.35477780592844
2025-06-25 13:45:43.270,0.000321532748282,54.49977468354755
2025-06-25 13:45:43.278,0.0003119709392574,71.04593499773573
2025-06-25 13:45:43.285,0.0003006226791861,86.98783017735042
2025-06-25 13:45:43.293,0.0002883245382775,102.33607467139797
2025-06-25 13:45:43.301,0.0002758924338276,117.1164004656772
2025-06-25 13:45:43.309,0.0002640902506351,131.3684338127663
2025-06-25 13:45:43.317,0.0002536012398153,145.1441793495713
2025-06-25 13:45:43.324,0.0002450032525956,158.50620745730777
2025-06-25 13:45:43.332,0.0002387486880514,171.52553563949496
2025-06-25 13:45:43.340,0.000235149866006,184.2791956056446
2025-06-25 13:45:43.348,0.0002343703684481,196.84748558122132
2025-06-25 13:45:43.356,0.000236422708977,209.3109221268145
2025-06-25 13:45:43.363,0.0002411724675849,221.74692656594715
2025-06-25 13:45:43.371,0.0002483487478237,234.22630639091983
2025-06-25 13:45:43.379,0.0002575604802423,246.809619635418
2025-06-25 13:45:43.387,0.0002683177416428,259.5435377665533
2025-06-25 13:45:43.395,0.0002800569269319,272.4573475950142
2025-06-25 13:45:43.403,0.000292168349832,285.5597524501716
2025-06-25 13:45:43.410,0.0003040247141723,298.8361450606892
2025-06-25 13:45:43.418,0.0003150089144178,312.2465274039758
2025-06-25 13:45:43.426,0.0003245397678459,325.72424516569174
2025-06-25 13:45:43.434,0.000332094500258,339.1756860171982
2025-06-25 13:45:43.442,0.0003372270625547,352.48106185326213
2025-06-25 13:45:43.449,0.0003395816280508,365.4963560402319
2025-06-25 13:45:43.457,0.000338900901304,378.0564686046967
2025-06-25 13:45:43.465,0.0003350291518413,389.9795365467446
2025-06-25 13:45:43.473,0.0003279101643699,401.07234496379766
2025-06-25 13:45:43.481,0.0003175805652668,411.13667994503055
2025-06-25 13:45:43.488,0.0003041592366127,419.976409668168
2025-06-25 13:45:43.496,0.0002878337478274,427.4050202233271
2025-06-25 13:45:43.504,0.0002688448865305,433.2532825543104
2025-06-25 13:45:43.512,0.0002474704172936,437.3766918400413
2025-06-25 13:45:43.520,0.0002240091397468,439.6623054068114
2025-06-25 13:45:43.528,0.0001987661970448,440.0346135218106
2025-06-25 13:45:43.535,0.0001720404316925,438.460111165424
2025-06-25 13:45:43.543,0.0001441143926522,434.9502977990066
2025-06-25 13:45:43.551,0.0001152473624549,429.5629129046837
2025-06-25 13:45:43.559,8.567151974559913e-05,422.401311093172
2025-06-25 13:45:43.567,5.559111208255944e-05,413.6119829468045
2025-06-25 13:45:43.574,2.518430449499997e-05,403.3803272589155
2025-06-25 13:45:43.582,-5.3927996610525065e-06,391.9248694328092
2025-06-25 13:45:43.590,-3.600059176744156e-05,379.4901946956829
2025-06-25 13:45:43.598,-6.650954359862313e-05,366.3389210882617
2025-06-25 13:45:43.606,-9.67936640488338e-05,352.7430751088915
2025-06-25 13:45:43.613,-0.0001267245120953,338.9752524304711
2025-06-25 13:45:43.621,-0.0001561663660359,325.2999476929246
2025-06-25 13:45:43.629,-0.0001849730152173,311.9654217037764
2025-06-25 13:45:43.637,-0.0002129864627715,299.1964423858358
2025-06-25 13:45:43.645,-0.0002400376143531,287.1881886265066
2025-06-25 13:45:43.653,-0.0002659487977191,276.1015451479613
2025-06-25 13:45:43.660,-0.0002905377523082,266.0599433373457
2025-06-25 13:45:43.668,-0.0003136226001167,257.1478202146384
2025-06-25 13:45:43.676,-0.0003350272869971,249.4106795370349
2025-06-25 13:45:43.684,-0.0003545870455821,242.85665156901712
2025-06-25 13:45:43.692,-0.0003721535302834,237.4593686364109
2025-06-25 13:45:43.699,-0.00038759937608,233.16190909884443
2025-06-25 13:45:43.707,-0.0004008220223693,229.8815176164888
2025-06-25 13:45:43.715,-0.000411746717808,227.51478678196608
2025-06-25 13:45:43.723,-0.0004203286810498,225.94298449659215
2025-06-25 13:45:43.731,-0.0004265544356332,225.0372316469985
2025-06-25 13:45:43.738,-0.0004304423657331,224.66327328300795
2025-06-25 13:45:43.746,-0.0004320425544684,224.6856400444684
2025-06-25 13:45:43.754,-0.000431435969895,224.97106049956852
2025-06-25 13:45:43.762,-0.0004287330580879,225.391054356482
2025-06-25 13:45:43.770,-0.0004240717904991,225.82370625687665
2025-06-25 13:45:43.778,-0.000417615196948,226.1546852954529
2025-06-25 13:45:43.785,-0.0004095483990358,226.27763178784735
2025-06-25 13:45:43.793,-0.0004000751443163,226.09407538609852
2025-06-25 13:45:43.801,-0.0003894138317928,225.51307329405543
2025-06-25 13:45:43.809,-0.0003777930165384,224.4507617121861
2025-06-25 13:45:43.817,-0.0003654463872961,222.8299980388828
2025-06-25 13:45:43.824,-0.0003526072271512,220.58023864992944
2025-06-25 13:45:43.832,-0.0003395023945315,217.6377518876233
2025-06-25 13:45:43.840,-0.000326345899994,213.94621360758867
2025-06-25 13:45:43.848,-0.0003133322029758,209.45767866499045
2025-06-25 13:45:43.856,-0.000300629410718,204.13387096624143
2025-06-25 13:45:43.863,-0.0002883726270783,197.94769119209647
2025-06-25 13:45:43.871,-0.000276657769532,190.88480800564903
2025-06-25 13:45:43.879,-0.0002655362437332,182.94517745627115
2025-06-25 13:45:43.887,-0.0002550109219253,174.1443274086583
2025-06-25 13:45:43.895,-0.0002450338786549,164.51424938583347
2025-06-25 13:45:43.903,-0.0002355062477315,154.10375872446974
2025-06-25 13:45:43.910,-0.0002262803591961,142.97821424830315
2025-06-25 13:45:43.918,-0.000217164034922,131.2185289544578
2025-06-25 13:45:43.926,-0.0002079266539033,118.91945093478051
2025-06-25 13:45:43.934,-0.0001983064305106,106.18714558026537
2025-06-25 13:45:43.942,-0.0001880183206634,93.13616196530543
2025-06-25 13:45:43.949,-0.0001767620613249,79.8859137037965
2025-06-25 13:45:43.957,-0.0001642300086718,66.5568432604975
2025-06-25 13:45:43.965,-0.0001501146295641,53.26646535530006
2025-06-25 13:45:43.973,-0.0001341156900039,40.12549773628332
2025-06-25 13:45:43.981,-0.0001159473325567,27.23428566039358
2025-06-25 13:45:43.988,-9.534529215165134e-05,14.679710605765386
2025-06-25 13:45:43.996,-7.207444271514493e-05,2.5327457494539907
2025-06-25 13:45:44.004,-4.593672239532045e-05,-9.15321702695956
2025-06-25 13:45:44.012,-1.6779305713800175e-05,-20.343188610285956
2025-06-25 13:45:44.020,1.5497279912753343e-05,-31.020521376865403
2025-06-25 13:45:44.028,5.093152807288315e-05,-41.18598350273823
2025-06-25 13:45:44.035,8.94943154867159e-05,-50.85603426842162
2025-06-25 13:45:44.043,0.0001310837255599,-60.06040709587288
2025-06-25 13:45:44.051,0.000175521714852,-68.83913987793494
2025-06-25 13:45:44.059,0.0002225528907638,-77.23921452135231
2025-06-25 13:45:44.067,0.0002718455576613,-85.3109786433351
2025-06-25 13:45:44.074,0.0003229950673146,-93.10452229250852
2025-06-25 13:45:44.082,0.0003755293595873,-100.66617268181707
2025-06-25 13:45:44.090,0.0004289164048888,-108.03525227841529
2025-06-25 13:45:44.098,0.000482573095763,-115.24122271797845
2025-06-25 13:45:44.106,0.0005358750322468,-122.30131155066346
2025-06-25 13:45:44.113,0.0005881666406799,-129.21869323211567
2025-06-25 13:45:44.121,0.000638771167342,-135.98127200883783
2025-06-25 13:45:44.129,0.0006870002923393,-142.56109369512632
2025-06-25 13:45:44.137,0.0007321633965805,-148.9143963196506
2025-06-25 13:45:44.145,0.000773576829733,-154.98229604431145
2025-06-25 13:45:44.153,0.0008105737776917,-160.69209389354614
2025-06-25 13:45:44.160,0.0008425154170922,-165.95917962501642
2025-06-25 13:45:44.168,0.0008688039056351,-170.68950034243727
2025-06-25 13:45:44.176,0.0008888973872563,-174.78255201630134
2025-06-25 13:45:44.184,0.0009023266747991,-178.1348408666163
2025-06-25 13:45:44.192,0.0009087127687213,-180.64374781309
2025-06-25 13:45:44.199,0.000907784037586,-182.2117127304141
2025-06-25 13:45:44.207,0.0008993917981901,-182.75063659845688
2025-06-25 13:45:44.215,0.0008835231541917,-182.18637996649565
2025-06-25 13:45:44.223,0.0008603101753412,-180.46321699536057
2025-06-25 13:45:44.231,0.0008300347134183,-177.54808742326065
2025-06-25 13:45:44.239,0.0007931283054405,-173.43447591077447
2025-06-25 13:45:44.246,0.0007501667369525,-168.14574115003455
2025-06-25 13:45:44.254,0.0007018589798242,-161.73771765020518
2025-06-25 13:45:44.262,0.0006490304129487,-154.3004230254091
2025-06-25 13:45:44.270,0.0005926005128421,-145.9587245550596
2025-06-25 13:45:44.278,0.0005335555879985,-136.8718515798382
2025-06-25 13:45:44.285,0.0004729175762218,-127.2316839661834
2025-06-25 13:45:44.293,0.0004117103099194,-117.2597983770257
2025-06-25 13:45:44.301,0.000350924892627,-107.20330933203492
2025-06-25 13:45:44.309,0.0002914859103606,-97.32959733539796
2025-06-25 13:45:44.317,0.0002342201518868,-87.92006892153182
2025-06-25 13:45:44.324,0.0001798293754896,-79.26314079992973
2025-06-25 13:45:44.332,0.0001288684872331,-71.64667925762659
2025-06-25 13:45:44.340,8.173030361504998e-05,-65.35015293922832
2025-06-25 13:45:44.348,3.863781715277197e-05,-60.63676905666769
2025-06-25 13:45:44.356,-3.554860978405837e-07,-57.74585932207744
2025-06-25 13:45:44.364,-3.535719339888695e-05,-56.88576506945074
2025-06-25 13:45:44.371,-6.661989693807682e-05,-58.22744615744688
2025-06-25 13:45:44.379,-9.451849313829384e-05,-61.8990103895304
2025-06-25 13:45:44.387,-0.0001195222740904,-67.98133237875528
2025-06-25 13:45:44.395,-0.000142163489436,-76.5049036473923
2025-06-25 13:45:44.403,-0.0001630041167279,-87.4480284168585
2025-06-25 13:45:44.410,-0.0001826024789222,-100.7364505820553
2025-06-25 13:45:44.418,-0.0002014811650722,-116.24446522919273
2025-06-25 13:45:44.426,-0.0002200975109399,-133.7975312528653
2025-06-25 13:45:44.434,-0.0002388177101559,-153.176358862785
2025-06-25 13:45:44.442,-0.0002578954625576,-174.1223962379019
2025-06-25 13:45:44.449,-0.0002774559296853,-196.34458357356837
2025-06-25 13:45:44.457,-0.0002974856516156,-219.5271824938841
2025-06-25 13:45:44.465,-0.000317828961673,-243.33842884641984
2025-06-25 13:45:44.473,-0.0003381912928749,-267.4397035104058
2025-06-25 13:45:44.481,-0.0003581495828571,-291.4948752695993
2025-06-25 13:45:44.489,-0.0003771697233133,-315.17944666220484
2025-06-25 13:45:44.496,-0.0003946306378098,-338.1891305296598
2025-06-25 13:45:44.504,-0.0004098541285755,-360.2475025756465
2025-06-25 13:45:44.512,-0.0004221391912417,-381.1124133375915
2025-06-25 13:45:44.520,-0.0004307991417404,-400.5809002142864
2025-06-25 13:45:44.528,-0.0004351996659219,-418.49241380005856
2025-06-25 13:45:44.535,-0.0004347957980975,-434.73025837084754
2025-06-25 13:45:44.543,-0.0004291658805828,-449.22123843946457
2025-06-25 13:45:44.551,-0.0004180407657916,-461.93359609960777
2025-06-25 13:45:44.559,-0.000401326866617,-472.87341216913455
2025-06-25 13:45:44.567,-0.0003791220760233,-482.079723167383
2025-06-25 13:45:44.574,-0.0003517239894012,-489.6186708601631
2025-06-25 13:45:44.582,-0.0003196302087946,-495.57704568740735
2025-06-25 13:45:44.590,-0.00028353075763,-500.0556045860825
2025-06-25 13:45:44.598,-0.0002442928101421,-503.1625351458912
2025-06-25 13:45:44.606,-0.0002029380904094,-505.0074034064643
2025-06-25 13:45:44.614,-0.0001606134681106,-505.6958669220188
2025-06-25 13:45:44.621,-0.0001185555147979,-505.3253645536022
2025-06-25 13:45:44.629,-7.80501168991181e-05,-503.98191661418633
2025-06-25 13:45:44.637,-4.038864062238354e-05,-501.7380897988937
2025-06-25 13:45:44.645,-6.822496321600505e-06,-498.6521061811451
2025-06-25 13:45:44.653,2.1481870490816605e-05,-494.7680087444029
2025-06-25 13:45:44.660,4.348556758472625e-05,-490.1167406313954
2025-06-25 13:45:44.668,5.831562072446269e-05,-484.7179536843007
2025-06-25 13:45:44.676,6.52975805341679e-05,-478.582335166245
2025-06-25 13:45:44.684,6.398113713918077e-05,-471.71423022938126
2025-06-25 13:45:44.692,5.415782238677217e-05,-464.1143414045666
2025-06-25 13:45:44.699,3.587020409308196e-05,-455.7823040561866
2025-06-25 13:45:44.707,9.412310205386046e-06,-446.7189664887503
2025-06-25 13:45:44.715,-2.4678638287889302e-05,-436.9282424550526
2025-06-25 13:45:44.723,-6.563875970694295e-05,-426.41844863822536
2025-06-25 13:45:44.731,-0.0001125015315578,-415.2030862317428
2025-06-25 13:45:44.739,-0.0001641281678577,-403.30107014227656
2025-06-25 13:45:44.746,-0.00021924288719,-390.7364485236436
2025-06-25 13:45:44.754,-0.0002764713317605,-377.5376874073976
2025-06-25 13:45:44.762,-0.0003343802711686,-363.7366192574914
2025-06-25 13:45:44.770,-0.0003915168218538,-349.3671701524799
2025-06-25 13:45:44.778,-0.0004464457462816,-334.4639881815013
2025-06-25 13:45:44.785,-0.0004977838835574,-319.06109596792425
2025-06-25 13:45:44.793,-0.0005442312531967,-303.19068364136143
2025-06-25 13:45:44.801,-0.0005845987158217,-286.88214586524936
2025-06-25 13:45:44.809,-0.0006178322117592,-270.16144863117114
2025-06-25 13:45:44.817,-0.0006430335972362,-253.05088949862
2025-06-25 13:45:44.824,-0.0006594780766302,-235.56928991520903
2025-06-25 13:45:44.832,-0.0006666282595366,-217.73263137184335
2025-06-25 13:45:44.840,-0.0006641449390511,-199.55511962371517
2025-06-25 13:45:44.848,-0.0006518947223909,-181.0506342248635
2025-06-25 13:45:44.856,-0.0006299545783796,-162.23449532704902
2025-06-25 13:45:44.864,-0.000598613188073,-143.12545716264648
2025-06-25 13:45:44.871,-0.0005583687640724,-123.7478188531661
2025-06-25 13:45:44.879,-0.0005099228411512,-104.13352902777862
2025-06-25 13:45:44.887,-0.0004541694867103,-84.32415192385255
2025-06-25 13:45:44.895,-0.0003921794224713,-64.3725597310866
2025-06-25 13:45:44.903,-0.00032517867616,-44.34421930090464
2025-06-25 13:45:44.910,-0.0002545216116866,-24.31795113383624
2025-06-25 13:45:44.918,-0.0001816585285499,-4.386054716029657
2025-06-25 13:45:44.926,-0.0001080984448946,15.346283497210472
2025-06-25 13:45:44.934,-3.536812080168662e-05,34.76235539973695
2025-06-25 13:45:44.942,3.503122952375872e-05,53.73609331141748
2025-06-25 13:45:44.949,0.0001016677932321,72.13501606871951
2025-06-25 13:45:44.957,0.0001632216605517,89.82390773303315
2025-06-25 13:45:44.965,0.0002185239991309,106.66913788832272
2025-06-25 13:45:44.973,0.0002665910073597,122.54349353313307
2025-06-25 13:45:44.981,0.0003066509654584,137.33135605911116
2025-06-25 13:45:44.989,0.0003381630451974,150.93402463161766
2025-06-25 13:45:44.996,0.0003608269951357,163.27496137002444
2025-06-25 13:45:45.004,0.0003745833387145,174.30471596413213
2025-06-25 13:45:45.012,0.0003796042402985,184.0052795618033
2025-06-25 13:45:45.020,0.0003762756771107,192.3936215528877
2025-06-25 13:45:45.028,0.0003651720194907,199.52417963627727
2025-06-25 13:45:45.035,0.0003470245719484,205.49010433016335
2025-06-25 13:45:45.043,0.0003226860018064,210.42310440133457
2025-06-25 13:45:45.051,0.0002930927936854,214.491799139412
2025-06-25 13:45:45.059,0.0002592278750992,217.89855483551443
2025-06-25 13:45:45.067,0.0002220853712077,220.8748616096948
2025-06-25 13:45:45.074,0.0001826390976027,223.67538601851743
2025-06-25 13:45:45.082,0.0001418159500663,226.57090722427856
2025-06-25 13:45:45.090,0.0001004748987442,229.84040386526303
2025-06-25 13:45:45.098,5.939192745397838e-05,233.7626013734992
2025-06-25 13:45:45.106,1.925098870929137e-05,238.60731348954292
2025-06-25 13:45:45.114,-1.935918661548218e-05,244.62691638851996
2025-06-25 13:45:45.121,-5.594284937176621e-05,252.04827921406724
2025-06-25 13:45:45.129,-9.009030854533755e-05,261.06544208585666
2025-06-25 13:45:45.137,-0.0001214674198653,271.8332847821161
2025-06-25 13:45:45.145,-0.0001498028920298,284.462371506966
2025-06-25 13:45:45.153,-0.0001748750120692,299.01509613173494
2025-06-25 13:45:45.160,-0.0001964994125699,315.50319429790727
2025-06-25 13:45:45.168,-0.0002145193271677,333.88663779725533
2025-06-25 13:45:45.176,-0.0002287994369824,354.07388418831067
2025-06-25 13:45:45.184,-0.000239223948648,375.9234205405032
2025-06-25 13:45:45.192,-0.0002456989852048,399.2465136934155
2025-06-25 13:45:45.199,-0.0002481587161957,423.81105938046807
2025-06-25 13:45:45.207,-0.00024657395577,449.3464077753695
2025-06-25 13:45:45.215,-0.0002409613717139,475.5490322400551
2025-06-25 13:45:45.223,-0.0002313911897806,502.0889001289272
2025-06-25 13:45:45.231,-0.0002179915128775,528.6163984479183
2025-06-25 13:45:45.239,-0.0002009481068084,554.7696622333237
2025-06-25 13:45:45.246,-0.0001804995227604,580.182149263449
2025-06-25 13:45:45.254,-0.0001569283833274,604.4903010441328
2025-06-25 13:45:45.262,-0.0001305502614347,627.3411271422435
2025-06-25 13:45:45.270,-0.0001017017546575,648.3995483513636
2025-06-25 13:45:45.278,-7.072922063336286e-05,667.3553344580964
2025-06-25 13:45:45.285,-3.797935417509775e-05,683.929475164857
2025-06-25 13:45:45.293,-3.792444925558608e-06,697.8798286536368
2025-06-25 13:45:45.301,3.1501224344046834e-05,709.0059019965889
2025-06-25 13:45:45.309,6.758178866141551e-05,717.1526317681581
2025-06-25 13:45:45.317,0.0001041373732181,722.2130523448855
2025-06-25 13:45:45.324,0.0001408595131141,724.129763935531
2025-06-25 13:45:45.332,0.0001774373361559,722.8951427380745
2025-06-25 13:45:45.340,0.000213551554539,718.5502720694966
2025-06-25 13:45:45.348,0.0002488693564409,711.1826156638976
2025-06-25 13:45:45.356,0.000283041246972,700.9225009354111
2025-06-25 13:45:45.364,0.000315700741316,687.9385271780834
2025-06-25 13:45:45.371,0.0003464675533507,672.4320567727085
2025-06-25 13:45:45.379,0.0003749545827003,654.6309829564756
2025-06-25 13:45:45.387,0.0004007786400597,634.7829941513706
2025-06-25 13:45:45.395,0.0004235745010661,613.148571990498
2025-06-25 13:45:45.403,0.0004430115449738,589.9939676433914
2025-06-25 13:45:45.410,0.0004588119194912,565.5843980968426
2025-06-25 13:45:45.418,0.0004707689134615,540.1776903874085
2025-06-25 13:45:45.426,0.000478764070566,514.0185781438081
2025-06-25 13:45:45.434,0.0004827815713603,487.3338228816542
2025-06-25 13:45:45.442,0.0004829185306943,460.3282944604242
2025-06-25 13:45:45.449,0.0004793900689185,433.1821031805285
2025-06-25 13:45:45.457,0.0004725283140216,406.04883226411016
2025-06-25 13:45:45.465,0.0004627748953056,379.0548758418796
2025-06-25 13:45:45.473,0.0004506669752317,352.2998457589144
2025-06-25 13:45:45.481,0.000436817344249,325.85797197575835
2025-06-25 13:45:45.489,0.0004218894719992,299.7803872877979
2025-06-25 13:45:45.496,0.0004065686358925,274.0981584729328
2025-06-25 13:45:45.504,0.0003915303876037,248.82590351274175
2025-06-25 13:45:45.512,0.0003774077443581,223.9658186827824
2025-06-25 13:45:45.520,0.0003647586351061,199.51193031301435
2025-06-25 13:45:45.528,0.0003540352646509,175.4543839085848
2025-06-25 13:45:45.535,0.0003455571223413,151.78358793112648
2025-06-25 13:45:45.543,0.0003394892965942,128.49404053375525
2025-06-25 13:45:45.551,0.0003358275373208,105.58768442439604
2025-06-25 13:45:45.559,0.0003343911623108,83.07665716701258
2025-06-25 13:45:45.567,0.0003348244844937,60.985330860167
2025-06-25 13:45:45.574,0.0003366069876146,39.35156538971516
2025-06-25 13:45:45.582,0.0003390720207569,18.22713237414045
2025-06-25 13:45:45.590,0.000341433330433,-2.3226985394959754
2025-06-25 13:45:45.598,0.0003428183143251,-22.22038433014718
2025-06-25 13:45:45.606,0.0003423064766692,-41.37808313866682
2025-06-25 13:45:45.614,0.0003389712149477,-59.70028512798048
2025-06-25 13:45:45.621,0.0003319228147552,-77.08697674084384
2025-06-25 13:45:45.629,0.0003203504290996,-93.437190415025
2025-06-25 13:45:45.637,0.0003035608978722,-108.65277237502524
2025-06-25 13:45:45.645,0.0002810124999674,-122.64218841826435
2025-06-25 13:45:45.653,0.0002523420763638,-135.32418273731074
2025-06-25 13:45:45.660,0.0002173843877244,-146.6311087367526
2025-06-25 13:45:45.668,0.0001761830742781,-156.51176432607102
2025-06-25 13:45:45.676,0.0001289931582207,-164.9335878927241
2025-06-25 13:45:45.684,7.62755999908779e-05,-171.88410528239058
2025-06-25 13:45:45.692,1.868487291257735e-05,-177.37156200306433
2025-06-25 13:45:45.699,-4.29492433762135e-05,-181.4247264166726
2025-06-25 13:45:45.707,-0.0001076444823021,-184.09190491585989
2025-06-25 13:45:45.715,-0.0001742926512829,-185.43926356840768
2025-06-25 13:45:45.723,-0.0002416895106412,-185.54859669475184
2025-06-25 13:45:45.731,-0.0003085678778901,-184.51471657953584
2025-06-25 13:45:45.739,-0.0003736338011958,-182.4426571143831
2025-06-25 13:45:45.746,-0.0004356051510472,-179.444886663305
2025-06-25 13:45:45.754,-0.0004932513096365,-175.6387123290141
2025-06-25 13:45:45.762,-0.0005454321100829,-171.14403054539693
2025-06-25 13:45:45.770,-0.000591133944602,-166.08153981158455
2025-06-25 13:45:45.778,-0.0006295010150559,-160.5714835724202
2025-06-25 13:45:45.785,-0.0006598599939035,-154.7329387139295
2025-06-25 13:45:45.793,-0.0006817368616887,-148.68361234938257
2025-06-25 13:45:45.801,-0.000694865339398,-142.540060991653
2025-06-25 13:45:45.809,-0.0006991870552065,-136.41820584733102
2025-06-25 13:45:45.817,-0.000694844257511,-130.43398903972965
2025-06-25 13:45:45.824,-0.0006821663828229,-124.70400029716356
2025-06-25 13:45:45.832,-0.0006616520204296,-119.34590317531828
2025-06-25 13:45:45.840,-0.0006339477859678,-114.47850425051806
2025-06-25 13:45:45.848,-0.0005998254027931,-110.22133685600848
2025-06-25 13:45:45.856,-0.0005601579888101,-106.69367073763404
2025-06-25 13:45:45.864,-0.0005158962209867,-104.01290749092236
2025-06-25 13:45:45.871,-0.0004680447344088,-102.2923751344305
2025-06-25 13:45:45.879,-0.0004176388386717,-101.63858954850856
2025-06-25 13:45:45.887,-0.0003657214497868,-102.14810142873549
2025-06-25 13:45:45.895,-0.0003133200957114,-103.9040905787587
2025-06-25 13:45:45.903,-0.000261423974106,-106.97290086161968
2025-06-25 13:45:45.910,-0.0002109612641757,-111.4007257574873
2025-06-25 13:45:45.918,-0.0001627771219173,-117.21065429095104
2025-06-25 13:45:45.926,-0.0001176129542317,-124.40026989578604
2025-06-25 13:45:45.934,-7.608766650641014e-05,-132.93996253672643
2025-06-25 13:45:45.942,-3.8681625856757456e-05,-142.7720712109368
2025-06-25 13:45:45.949,-5.724081560799534e-06,-153.81092529039708
2025-06-25 13:45:45.957,2.2615266946785236e-05,-165.94380443500475
2025-06-25 13:45:45.965,4.632996710842083e-05,-179.03279192768892
2025-06-25 13:45:45.973,6.557534426114598e-05,-192.917457280429
2025-06-25 13:45:45.981,8.06616357800576e-05,-207.41827147826217
2025-06-25 13:45:45.989,9.204171593271542e-05,-222.3406322713464
2025-06-25 13:45:45.996,0.0001002936112354,-237.4793572950984
2025-06-25 13:45:46.004,0.0001060982007389,-252.62348924951297
2025-06-25 13:45:46.012,0.0001102126698931,-267.56124965653294
2025-06-25 13:45:46.020,0.0001134404410917,-282.0849756255556
2025-06-25 13:45:46.028,0.0001165984474559,-295.9958774315116
2025-06-25 13:45:46.035,0.0001204827685044,-309.1084634453711
2025-06-25 13:45:46.043,0.0001258338171065,-321.2544929767507
2025-06-25 13:45:46.051,0.0001333024288012,-332.2863367523008
2025-06-25 13:45:46.059,0.0001434183057048,-342.0796487389163
2025-06-25 13:45:46.067,0.0001565622817041,-350.53528124472274
2025-06-25 13:45:46.074,0.0001729438232069,-357.5804068488202
2025-06-25 13:45:46.082,0.0001925850976913,-363.1688446098349
2025-06-25 13:45:46.090,0.0002153128304756,-367.2806226594646
2025-06-25 13:45:46.098,0.0002407589520122,-369.92084251415
2025-06-25 13:45:46.106,0.0002683706128334,-371.1179393190849
2025-06-25 13:45:46.114,0.0002974295089711,-370.9214535650585
2025-06-25 13:45:46.121,0.0003270797485125,-369.3994410057617
2025-06-25 13:45:46.129,0.0003563628558042,-366.6356475709896
2025-06-25 13:45:46.137,0.000384258026075,-362.7265661858679
2025-06-25 13:45:46.145,0.0004097254045708,-357.77847566611905
2025-06-25 13:45:46.153,0.0004317499613793,-351.90454234905394
2025-06-25 13:45:46.160,0.0004493834955997,-345.22204665994303
2025-06-25 13:45:46.168,0.0004617824768488,-337.84978194832775
2025-06-25 13:45:46.176,0.0004682398358222,-329.9056624299646
2025-06-25 13:45:46.184,0.0004682094138198,-321.5045700317149
2025-06-25 13:45:46.192,0.000461322489057,-312.7564645124553
2025-06-25 13:45:46.199,0.0004473964950507,-303.7647757209259
2025-06-25 13:45:46.207,0.0004264366031767,-294.6250904252546
2025-06-25 13:45:46.215,0.0003986311659259,-285.42413883846285
2025-06-25 13:45:46.223,0.0003643421049653,-276.239078214833
2025-06-25 13:45:46.231,0.0003240912532522,-267.13706321265795
2025-06-25 13:45:46.239,0.0002785435131755,-258.17508555306983
2025-06-25 13:45:46.246,0.0002284875309923,-249.4000592073558
2025-06-25 13:45:46.254,0.0001748144385484,-240.84912218060555
2025-06-25 13:45:46.262,0.000118495090497,-232.55012210245675
2025-06-25 13:45:46.270,6.055613948547711e-05,-224.52225037587377
2025-06-25 13:45:46.278,2.055251161815322e-06,-216.77678858424264
2025-06-25 13:45:46.285,-5.594422927811438e-05,-209.3179311589104
2025-06-25 13:45:46.293,-0.0001123987845998,-202.14364984917415
2025-06-25 13:45:46.301,-0.0001663099196313,-195.24656815424103
2025-06-25 13:45:46.309,-0.0002167484063939,-188.61481737789825
2025-06-25 13:45:46.317,-0.0002628768006149,-182.2328501365302
2025-06-25 13:45:46.324,-0.0003039693646757,-176.0821917656502
2025-06-25 13:45:46.332,-0.0003394285446635,-170.14211490756352
2025-06-25 13:45:46.340,-0.0003687972636895,-164.3902274140373
2025-06-25 13:45:46.348,-0.0003917664900362,-158.80296837539268
2025-06-25 13:45:46.356,-0.0004081777931437,-153.3560114327913
2025-06-25 13:45:46.364,-0.0004180208990115,-148.02457842011515
2025-06-25 13:45:46.371,-0.0004214265922425,-142.7836697312231
2025-06-25 13:45:46.379,-0.0004186556585793,-137.6082205744759
2025-06-25 13:45:46.387,-0.0004100848553581,-132.4731944583692
2025-06-25 13:45:46.395,-0.0003961910560284,-127.3536268902458
2025-06-25 13:45:46.403,-0.0003775346860627,-122.22463344343473
2025-06-25 13:45:46.410,-0.0003547433668704,-117.06139717068642
2025-06-25 13:45:46.418,-0.0003284963934565,-111.83915095695016
2025-06-25 13:45:46.426,-0.0002995103846592,-106.53317097926012
2025-06-25 13:45:46.434,-0.0002685262110917,-101.11879815877924
2025-06-25 13:45:46.442,-0.0002362971262661,-95.5715055411229
2025-06-25 13:45:46.449,-0.0002035778890758,-89.86703109501155
2025-06-25 13:45:46.457,-0.0001711145682833,-83.98159746163921
2025-06-25 13:45:46.465,-0.0001396346653535,-77.89224208663457
2025-06-25 13:45:46.473,-0.0001098371837983,-71.57728117077936
2025-06-25 13:45:46.481,-8.238231180755181e-05,-65.0169262887155
2025-06-25 13:45:46.489,-5.788046870407894e-05,-58.19406109232948
2025-06-25 13:45:46.496,-3.688059084479976e-05,-51.095167212001286
2025-06-25 13:45:46.504,-1.9857691421783488e-05,-43.71136602800126
2025-06-25 13:45:46.512,-7.199903702779766e-06,-36.03952061918248
2025-06-25 13:45:46.520,8.046214950444089e-07,-28.083323771903583
2025-06-25 13:45:46.528,3.980467839432344e-06,-19.85428604015389
2025-06-25 13:45:46.535,2.2767544868799527e-06,-11.372533910161875
2025-06-25 13:45:46.543,-4.222735165544636e-06,-2.667332748467329
2025-06-25 13:45:46.551,-1.5291967230379746e-05,6.222737731680536
2025-06-25 13:45:46.559,-3.0558625911106664e-05,15.25000728254816
2025-06-25 13:45:46.567,-4.95047195215124e-05,24.358364059764583
2025-06-25 13:45:46.574,-7.147284087551017e-05,33.48432569432976
2025-06-25 13:45:46.582,-9.567886906020622e-05,42.558500612096594
2025-06-25 13:45:46.590,-0.0001212315305519,51.50738142630773
2025-06-25 13:45:46.598,-0.0001471587828354,60.255390762819296
2025-06-25 13:45:46.606,-0.0001724404872417,68.7270848416687
2025-06-25 13:45:46.614,-0.0001960463249243,76.8494124649011
2025-06-25 13:45:46.621,-0.0002169773996286,84.55392698285054
2025-06-25 13:45:46.629,-0.0002343094914908,91.77885587544216
2025-06-25 13:45:46.637,-0.0002472355291848,98.4709457046012
2025-06-25 13:45:46.645,-0.0002551046080928,104.5870177596243
2025-06-25 13:45:46.653,-0.0002574548771168,110.09518975845144
2025-06-25 13:45:46.660,-0.0002540378954057,114.97573933133316
2025-06-25 13:45:46.668,-0.0002448326090721,119.22160353942093
2025-06-25 13:45:46.676,-0.0002300478262294,122.83852337957686
2025-06-25 13:45:46.684,-0.0002101128556575,125.84485150148124
2025-06-25 13:45:46.692,-0.0001856567434113,128.2710443157223
2025-06-25 13:45:46.699,-0.0001574772738771,130.15885648835803
2025-06-25 13:45:46.707,-0.0001265015874801,131.56024817765945
2025-06-25 13:45:46.715,-9.374086346240896e-05,132.53600668322133
2025-06-25 13:45:46.723,-6.024194119487151e-05,133.15407920072258
2025-06-25 13:45:46.731,-2.703891089443627e-05,133.4876166861705
2025-06-25 13:45:46.739,4.89246458340858e-06,133.61274253109485
2025-06-25 13:45:46.746,3.4675090156120426e-05,133.60608203144767
2025-06-25 13:45:46.754,6.15638343626154e-05,133.5421147236271
2025-06-25 13:45:46.762,8.497057295542623e-05,133.4904363779058
2025-06-25 13:45:46.770,0.0001044803080577,133.5130371368861
2025-06-25 13:45:46.778,0.0001198581706275,133.6617150696373
2025-06-25 13:45:46.785,0.0001310475560234,133.97574940388262
2025-06-25 13:45:46.793,0.0001381600486077,134.479954456812
2025-06-25 13:45:46.801,0.0001414581553996,135.18322367525914
2025-06-25 13:45:46.809,0.0001413321844748,136.0776535904909
2025-06-25 13:45:46.817,0.0001382728645429,137.13831113936078
2025-06-25 13:45:46.824,0.0001328414928788,138.32367706440448
2025-06-25 13:45:46.832,0.0001256394850198,139.57676619867036
2025-06-25 13:45:46.840,0.0001172791366214,140.826895654944
2025-06-25 13:45:46.848,0.0001083571780748,141.99204674895188
2025-06-25 13:45:46.856,9.943233904478118e-05,142.98174705654503
2025-06-25 13:45:46.864,9.100770280373496e-05,143.70038520548832
2025-06-25 13:45:46.871,8.351816927534299e-05,144.05086171706677
2025-06-25 13:45:46.879,7.732289984723141e-05,143.9384726904221
2025-06-25 13:45:46.887,7.270223519557228e-05,143.27491737052316
2025-06-25 13:45:46.895,6.98583169771411e-05,141.9823139960102
2025-06-25 13:45:46.903,6.891853502938968e-05,139.9971001463356
2025-06-25 13:45:46.910,6.994094201471635e-05,137.2736849862631
2025-06-25 13:45:46.918,7.292087794997261e-05,133.7877137494619
2025-06-25 13:45:46.926,7.779818861444939e-05,129.53880279405675
2025-06-25 13:45:46.934,8.446458510351398e-05,124.55260962388704
2025-06-25 13:45:46.942,9.277086666617252e-05,118.88211805409895
2025-06-25 13:45:46.949,0.0001025339051095,112.608043971894
2025-06-25 13:45:46.957,0.0001135434481708,105.83829998976042
2025-06-25 13:45:46.965,0.0001255689108545,98.70649481971492
2025-06-25 13:45:46.973,0.0001383663576737,91.3694824009322
2025-06-25 13:45:46.981,0.0001516858242583,84.00401423646366
2025-06-25 13:45:46.989,0.000165278996261,76.80258436966977
2025-06-25 13:45:46.996,0.0001789070934796,69.96858886082062
2025-06-25 13:45:47.004,0.0001923486587712,63.71094964465419
2025-06-25 13:45:47.012,0.0002054068770339,58.23837542242371
2025-06-25 13:45:47.020,0.0002179160519791,53.75344890018332
2025-06-25 13:45:47.028,0.0002297469118522,50.44673936483589
2025-06-25 13:45:47.035,0.0002408104675848,48.49114154502116
2025-06-25 13:45:47.043,0.0002510601954877,48.0366355079385
2025-06-25 13:45:47.051,0.0002604923591388,49.20564807660705
2025-06-25 13:45:47.059,0.0002691443213432,52.08917453544395
2025-06-25 13:45:47.067,0.0002770907271497,56.74379122429095
2025-06-25 13:45:47.075,0.0002844374651298,63.189656157691154
2025-06-25 13:45:47.082,0.0002913133487069,71.4095572503466
2025-06-25 13:45:47.090,0.0002978595353417,81.34902741323837
2025-06-25 13:45:47.098,0.0003042168632631,92.91750438122622
2025-06-25 13:45:47.106,0.0003105115496994,105.99047281930552
2025-06-25 13:45:47.114,0.0003168400181658,120.4124895907542
2025-06-25 13:45:47.121,0.0003232539156354,136.00096248426283
2025-06-25 13:45:47.129,0.0003297465543285,152.5505298177316
2025-06-25 13:45:47.137,0.0003362420263403,169.8378736557682
2025-06-25 13:45:47.145,0.0003425881105662,187.6267924595429
2025-06-25 13:45:47.153,0.0003485538597415,205.67335893556108
2025-06-25 13:45:47.160,0.0003538324393338,223.73099466318095
2025-06-25 13:45:47.168,0.0003580493978786,241.5553038103794
2025-06-25 13:45:47.176,0.0003607761173195,258.90852305654863
2025-06-25 13:45:47.184,0.0003615477836132,275.563463039544
2025-06-25 13:45:47.192,0.0003598848803652,291.30683770954965
2025-06-25 13:45:47.200,0.0003553169712812,305.94190155990486
2025-06-25 13:45:47.207,0.0003474074241213,319.29034064438537
2025-06-25 13:45:47.215,0.000335777734766,331.193391569439
2025-06-25 13:45:47.223,0.000320130189145,341.51219338770693
2025-06-25 13:45:47.231,0.0003002677088305,350.1274107081967
2025-06-25 13:45:47.239,0.0002761098625959,356.93820242914074
2025-06-25 13:45:47.246,0.0002477042230848,361.8606485943507
2025-06-25 13:45:47.254,0.0002152325222315,364.8257855845096
2025-06-25 13:45:47.262,0.0001790113756806,365.7774326329418
2025-06-25 13:45:47.270,0.0001394876309171,364.67001478925954
2025-06-25 13:45:47.278,9.722859601353544e-05,361.4665942415929
2025-06-25 13:45:47.285,5.290753731141693e-05,356.1373113209036
2025-06-25 13:45:47.293,7.284939752835853e-06,348.65840922257826
2025-06-25 13:45:47.301,-3.8813863224222005e-05,339.0119748663152
2025-06-25 13:45:47.309,-8.452395234268795e-05,327.18647558011594
2025-06-25 13:45:47.317,-0.0001289681006405,313.1781110794117
2025-06-25 13:45:47.325,-0.0001712850683019,296.9929364338121
2025-06-25 13:45:47.332,-0.0002106578387432,278.6496484334204
2025-06-25 13:45:47.340,-0.00024634070173,258.18286906024895
2025-06-25 13:45:47.348,-0.0002776841302477,235.64670959577103
2025-06-25 13:45:47.356,-0.000304156499454,211.11836095963363
2025-06-25 13:45:47.364,-0.0003253618483534,184.70143349272735
2025-06-25 13:45:47.371,-0.0003410530624168,156.52876528995682
2025-06-25 13:45:47.379,-0.0003511400344234,126.76443405353476
2025-06-25 13:45:47.387,-0.0003556925312886,95.60474321861098
2025-06-25 13:45:47.395,-0.000354937655575,63.27800625747884
2025-06-25 13:45:47.403,-0.0003492519431796,30.0430185911067
2025-06-25 13:45:47.410,-0.0003391482852153,-3.813821844939994
2025-06-25 13:45:47.418,-0.000325258004417,-37.98271237787353
2025-06-25 13:45:47.426,-0.0003083085564249,-72.13586050813225
2025-06-25 13:45:47.434,-0.0002890974655578,-105.933952734001
2025-06-25 13:45:47.442,-0.0002684632440352,-139.03345981612927
2025-06-25 13:45:47.450,-0.000247254183035,-171.0945157937527
2025-06-25 13:45:47.457,-0.0002262960424053,-201.7890731735865
2025-06-25 13:45:47.465,-0.0002063597994801,-230.80901345924573
2025-06-25 13:45:47.473,-0.0001881307332063,-257.8738818971796
2025-06-25 13:45:47.481,-0.0001721801909507,-282.7379192747703
2025-06-25 13:45:47.489,-0.0001589413839121,-305.1960830125209
2025-06-25 13:45:47.496,-0.0001486904710946,-325.0887856080175
2025-06-25 13:45:47.504,-0.0001415340211676,-342.3051310492927
2025-06-25 13:45:47.512,-0.0001374036882584,-356.7844979642521
2025-06-25 13:45:47.520,-0.0001360586158625,-368.5163982980909
2025-06-25 13:45:47.528,-0.0001370957233161,-377.5386256598396
2025-06-25 13:45:47.535,-0.0001399676618333,-383.9337901160146
2025-06-25 13:45:47.543,-0.0001440078693982,-387.8244090400253
2025-06-25 13:45:47.551,-0.0001484618150358,-389.36678233777735
2025-06-25 13:45:47.559,-0.000152523210644,-388.7439236882848
2025-06-25 13:45:47.567,-0.0001553736900554,-386.1578482086146
2025-06-25 13:45:47.575,-0.0001562242192219,-381.82153288429873
2025-06-25 13:45:47.582,-0.0001543563268552,-375.95087063494327
2025-06-25 13:45:47.590,-0.0001491611703209,-368.7569324542293
2025-06-25 13:45:47.598,-0.00014017452667,-360.43883422550607
2025-06-25 13:45:47.606,-0.0001271060444349,-351.17747523360106
2025-06-25 13:45:47.614,-0.00010986146883,-341.1303750405984
2025-06-25 13:45:47.621,-8.855697421669409e-05,-330.4277868213263
2025-06-25 13:45:47.629,-6.352511541638027e-05,-319.1702117017909
2025-06-25 13:45:47.637,-3.5312202314550194e-05,-307.4273828667246
2025-06-25 13:45:47.645,-4.667127859973816e-06,-295.2387319706424
2025-06-25 13:45:47.653,2.7478117241182688e-05,-282.6152947253231
2025-06-25 13:45:47.660,6.0035796793876495e-05,-269.5429582681466
2025-06-25 13:45:47.668,9.179696892137692e-05,-255.986901136813
2025-06-25 13:45:47.676,0.0001214722821374,-241.89702901088395
2025-06-25 13:45:47.684,0.0001477378322453,-227.2141679809029
2025-06-25 13:45:47.692,0.0001692846246713,-211.87674443095875
2025-06-25 13:45:47.700,0.0001848699605417,-195.82765907098653
2025-06-25 13:45:47.707,0.0001933688940375,-179.02105414728155
2025-06-25 13:45:47.715,0.0001938237809411,-161.42867843286066
2025-06-25 13:45:47.723,0.0001854898288529,-143.04557413338455
2025-06-25 13:45:47.731,0.0001678744903585,-123.89484195174256
2025-06-25 13:45:47.739,0.0001407685925498,-104.031282708821
2025-06-25 13:45:47.746,0.0001042673529295,-83.54376288585992
2025-06-25 13:45:47.754,5.87799160398844e-05,-62.55620397437974
2025-06-25 13:45:47.762,5.026697944949044e-06,-41.22714893280049
2025-06-25 13:45:47.770,-5.5975466827776514e-05,-19.747911512425752
2025-06-25 13:45:47.778,-0.0001229397233708,1.660635515955812
2025-06-25 13:45:47.785,-0.000194345934167,22.752530130382347
2025-06-25 13:45:47.793,-0.0002684861248918,43.26230281765929
2025-06-25 13:45:47.801,-0.0003435167149762,62.911486629869245
2025-06-25 13:45:47.809,-0.0004175154527207,81.41584043207212
2025-06-25 13:45:47.817,-0.0004885409495113,98.49304612729848
2025-06-25 13:45:47.825,-0.0005546928004286,113.87062462175123
2025-06-25 13:45:47.832,-0.0006141704492521,127.293807726525
2025-06-25 13:45:47.840,-0.0006653291511769,138.53310401901155
2025-06-25 13:45:47.848,-0.0007067315695062,147.3913055742006
2025-06-25 13:45:47.856,-0.0007371937003235,153.70969903731023
2025-06-25 13:45:47.864,-0.0007558239520014,157.37326840360717
2025-06-25 13:45:47.871,-0.0007620543210436,158.31470770255845
2025-06-25 13:45:47.879,-0.0007556627195951,156.51709886059177
2025-06-25 13:45:47.887,-0.0007367856534124,152.0151521561128
2025-06-25 13:45:47.895,-0.0007059206445329,144.8949522838706
2025-06-25 13:45:47.903,-0.0006639180258064,135.29220056565327
2025-06-25 13:45:47.910,-0.0006119619665942,123.38899239931976
2025-06-25 13:45:47.918,-0.0005515408049556,109.40921866984525
2025-06-25 13:45:47.926,-0.0004844069822583,93.61273104492196
2025-06-25 13:45:47.934,-0.0004125271292988,76.2884636054702
2025-06-25 13:45:47.942,-0.0003380231528225,57.74675479973267
2025-06-25 13:45:47.950,-0.0002631055203674,38.31115943331997
2025-06-25 13:45:47.957,-0.0001900003366745,18.31007430471305
2025-06-25 13:45:47.965,-0.0001208722393665,-1.9314817586037656
2025-06-25 13:45:47.973,-5.774560220591076e-05,-22.0995947778397
2025-06-25 13:45:47.981,-2.42699251150173e-06,-41.89837228148868
2025-06-25 13:45:47.989,4.356777893726228e-05,-61.05577269895677
2025-06-25 13:45:47.996,7.907846093545359e-05,-79.32812750593821
2025-06-25 13:45:48.004,0.0001033535378455,-96.5032079095362
2025-06-25 13:45:48.012,0.0001160887062969,-112.40177073061083
2025-06-25 13:45:48.020,0.0001174482429572,-126.87760650808676
2025-06-25 13:45:48.028,0.0001080676270816,-139.8161993276379
2025-06-25 13:45:48.035,8.903657435955677e-05,-151.13218476392015
2025-06-25 13:45:48.043,6.186246248884614e-05,-160.7658535571844
2025-06-25 13:45:48.051,2.8415025579298057e-05,-168.67899085645527
2025-06-25 13:45:48.059,-9.145854710373676e-06,-174.85036310020288
2025-06-25 13:45:48.067,-4.845651404259136e-05,-179.27116744781353
2025-06-25 13:45:48.075,-8.704648751246911e-05,-181.940743572386
2025-06-25 13:45:48.082,-0.0001224419587532,-182.86281662885116
2025-06-25 13:45:48.090,-0.0001522710895429,-182.0424958589931
2025-06-25 13:45:48.098,-0.000174366362024,-179.48419851709133
2025-06-25 13:45:48.106,-0.0001868589611735,-175.19060681990103
2025-06-25 13:45:48.114,-0.0001882603728218,-169.16269985576193
2025-06-25 13:45:48.121,-0.0001775268455994,-161.4008363303279
2025-06-25 13:45:48.129,-0.0001541031815103,-151.90680116740995
2025-06-25 13:45:48.137,-0.0001179434599354,-140.6866726951
2025-06-25 13:45:48.145,-6.950773793587167e-05,-127.7543205807439
2025-06-25 13:45:48.153,-9.735416591590394e-06,-113.13531059664103
2025-06-25 13:45:48.160,6.000240286699642e-05,-96.87097272697012
2025-06-25 13:45:48.168,0.0001379679098993,-79.02238476307203
2025-06-25 13:45:48.176,0.0002221343900654,-59.6740331926836
2025-06-25 13:45:48.184,0.0003102719144071,-38.936933853331695
2025-06-25 13:45:48.192,0.0004000359528445,-16.95102264054458
2025-06-25 13:45:48.200,0.0004890541965506,6.113341686916646
2025-06-25 13:45:48.207,0.0005750073900766,30.05488656336342
2025-06-25 13:45:48.215,0.0006557008454782,54.64203454192497
2025-06-25 13:45:48.223,0.0007291245526234,79.61466188728323
2025-06-25 13:45:48.231,0.0007935011983803,104.68701594345583
2025-06-25 13:45:48.239,0.0008473226073149,129.55175744631842
2025-06-25 13:45:48.246,0.0008893758638861,153.88504959681498
2025-06-25 13:45:48.254,0.0009187606347063,177.35257141830806
2025-06-25 13:45:48.262,0.0009348991079719,199.61629072883872
2025-06-25 13:45:48.270,0.0009375396914003,220.34179436689635
2025-06-25 13:45:48.278,0.0009267552991429,239.20594260883135
2025-06-25 13:45:48.285,0.0009029367520317,255.90459329110263
2025-06-25 13:45:48.293,0.0008667814871486,270.16013075809525
2025-06-25 13:45:48.301,0.0008192774055914,281.7285362921626
2025-06-25 13:45:48.309,0.000761681324874,290.405749946507
2025-06-25 13:45:48.317,0.0006954912397118,296.0330974732024
2025-06-25 13:45:48.325,0.0006224115439692,298.5015885687701
2025-06-25 13:45:48.332,0.0005443106207489,297.7549323563428
2025-06-25 13:45:48.340,0.0004631707923944,293.7911618376163
2025-06-25 13:45:48.348,0.0003810314595007,286.6628101653994
2025-06-25 13:45:48.356,0.0002999271965097,276.4756366169227
2025-06-25 13:45:48.364,0.0002218234471433,263.38595653080813
2025-06-25 13:45:48.371,0.0001485531230002,247.5966836023407
2025-06-25 13:45:48.379,8.175771380784349e-05,229.3522407913762
2025-06-25 13:45:48.387,2.283637830287974e-05,208.9325340752441
2025-06-25 13:45:48.395,-2.7094079362247807e-05,186.64620907395195
2025-06-25 13:45:48.403,-6.722629390354606e-05,162.82342373798758
2025-06-25 13:45:48.410,-9.70753980001101e-05,137.8083719705203
2025-06-25 13:45:48.418,-0.0001164779507877,111.95178523692972
2025-06-25 13:45:48.426,-0.0001255775869086,85.60362407025158
2025-06-25 13:45:48.434,-0.000124799123825,59.10615098717263
2025-06-25 13:45:48.442,-0.0001148135894848,32.787552547925166
2025-06-25 13:45:48.450,-9.649709344558258e-05,6.956252704611904
2025-06-25 13:45:48.457,-7.088659275867049e-05,-18.103966565999112
2025-06-25 13:45:48.465,-3.913538332505997e-05,-42.137947170728005
2025-06-25 13:45:48.473,-2.470640325684176e-06,-64.92217415356038
2025-06-25 13:45:48.481,3.7845322689629216e-05,-86.2667910792413
2025-06-25 13:45:48.489,8.054905117263517e-05,-106.01659348960798
2025-06-25 13:45:48.496,0.0001244047185258,-124.05100517370433
2025-06-25 13:45:48.504,0.0001682276038979,-140.28306512249566
2025-06-25 13:45:48.512,0.0002109025474365,-154.65747735051212
2025-06-25 13:45:48.520,0.0002513979125339,-167.14780218299774
2025-06-25 13:45:48.528,0.0002887757780618,-177.7528969494213
2025-06-25 13:45:48.535,0.0003221992061179,-186.49274654091144
2025-06-25 13:45:48.543,0.0003509374806637,-193.403858752198
2025-06-25 13:45:48.551,0.0003743701894966,-198.53443221940404
2025-06-25 13:45:48.559,0.0003919909195579,-201.93953067851623
2025-06-25 13:45:48.567,0.0004034111291707,-203.67651084265117
2025-06-25 13:45:48.575,0.0004083644189171,-203.8009491519182
2025-06-25 13:45:48.582,0.00040671095378,-202.3632943855209
2025-06-25 13:45:48.590,0.0003984412846078,-199.4064399544509
2025-06-25 13:45:48.598,0.0003836784372117,-194.96436389338
2025-06-25 13:45:48.606,0.0003626770352258,-189.0619288799809
2025-06-25 13:45:48.614,0.0003358184545572,-181.71587204298987
2025-06-25 13:45:48.621,0.0003036014929841,-172.93694807425967
2025-06-25 13:45:48.629,0.0002666286107057,-162.73312252979247
2025-06-25 13:45:48.637,0.0002255883066745,-151.11364849579357
2025-06-25 13:45:48.645,0.0001812345799396,-138.09380223724054
2025-06-25 13:45:48.653,0.0001343646879976,-123.70000510443508
2025-06-25 13:45:48.660,8.579654745241671e-05,-107.9750226643826
2025-06-25 13:45:48.668,3.63470815351072e-05,-90.98291022987814
2025-06-25 13:45:48.676,-1.3187423443723654e-05,-72.81336874039997
2025-06-25 13:45:48.684,-6.204828926993929e-05,-53.58518786481658
2025-06-25 13:45:48.692,-0.0001095285269532,-33.44848523280501
2025-06-25 13:45:48.700,-0.0001549841867109,-12.585502181836128
2025-06-25 13:45:48.707,-0.0001978433628928,8.790213277901831
2025-06-25 13:45:48.715,-0.0002376132879246,30.43631866241044
2025-06-25 13:45:48.723,-0.0002738858495722,52.085868079589055
2025-06-25 13:45:48.731,-0.0003063417030538,73.4530630981511
2025-06-25 13:45:48.739,-0.0003347530031989,94.24034658927296
2025-06-25 13:45:48.746,-0.0003589846725911,114.1465380783844
2025-06-25 13:45:48.754,-0.0003789940347431,132.8756433660793
2025-06-25 13:45:48.762,-0.0003948285859967,150.14592772761267
2025-06-25 13:45:48.770,-0.0004066216950741,165.69882297744235
2025-06-25 13:45:48.778,-0.0004145861204248,179.3072452512054
2025-06-25 13:45:48.785,-0.0004190053795756,190.782932444378
2025-06-25 13:45:48.793,-0.0004202231321721,199.98246577416748
2025-06-25 13:45:48.801,-0.0004186308391944,206.81171414268243
2025-06-25 13:45:48.809,-0.0004146540678929,211.2285257291812
2025-06-25 13:45:48.817,-0.0004087379349159,213.24358055622287
2025-06-25 13:45:48.825,-0.0004013322720771,212.91940387226452
2025-06-25 13:45:48.832,-0.0003928770945671,210.367618578789
2025-06-25 13:45:48.840,-0.0003837888315469,205.74458318103052
2025-06-25 13:45:48.848,-0.0003744476040539,199.24561869177032
2025-06-25 13:45:48.856,-0.0003651857040407,191.098073058332
2025-06-25 13:45:48.864,-0.0003562774021416,181.5535049154096
2025-06-25 13:45:48.871,-0.0003479302801399,170.879290004818
2025-06-25 13:45:48.879,-0.0003402783984709,159.34996390115137
2025-06-25 13:45:48.887,-0.0003333777202103,147.23861436734197
2025-06-25 13:45:48.895,-0.0003272042713565,134.80862648088504
2025-06-25 13:45:48.903,-0.000321655471733,122.3060644336544
2025-06-25 13:45:48.910,-0.0003165549002076,109.95294646407572
2025-06-25 13:45:48.918,-0.0003116604991914,97.94163459452972
2025-06-25 13:45:48.926,-0.0003066759510824,86.43051959290895
2025-06-25 13:45:48.934,-0.0003012647291321,75.54113474375532
2025-06-25 13:45:48.942,-0.0002950661442697,65.3567805546675
2025-06-25 13:45:48.950,-0.0002877125719869,55.92268759108604
2025-06-25 13:45:48.957,-0.0002788469751453,47.24768775519377
2025-06-25 13:45:48.965,-0.00026813986804,39.30730745973909
2025-06-25 13:45:48.973,-0.0002553049709144,32.04814152331266
2025-06-25 13:45:48.981,-0.0002401129292483,25.39331647744452
2025-06-25 13:45:48.989,-0.0002224025977831,19.248808432991687
2025-06-25 13:45:48.996,-0.0002020895261754,13.510345629250464
2025-06-25 13:45:49.004,-0.000179171435702,8.070601017324778
2025-06-25 13:45:49.012,-0.0001537306405661,2.8263671678137285
2025-06-25 13:45:49.020,-0.0001259335322954,-2.3145945418862293
2025-06-25 13:45:49.028,-9.602737642324644e-05,-7.427325727092603
2025-06-25 13:45:49.035,-6.433472839751454e-05,-12.564333513727856
2025-06-25 13:45:49.043,-3.124576353016002e-05,-17.751376293655916
2025-06-25 13:45:49.051,2.791226618316202e-06,-22.984558011793236
2025-06-25 13:45:49.059,3.7280956128988106e-05,-28.22886111213633
2025-06-25 13:45:49.067,7.169368597078811e-05,-33.418187485259104
2025-06-25 13:45:49.075,0.0001054789769277,-38.45691288655976
2025-06-25 13:45:49.082,0.0001380804113894,-43.22289613508824
2025-06-25 13:45:49.090,0.0001689509799956,-47.57182315044773
2025-06-25 13:45:49.098,0.0001975687438512,-51.34271106622239
2025-06-25 13:45:49.106,0.0002234522788768,-54.364352668406944
2025-06-25 13:45:49.114,0.0002461753022352,-56.462448739207474
2025-06-25 13:45:49.121,0.0002653798100736,-57.46715649445124
2025-06-25 13:45:49.129,0.0002807870717903,-57.220775409474136
2025-06-25 13:45:49.137,0.0002922059523635,-55.58529507395535
2025-06-25 13:45:49.145,0.0002995382373503,-52.449540293482514
2025-06-25 13:45:49.153,0.0003027808431305,-47.73566385058507
2025-06-25 13:45:49.160,0.0003020249492283,-41.40475582927274
2025-06-25 13:45:49.168,0.0002974521777659,-33.46136020981902
2025-06-25 13:45:49.176,0.0002893279901712,-23.95671533092421
2025-06-25 13:45:49.184,0.0002779925009947,-12.990565790084002
2025-06-25 13:45:49.192,0.0002638489448282,-0.7114303571769449
2025-06-25 13:45:49.200,0.000247350092836,12.684745746316413
2025-06-25 13:45:49.207,0.0002289830039363,26.9575750200299
2025-06-25 13:45:49.215,0.000209252598001,41.8268119014901
2025-06-25 13:45:49.223,0.0001886646424999,56.97843911974161
2025-06-25 13:45:49.231,0.0001677088386135,72.07209620590103
2025-06-25 13:45:49.239,0.0001468427436575,86.74963217670884
2025-06-25 13:45:49.246,0.0001264772354297,100.64451489828424
2025-06-25 13:45:49.254,0.0001069641139835,113.3917917789324
2025-06-25 13:45:49.262,8.858628697449272e-05,124.6382716481624
2025-06-25 13:45:49.270,7.155083171927902e-05,134.0525858508502
2025-06-25 13:45:49.278,5.59850860703184e-05,141.33478679141882
2025-06-25 13:45:49.285,4.1935796057637e-05,146.22515345443836
2025-06-25 13:45:49.293,2.9371243264801814e-05,148.5118954314399
2025-06-25 13:45:49.301,1.8186190398433224e-05,148.03748010555174
2025-06-25 13:45:49.309,8.209418279713699e-06,144.70335282531866
2025-06-25 13:45:49.317,-7.864285219168445e-07,138.47287782315254
2025-06-25 13:45:49.325,-9.073038624089474e-06,129.3723974348361
2025-06-25 13:45:49.332,-1.695311817395744e-05,117.49038527629928
2025-06-25 13:45:49.340,-2.4746101921414976e-05,102.97474933660683
2025-06-25 13:45:49.348,-3.2773478123882594e-05,86.028416696388
2025-06-25 13:45:49.356,-4.134429198011129e-05,66.90339744943597
2025-06-25 13:45:49.364,-5.074131584767677e-05,45.893578229405655
2025-06-25 13:45:49.371,-6.120827799622242e-05,23.32653406180327
2025-06-25 13:45:49.379,-7.293846095498063e-05,-0.4453292548156696
2025-06-25 13:45:49.387,-8.606494226037612e-05,-25.053980837623516
2025-06-25 13:45:49.395,-0.0001006527531143,-50.12500096928
2025-06-25 13:45:49.403,-0.0001166932413929,-75.28654585037538
2025-06-25 13:45:49.410,-0.0001341009079724,-100.17776421226296
2025-06-25 13:45:49.418,-0.0001527129362159,-124.45642300552684
2025-06-25 13:45:49.426,-0.0001722915856286,-147.8055402383471
2025-06-25 13:45:49.434,-0.0001925295844536,-169.9388694467988
2025-06-25 13:45:49.442,-0.0002130585855954,-190.6051306053829
2025-06-25 13:45:49.450,-0.0002334605890542,-209.5909346195423
2025-06-25 13:45:49.457,-0.0002532819892603,-226.72240076046907
2025-06-25 13:45:49.465,-0.000272049651648,-241.8655163776185
2025-06-25 13:45:49.473,-0.000289288244425,-254.9253340144618
2025-06-25 13:45:49.481,-0.0003045379891419,-265.84414098499974
2025-06-25 13:45:49.489,-0.0003173720286072,-274.5987691093672
2025-06-25 13:45:49.496,-0.0003274126968074,-281.1972363854492
2025-06-25 13:45:49.504,-0.0003343460784735,-285.67492672917746
2025-06-25 13:45:49.512,-0.0003379343527322,-288.090517578756
2025-06-25 13:45:49.520,-0.0003380255231762,-288.5218576525092
2025-06-25 13:45:49.528,-0.0003345602451389,-287.06197892087965
2025-06-25 13:45:49.535,-0.0003275755699015,-283.815399467981
2025-06-25 13:45:49.543,-0.0003172055336402,-278.89483984478574
2025-06-25 13:45:49.551,-0.0003036786169235,-272.41843764974595
2025-06-25 13:45:49.559,-0.0002873121683771,-264.5075062930974
2025-06-25 13:45:49.567,-0.0002685039129379,-255.2848467531041
2025-06-25 13:45:49.575,-0.000247720677318,-244.87358763650565
2025-06-25 13:45:49.582,-0.0002254845123916,-233.3965004644611
2025-06-25 13:45:49.590,-0.0002023564991794,-220.97571476733813
2025-06-25 13:45:49.598,-0.0001789186783366,-207.7327418065184
2025-06-25 13:45:49.606,-0.0001557547167521,-193.78870669031087
2025-06-25 13:45:49.614,-0.0001334300933743,-179.2646861212706
2025-06-25 13:45:49.621,-0.0001124727103598,-164.2820525383713
2025-06-25 13:45:49.629,-9.335486525550718e-05,-148.9627343317321
2025-06-25 13:45:49.637,-7.647743243944213e-05,-133.4293152951078
2025-06-25 13:45:49.645,-6.21569320519164e-05,-117.80491361208072
2025-06-25 13:45:49.653,-5.061598320115014e-05,-102.21280041856431
2025-06-25 13:45:49.660,-4.197749492387794e-05,-86.77573924089268
2025-06-25 13:45:49.668,-3.6262833741316186e-05,-71.61504921511565
2025-06-25 13:45:49.676,-3.3394077060603496e-05,-56.84941576228496
2025-06-25 13:45:49.684,-3.3200294899371857e-05,-42.59349114703096
2025-06-25 13:45:49.692,-3.542761329590506e-05,-28.95634297506193
2025-06-25 13:45:49.700,-3.975262517933566e-05,-16.03982028908644
2025-06-25 13:45:49.707,-4.579854104849172e-05,-3.936914004233338
2025-06-25 13:45:49.715,-5.315331850168726e-05,7.269808983288581
2025-06-25 13:45:49.723,-6.138888868862193e-05,17.509620098848135
2025-06-25 13:45:49.731,-7.008053212891102e-05,26.724818683375283
2025-06-25 13:45:49.739,-7.88254595544088e-05,34.871631443912904
2025-06-25 13:45:49.746,-8.725970136733908e-05,41.92076669680168
2025-06-25 13:45:49.754,-9.50724558474072e-05,47.85758141058221
2025-06-25 13:45:49.762,-0.0001020170787321,52.68183487435704
2025-06-25 13:45:49.770,-0.0001079179608837,56.40702126038795
2025-06-25 13:45:49.778,-0.0001126727027577,59.05929397527529
2025-06-25 13:45:49.786,-0.0001162492832806,60.6760166814263
2025-06-25 13:45:49.793,-0.0001186783057269,61.30399804725886
2025-06-25 13:45:49.801,-0.0001200408158052,60.997488223368144
2025-06-25 13:45:49.809,-0.0001204525514197,59.81603320239941
2025-06-25 13:45:49.817,-0.0001200457413946,57.82229711483994
2025-06-25 13:45:49.825,-0.0001189497114174,55.07997087365405
2025-06-25 13:45:49.832,-0.0001172716121067,51.65188749245402
2025-06-25 13:45:49.840,-0.0001150785785434,47.59845934061772
2025-06-25 13:45:49.848,-0.0001123825507647,42.9765403319832
2025-06-25 13:45:49.856,-0.0001091288222744,37.83879646177846
2025-06-25 13:45:49.864,-0.0001051891587488,32.233641247214855
2025-06-25 13:45:49.871,-0.0001003600702921,26.205759146327143
2025-06-25 13:45:49.879,-9.43665457965399e-05,19.797201836437534
2025-06-25 13:45:49.887,-8.687127735202243e-05,13.0490025027306
2025-06-25 13:45:49.895,-7.748912494769602e-05,6.003215569420693
2025-06-25 13:45:49.903,-6.58063056281163e-05,-1.2947434820066903
2025-06-25 13:45:49.911,-5.14035454617998e-05,-8.793609454413296
2025-06-25 13:45:49.918,-3.388221552979959e-05,-16.433798905665515
2025-06-25 13:45:49.926,-1.28922926550149e-05,-24.145139412877544
2025-06-25 13:45:49.934,1.1839150800540186e-05,-31.8449734289082
2025-06-25 13:45:49.942,4.04803109907484e-05,-39.43680289571901
2025-06-25 13:45:49.950,7.306929548532402e-05,-46.80962051297176
2025-06-25 13:45:49.957,0.000109492482976,-53.838044150226
2025-06-25 13:45:49.965,0.0001494680296755,-60.38333318061659
2025-06-25 13:45:49.973,0.0001925358937249,-66.29532069948395
2025-06-25 13:45:49.981,0.0002380555806915,-71.41524524649313
2025-06-25 13:45:49.989,0.0002852124912493,-75.57941186816629
2025-06-25 13:45:49.996,0.0003330332818864,-78.62355810654073
2025-06-25 13:45:50.004,0.0003804100861942,-80.38775002313434
2025-06-25 13:45:50.012,0.0004261328618386,-80.72159215179913
2025-06-25 13:45:50.020,0.0004689285907587,-79.48950912428286
2025-06-25 13:45:50.028,0.0005075056358826,-76.57585001076862
2025-06-25 13:45:50.036,0.0005406013284837,-71.88958027553696
2025-06-25 13:45:50.043,0.0005670308566793,-65.36835762842439
2025-06-25 13:45:50.051,0.0005857356589988,-56.98183064043957
2025-06-25 13:45:50.059,0.0005958296373272,-46.73404550424201
2025-06-25 13:45:50.067,0.0005966414907646,-34.66489090391396
2025-06-25 13:45:50.075,0.0005877513663272,-20.850550367914344
2025-06-25 13:45:50.082,0.0005690199249306,-5.402964852051184
2025-06-25 13:45:50.090,0.0005406079049286,11.531663719972066
2025-06-25 13:45:50.098,0.0005029843665154,29.775273321698005
2025-06-25 13:45:50.106,0.0004569220837202,49.12117121886158
2025-06-25 13:45:50.114,0.0004034791211025,69.33799637815791
2025-06-25 13:45:50.121,0.0003439665265551,90.17430084243388
2025-06-25 13:45:50.129,0.0002799031579577,111.36361878829535
2025-06-25 13:45:50.137,0.000212959697213,132.629876873205
2025-06-25 13:45:50.145,0.0001448947052881,153.69298782198146
2025-06-25 13:45:50.153,7.748609476248346e-05,174.2744624842816
2025-06-25 13:45:50.161,1.246168183334035e-05,194.1028750092516
2025-06-25 13:45:50.168,-4.8567447515654814e-05,212.91902188784363
2025-06-25 13:45:50.176,-0.000104167173469,230.4806283131724
2025-06-25 13:45:50.184,-0.0001531309789413,246.5664740998152
2025-06-25 13:45:50.192,-0.0001945183760713,260.9798355935896
2025-06-25 13:45:50.200,-0.0002276792724411,273.5511687654514
2025-06-25 13:45:50.207,-0.0002522633155062,284.1399909401349
2025-06-25 13:45:50.215,-0.0002682142051118,292.635952875839
2025-06-25 13:45:50.223,-0.0002757498772662,298.9591272131613
2025-06-25 13:45:50.231,-0.0002753302583657,303.0595713305848
2025-06-25 13:45:50.239,-0.0002676149727438,304.91625009113324
2025-06-25 13:45:50.246,-0.0002534140117093,304.53542503368374
2025-06-25 13:45:50.254,-0.0002336349337061,301.94863022482394
2025-06-25 13:45:50.262,-0.0002092305342316,297.2103610131716
2025-06-25 13:45:50.270,-0.0001811508860712,290.39560067251824
2025-06-25 13:45:50.278,-0.0001503030201636,281.5973020144468
2025-06-25 13:45:50.286,-0.0001175203077645,270.9239271607615
2025-06-25 13:45:50.293,-8.354213810430026e-05,258.4971294693254
2025-06-25 13:45:50.301,-4.900324933878911e-05,244.44963806235165
2025-06-25 13:45:50.309,-1.4431368532033091e-05,228.9233791166444
2025-06-25 13:45:50.317,1.97483987208348e-05,212.06784134984855
2025-06-25 13:45:50.325,5.320395404588968e-05,194.0386685850681
2025-06-25 13:45:50.332,8.568280681771336e-05,174.99644221854695
2025-06-25 13:45:50.340,0.0001169962699273,155.10560247129507
2025-06-25 13:45:50.348,0.0001470025875636,134.53345024283155
2025-06-25 13:45:50.356,0.0001755902614571,113.44917112355044
2025-06-25 13:45:50.364,0.0002026627167062,92.0228288328022
2025-06-25 13:45:50.371,0.0002281252623461,70.424285650148
2025-06-25 13:45:50.379,0.0002518750628973,48.8220206486573
2025-06-25 13:45:50.387,0.0002737945659745,27.381831128472463
2025-06-25 13:45:50.395,0.0002937485704757,6.265417311373175
2025-06-25 13:45:50.403,0.0003115849235564,-14.371135731439551
2025-06-25 13:45:50.411,0.0003271387210634,-34.378952169284496
2025-06-25 13:45:50.418,0.0003402398040897,-53.61799719353885
2025-06-25 13:45:50.426,0.0003507232073454,-71.95869773030773
2025-06-25 13:45:50.434,0.0003584419846472,-89.28349408618955
2025-06-25 13:45:50.442,0.0003632815663934,-105.48825687062894
2025-06-25 13:45:50.450,0.0003651745928035,-120.48349830035944
2025-06-25 13:45:50.457,0.0003641150687183,-134.19530545335894
2025-06-25 13:45:50.465,0.0003601706630993,-146.56592671221424
2025-06-25 13:45:50.473,0.0003534919451532,-157.55395287479504
2025-06-25 13:45:50.481,0.0003443172752399,-167.13405190119838
2025-06-25 13:45:50.489,0.0003329720378873,-175.29624054267552
2025-06-25 13:45:50.496,0.0003198611048611,-182.04470532570085
2025-06-25 13:45:50.504,0.0003054540038446,-187.39621659434212
2025-06-25 13:45:50.512,0.0002902631834291,-191.37820912812677
2025-06-25 13:45:50.520,0.0002748167158483,-194.02662807342
2025-06-25 13:45:50.528,0.0002596274533846,-195.383657108242
2025-06-25 13:45:50.536,0.0002451609229875,-195.495455383873
2025-06-25 13:45:50.543,0.000231804163689,-194.41003024970604
2025-06-25 13:45:50.551,0.0002198374271569,-192.1753642937123
2025-06-25 13:45:50.559,0.0002094103206591,-188.83789875252205
2025-06-25 13:45:50.567,0.0002005236781633,-184.4414523718469
2025-06-25 13:45:50.575,0.0001930182516257,-179.02662724549324
2025-06-25 13:45:50.582,0.0001865712258137,-172.6307231446802
2025-06-25 13:45:50.590,0.0001807015291762,-165.2881514776582
2025-06-25 13:45:50.598,0.000174784841522,-157.03131124581358
2025-06-25 13:45:50.606,0.0001680789499313,-147.8918639134417
2025-06-25 13:45:50.614,0.0001597595378311,-137.90232345266833
2025-06-25 13:45:50.621,0.0001489655450147,-127.0978630898216
2025-06-25 13:45:50.629,0.0001348520087342,-115.51823204260845
2025-06-25 13:45:50.637,0.0001166470515166,-103.2096735406988
2025-06-25 13:45:50.645,9.370875295780864e-05,-90.22673847157296
2025-06-25 13:45:50.653,6.557734686637643e-05,-76.63389536080038
2025-06-25 13:45:50.661,3.2018729845919944e-05,-62.50684562596575
2025-06-25 13:45:50.668,-6.943454019687948e-06,-47.93346254771209
2025-06-25 13:45:50.676,-5.100842626970467e-05,-33.014283394985654
2025-06-25 13:45:50.684,-9.959189274212246e-05,-17.86249716560621
2025-06-25 13:45:50.692,-0.0001518327233629,-2.603385920485918
2025-06-25 13:45:50.700,-0.0002066127904496,12.626804087002403
2025-06-25 13:45:50.707,-0.0002625897903993,27.682564434919968
2025-06-25 13:45:50.715,-0.0003182420375079,42.41137955187008
2025-06-25 13:45:50.723,-0.0003719230548461,56.65648985198055
2025-06-25 13:45:50.731,-0.0004219227656875,70.26009265011889
2025-06-25 13:45:50.739,-0.0004665316345213,83.06688541088297
2025-06-25 13:45:50.746,-0.000504104432391,94.9278323621679
2025-06-25 13:45:50.754,-0.0005331212707857,105.70401493496792
2025-06-25 13:45:50.762,-0.0005522446500283,115.27041032673736
2025-06-25 13:45:50.770,-0.0005603719181235,123.51943223233212
2025-06-25 13:45:50.778,-0.0005566825152094,130.3640649768467
2025-06-25 13:45:50.786,-0.0005406789174372,135.74042843107176
2025-06-25 13:45:50.793,-0.000512219673415,139.60962757849293
2025-06-25 13:45:50.801,-0.0004715426175629,141.95876841465838
2025-06-25 13:45:50.809,-0.0004192763707771,142.80106098027755
2025-06-25 13:45:50.817,-0.0003564386018045,142.17497894148698
2025-06-25 13:45:50.825,-0.0002844201230704,140.1424991930681
2025-06-25 13:45:50.832,-0.0002049546012045,136.78649883436498
2025-06-25 13:45:50.840,-0.0001200743966038,132.20743490329022
2025-06-25 13:45:50.848,-3.205378457496546e-05,126.51947034930636
2025-06-25 13:45:50.856,5.665847549828135e-05,119.8462358944341
2025-06-25 13:45:50.864,0.0001435146306536,112.31643135008784
2025-06-25 13:45:50.871,0.0002259484353902,104.05947222828785
2025-06-25 13:45:50.879,0.000301457404022,95.20137916300492
2025-06-25 13:45:50.887,0.0003676836503695,85.86109007524237
2025-06-25 13:45:50.895,0.0004224905482352,76.1473497255606
2025-06-25 13:45:50.903,0.0004640330320122,66.15630000979053
2025-06-25 13:45:50.911,0.0004908199242252,55.9698588535245
2025-06-25 13:45:50.918,0.0005017670261195,45.65493761149128
2025-06-25 13:45:50.926,0.0004962397608958,35.26350812748106
2025-06-25 13:45:50.934,0.0004740840076981,24.833492542547024
2025-06-25 13:45:50.942,0.0004356436097957,14.390412877863264
2025-06-25 13:45:50.950,0.0003817630650395,3.949704561283753
2025-06-25 13:45:50.957,0.000313774167067,-6.480430509541232
2025-06-25 13:45:50.965,0.0002334657977106,-16.89577914853445
2025-06-25 13:45:50.973,0.0001430365927036,-27.292645524736383
2025-06-25 13:45:50.981,4.503080632195981e-05,-37.66432941148573
2025-06-25 13:45:50.989,-5.774155271353058e-05,-47.99773412814944
2025-06-25 13:45:50.996,-0.0001622983078515,-58.27028083465128
2025-06-25 13:45:51.004,-0.0002655893501592,-68.44729480836548
2025-06-25 13:45:51.012,-0.0003646073995883,-78.48001075313412
2025-06-25 13:45:51.020,-0.0004565003076157,-88.30431853612124
2025-06-25 13:45:51.028,-0.0005386793633574,-97.8403389821896
2025-06-25 13:45:51.036,-0.000608917906997,-106.99288290142832
2025-06-25 13:45:51.043,-0.0006654348734265,-115.65280714458612
2025-06-25 13:45:51.051,-0.0007069587086058,-123.69924106445382
2025-06-25 13:45:51.059,-0.0007327683258945,-131.00261709746695
2025-06-25 13:45:51.067,-0.0007427092339037,-137.42840180677734
2025-06-25 13:45:51.075,-0.0007371845353382,-142.84138995860815
2025-06-25 13:45:51.082,-0.000717122073849,-147.11039530133442
2025-06-25 13:45:51.090,-0.000683920463733,-150.11314906878178
2025-06-25 13:45:51.098,-0.000639377877086,-151.74120235911357
2025-06-25 13:45:51.106,-0.0005856081069607,-151.9046229133405
2025-06-25 13:45:51.114,-0.0005249485471331,-150.5362815092208
2025-06-25 13:45:51.121,-0.0004598644778862,-147.59553853595148
2025-06-25 13:45:51.129,-0.0003928536260314,-143.0711666682095
2025-06-25 13:45:51.137,-0.0003263545022395,-136.98337919325547
2025-06-25 13:45:51.145,-0.0002626615356289,-129.38487283653626
2025-06-25 13:45:51.153,-0.0002038495063916,-120.36083575060698
2025-06-25 13:45:51.161,-0.0001517092178245,-110.02791259827512
2025-06-25 13:45:51.168,-0.0001076957872686,-98.53215687562071
2025-06-25 13:45:51.176,-7.289043041487316e-05,-86.04603421362708
2025-06-25 13:45:51.184,-4.797619692122891e-05,-72.76456879915625
2025-06-25 13:45:51.192,-3.322777774167778e-05,-58.90074853927708
2025-06-25 13:45:51.200,-2.8515223657514483e-05,-44.6803239740224
2025-06-25 13:45:51.207,-3.332117441507381e-05,-30.33615221862011
2025-06-25 13:45:51.215,-4.677097904443318e-05,-16.10225117912947
2025-06-25 13:45:51.223,-6.767485043357023e-05,-2.207741173229948
2025-06-25 13:45:51.231,-9.458088932054125e-05,11.12913963555564
2025-06-25 13:45:51.239,-0.000125837410906,23.70675422745379
2025-06-25 13:45:51.246,-0.0001596625480483,35.34532877144096
2025-06-25 13:45:51.254,-0.000194218671677,45.891574372577104
2025-06-25 13:45:51.262,-0.0002276888380312,55.22250217759547
2025-06-25 13:45:51.270,-0.0002583522634084,63.2482919339826
2025-06-25 13:45:51.278,-0.0002846557111698,69.91410927882042
2025-06-25 13:45:51.286,-0.0003052776346065,75.2008092243978
2025-06-25 13:45:51.293,-0.000319181974096,79.12450999909966
2025-06-25 13:45:51.301,-0.0003256586979329,81.73506963612799
2025-06-25 13:45:51.309,-0.0003243485671471,83.11354437703885
2025-06-25 13:45:51.317,-0.0003152502948553,83.36875009001582
2025-06-25 13:45:51.325,-0.0002987093271654,82.63308286765692
2025-06-25 13:45:51.332,-0.0002753888290233,81.05778070243565
2025-06-25 13:45:51.340,-0.0002462248972866,78.80782330478652
2025-06-25 13:45:51.348,-0.0002123692505525,76.05667122262625
2025-06-25 13:45:51.356,-0.0001751234143319,72.98103878014193
2025-06-25 13:45:51.364,-0.0001358686629575,69.75587907928534
2025-06-25 13:45:51.371,-9.599582801439726e-05,66.54973509826016
2025-06-25 13:45:51.379,-5.683872030414157e-05,63.52058086290215
2025-06-25 13:45:51.387,-1.9614411129381735e-05,60.81224302818515
2025-06-25 13:45:51.395,1.462704520939762e-05,58.55145827964289
2025-06-25 13:45:51.403,4.504167580693226e-05,56.84558795117683
2025-06-25 13:45:51.411,7.10185056788101e-05,55.7809801902698
2025-06-25 13:45:51.418,9.21941087078366e-05,55.42194366632359
2025-06-25 13:45:51.426,0.0001084550897454,55.81027663513559
2025-06-25 13:45:51.434,0.0001199291190334,56.96528207697431
2025-06-25 13:45:51.442,0.0001269653698205,58.8841939566886
2025-06-25 13:45:51.450,0.0001301054797965,61.5429411140876
2025-06-25 13:45:51.457,0.0001300465556066,64.89718298296168
2025-06-25 13:45:51.465,0.000127598228211,68.88356385481661
2025-06-25 13:45:51.473,0.0001236361892612,73.42114797880713
2025-06-25 13:45:51.481,0.0001190548383807,78.41301445550509
2025-06-25 13:45:51.489,0.0001147216009914,83.74800666723856
2025-06-25 13:45:51.496,0.0001114351965966,89.30264410385222
2025-06-25 13:45:51.504,0.0001098897360009,94.94321344040998
2025-06-25 13:45:51.512,0.0001106460608874,100.52805959832162
2025-06-25 13:45:51.520,0.000114111240039,105.91009577775613
2025-06-25 13:45:51.528,0.0001205266294514,110.93954412615018
2025-06-25 13:45:51.536,0.0001299644254154,115.46690636666791
2025-06-25 13:45:51.543,0.0001423322268994,119.34614737229242
2025-06-25 13:45:51.551,0.000157384795259,122.43805569457346
2025-06-25 13:45:51.559,0.0001747419614481,124.6137249747982
2025-06-25 13:45:51.567,0.0001939114863075,125.7580805245091
2025-06-25 13:45:51.575,0.0002143156181917,125.7733575911953
2025-06-25 13:45:51.582,0.0002353200871569,124.5824231582542
2025-06-25 13:45:51.590,0.000256264299576,122.13182256465382
2025-06-25 13:45:51.598,0.0002764915377658,118.3944265209366
2025-06-25 13:45:51.606,0.0002953780210766,113.3715537692642
2025-06-25 13:45:51.614,0.0003123597453809,107.09445002467548
2025-06-25 13:45:51.621,0.0003269560853638,99.62501512307
2025-06-25 13:45:51.629,0.000338789219337,91.05568749642458
2025-06-25 13:45:51.637,0.000347598530896,81.50841797780677
2025-06-25 13:45:51.645,0.0003532492884266,71.13269300025878
2025-06-25 13:45:51.653,0.0003557351468541,60.1025996710724
2025-06-25 13:45:51.661,0.000355174373189,48.61296086147774
2025-06-25 13:45:51.668,0.0003518001260959,36.87460601093261
2025-06-25 13:45:51.676,0.0003459455310399,25.108881310897004
2025-06-25 13:45:51.684,0.000338024598194,13.541539701316124
2025-06-25 13:45:51.692,0.0003285101894636,2.3961849823367207
2025-06-25 13:45:51.700,0.0003179102732501,-8.112526464882402
2025-06-25 13:45:51.707,0.0003067436589773,-17.785700102992656
2025-06-25 13:45:51.715,0.0002955163150557,-26.446792822075555
2025-06-25 13:45:51.723,0.0002846992604269,-33.94773117979511
2025-06-25 13:45:51.731,0.0002747088878582,-40.17431630988871
2025-06-25 13:45:51.739,0.0002658904315813,-45.05068846473657
2025-06-25 13:45:51.746,0.000258505137161,-48.54264959546214
2025-06-25 13:45:51.754,0.000252721531656,-50.659677976251714
2025-06-25 13:45:51.762,0.0002486110307575,-51.45551395009576
2025-06-25 13:45:51.770,0.0002461479597635,-51.02724928680249
2025-06-25 13:45:51.778,0.0002452139096569,-49.51291275342167
2025-06-25 13:45:51.786,0.0002456062005394,-47.08760894372527
2025-06-25 13:45:51.793,0.000247050082656,-43.95833289508056
2025-06-25 13:45:51.801,0.0002492141624115,-40.357645243728605
2025-06-25 13:45:51.809,0.0002517283782705,-36.53644672661366
2025-06-25 13:45:51.817,0.0002542036597929,-32.75613198506428
2025-06-25 13:45:51.825,0.0002562522103746,-29.280427159051584
2025-06-25 13:45:51.832,0.0002575072138601,-26.36722172155888
2025-06-25 13:45:51.840,0.0002576407162119,-24.260692561367183
2025-06-25 13:45:51.848,0.0002563784977867,-23.18398977973897
2025-06-25 13:45:51.856,0.0002535109511439,-23.33271305165608
2025-06-25 13:45:51.864,0.0002488993114898,-24.869359700770257
2025-06-25 13:45:51.871,0.0002424769947626,-27.91887574624309
2025-06-25 13:45:51.879,0.0002342462013856,-32.56539289576973
2025-06-25 13:45:51.887,0.0002242702975271,-38.85018997264948
2025-06-25 13:45:51.895,0.0002126627902179,-46.7708773886889
2025-06-25 13:45:51.903,0.0001995739711682,-56.281768100163006
2025-06-25 13:45:51.911,0.0001851764951977,-67.29536797091355
2025-06-25 13:45:51.918,0.0001696512455723,-79.6848927427967
2025-06-25 13:45:51.926,0.000153174786286,-93.28769820999878
2025-06-25 13:45:51.934,0.000135909490851,-107.90949508928378
2025-06-25 13:45:51.942,0.0001179970786921,-123.32921061974426
2025-06-25 13:45:51.950,9.955584138456044e-05,-139.30435472757242
2025-06-25 13:45:51.957,8.068139812627005e-05,-155.57674859584537
2025-06-25 13:45:51.965,6.145047722706192e-05,-171.87847613271933
2025-06-25 13:45:51.973,4.1927024317297206e-05,-187.937922541622
2025-06-25 13:45:51.981,2.216987215580795e-05,-203.4857678321277
2025-06-25 13:45:51.989,2.241216058996512e-06,-218.2608063013088
2025-06-25 13:45:51.996,-1.7784841323471347e-05,-232.01546618866024
2025-06-25 13:45:52.004,-3.781442843277527e-05,-244.52090790406896
2025-06-25 13:45:52.012,-5.77275222724878e-05,-255.57158580165253
2025-06-25 13:45:52.020,-7.737384053190874e-05,-264.9891687426189
2025-06-25 13:45:52.028,-9.657169093089975e-05,-272.62572961198543
2025-06-25 13:45:52.036,-0.0001151102279192,-278.366133854636
2025-06-25 13:45:52.043,-0.0001327552567818,-282.1295815383995
2025-06-25 13:45:52.051,-0.0001492583805852,-283.8702852544569
2025-06-25 13:45:52.059,-0.0001643689410624,-283.5772955785876
2025-06-25 13:45:52.067,-0.0001778479069637,-281.27351480102647
2025-06-25 13:45:52.075,-0.0001894826690967,-277.0139661850622
2025-06-25 13:45:52.082,-0.0001991016405871,-270.8834084903045
2025-06-25 13:45:52.090,-0.0002065876140873,-262.9934028303901
2025-06-25 13:45:52.098,-0.0002118889486063,-253.4789506469459
2025-06-25 13:45:52.106,-0.0002150278122383,-242.4948275886177
2025-06-25 13:45:52.114,-0.0002161048788087,-230.21173849475
2025-06-25 13:45:52.121,-0.000215300061369,-216.81241372302603
2025-06-25 13:45:52.129,-0.0002128690601183,-202.4877571093939
2025-06-25 13:45:52.137,-0.000209135703115,-187.43314150957227
2025-06-25 13:45:52.145,-0.0002044802612603,-171.84493000785815
2025-06-25 13:45:52.153,-0.0001993241204817,-155.9172806060087
2025-06-25 13:45:52.161,-0.0001941113895391,-139.83927083379925
2025-06-25 13:45:52.168,-0.0001892882068912,-123.79235767207568
2025-06-25 13:45:52.176,-0.0001852806798417,-107.94816887454712
2025-06-25 13:45:52.184,-0.0001824725387667,-92.46660555544504
2025-06-25 13:45:52.192,-0.0001811837119085,-77.49422394446928
2025-06-25 13:45:52.200,-0.0001816511056227,-63.16285740274878
2025-06-25 13:45:52.207,-0.0001840128742075,-49.58843866853525
2025-06-25 13:45:52.215,-0.000188297334802,-36.86998687507824
2025-06-25 13:45:52.223,-0.0001944174054156,-25.088733569994485
2025-06-25 13:45:52.231,-0.0002021710492822,-14.307375572159408
2025-06-25 13:45:52.239,-0.0002112477643203,-4.569458328787716
2025-06-25 13:45:52.246,-0.0002212407402417,4.101090522104941
2025-06-25 13:45:52.254,-0.0002316639862849,11.700243445327976
2025-06-25 13:45:52.262,-0.0002419735405232,18.243926540456076
2025-06-25 13:45:52.270,-0.00025159177839,23.767793815900887
2025-06-25 13:45:52.278,-0.0002599337774038,28.326671304401867
2025-06-25 13:45:52.286,-0.0002664346218167,31.9936253202642
2025-06-25 13:45:52.293,-0.0002705764582717,34.85861962545564
2025-06-25 13:45:52.301,-0.0002719140883579,37.02674126719566
2025-06-25 13:45:52.309,-0.0002700979312096,38.61599332100907
2025-06-25 13:45:52.317,-0.0002648932965096,39.75467344345402
2025-06-25 13:45:52.325,-0.0002561950535285,40.57837860531743
2025-06-25 13:45:52.332,-0.0002440369541015,41.22669721214347
2025-06-25 13:45:52.340,-0.0002285950635196,41.83966867702359
2025-06-25 13:45:52.348,-0.0002101849713142,42.55410622290248
2025-06-25 13:45:52.356,-0.0001892526914774,43.499890353743695
2025-06-25 13:45:52.364,-0.0001663594158318,44.7963474577605
2025-06-25 13:45:52.371,-0.0001421605512929,46.54883013749152
2025-06-25 13:45:52.379,-0.0001173797470794,48.84561316006566
2025-06-25 13:45:52.387,-9.277889431963956e-05,51.75521170222525
2025-06-25 13:45:52.395,-6.91253401348185e-05,55.32421732470824
2025-06-25 13:45:52.403,-4.7157761712775614e-05,59.57573246065457
2025-06-25 13:45:52.411,-2.7552243225778517e-05,64.50846682916415
2025-06-25 13:45:52.418,-1.0890073478786345e-05,70.09653982380416
2025-06-25 13:45:52.426,2.371321096367904e-06,76.29001232969259
2025-06-25 13:45:52.434,1.1923014770874684e-05,83.01615030831442
2025-06-25 13:45:52.442,1.762362729695148e-05,90.18140146125818
2025-06-25 13:45:52.450,1.951177987075336e-05,97.67404576287296
2025-06-25 13:45:52.457,1.7811198195123337e-05,105.36746084829213
2025-06-25 13:45:52.465,1.292797595095014e-05,113.12392421872386
2025-06-25 13:45:52.473,5.439810833714899e-06,120.79885603319242
2025-06-25 13:45:52.481,-3.922668373475855e-06,128.24538909660475
2025-06-25 13:45:52.489,-1.4302057664607232e-05,135.31913695207933
2025-06-25 13:45:52.496,-2.4747086840518204e-05,141.88301734038322
2025-06-25 13:45:52.504,-3.4251257603525426e-05,147.8119773956057
2025-06-25 13:45:52.512,-4.179590796459075e-05,152.99745957854566
2025-06-25 13:45:52.520,-4.639614416058847e-05,157.3514443955337
2025-06-25 13:45:52.528,-4.714785539317297e-05,160.8099084137644
2025-06-25 13:45:52.536,-4.327383907174753e-05,163.3355450278927
2025-06-25 13:45:52.543,-3.4166924942879325e-05,164.9196118852267
2025-06-25 13:45:52.551,-1.9427913752376497e-05,165.58279370092015
2025-06-25 13:45:52.559,1.1038311477643644e-06,165.3750028734218
2025-06-25 13:45:52.567,2.7329163644432093e-05,164.37408258410932
2025-06-25 13:45:52.575,5.887909531416038e-05,162.68342646356484
2025-06-25 13:45:52.582,9.511737271111625e-05,160.42858245761275
2025-06-25 13:45:52.590,0.0001351567262522,157.7529619459845
2025-06-25 13:45:52.598,0.0001778891357728,154.8128235536759
2025-06-25 13:45:52.606,0.0002220294570272,151.77173983299568
2025-06-25 13:45:52.614,0.0002661705425711,148.79478055606876
2025-06-25 13:45:52.622,0.0003088468004718,146.0426568414943
2025-06-25 13:45:52.629,0.0003486022232967,143.6660656781278
2025-06-25 13:45:52.637,0.0003840584937554,141.80045625743335
2025-06-25 13:45:52.645,0.0004139789003644,140.56141082875627
2025-06-25 13:45:52.653,0.0004373243508474,140.0407970644954
2025-06-25 13:45:52.661,0.0004532985290635,140.30380943250984
2025-06-25 13:45:52.668,0.0004613800592048,141.3869763269094
2025-06-25 13:45:52.676,0.0004613403972709,143.2971694618054
2025-06-25 13:45:52.684,0.0004532470613371,146.01161360310118
2025-06-25 13:45:52.692,0.0004374526806067,149.47885922011602
2025-06-25 13:45:52.700,0.0004145711043177,153.62064906425385
2025-06-25 13:45:52.707,0.0003854424159906,158.33458284868783
2025-06-25 13:45:52.715,0.0003510891479695,163.4974627305775
2025-06-25 13:45:52.723,0.0003126663035958,168.96918652308997
2025-06-25 13:45:52.731,0.0002714079748902,174.59704542296103
2025-06-25 13:45:52.739,0.0002285733842824,180.2202779910944
2025-06-25 13:45:52.747,0.0001853950536506,185.67473127701945
2025-06-25 13:45:52.754,0.0001430314776403,190.79748242005283
2025-06-25 13:45:52.762,0.0001025261635409,195.4312792240306
2025-06-25 13:45:52.770,6.47742958862359e-05,199.42866606296903
2025-06-25 13:45:52.778,3.049772497533649e-05,202.6556724932816
2025-06-25 13:45:52.786,2.2854698639316002e-07,204.99495682836695
2025-06-25 13:45:52.793,-2.5698759601333988e-05,206.34831629805277
2025-06-25 13:45:52.801,-4.7146891616625765e-05,206.6384995104464
2025-06-25 13:45:52.809,-6.41673935028279e-05,205.8102853962225
2025-06-25 13:45:52.817,-7.698503582706729e-05,203.83082457515852
2025-06-25 13:45:52.825,-8.597571135443607e-05,200.6892723824504
2025-06-25 13:45:52.832,-9.163894921769305e-05,196.39577532490603
2025-06-25 13:45:52.840,-9.456646792482769e-05,190.9799019156499
2025-06-25 13:45:52.848,-9.540845497299552e-05,184.4886321251208
2025-06-25 13:45:52.856,-9.483939143819836e-05,176.9840349885455
2025-06-25 13:45:52.864,-9.35251987996683e-05,168.54076994190302
2025-06-25 13:45:52.872,-9.209329774250212e-05,159.24354399652054
2025-06-25 13:45:52.879,-9.110688873833228e-05,149.18464472244165
2025-06-25 13:45:52.887,-9.104443501978008e-05,138.4616497648885
2025-06-25 13:45:52.895,-9.228497285130169e-05,127.17538924225308
2025-06-25 13:45:52.903,-9.50995046850034e-05,115.42820998981362
2025-06-25 13:45:52.911,-9.964836052180156e-05,103.32256233944094
2025-06-25 13:45:52.918,-0.0001059840618539,90.95990297580272
2025-06-25 13:45:52.926,-0.0001140589232204,78.43988320087529
2025-06-25 13:45:52.934,-0.0001237364105635,65.85977220005088
2025-06-25 13:45:52.942,-0.0001348051574954,53.31405078980506
2025-06-25 13:45:52.950,-0.0001469945214144,40.89410334586806
2025-06-25 13:45:52.957,-0.0001599906390281,28.68793437070545
2025-06-25 13:45:52.965,-0.0001734521002806,16.779841159035822
2025-06-25 13:45:52.973,-0.0001870245672343,5.249984499480036
2025-06-25 13:45:52.981,-0.0002003538787367,-5.826185796538893
2025-06-25 13:45:52.989,-0.0002130973633376,-16.37867582180245
2025-06-25 13:45:52.997,-0.0002249332106475,-26.343868602029996
2025-06-25 13:45:53.004,-0.0002355678422651,-35.665606861767486
2025-06-25 13:45:53.012,-0.0002447413111291,-44.29640406698845
2025-06-25 13:45:53.020,-0.0002522308425672,-52.19873333008678
2025-06-25 13:45:53.028,-0.0002578526840621,-59.34633007487382
2025-06-25 13:45:53.036,-0.000261462455495,-65.72543484977957
2025-06-25 13:45:53.043,-0.0002629542244313,-71.3358979195897
2025-06-25 13:45:53.051,-0.0002622585940665,-76.19206743006643
2025-06-25 13:45:53.059,-0.0002593401699715,-80.3233878332913
2025-06-25 13:45:53.067,-0.0002541948324439,-83.77464441838043
2025-06-25 13:45:53.075,-0.0002468472431905,-86.60580254670009
2025-06-25 13:45:53.082,-0.0002373489244132,-88.89140573064444
2025-06-25 13:45:53.090,-0.0002257770786629,-90.71951411815256
2025-06-25 13:45:53.098,-0.0002122341359558,-92.19018332544492
2025-06-25 13:45:53.106,-0.0001968478748662,-93.41350201051426
2025-06-25 13:45:53.114,-0.0001797718606361,-94.50722429736686
2025-06-25 13:45:53.122,-0.0001611858488751,-95.5940494587301
2025-06-25 13:45:53.129,-0.0001412957250982,-96.79861558678522
2025-06-25 13:45:53.137,-0.0001203325270576,-98.24428590296348
2025-06-25 13:45:53.145,-9.855016215425768e-05,-100.04981557278312
2025-06-25 13:45:53.153,-7.622158705529656e-05,-102.32599319569286
2025-06-25 13:45:53.161,-5.363343234073515e-05,-105.1723544228426
2025-06-25 13:45:53.168,-3.1079290670291776e-05,-108.67406540626696
2025-06-25 13:45:53.176,-8.852092551550887e-06,-112.8990710971531
2025-06-25 13:45:53.184,1.276388475983854e-05,-117.8955979926978
2025-06-25 13:45:53.192,3.350081920722033e-05,-123.69009307333155
2025-06-25 13:45:53.200,5.311447861426828e-05,-130.2856707136689
2025-06-25 13:45:53.207,7.139032802085323e-05,-137.66112761895295
2025-06-25 13:45:53.215,8.814837140947304e-05,-145.77057259417347
2025-06-25 13:45:53.223,0.0001032466002444,-154.54370335369487
2025-06-25 13:45:53.231,0.0001165830164494,-163.88674669170942
2025-06-25 13:45:53.239,0.0001280962753269,-173.684061200404
2025-06-25 13:45:53.247,0.0001377650535095,-183.80038346512544
2025-06-25 13:45:53.254,0.0001456062881819,-194.08367957248524
2025-06-25 13:45:53.262,0.0001516724571541,-204.3685443087249
2025-06-25 13:45:53.270,0.0001560480762002,-214.4800711833499
2025-06-25 13:45:53.278,0.0001588455822935,-224.23809798342705
2025-06-25 13:45:53.286,0.0001602007513172,-233.46171553568504
2025-06-25 13:45:53.293,0.0001602677692294,-241.9739123839701
2025-06-25 13:45:53.301,0.0001592140410608,-249.6062159918605
2025-06-25 13:45:53.309,0.0001572147952707,-256.20318282338803
2025-06-25 13:45:53.317,0.0001544475455082,-261.6265862643275
2025-06-25 13:45:53.325,0.0001510865218249,-265.7591537602699
2025-06-25 13:45:53.332,0.0001472972551911,-268.50771348455066
2025-06-25 13:45:53.340,0.0001432315452934,-269.80562670947654
2025-06-25 13:45:53.348,0.0001390230380531,-269.6144048392718
2025-06-25 13:45:53.356,0.0001347835996124,-267.92443930259174
2025-06-25 13:45:53.364,0.0001306006204841,-264.75480720491777
2025-06-25 13:45:53.372,0.00012653532888,-260.1521542880621
2025-06-25 13:45:53.379,0.000122622139392,-254.18869734237757
2025-06-25 13:45:53.387,0.0001188690138219,-246.95942841636548
2025-06-25 13:45:53.395,0.0001152587664453,-238.57864043660632
2025-06-25 13:45:53.403,0.0001117512074995,-229.17592569710928
2025-06-25 13:45:53.411,0.0001082859871535,-218.891822887583
2025-06-25 13:45:53.418,0.0001047859783385,-207.87330318581016
2025-06-25 13:45:53.426,0.0001011610211024,-196.26929038031943
2025-06-25 13:45:53.434,9.73118438842888e-05,-184.2264037044089
2025-06-25 13:45:53.442,9.31339784108312e-05,-171.8850954994604
2025-06-25 13:45:53.450,8.852149473825297e-05,-159.37633013684797
2025-06-25 13:45:53.457,8.337040108307282e-05,-146.81891756432915
2025-06-25 13:45:53.465,7.758157915958489e-05,-134.3175766097733
2025-06-25 13:45:53.473,7.106315926293356e-05,-121.96176225990487
2025-06-25 13:45:53.481,6.373227968533581e-05,-109.82525011558366
2025-06-25 13:45:53.489,5.551622146938164e-05,-97.966432592237
2025-06-25 13:45:53.497,4.635296110312351e-05,-86.42924739539559
2025-06-25 13:45:53.504,3.619123953545759e-05,-75.24463114916372
2025-06-25 13:45:53.512,2.4990304698926432e-05,-64.43237106329576
2025-06-25 13:45:53.520,1.2719545306439944e-05,-54.00321589896358
2025-06-25 13:45:53.528,-6.41706973821565e-07,-43.96110437758768
2025-06-25 13:45:53.536,-1.5103884579167962e-05,-34.30537419874995
2025-06-25 13:45:53.543,-3.066608025985406e-05,-25.03282718050132
2025-06-25 13:45:53.551,-4.731390538886482e-05,-16.139544544917698
2025-06-25 13:45:53.559,-6.501627595110406e-05,-7.622369615631754
2025-06-25 13:45:53.567,-8.372133044663733e-05,0.5199984322758427
2025-06-25 13:45:53.575,-0.0001033518888984,8.286328314706381
2025-06-25 13:45:53.582,-0.0001238009825516,15.672598837408655
2025-06-25 13:45:53.590,-0.0001449280045212,22.672134735089347
2025-06-25 13:45:53.598,-0.0001665559590431,29.276088719200494
2025-06-25 13:45:53.606,-0.0001884701538026,35.474203940078866
2025-06-25 13:45:53.614,-0.000210418529118,41.25577772358539
2025-06-25 13:45:53.622,-0.0002321136656077,46.6107395469714
2025-06-25 13:45:53.629,-0.0002532363599041,51.53075389587164
2025-06-25 13:45:53.637,-0.0002734405353268,56.01026173913661
2025-06-25 13:45:53.645,-0.0002923592010134,60.04738246752245
2025-06-25 13:45:53.653,-0.0003096111888962,63.64461063649762
2025-06-25 13:45:53.661,-0.0003248084467019,66.80925789703252
2025-06-25 13:45:53.668,-0.0003375637144797,69.55360907873646
2025-06-25 13:45:53.676,-0.000347498449598,71.89478136333597
2025-06-25 13:45:53.684,-0.0003542508889158,73.85429564073469
2025-06-25 13:45:53.692,-0.0003574841477763,75.45738826563783
2025-06-25 13:45:53.700,-0.0003568942553051,76.7321083959847
2025-06-25 13:45:53.707,-0.0003522180168012,77.70825990189424
2025-06-25 13:45:53.715,-0.000343240580048,78.41625669329174
2025-06-25 13:45:53.723,-0.0003298025669659,78.8859656927823
2025-06-25 13:45:53.731,-0.0003118066193837,79.14561235545585
2025-06-25 13:45:53.739,-0.0002892232022075,79.2208197301144
2025-06-25 13:45:53.747,-0.0002620955132725,79.13384402446967
2025-06-25 13:45:53.754,-0.0002305433707845,78.90305821123903
2025-06-25 13:45:53.762,-0.0001947659884959,78.54272128094134
2025-06-25 13:45:53.770,-0.0001550435988835,78.06305522083798
2025-06-25 13:45:53.778,-0.0001117379253899,77.47063550460152
2025-06-25 13:45:53.786,-6.529151472607186e-05,76.76908450980375
2025-06-25 13:45:53.793,-1.62259134158564e-05,75.96004141382234
2025-06-25 13:45:53.801,3.4861385721654063e-05,75.04436724643647
2025-06-25 13:45:53.809,8.730138559067705e-05,74.02353036057777
2025-06-25 13:45:53.817,0.000140359667102,72.90110608588247
2025-06-25 13:45:53.825,0.0001932444349226,71.68431523135636
2025-06-25 13:45:53.832,0.0002451168712316,70.3855198831163
2025-06-25 13:45:53.840,0.0002951041004555,69.02359204971681
2025-06-25 13:45:53.848,0.0003423149617362,67.62507151416011
2025-06-25 13:45:53.856,0.000385858618002,66.22503400032316
2025-06-25 13:45:53.864,0.000424865806987,64.86759950527589
2025-06-25 13:45:53.872,0.0004585122710186,63.606023208338414
2025-06-25 13:45:53.879,0.0004860436118944,62.502327317715725
2025-06-25 13:45:53.887,0.0005068005508069,61.62645090765084
2025-06-25 13:45:53.895,0.0005202433903344,61.05491540992493
2025-06-25 13:45:53.903,0.0005259744121542,60.86902501585366
2025-06-25 13:45:53.911,0.0005237569956482,61.15264282711466
2025-06-25 13:45:53.918,0.0005135303896093,61.98960417250064
2025-06-25 13:45:53.926,0.0004954192946705,63.4608471329364
2025-06-25 13:45:53.934,0.0004697376839316,65.64135612197852
2025-06-25 13:45:53.942,0.000436986555523,68.59702660806657
2025-06-25 13:45:53.950,0.0003978455504075,72.38156715250214
2025-06-25 13:45:53.957,0.0003531585937449,77.03355848393485
2025-06-25 13:45:53.965,0.0003039139395023,82.57378816378052
2025-06-25 13:45:53.973,0.0002512191953303,89.0029735575566
2025-06-25 13:45:53.981,0.0001962720464301,96.29997553850826
2025-06-25 13:45:53.989,0.0001403274934359,104.42059098235688
2025-06-25 13:45:53.997,8.466252974219569e-05,113.29699414850197
2025-06-25 13:45:54.004,3.053934462564043e-05,122.83787605758388
2025-06-25 13:45:54.012,-2.083168876696504e-05,132.9293076307518
2025-06-25 13:45:54.020,-6.832786061000044e-05,143.43632742373825
2025-06-25 13:45:54.028,-0.0001109473821698,154.20522917568837
2025-06-25 13:45:54.036,-0.0001478386632548,165.0664991360895
2025-06-25 13:45:54.043,-0.0001783243475755,175.8383293248147
2025-06-25 13:45:54.051,-0.0002019190806047,186.33061151725823
2025-06-25 13:45:54.059,-0.0002183403014587,196.34929858436035
2025-06-25 13:45:54.067,-0.0002275116981596,205.7010053344156
2025-06-25 13:45:54.075,-0.000229559307469,214.197710500004
2025-06-25 13:45:54.082,-0.0002248005614334,221.66141524373077
2025-06-25 13:45:54.090,-0.0002137268787951,227.92861178590124
2025-06-25 13:45:54.098,-0.0001969806673743,232.8544187226689
2025-06-25 13:45:54.106,-0.000175327832821,236.31624743629737
2025-06-25 13:45:54.114,-0.0001496270569531,238.2168766747623
2025-06-25 13:45:54.122,-0.0001207971938418,238.4868297069738
2025-06-25 13:45:54.129,-8.978413726055357e-05,237.08597010078975
2025-06-25 13:45:54.137,-5.752846535096854e-05,234.00425762501555
2025-06-25 13:45:54.145,-2.4935086139137423e-05,229.2616343606531
2025-06-25 13:45:54.153,7.154016562900877e-06,222.9070419199829
2025-06-25 13:45:54.161,3.798301867715592e-05,215.0166025833201
2025-06-25 13:45:54.168,6.690078659520898e-05,205.69102884074297
2025-06-25 13:45:54.176,9.337426946340826e-05,195.0523558141679
2025-06-25 13:45:54.184,0.0001169965626507,183.2401178556871
2025-06-25 13:45:54.192,0.0001374896705628,170.4071128673717
2025-06-25 13:45:54.200,0.0001547021849929,156.71491431806345
2025-06-25 13:45:54.207,0.0001686022518993,142.32930052846504
2025-06-25 13:45:54.215,0.0001792663336729,127.41577285464214
2025-06-25 13:45:54.223,0.0001868644066915,112.13532861413256
2025-06-25 13:45:54.231,0.0001916423781339,96.6406411189419
2025-06-25 13:45:54.239,0.0001939026379588,81.0727786376308
2025-06-25 13:45:54.247,0.0001939837351968,65.55856758526065
2025-06-25 13:45:54.254,0.0001922401602444,50.20867418293388
2025-06-25 13:45:54.262,0.000189023142907,35.11644493833669
2025-06-25 13:45:54.270,0.0001846632656291,20.357511398856943
2025-06-25 13:45:54.278,0.0001794555581433,5.990130537760973
2025-06-25 13:45:54.286,0.0001736475911881,-7.943799451372736
2025-06-25 13:45:54.293,0.0001674309288035,-21.41713577205928
2025-06-25 13:45:54.301,0.0001609361366727,-34.41541027304856
2025-06-25 13:45:54.309,0.0001542313833658,-46.93439785990904
2025-06-25 13:45:54.317,0.0001473245171612,-58.97747027907016
2025-06-25 13:45:54.325,0.0001401683578882,-70.55287430595781
2025-06-25 13:45:54.332,0.0001326688150432,-81.67106945039107
2025-06-25 13:45:54.340,0.0001246953338246,-92.34225006522688
2025-06-25 13:45:54.348,0.0001160930827586,-102.57416094624544
2025-06-25 13:45:54.356,0.0001066962327413,-112.37029515762134
2025-06-25 13:45:54.364,9.634163955675888e-05,-121.72853915107198
2025-06-25 13:45:54.372,8.488223163149462e-05,-130.64030466545535
2025-06-25 13:45:54.379,7.219942277322801e-05,-139.09016085593285
2025-06-25 13:45:54.387,5.821391612816282e-05,-147.05595502634503
2025-06-25 13:45:54.395,4.2894340193370605e-05,-154.50938750882457
2025-06-25 13:45:54.403,2.626325939609086e-05,-161.41698672311963
2025-06-25 13:45:54.411,8.400228804695479e-06,-167.7414150616345
2025-06-25 13:45:54.418,-1.0558287427109784e-05,-173.44302549371673
2025-06-25 13:45:54.426,-3.042214436292274e-05,-178.48158286075818
2025-06-25 13:45:54.434,-5.095371583784013e-05,-182.81806263223768
2025-06-25 13:45:54.442,-7.187669390476243e-05,-186.416443023547
2025-06-25 13:45:54.450,-9.288692761036111e-05,-189.24541322214804
2025-06-25 13:45:54.457,-0.0001136645941759,-191.2799302505711
2025-06-25 13:45:54.465,-0.000133886932017,-192.5025688502757
2025-06-25 13:45:54.473,-0.0001532407872102,-192.9046218287276
2025-06-25 13:45:54.481,-0.0001714342959994,-192.48692175625231
2025-06-25 13:45:54.489,-0.0001882071204939,-191.26036800901184
2025-06-25 13:45:54.497,-0.0002033387830927,-189.24615533360563
2025-06-25 13:45:54.504,-0.0002166548152672,-186.47571090193344
2025-06-25 13:45:54.512,-0.0002280306288659,-182.9903559256278
2025-06-25 13:45:54.520,-0.0002373932051591,-178.84071514908618
2025-06-25 13:45:54.528,-0.0002447208525655,-174.0859029180231
2025-06-25 13:45:54.536,-0.0002500413725338,-168.79251812401014
2025-06-25 13:45:54.543,-0.0002534289595243,-163.03348234370048
2025-06-25 13:45:54.551,-0.0002550000584407,-156.88675617342932
2025-06-25 13:45:54.559,-0.000254908286084,-150.43396838370066
2025-06-25 13:45:54.567,-0.0002533384675438,-143.75899136264843
2025-06-25 13:45:54.575,-0.0002504998581127,-136.9464946378946
2025-06-25 13:45:54.582,-0.0002466186834973,-130.08050627416628
2025-06-25 13:45:54.590,-0.000241930202723,-123.24300979611968
2025-06-25 13:45:54.598,-0.0002366705568974,-116.51260207636358
2025-06-25 13:45:54.606,-0.0002310686892114,-109.96323538831648
2025-06-25 13:45:54.614,-0.0002253385944117,-103.6630645288438
2025-06-25 13:45:54.622,-0.0002196721040392,-97.67341751149426
2025-06-25 13:45:54.629,-0.000214232383347,-92.04790575869164
2025-06-25 13:45:54.637,-0.0002091483212825,-86.83168694056769
2025-06-25 13:45:54.645,-0.0002045100016769,-82.06089060995696
2025-06-25 13:45:54.653,-0.0002003654169667,-77.7622135896227
2025-06-25 13:45:54.661,-0.0001967185387324,-73.95268872662325
2025-06-25 13:45:54.668,-0.0001935288352941,-70.6396272034235
2025-06-25 13:45:54.676,-0.0001907123384694,-67.82073115739671
2025-06-25 13:45:54.684,-0.0001881443735833,-65.4843699855084
2025-06-25 13:45:54.692,-0.0001856640414674,-63.61001047879244
2025-06-25 13:45:54.700,-0.0001830804798378,-62.16878792462634
2025-06-25 13:45:54.707,-0.0001801808483074,-61.12420261857869
2025-06-25 13:45:54.715,-0.00017673986711,-60.4329239256338
2025-06-25 13:45:54.723,-0.0001725305930847,-60.0456822024796
2025-06-25 13:45:54.731,-0.0001673359784092,-59.90822761172406
2025-06-25 13:45:54.739,-0.0001609606607388,-59.96233419250149
2025-06-25 13:45:54.747,-0.0001532423556938,-60.14682755686648
2025-06-25 13:45:54.754,-0.0001440621433215,-60.39861529312075
2025-06-25 13:45:54.762,-0.0001333529009071,-60.65370057684797
2025-06-25 13:45:54.770,-0.0001211051954488,-60.84816157787563
2025-06-25 13:45:54.778,-0.000107370118203,-60.91908192472078
2025-06-25 13:45:54.786,-9.225878280133478e-05,-60.80542062469058
2025-06-25 13:45:54.793,-7.593847858340918e-05,-60.44881327812581
2025-06-25 13:45:54.801,-5.862574332199123e-05,-59.79429998276681
2025-06-25 13:45:54.809,-4.0576862391685216e-05,-58.790978800184895
2025-06-25 13:45:54.817,-2.2076483551289382e-05,-57.3925868524039
2025-06-25 13:45:54.825,-3.425143372360666e-06,-55.55801384254873
2025-06-25 13:45:54.832,1.5073469363376773e-05,-53.25175487032844
2025-06-25 13:45:54.840,3.3124736166775885e-05,-50.44431068121874
2025-06-25 13:45:54.848,5.0454153572784686e-05,-47.11254381242056
2025-06-25 13:45:54.856,6.681668642249314e-05,-43.239998379489045
2025-06-25 13:45:54.864,8.200407462703498e-05,-38.81718943760268
2025-06-25 13:45:54.872,9.584989086933544e-05,-33.84186498033367
2025-06-25 13:45:54.879,0.000108232287255,-28.31923983876797
2025-06-25 13:45:54.887,0.0001190744940594,-22.26219626418372
2025-06-25 13:45:54.895,0.0001283432408139,-15.691441178821805
2025-06-25 13:45:54.903,0.0001360453572364,-8.635605408359499
2025-06-25 13:45:54.911,0.000142222877938,-1.131266160233494
2025-06-25 13:45:54.918,0.0001469470201787,6.777128923497505
2025-06-25 13:45:54.926,0.0001503114286254,15.037459192655898
2025-06-25 13:45:54.934,0.0001524250861157,23.59027244461933
2025-06-25 13:45:54.942,0.0001534052764138,32.36929037942699
2025-06-25 13:45:54.950,0.0001533709558221,41.302093344217816
2025-06-25 13:45:54.957,0.0001524368476338,50.31099301130892
2025-06-25 13:45:54.965,0.0001507085193289,59.31409331227265
2025-06-25 13:45:54.973,0.0001482786398877,68.22653039306005
2025-06-25 13:45:54.981,0.0001452245464495,76.96187215136447
2025-06-25 13:45:54.989,0.0001416071786157,85.43364777364772
2025-06-25 13:45:54.997,0.0001374713677934,93.55696836452496
2025-06-25 13:45:55.004,0.0001328474007641,101.250191979409
2025-06-25 13:45:55.012,0.0001277537136591,108.43658073611796
2025-06-25 13:45:55.020,0.0001222005170292,115.0458946149235
2025-06-25 13:45:55.028,0.0001161941067547,121.01586627635176
2025-06-25 13:45:55.036,0.0001097415808852,126.29350375490152
2025-06-25 13:45:55.043,0.0001028556605732,130.83617308355252
2025-06-25 13:45:55.051,9.555930509901048e-05,134.61242049421213
2025-06-25 13:45:55.059,8.788981728386775e-05,137.6025034375347
2025-06-25 13:45:55.067,7.990215659654589e-05,139.798610787944
2025-06-25 13:45:55.075,7.167121283093775e-05,141.20476467713405
2025-06-25 13:45:55.082,6.329284276265262e-05,141.8364088034561
2025-06-25 13:45:55.090,5.488353462807613e-05,141.71970014925768
2025-06-25 13:45:55.098,4.65786391087421e-05,140.89053218656767
2025-06-25 13:45:55.106,3.8529188796392274e-05,139.39332731640008
2025-06-25 13:45:55.114,3.089741848205214e-05,137.27964402174285
2025-06-25 13:45:55.122,2.3851193276777323e-05,134.60664969570618
2025-06-25 13:45:55.129,1.7557645768387814e-05,131.4355131481532
2025-06-25 13:45:55.137,1.2176404019095907e-05,127.82977135120407
2025-06-25 13:45:55.145,7.85283330810225e-06,123.85372315018972
2025-06-25 13:45:55.153,4.711691430318732e-06,119.57089867117968
2025-06-25 13:45:55.161,2.851511949508751e-06,115.04264735381696
2025-06-25 13:45:55.168,2.3399169536786943e-06,110.32688038520736
2025-06-25 13:45:55.176,3.209969249933415e-06,105.47699532577704
2025-06-25 13:45:55.184,5.457636537647628e-06,100.5410024341102
2025-06-25 13:45:55.192,9.04044855470042e-06,95.56086411315236
2025-06-25 13:45:55.200,1.3877436450126876e-05,90.57205143538653
2025-06-25 13:45:55.207,1.985041208416572e-05,85.60331516642405
2025-06-25 13:45:55.215,2.68065761655644e-05,80.67666326333841
2025-06-25 13:45:55.223,3.456236168621126e-05,75.80753249974283
2025-06-25 13:45:55.231,4.290833421549986e-05,71.00513855742592
2025-06-25 13:45:55.239,5.16148947424531e-05,66.2729864192739
2025-06-25 13:45:55.247,6.0438489878008574e-05,61.60952094032723
