Timestamp,GSR_Filtered,PPG_Filtered,FMS,Condition
2025-06-25 13:55:59.690,3.02017230484467e-05,0.1445638417371875,1,NB
2025-06-25 13:55:59.697,3.195797536027076e-05,0.1825791651786324,1,NB
2025-06-25 13:55:59.705,3.2605021415831955e-05,0.2111386290263361,1,NB
2025-06-25 13:55:59.713,3.221705437344905e-05,0.2297488589273847,1,NB
2025-06-25 13:55:59.721,3.0901042180887744e-05,0.2381314240944108,1,NB
2025-06-25 13:55:59.729,2.8791349244757144e-05,0.2362390726302136,1,NB
2025-06-25 13:55:59.737,2.6043311737600887e-05,0.224266907138126,1,NB
2025-06-25 13:55:59.744,2.2826000024458616e-05,0.2026580244787439,1,NB
2025-06-25 13:55:59.752,1.931439595944225e-05,0.1721032468125942,1,NB
2025-06-25 13:55:59.760,1.5681239786754103e-05,0.133534677039105,1,NB
2025-06-25 13:55:59.768,1.208888204072848e-05,0.088112926967869,1,NB
2025-06-25 13:55:59.776,8.681596180120293e-06,0.0372079986334195,1,NB
2025-06-25 13:55:59.783,5.578907892074062e-06,-0.0176260482893055,1,NB
2025-06-25 13:55:59.791,2.870504627153961e-06,-0.0746823398372216,1,NB
2025-06-25 13:55:59.799,6.131705474751158e-07,-0.1321378593434819,1,NB
2025-06-25 13:55:59.807,-1.1700258858512205e-06,-0.188094887187556,1,NB
2025-06-25 13:55:59.815,-2.48831942626498e-06,-0.2406263833332852,1,NB
2025-06-25 13:55:59.822,-3.3798665343658047e-06,-0.2878243410685668,1,NB
2025-06-25 13:55:59.830,-3.906808811652219e-06,-0.3278500157844718,1,NB
2025-06-25 13:55:59.838,-4.149267204314712e-06,-0.3589848289280246,1,NB
2025-06-25 13:55:59.846,-4.198738505477996e-06,-0.3796806629452237,1,NB
2025-06-25 13:55:59.854,-4.151278160289541e-06,-0.3886081980526269,1,NB
2025-06-25 13:55:59.862,-4.10073906356987e-06,-0.3847018967766007,1,NB
2025-06-25 13:55:59.869,-4.132268150392989e-06,-0.3672002170402692,1,NB
2025-06-25 13:55:59.877,-4.316279725658589e-06,-0.3356796294611545,1,NB
2025-06-25 13:55:59.885,-4.703190145126102e-06,-0.2900810356527497,1,NB
2025-06-25 13:55:59.893,-5.319241473588044e-06,-0.2307272462393052,1,NB
2025-06-25 13:55:59.901,-6.163719234274518e-06,-0.1583302985582227,1,NB
2025-06-25 13:55:59.908,-7.207781471245751e-06,-0.0739875900230323,1,NB
2025-06-25 13:55:59.916,-8.39499487991122e-06,0.0208339178039434,1,NB
2025-06-25 13:55:59.924,-9.643566351615529e-06,0.1243258052969236,1,NB
2025-06-25 13:55:59.932,-1.0850184306999353e-05,0.2343785465792098,1,NB
2025-06-25 13:55:59.940,-1.189531134607997e-05,0.3486335287795595,1,NB
2025-06-25 13:55:59.947,-1.2649672259758302e-05,0.4645456043584831,1,NB
2025-06-25 13:55:59.955,-1.2981589973757566e-05,0.579454483845592,1,NB
2025-06-25 13:55:59.963,-1.2764773675753796e-05,0.690662762832118,1,NB
2025-06-25 13:55:59.971,-1.18861451722509e-05,0.7955179531545127,1,NB
2025-06-25 13:55:59.979,-1.0253269653278742e-05,0.8914955893508288,1,NB
2025-06-25 13:55:59.987,-7.800938282863645e-06,0.9762803292682852,1,NB
2025-06-25 13:55:59.994,-4.496466353591284e-06,1.0478419681744138,1,NB
2025-06-25 13:56:00.002,-3.433436964955761e-07,1.1045034309134654,1,NB
2025-06-25 13:56:00.010,4.617017391218692e-06,1.1449980787053016,1,NB
2025-06-25 13:56:00.018,1.0305585672668665e-05,1.1685140439199948,1,NB
2025-06-25 13:56:00.026,1.6608114341742882e-05,1.1747237668278536,1,NB
2025-06-25 13:56:00.033,2.3379565182843256e-05,1.1637974367081236,1,NB
2025-06-25 13:56:00.041,3.045031195295812e-05,1.1363996225462742,1,NB
2025-06-25 13:56:00.049,3.7633722664624936e-05,1.0936690019943174,1,NB
2025-06-25 13:56:00.057,4.473460599852782e-05,1.037181744545206,1,NB
2025-06-25 13:56:00.065,5.155793868685234e-05,0.968899754106141,1,NB
2025-06-25 13:56:00.072,5.791725899820446e-05,0.8911055974098052,1,NB
2025-06-25 13:56:00.080,6.36421402055529e-05,0.8063265002615861,1,NB
2025-06-25 13:56:00.088,6.858428039931186e-05,0.7172502448279721,1,NB
2025-06-25 13:56:00.096,7.262194411078342e-05,0.6266361187115437,1,NB
2025-06-25 13:56:00.104,7.566269355726947e-05,0.537224236620953,1,NB
2025-06-25 13:56:00.112,7.764447970476458e-05,0.4516465772556081,1,NB
2025-06-25 13:56:00.119,7.853521079630459e-05,0.3723429569094382,1,NB
2025-06-25 13:56:00.127,7.833092390072005e-05,0.3014849056311969,1,NB
2025-06-25 13:56:00.135,7.705271013267793e-05,0.2409100358211089,1,NB
2025-06-25 13:56:00.143,7.47426181193273e-05,0.1920690198499929,1,NB
2025-06-25 13:56:00.151,7.145888176711875e-05,0.1559867526966188,1,NB
2025-06-25 13:56:00.158,6.727094345859545e-05,0.1332387002476853,1,NB
2025-06-25 13:56:00.166,6.225479889763526e-05,0.123942853586663,1,NB
2025-06-25 13:56:00.174,5.648912983030967e-05,0.1277671471339502,1,NB
2025-06-25 13:56:00.182,5.005254159331466e-05,0.1439516686920496,1,NB
2025-06-25 13:56:00.190,4.30220551786112e-05,0.1713445014707325,1,NB
2025-06-25 13:56:00.197,3.547287050717112e-05,0.2084495995428954,1,NB
2025-06-25 13:56:00.205,2.747931433606701e-05,0.2534847186088,1,NB
2025-06-25 13:56:00.213,1.9116782487224556e-05,0.3044471168893908,1,NB
2025-06-25 13:56:00.221,1.046438419462824e-05,0.3591845215277384,1,NB
2025-06-25 13:56:00.229,1.6079278605522665e-06,0.415468737001394,1,NB
2025-06-25 13:56:00.237,-7.357136797920681e-06,0.4710692628051553,1,NB
2025-06-25 13:56:00.244,-1.632319890625696e-05,0.5238243930749079,1,NB
2025-06-25 13:56:00.252,-2.51687387584912e-05,0.571707489351741,1,NB
2025-06-25 13:56:00.260,-3.375765971857358e-05,0.6128864364968696,1,NB
2025-06-25 13:56:00.268,-4.193996518166513e-05,0.6457746846757512,1,NB
2025-06-25 13:56:00.276,-4.955398786222239e-05,0.6690727113882072,1,NB
2025-06-25 13:56:00.283,-5.643025705061583e-05,0.6817991689322244,1,NB
2025-06-25 13:56:00.291,-6.239689725541862e-05,0.6833113832216112,1,NB
2025-06-25 13:56:00.299,-6.728625442911256e-05,0.6733152196030824,1,NB
2025-06-25 13:56:00.307,-7.094231789489888e-05,0.65186462137041,1,NB
2025-06-25 13:56:00.315,-7.32284619528919e-05,0.6193513565853488,1,NB
2025-06-25 13:56:00.322,-7.403503889762544e-05,0.5764856846924775,1,NB
2025-06-25 13:56:00.330,-7.328638437037682e-05,0.524268788320303,1,NB
2025-06-25 13:56:00.338,-7.094683519990057e-05,0.4639579234783131,1,NB
2025-06-25 13:56:00.346,-6.702540748395903e-05,0.3970253380465733,1,NB
2025-06-25 13:56:00.354,-6.157883858488708e-05,0.3251121040577635,1,NB
2025-06-25 13:56:00.362,-5.471276084957704e-05,0.2499781082801414,1,NB
2025-06-25 13:56:00.369,-4.658084698890745e-05,0.1734495472289116,1,NB
2025-06-25 13:56:00.377,-3.738184674486664e-05,0.0973653696849677,1,NB
2025-06-25 13:56:00.385,-2.7354521060304414e-05,0.0235241876339417,1,NB
2025-06-25 13:56:00.393,-1.6770572453954374e-05,-0.0463667841775398,1,NB
2025-06-25 13:56:00.401,-5.925767330709647e-06,-0.1107392190969865,1,NB
2025-06-25 13:56:00.408,4.870454244381463e-06,-0.1682061516801385,1,NB
2025-06-25 13:56:00.416,1.5306485406647147e-05,-0.2175981563004684,1,NB
2025-06-25 13:56:00.424,2.508068176131921e-05,-0.2579921962281817,1,NB
2025-06-25 13:56:00.432,3.39135255914663e-05,-0.2887324000085904,1,NB
2025-06-25 13:56:00.440,4.155915437856693e-05,-0.3094423380954395,1,NB
2025-06-25 13:56:00.447,4.781552492321866e-05,-0.3200286903262092,1,NB
2025-06-25 13:56:00.455,5.253248709827105e-05,-0.3206764987722747,1,NB
2025-06-25 13:56:00.463,5.56171518425885e-05,-0.3118364808412477,1,NB
2025-06-25 13:56:00.471,5.70361753465186e-05,-0.2942051257320908,1,NB
2025-06-25 13:56:00.479,5.6814904616793056e-05,-0.268698506258279,1,NB
2025-06-25 13:56:00.487,5.5033650887939615e-05,-0.2364209039907125,1,NB
2025-06-25 13:56:00.494,5.182158900861725e-05,-0.1986294679013638,1,NB
2025-06-25 13:56:00.502,4.734888266443364e-05,-0.1566962037131381,1,NB
2025-06-25 13:56:00.510,4.1817626951230064e-05,-0.1120686188000029,1,NB
2025-06-25 13:56:00.518,3.5452131230162545e-05,-0.0662303216210242,1,NB
2025-06-25 13:56:00.526,2.8488983302444133e-05,-0.0206627954428123,1,NB
2025-06-25 13:56:00.533,2.11672779834494e-05,0.0231905609466292,1,NB
2025-06-25 13:56:00.541,1.37193771006193e-05,0.0639571985101565,1,NB
2025-06-25 13:56:00.549,6.362572271496171e-06,0.1003642554398333,1,NB
2025-06-25 13:56:00.557,-7.079989678815229e-07,0.1312629412975908,1,NB
2025-06-25 13:56:00.565,-7.324901181968694e-06,0.1556481516597639,1,NB
2025-06-25 13:56:00.572,-1.3352230961040368e-05,0.1726731948786996,1,NB
2025-06-25 13:56:00.580,-1.8687654806085675e-05,0.1816596910836321,1,NB
2025-06-25 13:56:00.588,-2.3262684518470866e-05,0.182102861519749,1,NB
2025-06-25 13:56:00.596,-2.704131399801325e-05,0.1736725651622394,1,NB
2025-06-25 13:56:00.604,-3.0017224336297715e-05,0.1562105588032809,1,NB
2025-06-25 13:56:00.612,-3.220983392751399e-05,0.1297245538558678,1,NB
2025-06-25 13:56:00.619,-3.3659525696027336e-05,0.0943797159726153,1,NB
2025-06-25 13:56:00.627,-3.442242359216424e-05,0.0504883016278427,1,NB
2025-06-25 13:56:00.635,-3.4565113164614986e-05,-0.0015018542473069,1,NB
2025-06-25 13:56:00.643,-3.415969654136226e-05,-0.0610193033387731,1,NB
2025-06-25 13:56:00.651,-3.3279520247382e-05,-0.1273807735056608,1,NB
2025-06-25 13:56:00.658,-3.199580441626605e-05,-0.1998022785819038,1,NB
2025-06-25 13:56:00.666,-3.0375261402147208e-05,-0.2774092182869073,1,NB
2025-06-25 13:56:00.674,-2.8478671647098e-05,-0.3592453476574945,1,NB
2025-06-25 13:56:00.682,-2.6360312304332736e-05,-0.4442807218856801,1,NB
2025-06-25 13:56:00.690,-2.4068099244750548e-05,-0.5314189454449041,1,NB
2025-06-25 13:56:00.697,-2.1644285747791597e-05,-0.6195042524571197,1,NB
2025-06-25 13:56:00.705,-1.912655217019892e-05,-0.7073290975916874,1,NB
2025-06-25 13:56:00.713,-1.6549318816886357e-05,-0.7936430248790365,1,NB
2025-06-25 13:56:00.721,-1.39451191359276e-05,-0.8771635905218473,1,NB
2025-06-25 13:56:00.729,-1.134588204213025e-05,-0.9565900353969,1,NB
2025-06-25 13:56:00.737,-8.783990252929571e-06,-1.0306202329645016,1,NB
2025-06-25 13:56:00.744,-6.293005413413354e-06,-1.0979711908163936,1,NB
2025-06-25 13:56:00.752,-3.907979729186468e-06,-1.1574030837656282,1,NB
2025-06-25 13:56:00.760,-1.665306885802217e-06,-1.2077464751654658,1,NB
2025-06-25 13:56:00.768,3.9789886558906853e-07,-1.2479320709922577,1,NB
2025-06-25 13:56:00.776,2.24486863651648e-06,-1.2770220693803098,1,NB
2025-06-25 13:56:00.783,3.840624545020445e-06,-1.2942419304292592,1,NB
2025-06-25 13:56:00.791,5.153702132210932e-06,-1.299011208246472,1,NB
2025-06-25 13:56:00.799,6.158011211177896e-06,-1.2909719692414845,1,NB
2025-06-25 13:56:00.807,6.834665077001557e-06,-1.270013275227588,1,NB
2025-06-25 13:56:00.815,7.173582957849366e-06,-1.2362902430335647,1,NB
2025-06-25 13:56:00.822,7.174663227302779e-06,-1.1902363107155858,1,NB
2025-06-25 13:56:00.830,6.848357042160356e-06,-1.132567549105911,1,NB
2025-06-25 13:56:00.838,6.215555958910569e-06,-1.064278153128297,1,NB
2025-06-25 13:56:00.846,5.306817235395219e-06,-0.9866266134743864,1,NB
2025-06-25 13:56:00.854,4.1610377064019136e-06,-0.9011124783032106,1,NB
2025-06-25 13:56:00.862,2.8237257503315314e-06,-0.809444036436799,1,NB
2025-06-25 13:56:00.869,1.3450229769419766e-06,-0.7134976621174747,1,NB
2025-06-25 13:56:00.877,-2.2238562083226325e-07,-0.6152699365111564,1,NB
2025-06-25 13:56:00.885,-1.8253515784393755e-06,-0.5168239873421954,1,NB
2025-06-25 13:56:00.893,-3.412230574363855e-06,-0.4202317536309968,1,NB
2025-06-25 13:56:00.901,-4.9346554693758926e-06,-0.3275140784788048,1,NB
2025-06-25 13:56:00.908,-6.3490527395431214e-06,-0.2405806530656654,1,NB
2025-06-25 13:56:00.916,-7.61785997019827e-06,-0.1611718776875937,1,NB
2025-06-25 13:56:00.924,-8.710420613607388e-06,-0.0908046742641991,1,NB
2025-06-25 13:56:00.932,-9.603549085564147e-06,-0.0307241879471304,1,NB
2025-06-25 13:56:00.940,-1.0281774101910368e-05,0.0181368347467892,1,NB
2025-06-25 13:56:00.947,-1.073728066855265e-05,0.0551893970085795,1,NB
2025-06-25 13:56:00.955,-1.096958118463556e-05,0.0802089708189707,1,NB
2025-06-25 13:56:00.963,-1.0984953650638196e-05,0.0933445011602975,1,NB
2025-06-25 13:56:00.971,-1.0795690039180471e-05,0.0951149445374024,1,NB
2025-06-25 13:56:00.979,-1.0419200616935588e-05,0.0863929821506825,1,NB
2025-06-25 13:56:00.987,-9.87702060051736e-06,0.0683759965354952,1,NB
2025-06-25 13:56:00.994,-9.193764240318356e-06,0.04254489524157,1,NB
2025-06-25 13:56:01.002,-8.396068544928724e-06,0.0106118856161609,1,NB
2025-06-25 13:56:01.010,-7.51156469896067e-06,-0.0255411778933503,1,NB
2025-06-25 13:56:01.018,-6.567910111668807e-06,-0.0639317733078406,1,NB
2025-06-25 13:56:01.026,-5.591908281352223e-06,-0.1025505135134498,1,NB
2025-06-25 13:56:01.033,-4.60873757420708e-06,-0.1394369742901622,1,NB
2025-06-25 13:56:01.041,-3.641303873920862e-06,-0.1727545932328681,1,NB
2025-06-25 13:56:01.049,-2.709726104885723e-06,-0.200861674913066,1,NB
2025-06-25 13:56:01.057,-1.8309580740942344e-06,-0.2223756719649355,1,NB
2025-06-25 13:56:01.065,-1.0185450792992424e-06,-0.2362281719029068,1,NB
2025-06-25 13:56:01.072,-2.825094151595261e-07,-0.241708377156732,1,NB
2025-06-25 13:56:01.080,3.706446470105223e-07,-0.2384932929504502,1,NB
2025-06-25 13:56:01.088,9.378185897058708e-07,-0.2266633143479262,1,NB
2025-06-25 13:56:01.096,1.419114237476038e-06,-0.2067024186092877,1,NB
2025-06-25 13:56:01.104,1.8175505529475448e-06,-0.1794827134044087,1,NB
2025-06-25 13:56:01.112,2.138718494145819e-06,-0.1462336549643396,1,NB
2025-06-25 13:56:01.119,2.3903896757437525e-06,-0.1084968196365396,1,NB
2025-06-25 13:56:01.127,2.582093951839152e-06,-0.0680676721782034,1,NB
2025-06-25 13:56:01.135,2.724680008478077e-06,-0.0269263069022248,1,NB
2025-06-25 13:56:01.143,2.829871733515375e-06,0.0128403772882745,1,NB
2025-06-25 13:56:01.151,2.90983163029186e-06,0.0491221936952787,1,NB
2025-06-25 13:56:01.158,2.9767409632861547e-06,0.0798716850472062,1,NB
2025-06-25 13:56:01.166,3.042404759812181e-06,0.103189251388675,1,NB
2025-06-25 13:56:01.174,3.1178883181142635e-06,0.1174039399095555,1,NB
2025-06-25 13:56:01.182,3.213190547162796e-06,0.1211465460717881,1,NB
2025-06-25 13:56:01.190,3.3369583260255806e-06,0.1134119395655441,1,NB
2025-06-25 13:56:01.197,3.496245139972487e-06,0.0936079519858543,1,NB
2025-06-25 13:56:01.205,3.696316526161267e-06,0.0615887219138011,1,NB
2025-06-25 13:56:01.213,3.9405043255478585e-06,0.0176710531897958,1,NB
2025-06-25 13:56:01.221,4.23011135548806e-06,-0.0373669336087966,1,NB
2025-06-25 13:56:01.229,4.564367842441242e-06,-0.1023048251599608,1,NB
2025-06-25 13:56:01.237,4.940440730038287e-06,-0.1755158419143654,1,NB
2025-06-25 13:56:01.244,5.353496742973957e-06,-0.2550181980509799,1,NB
2025-06-25 13:56:01.252,5.796819779035766e-06,-0.338539806825455,1,NB
2025-06-25 13:56:01.260,6.261982760567674e-06,-0.4235937263224797,1,NB
2025-06-25 13:56:01.268,6.739073450653402e-06,-0.507561343793175,1,NB
2025-06-25 13:56:01.276,7.216972887484215e-06,-0.5877800329426245,1,NB
2025-06-25 13:56:01.283,7.68368398677101e-06,-0.6616318953939242,1,NB
2025-06-25 13:56:01.291,8.126706498417462e-06,-0.7266302160162467,1,NB
2025-06-25 13:56:01.299,8.533452891614654e-06,-0.7805004159497331,1,NB
2025-06-25 13:56:01.307,8.891697914830916e-06,-0.8212525668289382,1,NB
2025-06-25 13:56:01.315,9.190052588107188e-06,-0.84724292286096,1,NB
2025-06-25 13:56:01.322,9.418451309628007e-06,-0.8572224188680261,1,NB
2025-06-25 13:56:01.330,9.568638690670796e-06,-0.850370650639581,1,NB
2025-06-25 13:56:01.338,9.634640782774926e-06,-0.8263144709281967,1,NB
2025-06-25 13:56:01.346,9.61320365054153e-06,-0.7851309695303749,1,NB
2025-06-25 13:56:01.354,9.504180902449942e-06,-0.7273352302106659,1,NB
2025-06-25 13:56:01.362,9.310850951723796e-06,-0.6538538449390753,1,NB
2025-06-25 13:56:01.369,9.0401445662404e-06,-0.5659856929447087,1,NB
2025-06-25 13:56:01.377,8.702763796000616e-06,-0.4653519357622974,1,NB
2025-06-25 13:56:01.385,8.313174735641387e-06,-0.3538375214380818,1,NB
2025-06-25 13:56:01.393,7.88945885946592e-06,-0.2335267207963222,1,NB
2025-06-25 13:56:01.401,7.453010897214903e-06,-0.1066353332373748,1,NB
2025-06-25 13:56:01.408,7.028075402267509e-06,0.0245577997618273,1,NB
2025-06-25 13:56:01.416,6.641119259411822e-06,0.1577774465034623,1,NB
2025-06-25 13:56:01.424,6.320043299693913e-06,0.2908144960244216,1,NB
2025-06-25 13:56:01.432,6.093242799681216e-06,0.4215823446950441,1,NB
2025-06-25 13:56:01.440,5.9885337576827525e-06,0.5481655825078326,1,NB
2025-06-25 13:56:01.448,6.031969229207843e-06,0.6688598664853826,1,NB
2025-06-25 13:56:01.455,6.24657739465915e-06,0.7822023507426281,1,NB
2025-06-25 13:56:01.463,6.6510601140557954e-06,0.8869925041850221,1,NB
2025-06-25 13:56:01.471,7.258497158944421e-06,0.9823035553856048,1,NB
2025-06-25 13:56:01.479,8.075106746360752e-06,1.067485144188928,1,NB
2025-06-25 13:56:01.487,9.099117075831875e-06,1.1421580324278315,1,NB
2025-06-25 13:56:01.494,1.0319805941108817e-05,1.2062019390019552,1,NB
2025-06-25 13:56:01.502,1.171676583395812e-05,1.2597377176746365,1,NB
2025-06-25 13:56:01.510,1.3259450002546558e-05,1.303105180463247,1,NB
2025-06-25 13:56:01.518,1.4907050457950348e-05,1.3368378760771549,1,NB
2025-06-25 13:56:01.526,1.660875180390344e-05,1.361636060135482,1,NB
2025-06-25 13:56:01.533,1.830439495629325e-05,1.378338950442014,1,NB
2025-06-25 13:56:01.541,1.992557238774104e-05,1.387897163081902,1,NB
2025-06-25 13:56:01.549,2.1397161666168312e-05,1.3913459954779948,1,NB
2025-06-25 13:56:01.557,2.263928706931344e-05,1.3897799838689888,1,NB
2025-06-25 13:56:01.565,2.356968039550553e-05,1.3843289354931017,1,NB
2025-06-25 13:56:01.573,2.4106392330068135e-05,1.3761354373840085,1,NB
2025-06-25 13:56:01.580,2.417078556480677e-05,1.3663336893391516,1,NB
2025-06-25 13:56:01.588,2.369072111358961e-05,1.356029411825173,1,NB
2025-06-25 13:56:01.596,2.2603830819924936e-05,1.3462805505723834,1,NB
2025-06-25 13:56:01.604,2.086075287909463e-05,1.3380785423795578,1,NB
2025-06-25 13:56:01.612,1.8428194300124784e-05,1.3323300157995308,1,NB
2025-06-25 13:56:01.619,1.5291675613839498e-05,1.329838959460077,1,NB
2025-06-25 13:56:01.627,1.1457809753953102e-05,1.3312895743307205,1,NB
2025-06-25 13:56:01.635,6.955969775413329e-06,1.337230205142784,1,NB
2025-06-25 13:56:01.643,1.8392096739443504e-06,1.3480588926488717,1,NB
2025-06-25 13:56:01.651,-3.815680398721627e-06,1.3640111787298748,1,NB
2025-06-25 13:56:01.658,-9.909078422894028e-06,1.3851508138050408,1,NB
2025-06-25 13:56:01.666,-1.632045553894834e-05,1.411363956247932,1,NB
2025-06-25 13:56:01.674,-2.2911342756846354e-05,1.4423573280794673,1,NB
2025-06-25 13:56:01.682,-2.9529312915799525e-05,1.4776606241213512,1,NB
2025-06-25 13:56:01.690,-3.601289792012173e-05,1.516633291322656,1,NB
2025-06-25 13:56:01.698,-4.219730283491032e-05,1.5584756264589104,1,NB
2025-06-25 13:56:01.705,-4.792071671110698e-05,1.6022440030028355,1,NB
2025-06-25 13:56:01.713,-5.3030956992085056e-05,1.6468699427665334,1,NB
2025-06-25 13:56:01.721,-5.739212230871671e-05,1.6911826950082849,1,NB
2025-06-25 13:56:01.729,-6.0890869931054894e-05,1.7339349632130838,1,NB
2025-06-25 13:56:01.737,-6.344188346629596e-05,1.7738314081372213,1,NB
2025-06-25 13:56:01.744,-6.499206772900886e-05,1.8095595346702456,1,NB
2025-06-25 13:56:01.752,-6.552303421511471e-05,1.839822523743992,1,NB
2025-06-25 13:56:01.760,-6.505155847808897e-05,1.8633734899880856,1,NB
2025-06-25 13:56:01.768,-6.36278970400398e-05,1.8790505307789425,1,NB
2025-06-25 13:56:01.776,-6.133209293164463e-05,1.8858117917861912,1,NB
2025-06-25 13:56:01.783,-5.826861275043533e-05,1.8827696243054837,1,NB
2025-06-25 13:56:01.791,-5.4559805237309954e-05,1.8692227691660364,1,NB
2025-06-25 13:56:01.799,-5.033873633686345e-05,1.8446853882259344,1,NB
2025-06-25 13:56:01.807,-4.574194550869217e-05,1.8089116944414227,1,NB
2025-06-25 13:56:01.815,-4.090260852137256e-05,1.7619149245442338,1,NB
2025-06-25 13:56:01.823,-3.594450883695161e-05,1.703979475036005,1,NB
2025-06-25 13:56:01.830,-3.097712626717779e-05,1.635665197364213,1,NB
2025-06-25 13:56:01.838,-2.609205306553572e-05,1.557803122286868,1,NB
2025-06-25 13:56:01.846,-2.136084750238324e-05,1.4714822389502282,1,NB
2025-06-25 13:56:01.854,-1.6834336578179693e-05,1.3780273598605042,1,NB
2025-06-25 13:56:01.862,-1.2543285959521889e-05,1.2789685231816192,1,NB
2025-06-25 13:56:01.869,-8.500269296547889e-06,1.176002786012073,1,NB
2025-06-25 13:56:01.877,-4.702493305468166e-06,1.0709496196328772,1,NB
2025-06-25 13:56:01.885,-1.1352731631039188e-06,0.9657014100831216,1,NB
2025-06-25 13:56:01.893,2.224183662329901e-06,0.862170781467822,1,NB
2025-06-25 13:56:01.901,5.403016023046268e-06,0.7622365868319502,1,NB
2025-06-25 13:56:01.908,8.429230428483049e-06,0.6676904479063046,1,NB
2025-06-25 13:56:01.916,1.1328660954081228e-05,0.5801856721397288,1,NB
2025-06-25 13:56:01.924,1.412243499599471e-05,0.5011902426174444,1,NB
2025-06-25 13:56:01.932,1.6824965634612988e-05,0.431945378845375,1,NB
2025-06-25 13:56:01.940,1.9442475617499023e-05,0.3734309203872932,1,NB
2025-06-25 13:56:01.948,2.1972052285274284e-05,0.3263385061544514,1,NB
2025-06-25 13:56:01.955,2.4401227406843755e-05,0.2910532234429984,1,NB
2025-06-25 13:56:01.963,2.6708069237132103e-05,0.2676440953308399,1,NB
2025-06-25 13:56:01.971,2.8861766218307027e-05,0.2558634743912292,1,NB
2025-06-25 13:56:01.979,3.0823672736778014e-05,0.255155123365616,1,NB
2025-06-25 13:56:01.987,3.2548777416830185e-05,0.2646704932041497,1,NB
2025-06-25 13:56:01.994,3.398754384649703e-05,0.2832924574845874,1,NB
2025-06-25 13:56:02.002,3.5088062737452515e-05,0.3096655359040883,1,NB
2025-06-25 13:56:02.010,3.579844373777771e-05,0.3422314521485864,1,NB
2025-06-25 13:56:02.018,3.606936493215366e-05,0.3792687401239382,1,NB
2025-06-25 13:56:02.026,3.585668902423615e-05,0.4189350505350766,1,NB
2025-06-25 13:56:02.033,3.512404789032758e-05,0.4593108228562484,1,NB
2025-06-25 13:56:02.041,3.384529223672751e-05,0.4984430745452952,1,NB
2025-06-25 13:56:02.049,3.2006701102489946e-05,0.5343882118969558,1,NB
2025-06-25 13:56:02.057,2.9608847518125167e-05,0.5652529684480494,1,NB
2025-06-25 13:56:02.065,2.666802229958083e-05,0.5892328012870782,1,NB
2025-06-25 13:56:02.073,2.32171281822644e-05,0.6046472930597712,1,NB
2025-06-25 13:56:02.080,1.9305971622808075e-05,0.6099722929422584,1,NB
2025-06-25 13:56:02.088,1.5000899810353793e-05,0.6038686678547285,1,NB
2025-06-25 13:56:02.096,1.0383755750997066e-05,0.5852076175690107,1,NB
2025-06-25 13:56:02.104,5.550154531848741e-06,0.5530925310042691,1,NB
2025-06-25 13:56:02.112,6.071186228721103e-07,0.5068773298165092,1,NB
2025-06-25 13:56:02.119,-4.329851317725982e-06,0.4461811734420901,1,NB
2025-06-25 13:56:02.127,-9.140152107167664e-06,0.3708993100802391,1,NB
2025-06-25 13:56:02.135,-1.3701740403107935e-05,0.2812097764515216,1,NB
2025-06-25 13:56:02.143,-1.789489115520749e-05,0.177575596487602,1,NB
2025-06-25 13:56:02.151,-2.160586377954977e-05,0.0607421165303157,1,NB
2025-06-25 13:56:02.158,-2.473033600526271e-05,-0.068270856817854,1,NB
2025-06-25 13:56:02.166,-2.717653529172975e-05,-0.208182385416214,1,NB
2025-06-25 13:56:02.174,-2.886804143606328e-05,-0.3574693697293508,1,NB
2025-06-25 13:56:02.182,-2.974622756472424e-05,-0.514391216365804,1,NB
2025-06-25 13:56:02.190,-2.977226571025872e-05,-0.6770201201761877,1,NB
2025-06-25 13:56:02.198,-2.8928580933650243e-05,-0.8432767249523241,1,NB
2025-06-25 13:56:02.205,-2.7219627942576187e-05,-1.0109707672849295,1,NB
2025-06-25 13:56:02.213,-2.4671902423342668e-05,-1.1778461508632956,1,NB
2025-06-25 13:56:02.221,-2.1333164310078432e-05,-1.3416297475458865,1,NB
2025-06-25 13:56:02.229,-1.727090478624528e-05,-1.500083072334128,1,NB
2025-06-25 13:56:02.237,-1.2570130335536668e-05,-1.6510558210854638,1,NB
2025-06-25 13:56:02.244,-7.330591126303329e-06,-1.7925400846540556,1,NB
2025-06-25 13:56:02.252,-1.6636447064057055e-06,-1.9227238664669968,1,NB
2025-06-25 13:56:02.260,4.31101797120007e-06,-2.0400423543346027,1,NB
2025-06-25 13:56:02.268,1.0468570605896131e-05,-2.143225265373624,1,NB
2025-06-25 13:56:02.276,1.6682008950578353e-05,-2.23133852984271,1,NB
2025-06-25 13:56:02.283,2.2824763688521157e-05,-2.303818628825264,1,NB
2025-06-25 13:56:02.291,2.877292552051034e-05,-2.360498057283153,1,NB
2025-06-25 13:56:02.299,3.4407095545278216e-05,-2.401620635030905,1,NB
2025-06-25 13:56:02.307,3.961392405555186e-05,-2.427845707296766,1,NB
2025-06-25 13:56:02.315,4.4287442898315866e-05,-2.4402406321956835,1,NB
2025-06-25 13:56:02.323,4.833032924213023e-05,-2.440261317188048,1,NB
2025-06-25 13:56:02.330,5.165525941871492e-05,-2.4297209228819545,1,NB
2025-06-25 13:56:02.338,5.418651027950578e-05,-2.410747191926016,1,NB
2025-06-25 13:56:02.346,5.5861921547395705e-05,-2.3857291806571954,1,NB
2025-06-25 13:56:02.354,5.663523509255757e-05,-2.357254474842897,1,NB
2025-06-25 13:56:02.362,5.6478702971327616e-05,-2.328038268503128,1,NB
2025-06-25 13:56:02.369,5.53857563606293e-05,-2.3008459890913118,1,NB
2025-06-25 13:56:02.377,5.3373479502043166e-05,-2.278411467854828,1,NB
2025-06-25 13:56:02.385,5.04846260753628e-05,-2.2633529697770327,1,NB
2025-06-25 13:56:02.393,4.678893007755721e-05,-2.2580896875897487,1,NB
2025-06-25 13:56:02.401,4.238348999960552e-05,-2.26476153620974,1,NB
2025-06-25 13:56:02.408,3.7392042361399054e-05,-2.2851552236316346,1,NB
2025-06-25 13:56:02.416,3.1962988278230786e-05,-2.3206395900965475,1,NB
2025-06-25 13:56:02.424,2.626609412731296e-05,-2.3721130736709584,1,NB
2025-06-25 13:56:02.432,2.0487853607859455e-05,-2.439965862708025,1,NB
2025-06-25 13:56:02.440,1.482557218617844e-05,-2.5240588339823664,1,NB
2025-06-25 13:56:02.448,9.480314318782648e-06,-2.623720764832322,1,NB
2025-06-25 13:56:02.455,4.648936779565585e-06,-2.7377645786686458,1,NB
2025-06-25 13:56:02.463,5.155153314632728e-07,-2.8645225790048574,1,NB
2025-06-25 13:56:02.471,-2.75744763184164e-06,-3.001899798175969,1,NB
2025-06-25 13:56:02.479,-5.03758283703028e-06,-3.1474437825838293,1,NB
2025-06-25 13:56:02.487,-6.230505956074046e-06,-3.298428399092257,1,NB
2025-06-25 13:56:02.494,-6.286517464391803e-06,-3.4519486102319807,1,NB
2025-06-25 13:56:02.502,-5.2057698172068246e-06,-3.605022653074746,1,NB
2025-06-25 13:56:02.510,-3.041571651164367e-06,-3.7546976844669513,1,NB
2025-06-25 13:56:02.518,9.847538187749967e-08,-3.898154734907945,1,NB
2025-06-25 13:56:02.526,4.053765299489519e-06,-4.032808751137977,1,NB
2025-06-25 13:56:02.533,8.614537950500386e-06,-4.156399605952594,1,NB
2025-06-25 13:56:02.541,1.352823106374146e-05,-4.267070214466292,1,NB
2025-06-25 13:56:02.549,1.850807786860965e-05,-4.3634283213645535,1,NB
2025-06-25 13:56:02.557,2.3243570093728563e-05,-4.44458911174371,1,NB
2025-06-25 13:56:02.565,2.741236640441892e-05,-4.510196533724518,1,NB
2025-06-25 13:56:02.573,3.0693227058576306e-05,-4.560422071909696,1,NB
2025-06-25 13:56:02.580,3.277954380784844e-05,-4.5959406342374765,1,NB
2025-06-25 13:56:02.588,3.339298554635783e-05,-4.617884168004446,1,NB
2025-06-25 13:56:02.596,3.2296718117947306e-05,-4.627774565591701,1,NB
2025-06-25 13:56:02.604,2.930762971130776e-05,-4.627438321227259,1,NB
2025-06-25 13:56:02.612,2.430702485826599e-05,-4.618906221813752,1,NB
2025-06-25 13:56:02.619,1.7249317989718684e-05,-4.604302064127248,1,NB
2025-06-25 13:56:02.627,8.168319128086067e-06,-4.585724958221721,1,NB
2025-06-25 13:56:02.635,-2.8192628799788583e-06,-4.565130176771117,1,NB
2025-06-25 13:56:02.643,-1.5513447269393013e-05,-4.54421371869825,1,NB
2025-06-25 13:56:02.651,-2.963401730201324e-05,-4.524305752584582,1,NB
2025-06-25 13:56:02.658,-4.482711000291881e-05,-4.506277877945962,1,NB
2025-06-25 13:56:02.666,-6.0675319717759176e-05,-4.490468688332132,1,NB
2025-06-25 13:56:02.674,-7.671106526858916e-05,-4.476631449432495,1,NB
2025-06-25 13:56:02.682,-9.243275127455342e-05,-4.463906839209142,1,NB
2025-06-25 13:56:02.690,-0.0001073230450379,-4.450822667823623,1,NB
2025-06-25 13:56:02.698,-0.0001208684283818,-4.435321347150265,1,NB
2025-06-25 13:56:02.705,-0.0001325791082182,-4.414814667078217,1,NB
2025-06-25 13:56:02.713,-0.0001420083748854,-4.386264215434288,1,NB
2025-06-25 13:56:02.721,-0.0001487705268423,-4.346284604300026,1,NB
2025-06-25 13:56:02.729,-0.0001525564987328,-4.291265589255474,1,NB
2025-06-25 13:56:02.737,-0.0001531463745816,-4.217508240168005,1,NB
2025-06-25 13:56:02.744,-0.0001504180974033,-4.121369589818641,1,NB
2025-06-25 13:56:02.752,-0.0001443519078847,-3.999409689011224,1,NB
2025-06-25 13:56:02.760,-0.0001350303198499,-3.8485347622298542,1,NB
2025-06-25 13:56:02.768,-0.0001226337323181,-3.666130205507796,1,NB
2025-06-25 13:56:02.776,-0.0001074320678821,-3.450177509193399,1,NB
2025-06-25 13:56:02.783,-8.977309569453473e-05,-3.199349823918946,1,NB
2025-06-25 13:56:02.791,-7.00683063985465e-05,-2.913081804320807,1,NB
2025-06-25 13:56:02.799,-4.8777306568907695e-05,-2.5916105280421995,1,NB
2025-06-25 13:56:02.807,-2.639166869573585e-05,-2.2359856426154336,1,NB
2025-06-25 13:56:02.815,-3.419036414798469e-06,-1.8480483690159493,1,NB
2025-06-25 13:56:02.823,1.963190341370829e-05,-1.430380507623324,1,NB
2025-06-25 13:56:02.830,4.226516719903322e-05,-0.986226065380668,1,NB
2025-06-25 13:56:02.838,6.40097016254965e-05,-0.519389466638312,1,NB
2025-06-25 13:56:02.846,8.442997957080159e-05,-0.0341154428245344,1,NB
2025-06-25 13:56:02.854,0.0001031349125243,0.4650434529363296,1,NB
2025-06-25 13:56:02.862,0.0001197850407207,0.9733652430612052,1,NB
2025-06-25 13:56:02.869,0.0001340979769957,1.4860962180782584,1,NB
2025-06-25 13:56:02.877,0.0001458521206284,1.9985815254817456,1,NB
2025-06-25 13:56:02.885,0.0001548887110284,2.5063828284490994,1,NB
2025-06-25 13:56:02.893,0.0001611123375205,3.005378097373176,1,NB
2025-06-25 13:56:02.901,0.0001644900520204,3.491839743612112,1,NB
2025-06-25 13:56:02.908,0.0001650492462885,3.962488630502845,1,NB
2025-06-25 13:56:02.916,0.0001628744572172,4.414522910947433,1,NB
2025-06-25 13:56:02.924,0.0001581032552882,4.8456220512552655,1,NB
2025-06-25 13:56:02.932,0.0001509213562973,5.253927726502236,1,NB
2025-06-25 13:56:02.940,0.0001415570782232,5.638004451483503,1,NB
2025-06-25 13:56:02.948,0.0001302752472265,5.996783796886753,1,NB
2025-06-25 13:56:02.955,0.0001173706425207,6.329496793599596,1,NB
2025-06-25 13:56:02.963,0.0001031610622127,6.635599615070927,1,NB
2025-06-25 13:56:02.971,8.798009363034842e-05,6.914697824371265,1,NB
2025-06-25 13:56:02.979,7.21696839462058e-05,7.166474371317276,1,NB
2025-06-25 13:56:02.987,5.607263116974824e-05,7.390626136184446,1,NB
2025-06-25 13:56:02.994,4.002515209802431e-05,7.586813166388013,1,NB
2025-06-25 13:56:03.002,2.434973039804021e-05,7.754623879202671,1,NB
2025-06-25 13:56:03.010,9.348493541249172e-06,7.893558454168149,1,NB
2025-06-25 13:56:03.018,-4.702612659396794e-06,8.003031468693127,1,NB
2025-06-25 13:56:03.026,-1.755861254089127e-05,8.082393603143212,1,NB
2025-06-25 13:56:03.033,-2.9009089506597805e-05,8.130971026274764,1,NB
2025-06-25 13:56:03.041,-3.888050413688545e-05,8.148119937580574,1,NB
2025-06-25 13:56:03.049,-4.703723997152751e-05,8.133292755790894,1,NB
2025-06-25 13:56:03.057,-5.338142247432961e-05,8.086111661383255,1,NB
2025-06-25 13:56:03.065,-5.785162338974786e-05,8.006444673433059,1,NB
2025-06-25 13:56:03.073,-6.042068261512164e-05,7.894479200803017,1,NB
2025-06-25 13:56:03.080,-6.109301766510056e-05,7.750788071378519,1,NB
2025-06-25 13:56:03.088,-5.990186208281649e-05,7.576383410128492,1,NB
2025-06-25 13:56:03.096,-5.6906824177201706e-05,7.372754387283837,1,NB
2025-06-25 13:56:03.104,-5.219200292353369e-05,7.141885751287422,1,NB
2025-06-25 13:56:03.112,-4.586470166123559e-05,6.886255138098642,1,NB
2025-06-25 13:56:03.119,-3.805461489524122e-05,6.608808337781415,1,NB
2025-06-25 13:56:03.127,-2.8913282394360204e-05,6.31291292692997,1,NB
2025-06-25 13:56:03.135,-1.861360583144852e-05,6.002291870206506,1,NB
2025-06-25 13:56:03.143,-7.349249100024147e-06,5.680939789360547,1,NB
2025-06-25 13:56:03.151,4.666251137293038e-06,5.353025532454286,1,NB
2025-06-25 13:56:03.158,1.7200839158669898e-05,5.022785398130923,1,NB
2025-06-25 13:56:03.166,3.0005906428420367e-05,4.694411842712412,1,NB
2025-06-25 13:56:03.174,4.2818966741404434e-05,4.371942702271428,1,NB
2025-06-25 13:56:03.182,5.536709257814837e-05,4.059155896061874,1,NB
2025-06-25 13:56:03.190,6.737115080218056e-05,3.759474256864222,1,NB
2025-06-25 13:56:03.198,7.8550870257724e-05,3.475884586973584,1,NB
2025-06-25 13:56:03.205,8.86307310724788e-05,3.210874305022604,1,NB
2025-06-25 13:56:03.213,9.734656583724804e-05,2.96638817313513,1,NB
2025-06-25 13:56:03.221,0.0001044526330362,2.74380662150618,1,NB
2025-06-25 13:56:03.229,0.0001097288125033,2.5439461642871084,1,NB
2025-06-25 13:56:03.237,0.0001129875188784,2.3670813753750544,1,NB
2025-06-25 13:56:03.244,0.000114079936911,2.2129869156095068,1,NB
2025-06-25 13:56:03.252,0.0001129012304812,2.08099721826143,1,NB
2025-06-25 13:56:03.260,0.000109394442667,1.9700806800646151,1,NB
2025-06-25 13:56:03.268,0.0001035528770578,1.8789245933508305,1,NB
2025-06-25 13:56:03.276,9.542082888103216e-05,1.80602661058224,1,NB
2025-06-25 13:56:03.283,8.509261809932467e-05,1.749788273138917,1,NB
2025-06-25 13:56:03.291,7.270996508667237e-05,1.708606072533195,1,NB
2025-06-25 13:56:03.299,5.84578422771396e-05,1.6809556447288054,1,NB
2025-06-25 13:56:03.307,4.255903154055508e-05,1.6654650188458595,1,NB
2025-06-25 13:56:03.315,2.5267714274124484e-05,1.6609733395997772,1,NB
2025-06-25 13:56:03.323,6.862506556858918e-06,1.666572147961454,1,NB
2025-06-25 13:56:03.330,-1.2360608570568027e-05,1.6816271222886092,1,NB
2025-06-25 13:56:03.338,-3.209504931476131e-05,1.7057791270013205,1,NB
2025-06-25 13:56:03.346,-5.202984865717032e-05,1.7389244473063896,1,NB
2025-06-25 13:56:03.354,-7.185524248571937e-05,1.7811751524738515,1,NB
2025-06-25 13:56:03.362,-9.126769429685555e-05,1.8328015646055005,1,NB
2025-06-25 13:56:03.369,-0.0001099744614683,1.8941597522303084,1,NB
2025-06-25 13:56:03.377,-0.0001276977940827,1.9656077627523516,1,NB
2025-06-25 13:56:03.385,-0.0001441788310443,2.0474149108604904,1,NB
2025-06-25 13:56:03.393,-0.000159181232806,2.1396688225526983,1,NB
2025-06-25 13:56:03.401,-0.0001724945639836,2.242185084366811,1,NB
2025-06-25 13:56:03.408,-0.00018393741941,2.354424268660602,1,NB
2025-06-25 13:56:03.416,-0.0001933602757987,2.475420814383236,1,NB
2025-06-25 13:56:03.424,-0.0002006480353895,2.60372776306541,1,NB
2025-06-25 13:56:03.432,-0.0002057222002574,2.737380711810835,1,NB
2025-06-25 13:56:03.440,-0.0002085425809091,2.8738835814475583,1,NB
2025-06-25 13:56:03.448,-0.0002091084037535,3.0102179397319144,1,NB
2025-06-25 13:56:03.455,-0.00020745865084,3.142876693869749,1,NB
2025-06-25 13:56:03.463,-0.0002036714698312,3.267921997766244,1,NB
2025-06-25 13:56:03.471,-0.0001978625477617,3.381066230678861,1,NB
2025-06-25 13:56:03.479,-0.0001901824343972,3.4777739203224765,1,NB
2025-06-25 13:56:03.487,-0.0001808129060518,3.553381534268974,1,NB
2025-06-25 13:56:03.494,-0.0001699625557045,3.603231185553148,1,NB
2025-06-25 13:56:03.502,-0.0001578618462062,3.622813537147203,1,NB
2025-06-25 13:56:03.510,-0.0001447578362286,3.607914594564919,1,NB
2025-06-25 13:56:03.518,-0.0001309086960413,3.554760690026764,1,NB
2025-06-25 13:56:03.526,-0.0001165780440897,3.4601558157010364,1,NB
2025-06-25 13:56:03.533,-0.0001020291188948,3.321605572214687,1,NB
2025-06-25 13:56:03.541,-8.751884433072572e-05,3.1374223639133856,1,NB
2025-06-25 13:56:03.549,-7.329190176207571e-05,2.906807087433036,1,NB
2025-06-25 13:56:03.557,-5.9574978405741925e-05,2.629903410077523,1,NB
2025-06-25 13:56:03.565,-4.657143835910066e-05,2.307821794598026,1,NB
2025-06-25 13:56:03.573,-3.4456746457637086e-05,1.942631661329368,1,NB
2025-06-25 13:56:03.580,-2.337500316537616e-05,1.5373214375215951,1,NB
2025-06-25 13:56:03.588,-1.3436875212042874e-05,1.0957276603820674,1,NB
2025-06-25 13:56:03.596,-4.719046384102572e-06,0.6224356935084634,1,NB
2025-06-25 13:56:03.604,2.734883864944693e-06,0.1226559006136781,1,NB
2025-06-25 13:56:03.612,8.912309475824616e-06,-0.3979197817798542,1,NB
2025-06-25 13:56:03.619,1.3828711783415444e-05,-0.9332750822742304,1,NB
2025-06-25 13:56:03.627,1.7524335584136465e-05,-1.4772340983477503,1,NB
2025-06-25 13:56:03.635,2.0060763101482883e-05,-2.02362688679812,1,NB
2025-06-25 13:56:03.643,2.151757094782196e-05,-2.566449451384245,1,NB
2025-06-25 13:56:03.651,2.1989136650893904e-05,-3.1000120340886514,1,NB
2025-06-25 13:56:03.658,2.1581593236646888e-05,-3.61907028417046,1,NB
2025-06-25 13:56:03.666,2.040992611271244e-05,-4.11893477387984,1,NB
2025-06-25 13:56:03.674,1.8595249195894043e-05,-4.595555400214286,1,NB
2025-06-25 13:56:03.682,1.6262338776234822e-05,-5.045578402400909,1,NB
2025-06-25 13:56:03.690,1.353749747835871e-05,-5.466374974843069,1,NB
2025-06-25 13:56:03.698,1.0546759494581576e-05,-5.856041703526733,1,NB
2025-06-25 13:56:03.705,7.414365728429287e-06,-6.213374242453974,1,NB
2025-06-25 13:56:03.713,4.26138268317566e-06,-6.53781672723608,1,NB
2025-06-25 13:56:03.721,1.204345134738001e-06,-6.82939035939108,1,NB
2025-06-25 13:56:03.729,-1.6461383699661272e-06,-7.088605361046835,1,NB
2025-06-25 13:56:03.737,-4.186812470987716e-06,-7.3163610754696755,1,NB
2025-06-25 13:56:03.744,-6.323197294403828e-06,-7.513839356876922,1,NB
2025-06-25 13:56:03.752,-7.970967950443204e-06,-7.682396537965255,1,NB
2025-06-25 13:56:03.760,-9.057260875150188e-06,-7.823459172834274,1,NB
2025-06-25 13:56:03.768,-9.521883460998152e-06,-7.938428420460063,1,NB
2025-06-25 13:56:03.776,-9.318401205511048e-06,-8.028597366414104,1,NB
2025-06-25 13:56:03.783,-8.415051295389958e-06,-8.095084802143035,1,NB
2025-06-25 13:56:03.791,-6.795394447257154e-06,-8.13878803196476,1,NB
2025-06-25 13:56:03.799,-4.458607442004593e-06,-8.16035620931043,1,NB
2025-06-25 13:56:03.807,-1.4193577192086856e-06,-8.160184573121034,1,NB
2025-06-25 13:56:03.815,2.292734866653021e-06,-8.138428823329125,1,NB
2025-06-25 13:56:03.823,6.634001066315759e-06,-8.095037802051248,1,NB
2025-06-25 13:56:03.830,1.1547951527634529e-05,-8.029801690810338,1,NB
2025-06-25 13:56:03.838,1.6966844966680138e-05,-7.942412140966298,1,NB
2025-06-25 13:56:03.846,2.28136440229955e-05,-7.832530164374569,1,NB
2025-06-25 13:56:03.854,2.900436979644225e-05,-7.699857261894505,1,NB
2025-06-25 13:56:03.862,3.54507550364789e-05,-7.544205193153585,1,NB
2025-06-25 13:56:03.869,4.2062982124402e-05,-7.365560012379453,1,NB
2025-06-25 13:56:03.877,4.875224763678366e-05,-7.164136507263179,1,NB
2025-06-25 13:56:03.885,5.5432931588929744e-05,-6.940419946298009,1,NB
2025-06-25 13:56:03.893,6.20242307248731e-05,-6.695193004056491,1,NB
2025-06-25 13:56:03.901,6.845120739395612e-05,-6.429546814165219,1,NB
2025-06-25 13:56:03.908,7.464529380899433e-05,-6.1448762086485615,1,NB
2025-06-25 13:56:03.916,8.054436938108336e-05,-5.842860252764508,1,NB
2025-06-25 13:56:03.924,8.609258389662082e-05,-5.52543009646874,1,NB
2025-06-25 13:56:03.932,9.12401086034056e-05,-5.194726870457246,1,NB
2025-06-25 13:56:03.940,9.594294778587325e-05,-4.853052809511279,1,NB
2025-06-25 13:56:03.948,0.0001001628601762,-4.502818966619446,1,NB
2025-06-25 13:56:03.955,0.0001038673716865,-4.146492792672038,1,NB
2025-06-25 13:56:03.963,0.0001070298342201,-3.786548528333721,1,NB
2025-06-25 13:56:03.971,0.000109629488128,-3.425422837249042,1,NB
2025-06-25 13:56:03.979,0.0001116514973823,-3.0654774643136777,1,NB
2025-06-25 13:56:03.987,0.0001130869369611,-2.7089699912987277,1,NB
2025-06-25 13:56:03.994,0.0001139327197541,-2.3580330412596298,1,NB
2025-06-25 13:56:04.002,0.0001141914557002,-2.0146616044125363,1,NB
2025-06-25 13:56:04.010,0.0001138712392133,-1.6807075691364843,1,NB
2025-06-25 13:56:04.018,0.0001129853626692,-1.3578800820870407,1,NB
2025-06-25 13:56:04.026,0.0001115519543257,-1.0477500550266423,1,NB
2025-06-25 13:56:04.033,0.0001095935390901,-0.7517569880570513,1,NB
2025-06-25 13:56:04.041,0.0001071365205997,-0.4712162807492353,1,NB
2025-06-25 13:56:04.049,0.0001042105837186,-0.2073253385744137,1,NB
2025-06-25 13:56:04.057,0.0001008480182935,0.0388329670579013,1,NB
2025-06-25 13:56:04.065,9.708296833146662e-05,0.2662905829474082,1,NB
2025-06-25 13:56:04.073,9.295061603765552e-05,0.4741989881220288,1,NB
2025-06-25 13:56:04.080,8.84863176633483e-05,0.6618385708785652,1,NB
2025-06-25 13:56:04.088,8.372471801234113e-05,0.8286324397023583,1,NB
2025-06-25 13:56:04.096,7.869888276346377e-05,0.9741639983069532,1,NB
2025-06-25 13:56:04.104,7.343950235740296e-05,1.0981972244074962,1,NB
2025-06-25 13:56:04.112,6.797423779921571e-05,1.200698273716324,1,NB
2025-06-25 13:56:04.119,6.232729692394102e-05,1.2818568015303995,1,NB
2025-06-25 13:56:04.127,5.651934727837792e-05,1.3421052656027097,1,NB
2025-06-25 13:56:04.135,5.056787841560394e-05,1.3821344530835515,1,NB
2025-06-25 13:56:04.143,4.448810067909209e-05,1.4029035644936316,1,NB
2025-06-25 13:56:04.151,3.829439740155289e-05,1.4056433867964608,1,NB
2025-06-25 13:56:04.158,3.2002256628835054e-05,1.3918513864541573,1,NB
2025-06-25 13:56:04.166,2.5630536195550776e-05,1.3632779359142586,1,NB
2025-06-25 13:56:04.174,1.92038665743062e-05,1.3219033321177134,1,NB
2025-06-25 13:56:04.182,1.2754945268084817e-05,1.2699057471935542,1,NB
2025-06-25 13:56:04.190,6.326428270228634e-06,1.2096207383257205,1,NB
2025-06-25 13:56:04.198,-2.7883901969506584e-08,1.1434934027191122,1,NB
2025-06-25 13:56:04.205,-6.242814150737421e-06,1.0740246642748097,1,NB
2025-06-25 13:56:04.213,-1.2242678091381188e-05,1.003713495274954,1,NB
2025-06-25 13:56:04.221,-1.7943278294678152e-05,0.9349970882766588,1,NB
2025-06-25 13:56:04.229,-2.325491645786345e-05,0.8701910875458807,1,NB
2025-06-25 13:56:04.237,-2.808619508859785e-05,0.8114319660221986,1,NB
2025-06-25 13:56:04.244,-3.234829369264716e-05,0.7606235098252274,1,NB
2025-06-25 13:56:04.252,-3.5959370554000345e-05,0.7193891776137841,1,NB
2025-06-25 13:56:04.260,-3.884875002531344e-05,0.6890318698312744,1,NB
2025-06-25 13:56:04.268,-4.096059217015889e-05,0.6705023982355829,1,NB
2025-06-25 13:56:04.276,-4.225681713480319e-05,0.6643777000595845,1,NB
2025-06-25 13:56:04.284,-4.271917186893076e-05,0.6708495913853987,1,NB
2025-06-25 13:56:04.291,-4.235043270184433e-05,0.6897245909731058,1,NB
2025-06-25 13:56:04.299,-4.117478199371545e-05,0.7204350572770131,1,NB
2025-06-25 13:56:04.307,-3.9237393050149215e-05,0.7620615597414515,1,NB
2025-06-25 13:56:04.315,-3.660325484537913e-05,0.8133660516362717,1,NB
2025-06-25 13:56:04.323,-3.3355286018118533e-05,0.8728350376626617,1,NB
2025-06-25 13:56:04.330,-2.9591813509064385e-05,0.938731554718124,1,NB
2025-06-25 13:56:04.338,-2.542351700611539e-05,1.0091544289862076,1,NB
2025-06-25 13:56:04.346,-2.0969957860730825e-05,1.0821029541716678,1,NB
2025-06-25 13:56:04.354,-1.6355805848571668e-05,1.155544867942995,1,NB
2025-06-25 13:56:04.362,-1.1706859722189733e-05,1.2274852991677097,1,NB
2025-06-25 13:56:04.369,-7.145966549487196e-06,1.2960342313302844,1,NB
2025-06-25 13:56:04.377,-2.788999854573144e-06,1.359469992184155,1,NB
2025-06-25 13:56:04.385,1.2588671910808455e-06,1.416296348848098,1,NB
2025-06-25 13:56:04.393,4.906306795147201e-06,1.465290969716933,1,NB
2025-06-25 13:56:04.401,8.078123114222557e-06,1.5055433113954402,1,NB
2025-06-25 13:56:04.409,1.0716476049232536e-05,1.5364803916534568,1,NB
2025-06-25 13:56:04.416,1.2780947740030904e-05,1.5578793977341077,1,NB
2025-06-25 13:56:04.424,1.4247478294159549e-05,1.569866625388215,1,NB
2025-06-25 13:56:04.432,1.5106316125505724e-05,1.5729028193850525,1,NB
2025-06-25 13:56:04.440,1.5359239658863775e-05,1.567755564872414,1,NB
2025-06-25 13:56:04.448,1.5016406081942317e-05,1.5554599343752051,1,NB
2025-06-25 13:56:04.455,1.4093256538519296e-05,1.5372690980943458,1,NB
2025-06-25 13:56:04.463,1.260793069537472e-05,1.5145970257476205,1,NB
2025-06-25 13:56:04.471,1.0579592144552226e-05,1.4889557225370589,1,NB
2025-06-25 13:56:04.479,8.027933762242273e-06,1.461889636090787,1,NB
2025-06-25 13:56:04.487,4.973935569422262e-06,1.4349099411057824,1,NB
2025-06-25 13:56:04.494,1.4417269891289378e-06,1.4094313572438306,1,NB
2025-06-25 13:56:04.502,-2.538775510390529e-06,1.3867139948814446,1,NB
2025-06-25 13:56:04.510,-6.928871393360549e-06,1.3678124716753353,1,NB
2025-06-25 13:56:04.518,-1.1678126933599972e-05,1.3535342226278624,1,NB
2025-06-25 13:56:04.526,-1.6721822499498212e-05,1.3444085548014468,1,NB
2025-06-25 13:56:04.534,-2.1979089912915577e-05,1.3406675843089115,1,NB
2025-06-25 13:56:04.541,-2.7352008632688374e-05,1.342239742578848,1,NB
2025-06-25 13:56:04.549,-3.272591367372848e-05,1.3487560576155504,1,NB
2025-06-25 13:56:04.557,-3.797111570166378e-05,1.359568913942143,1,NB
2025-06-25 13:56:04.565,-4.294612307062199e-05,1.3737824835211416,1,NB
2025-06-25 13:56:04.573,-4.7502303182742055e-05,1.3902935116471131,1,NB
2025-06-25 13:56:04.580,-5.148975439975596e-05,1.4078406532379288,1,NB
2025-06-25 13:56:04.588,-5.476400686482648e-05,1.4250601106583316,1,NB
2025-06-25 13:56:04.596,-5.7193069132911634e-05,1.4405449582498602,1,NB
2025-06-25 13:56:04.604,-5.866432550984534e-05,1.452905292256691,1,NB
2025-06-25 13:56:04.612,-5.909085745604255e-05,1.4608262582657867,1,NB
2025-06-25 13:56:04.619,-5.841684262095896e-05,1.4631211105271908,1,NB
2025-06-25 13:56:04.627,-5.662171799225204e-05,1.4587767572181227,1,NB
2025-06-25 13:56:04.635,-5.372280044028157e-05,1.4469897275275991,1,NB
2025-06-25 13:56:04.643,-4.977610985669383e-05,1.4271911222424756,1,NB
2025-06-25 13:56:04.651,-4.487526778365718e-05,1.3990598241441274,1,NB
2025-06-25 13:56:04.659,-3.914851068249997e-05,1.3625239852908155,1,NB
2025-06-25 13:56:04.666,-3.275401332839746e-05,1.3177515144566576,1,NB
2025-06-25 13:56:04.674,-2.58738485987231e-05,1.2651309066851233,1,NB
2025-06-25 13:56:04.682,-1.870701333151584e-05,1.2052442459956605,1,NB
2025-06-25 13:56:04.690,-1.1462008691016602e-05,1.1388345438335734,1,NB
2025-06-25 13:56:04.698,-4.349455209071521e-06,1.066769739165005,1,NB
2025-06-25 13:56:04.705,2.4248516381351877e-06,0.9900056865573706,1,NB
2025-06-25 13:56:04.713,8.666153875862515e-06,0.9095503111919372,1,NB
2025-06-25 13:56:04.721,1.419604745859773e-05,0.8264308328755763,1,NB
2025-06-25 13:56:04.729,1.885686310785238e-05,0.7416655759482231,1,NB
2025-06-25 13:56:04.737,2.2515177992464155e-05,0.6562414165023622,1,NB
2025-06-25 13:56:04.744,2.5064587867031827e-05,0.5710974087615822,1,NB
2025-06-25 13:56:04.752,2.6427873613385384e-05,0.4871146193163289,1,NB
2025-06-25 13:56:04.760,2.655865561232643e-05,0.4051117200878034,1,NB
2025-06-25 13:56:04.768,2.5442571217504895e-05,0.3258454814488148,1,NB
2025-06-25 13:56:04.776,2.309794812889675e-05,0.2500149911868852,1,NB
2025-06-25 13:56:04.784,1.95758931999362e-05,0.1782682200063785,1,NB
2025-06-25 13:56:04.791,1.4959699995867231e-05,0.1112094680937348,1,NB
2025-06-25 13:56:04.799,9.363514278324026e-06,0.049406257970867,1,NB
2025-06-25 13:56:04.807,2.930268242561665e-06,-0.00660562425893,1,NB
2025-06-25 13:56:04.815,-4.17103220130028e-06,-0.0563200094057371,1,NB
2025-06-25 13:56:04.823,-1.174854978979306e-05,-0.0992619153205691,1,NB
2025-06-25 13:56:04.830,-1.959131391695272e-05,-0.134993215622094,1,NB
2025-06-25 13:56:04.838,-2.7473407473057736e-05,-0.163122421818644,1,NB
2025-06-25 13:56:04.846,-3.51587733331674e-05,-0.1833181896167086,1,NB
2025-06-25 13:56:04.854,-4.240678657072381e-05,-0.1953257739720623,1,NB
2025-06-25 13:56:04.862,-4.897866038516783e-05,-0.1989853177700597,1,NB
2025-06-25 13:56:04.869,-5.464461908690379e-05,-0.1942505953417966,1,NB
2025-06-25 13:56:04.877,-5.9191617861103775e-05,-0.1812066705142078,1,NB
2025-06-25 13:56:04.885,-6.243124526689607e-05,-0.1600848859832701,1,NB
2025-06-25 13:56:04.893,-6.420734903649876e-05,-0.1312736806979,1,NB
2025-06-25 13:56:04.901,-6.440291732401858e-05,-0.0953239300667493,1,NB
2025-06-25 13:56:04.909,-6.294581779804547e-05,-0.0529478091631578,1,NB
2025-06-25 13:56:04.916,-5.981307795802325e-05,-0.0050105718512665,1,NB
2025-06-25 13:56:04.924,-5.503342356018677e-05,0.0474849118472435,1,NB
2025-06-25 13:56:04.932,-4.86878000566096e-05,0.1034205501014714,1,NB
2025-06-25 13:56:04.940,-4.0907656491101233e-05,0.1615915985684488,1,NB
2025-06-25 13:56:04.948,-3.187090531124964e-05,0.2207402567974813,1,NB
2025-06-25 13:56:04.955,-2.179565641039977e-05,0.2795928347939656,1,NB
2025-06-25 13:56:04.963,-1.0932022208718788e-05,0.3368988215689987,1,NB
2025-06-25 13:56:04.971,4.475221983848468e-07,0.3914700790330909,1,NB
2025-06-25 13:56:04.979,1.2058603272914424e-05,0.4422183741511721,1,NB
2025-06-25 13:56:04.987,2.361557237766592e-05,0.4881895401879188,1,NB
2025-06-25 13:56:04.994,3.484166904853524e-05,0.5285927162229728,1,NB
2025-06-25 13:56:05.002,4.547820376890946e-05,0.5628233494070023,1,NB
2025-06-25 13:56:05.010,5.529235647588589e-05,0.5904789521755739,1,NB
2025-06-25 13:56:05.018,6.408330616408947e-05,0.6113669731082463,1,NB
2025-06-25 13:56:05.026,7.168652327972018e-05,0.6255045398861165,1,NB
2025-06-25 13:56:05.034,7.79761669579968e-05,0.6331102341236003,1,NB
2025-06-25 13:56:05.041,8.28656309334789e-05,0.6345884307319375,1,NB
2025-06-25 13:56:05.049,8.630637307675311e-05,0.6305070559752237,1,NB
2025-06-25 13:56:05.057,8.828524245509842e-05,0.6215698741673865,1,NB
2025-06-25 13:56:05.065,8.882058356574551e-05,0.6085845969974735,1,NB
2025-06-25 13:56:05.073,8.795744940935829e-05,0.5924282232947208,1,NB
2025-06-25 13:56:05.080,8.576229324366428e-05,0.5740110675145875,1,NB
2025-06-25 13:56:05.088,8.231753181002864e-05,0.5542409300493091,1,NB
2025-06-25 13:56:05.096,7.771637143371957e-05,0.5339888065501441,1,NB
2025-06-25 13:56:05.104,7.205824286508954e-05,0.514057429241034,1,NB
2025-06-25 13:56:05.112,6.544509086822859e-05,0.4951537832260703,1,NB
2025-06-25 13:56:05.119,5.7978637851915423e-05,0.4778665492385677,1,NB
2025-06-25 13:56:05.127,4.975863835680333e-05,0.4626491979540045,1,NB
2025-06-25 13:56:05.135,4.0882088537206943e-05,0.4498092102542435,1,NB
2025-06-25 13:56:05.143,3.144333150116983e-05,0.4395036358894668,1,NB
2025-06-25 13:56:05.151,2.1534964345445797e-05,0.4317409431565416,1,NB
2025-06-25 13:56:05.159,1.1249384716136632e-05,0.4263888652777708,1,NB
2025-06-25 13:56:05.166,6.807376952330443e-07,0.4231877224518796,1,NB
2025-06-25 13:56:05.174,-1.0073015155901694e-05,0.4217684978186147,1,NB
2025-06-25 13:56:05.182,-2.0908168932536204e-05,0.421674779171835,1,NB
2025-06-25 13:56:05.190,-3.17137228303392e-05,0.4223875588745449,1,NB
2025-06-25 13:56:05.198,-4.237041853012561e-05,0.4233518239433874,1,NB
2025-06-25 13:56:05.205,-5.275057623333078e-05,0.4240038691413968,1,NB
2025-06-25 13:56:05.213,-6.271889654790183e-05,0.4237983190060824,1,NB
2025-06-25 13:56:05.221,-7.213432879231892e-05,0.4222339365286456,1,NB
2025-06-25 13:56:05.229,-8.085303779537518e-05,0.418877416278648,1,NB
2025-06-25 13:56:05.237,-8.873243264169247e-05,0.4133844999379715,1,NB
2025-06-25 13:56:05.244,-9.563612036911802e-05,0.405517901061898,1,NB
2025-06-25 13:56:05.252,-0.0001014395094869,0.3951616680441406,1,NB
2025-06-25 13:56:05.260,-0.0001060356618298,0.3823317356982018,1,NB
2025-06-25 13:56:05.268,-0.0001093409373613,0.367182508971665,1,NB
2025-06-25 13:56:05.276,-0.0001112999995791,0.3500093862551746,1,NB
2025-06-25 13:56:05.284,-0.000111889794055,0.3312471679786411,1,NB
2025-06-25 13:56:05.291,-0.0001111221432459,0.3114643144759761,1,NB
2025-06-25 13:56:05.299,-0.0001090446516873,0.2913530232089993,1,NB
2025-06-25 13:56:05.307,-0.0001057397341359,0.2717150998175007,1,NB
2025-06-25 13:56:05.315,-0.0001013217479931,0.2534436133219589,1,NB
2025-06-25 13:56:05.323,-9.593236910526892e-05,0.2375003670236708,1,NB
2025-06-25 13:56:05.330,-8.973446350197811e-05,0.2248892947386924,1,NB
2025-06-25 13:56:05.338,-8.290479390817063e-05,0.2166260150953664,1,NB
2025-06-25 13:56:05.346,-7.562598989632154e-05,0.2137039499594287,1,NB
2025-06-25 13:56:05.354,-6.807830229163548e-05,0.2170576377553724,1,NB
2025-06-25 13:56:05.362,-6.043170952506229e-05,0.2275241422301887,1,NB
2025-06-25 13:56:05.369,-5.283890098863366e-05,0.2458037550620024,1,NB
2025-06-25 13:56:05.377,-4.542954176721796e-05,0.2724214863898347,1,NB
2025-06-25 13:56:05.385,-3.830608587709441e-05,0.3076910868582474,1,NB
2025-06-25 13:56:05.393,-3.1541300084585214e-05,0.3516834967539249,1,NB
2025-06-25 13:56:05.401,-2.5177579413097948e-05,0.4042016283486791,1,NB
2025-06-25 13:56:05.409,-1.922803842262976e-05,0.4647632362923752,1,NB
2025-06-25 13:56:05.416,-1.367923887138459e-05,0.5325933264974367,1,NB
2025-06-25 13:56:05.424,-8.495302193846628e-06,0.6066271260937358,1,NB
2025-06-25 13:56:05.432,-3.6230916952256734e-06,0.6855241248584117,1,NB
2025-06-25 13:56:05.440,1.0018755109003702e-06,0.767693145193091,1,NB
2025-06-25 13:56:05.448,5.449147094489456e-06,0.8513278481351745,1,NB
2025-06-25 13:56:05.455,9.78706216700724e-06,0.9344515774348064,1,NB
2025-06-25 13:56:05.463,1.4076851544512652e-05,1.014970010102553,1,NB
2025-06-25 13:56:05.471,1.8367438195819357e-05,1.0907297335343822,1,NB
2025-06-25 13:56:05.479,2.2691234144885586e-05,1.1595806119043222,1,NB
2025-06-25 13:56:05.487,2.7061219066463805e-05,1.21943964223233,1,NB
2025-06-25 13:56:05.494,3.1469550063803656e-05,1.268353938450606,1,NB
2025-06-25 13:56:05.502,3.588783705445006e-05,1.304560524141189,1,NB
2025-06-25 13:56:05.510,4.026902749454879e-05,1.3265407611257998,1,NB
2025-06-25 13:56:05.518,4.4550651109575854e-05,1.3330674827092053,1,NB
2025-06-25 13:56:05.526,4.865905490232929e-05,1.3232432169867296,1,NB
2025-06-25 13:56:05.534,5.251422476082282e-05,1.296528248214185,1,NB
2025-06-25 13:56:05.541,5.6034809183299934e-05,1.25275764232464,1,NB
2025-06-25 13:56:05.549,5.914300108186298e-05,1.1921467345657917,1,NB
2025-06-25 13:56:05.557,6.176898237351893e-05,1.1152849368707496,1,NB
2025-06-25 13:56:05.565,6.385468986825631e-05,1.023118077233515,1,NB
2025-06-25 13:56:05.573,6.535671824038751e-05,0.9169198436916908,1,NB
2025-06-25 13:56:05.580,6.624823511647156e-05,0.7982532754287187,1,NB
2025-06-25 13:56:05.588,6.651984311529339e-05,0.6689236154981603,1,NB
2025-06-25 13:56:05.596,6.617938271758143e-05,0.5309241960417727,1,NB
2025-06-25 13:56:05.604,6.525072691480174e-05,0.3863773432526818,1,NB
2025-06-25 13:56:05.612,6.377167258038637e-05,0.2374725378358886,1,NB
2025-06-25 13:56:05.619,6.179108341506106e-05,0.0864042197651829,1,NB
2025-06-25 13:56:05.627,5.936548422494354e-05,-0.0646883385285316,1,NB
2025-06-25 13:56:05.635,5.655534536667273e-05,-0.2137767618632279,1,NB
2025-06-25 13:56:05.643,5.342132868727253e-05,-0.3589928041114885,1,NB
2025-06-25 13:56:05.651,5.00207915224625e-05,-0.498669329993801,1,NB
2025-06-25 13:56:05.659,4.6404861070057824e-05,-0.6313717396392713,1,NB
2025-06-25 13:56:05.666,4.261638751793182e-05,-0.7559190355969784,1,NB
2025-06-25 13:56:05.674,3.868903801563056e-05,-0.8713942619030121,1,NB
2025-06-25 13:56:05.682,3.46476837346405e-05,-0.9771445594551136,1,NB
2025-06-25 13:56:05.690,3.0510064391115765e-05,-1.0727715494450998,1,NB
2025-06-25 13:56:05.698,2.628952731363075e-05,-1.1581131543200365,1,NB
2025-06-25 13:56:05.705,2.199848379588696e-05,-1.2332182790215802,1,NB
2025-06-25 13:56:05.713,1.7652142223360123e-05,-1.2983159960967914,1,NB
2025-06-25 13:56:05.721,1.3272069911130083e-05,-1.3537810067051177,1,NB
2025-06-25 13:56:05.729,8.88918118066015e-06,-1.4000971939937097,1,NB
2025-06-25 13:56:05.737,4.545823506015099e-06,-1.4378210581569042,1,NB
2025-06-25 13:56:05.744,2.967242265037484e-07,-1.4675467334099943,1,NB
2025-06-25 13:56:05.752,-3.7913373430835065e-06,-1.4898741409808702,1,NB
2025-06-25 13:56:05.760,-7.64115699157154e-06,-1.5053816332092549,1,NB
2025-06-25 13:56:05.768,-1.1167941342739038e-05,-1.5146042391552117,1,NB
2025-06-25 13:56:05.776,-1.4283147582797586e-05,-1.5180183403440697,1,NB
2025-06-25 13:56:05.784,-1.6899023161322417e-05,-1.5160332919797486,1,NB
2025-06-25 13:56:05.791,-1.8933481551617826e-05,-1.508990161996708,1,NB
2025-06-25 13:56:05.799,-2.031494500905018e-05,-1.497167390827598,1,NB
2025-06-25 13:56:05.807,-2.0986814100891333e-05,-1.4807927889336765,1,NB
2025-06-25 13:56:05.815,-2.0911250147261124e-05,-1.4600609052719442,1,NB
2025-06-25 13:56:05.823,-2.0071980290857943e-05,-1.435154441510736,1,NB
2025-06-25 13:56:05.830,-1.847589150358996e-05,-1.4062680804911636,1,NB
2025-06-25 13:56:05.838,-1.615328788768412e-05,-1.3736328716326869,1,NB
2025-06-25 13:56:05.846,-1.315681943397768e-05,-1.3375391985527372,1,NB
2025-06-25 13:56:05.854,-9.55920380845696e-06,-1.298356367575369,1,NB
2025-06-25 13:56:05.862,-5.449929907592741e-06,-1.2565470120880442,1,NB
2025-06-25 13:56:05.869,-9.311710238065445e-07,-1.212674805428961,1,NB
2025-06-25 13:56:05.877,3.886818117627867e-06,-1.1674043985773008,1,NB
2025-06-25 13:56:05.885,8.890493313722379e-06,-1.121493019159656,1,NB
2025-06-25 13:56:05.893,1.3967652487949742e-05,-1.075773744260684,1,NB
2025-06-25 13:56:05.901,1.901158761728238e-05,-1.031131044717913,1,NB
2025-06-25 13:56:05.909,2.3924505531520745e-05,-0.9884697502486828,1,NB
2025-06-25 13:56:05.916,2.862004814821966e-05,-0.9486790701048116,1,NB
2025-06-25 13:56:05.924,3.3024826195752574e-05,-0.912593698472284,1,NB
2025-06-25 13:56:05.932,3.707896104116032e-05,-0.8809543150183817,1,NB
2025-06-25 13:56:05.940,4.07357043577707e-05,-0.8543699351627074,1,NB
2025-06-25 13:56:05.948,4.396027281556656e-05,-0.833284551254357,1,NB
2025-06-25 13:56:05.955,4.672809285798994e-05,-0.8179503257025894,1,NB
2025-06-25 13:56:05.963,4.90226973957472e-05,-0.808409257781926,1,NB
2025-06-25 13:56:05.971,5.08335490948281e-05,-0.8044847708588385,1,NB
2025-06-25 13:56:05.979,5.2154073369811714e-05,-0.8057840911880532,1,NB
2025-06-25 13:56:05.987,5.298014718048311e-05,-0.8117116549079835,1,NB
2025-06-25 13:56:05.994,5.330919603163774e-05,-0.8214931311980898,1,NB
2025-06-25 13:56:06.002,5.313992784800175e-05,-0.8342090319820654,1,NB
2025-06-25 13:56:06.010,5.2472629167952575e-05,-0.8488363349963955,1,NB
2025-06-25 13:56:06.018,5.13098933124055e-05,-0.864296113388059,1,NB
2025-06-25 13:56:06.026,4.965763116864674e-05,-0.8795048638430351,1,NB
2025-06-25 13:56:06.034,4.752621279114401e-05,-0.8934270618152905,1,NB
2025-06-25 13:56:06.041,4.493159277420843e-05,-0.905126436571393,1,NB
2025-06-25 13:56:06.049,4.189628283803928e-05,-0.9138135327118126,1,NB
2025-06-25 13:56:06.057,3.845005131661788e-05,-0.9188872924944528,1,NB
2025-06-25 13:56:06.065,3.463025111516071e-05,-0.919968645616084,1,NB
2025-06-25 13:56:06.073,3.048170492334066e-05,-0.9169244256846056,1,NB
2025-06-25 13:56:06.080,2.6056108562116503e-05,-0.9098803378632992,1,NB
2025-06-25 13:56:06.088,2.1410949662896315e-05,-0.8992221650394826,1,NB
2025-06-25 13:56:06.096,1.660797860553622e-05,-0.8855849017245613,1,NB
2025-06-25 13:56:06.104,1.1711310779380692e-05,-0.8698300287568237,1,NB
2025-06-25 13:56:06.112,6.785282616745752e-06,-0.853011671542591,1,NB
2025-06-25 13:56:06.119,1.892225542968635e-06,-0.8363329002359288,1,NB
2025-06-25 13:56:06.127,-2.90964913492981e-06,-0.8210939074936908,1,NB
2025-06-25 13:56:06.135,-7.568067461742637e-06,-0.8086342120145922,1,NB
2025-06-25 13:56:06.143,-1.2038079080092174e-05,-0.8002713583147231,1,NB
2025-06-25 13:56:06.151,-1.6282956237204194e-05,-0.7972387905463583,1,NB
2025-06-25 13:56:06.159,-2.0274602549080376e-05,-0.8006256489359967,1,NB
2025-06-25 13:56:06.166,-2.3993483428986043e-05,-0.8113211581279416,1,NB
2025-06-25 13:56:06.174,-2.7428100644021954e-05,-0.8299660484345993,1,NB
2025-06-25 13:56:06.182,-3.0574073851604515e-05,-0.8569130912701566,1,NB
2025-06-25 13:56:06.190,-3.343294805263551e-05,-0.8921983688925649,1,NB
2025-06-25 13:56:06.198,-3.601087201465476e-05,-0.935524371803006,1,NB
2025-06-25 13:56:06.205,-3.831726547158611e-05,-0.986255461132235,1,NB
2025-06-25 13:56:06.213,-4.0363528345896845e-05,-1.0434256832491144,1,NB
2025-06-25 13:56:06.221,-4.2161777098096096e-05,-1.105758414037973,1,NB
2025-06-25 13:56:06.229,-4.372355705771175e-05,-1.171696872739939,1,NB
2025-06-25 13:56:06.237,-4.505850129470547e-05,-1.2394442033894029,1,NB
2025-06-25 13:56:06.244,-4.61729840056074e-05,-1.3070115849237902,1,NB
2025-06-25 13:56:06.252,-4.70689141589902e-05,-1.3722726945687396,1,NB
2025-06-25 13:56:06.260,-4.774288405597597e-05,-1.4330227997375613,1,NB
2025-06-25 13:56:06.268,-4.818589236400737e-05,-1.487040771878417,1,NB
2025-06-25 13:56:06.276,-4.838380024223984e-05,-1.5321523773692534,1,NB
2025-06-25 13:56:06.284,-4.831857744885908e-05,-1.56629328208346,1,NB
2025-06-25 13:56:06.291,-4.797027940266661e-05,-1.587570290274006,1,NB
2025-06-25 13:56:06.299,-4.731958182648197e-05,-1.5943194143468995,1,NB
2025-06-25 13:56:06.307,-4.635060257365287e-05,-1.5851594321266216,1,NB
2025-06-25 13:56:06.315,-4.505368707524529e-05,-1.5590396261020143,1,NB
2025-06-25 13:56:06.323,-4.342784950436036e-05,-1.5152804147345789,1,NB
2025-06-25 13:56:06.330,-4.148264426229491e-05,-1.4536055908113192,1,NB
2025-06-25 13:56:06.338,-3.9239356408556376e-05,-1.374164899845806,1,NB
2025-06-25 13:56:06.346,-3.6731495718552434e-05,-1.2775457532088972,1,NB
2025-06-25 13:56:06.354,-3.400462148696911e-05,-1.1647730053887877,1,NB
2025-06-25 13:56:06.362,-3.111551299183162e-05,-1.0372959537803887,1,NB
2025-06-25 13:56:06.369,-2.8130667351592265e-05,-0.8969620512035368,1,NB
2025-06-25 13:56:06.377,-2.5124098185204147e-05,-0.7459772503922024,1,NB
2025-06-25 13:56:06.385,-2.2174448707684257e-05,-0.5868534082698313,1,NB
2025-06-25 13:56:06.393,-1.9361501107964084e-05,-0.4223437397825203,1,NB
2025-06-25 13:56:06.401,-1.6762222269085058e-05,-0.2553678943003439,1,NB
2025-06-25 13:56:06.409,-1.4446530530698342e-05,-0.0889287933196339,1,NB
2025-06-25 13:56:06.416,-1.247302371226378e-05,0.0739761291028457,1,NB
2025-06-25 13:56:06.424,-1.0884971222105622e-05,0.2304462466837075,1,NB
2025-06-25 13:56:06.432,-9.70690435940438e-06,0.377768328520954,1,NB
2025-06-25 13:56:06.440,-8.942116102347319e-06,0.5135029912549959,1,NB
2025-06-25 13:56:06.448,-8.571318044963746e-06,0.6355636479153752,1,NB
2025-06-25 13:56:06.455,-8.552620516708648e-06,0.7422847609518716,1,NB
2025-06-25 13:56:06.463,-8.822914285265479e-06,0.832476525134862,1,NB
2025-06-25 13:56:06.471,-9.300642604376568e-06,0.9054635690122308,1,NB
2025-06-25 13:56:06.479,-9.889863143984809e-06,0.9611058633772136,1,NB
2025-06-25 13:56:06.487,-1.0485412969852104e-05,0.9998007402981685,1,NB
2025-06-25 13:56:06.494,-1.097890866005664e-05,1.022465725243605,1,NB
2025-06-25 13:56:06.502,-1.12652402588414e-05,1.030502729014284,1,NB
2025-06-25 13:56:06.510,-1.1249154409165182e-05,1.0257449893205912,1,NB
2025-06-25 13:56:06.518,-1.0851472526666672e-05,1.0103889422167591,1,NB
2025-06-25 13:56:06.526,-1.0014466038068262e-05,0.986913890861232,1,NB
2025-06-25 13:56:06.534,-8.705936600510473e-06,0.9579928809072644,1,NB
2025-06-25 13:56:06.541,-6.921647310035457e-06,0.9263985569217305,1,NB
2025-06-25 13:56:06.549,-4.685916722543313e-06,0.8949079419674122,1,NB
2025-06-25 13:56:06.557,-2.0503832350177044e-06,0.8662100418995621,1,NB
2025-06-25 13:56:06.565,9.088788693082532e-07,0.8428199266331737,1,NB
2025-06-25 13:56:06.573,4.095596615743391e-06,0.8270024963178711,1,NB
2025-06-25 13:56:06.580,7.39854468421405e-06,0.8207085317728311,1,NB
2025-06-25 13:56:06.588,1.0697450701841665e-05,0.8255249019563702,1,NB
2025-06-25 13:56:06.596,1.3869222663960224e-05,0.8426400116143122,1,NB
2025-06-25 13:56:06.604,1.679418369316622e-05,0.8728247745932585,1,NB
2025-06-25 13:56:06.612,1.936202722943413e-05,0.916428641325402,1,NB
2025-06-25 13:56:06.619,2.1477238378823314e-05,0.973389532460208,1,NB
2025-06-25 13:56:06.627,2.30637635120716e-05,1.0432559661718923,1,NB
2025-06-25 13:56:06.635,2.4068749375502743e-05,1.1252192396623075,1,NB
2025-06-25 13:56:06.643,2.446521413955507e-05,1.218153254818354,1,NB
2025-06-25 13:56:06.651,2.425355525214315e-05,1.3206594739147028,1,NB
2025-06-25 13:56:06.659,2.3461842063048445e-05,1.4311145514048726,1,NB
2025-06-25 13:56:06.666,2.2144884391190835e-05,1.547718396581448,1,NB
2025-06-25 13:56:06.674,2.0382111015641865e-05,1.6685407534816614,1,NB
2025-06-25 13:56:06.682,1.8274333999892696e-05,1.7915648085266904,1,NB
2025-06-25 13:56:06.690,1.5939515314876746e-05,1.9147268210068416,1,NB
2025-06-25 13:56:06.698,1.3507690882068468e-05,2.0359512825591004,1,NB
2025-06-25 13:56:06.705,1.1115243328213337e-05,2.153181612499302,1,NB
2025-06-25 13:56:06.713,8.89874776773768e-06,2.26440684715748,1,NB
2025-06-25 13:56:06.721,6.988644063633796e-06,2.36768514188275,1,NB
2025-06-25 13:56:06.729,5.503013434684712e-06,2.461165133707868,1,NB
2025-06-25 13:56:06.737,4.54175607431762e-06,2.5431062807707856,1,NB
2025-06-25 13:56:06.744,4.181477043484879e-06,2.611899193807228,1,NB
2025-06-25 13:56:06.752,4.471379434014799e-06,2.666086725817804,1,NB
2025-06-25 13:56:06.760,5.430415108402351e-06,2.704386231903891,1,NB
2025-06-25 13:56:06.768,7.045842137005367e-06,2.725713005738767,1,NB
2025-06-25 13:56:06.776,9.273209957135024e-06,2.7292044921321,1,NB
2025-06-25 13:56:06.784,1.203768756032609e-05,2.7142445062304805,1,NB
2025-06-25 13:56:06.791,1.5236592286832484e-05,2.680486388884173,1,NB
2025-06-25 13:56:06.799,1.874295506422428e-05,2.627873816670028,1,NB
2025-06-25 13:56:06.807,2.2409950716416872e-05,2.5566578768103647,1,NB
2025-06-25 13:56:06.815,2.6076018792890257e-05,2.46740901299306,1,NB
2025-06-25 13:56:06.823,2.957049888285772e-05,2.361022540139165,1,NB
2025-06-25 13:56:06.830,3.271960401287557e-05,2.2387166045968883,1,NB
2025-06-25 13:56:06.838,3.535255608872924e-05,2.102021722732708,1,NB
2025-06-25 13:56:06.846,3.730770825227964e-05,1.9527613560123884,1,NB
2025-06-25 13:56:06.854,3.8438480522449786e-05,1.793023359892003,1,NB
2025-06-25 13:56:06.862,3.8618937439510304e-05,1.6251225573660275,1,NB
2025-06-25 13:56:06.869,3.774884010328444e-05,1.4515551136321754,1,NB
2025-06-25 13:56:06.877,3.575801063791873e-05,1.2749458033823968,1,NB
2025-06-25 13:56:06.885,3.260985551591552e-05,1.0979896435776924,1,NB
2025-06-25 13:56:06.893,2.830390620624551e-05,0.9233896895225008,1,NB
2025-06-25 13:56:06.901,2.2877252175285592e-05,0.7537930414848972,1,NB
2025-06-25 13:56:06.909,1.6404763222920733e-05,0.5917272690934984,1,NB
2025-06-25 13:56:06.916,8.998026223986491e-06,0.4395395203293576,1,NB
2025-06-25 13:56:06.924,8.029561264575716e-07,0.2993405299057293,1,NB
2025-06-25 13:56:06.932,-8.003917163491007e-06,0.1729555677098746,1,NB
2025-06-25 13:56:06.940,-1.7220435617846968e-05,0.0618840687999376,1,NB
2025-06-25 13:56:06.948,-2.662496789623256e-05,-0.0327307255240586,1,NB
2025-06-25 13:56:06.955,-3.5983565231552065e-05,-0.1101212820021363,1,NB
2025-06-25 13:56:06.963,-4.505788579923022e-05,-0.1699041528802319,1,NB
2025-06-25 13:56:06.971,-5.361358643066648e-05,-0.2120774711989213,1,NB
2025-06-25 13:56:06.979,-6.142881289464882e-05,-0.2370083318261933,1,NB
2025-06-25 13:56:06.987,-6.83023654718915e-05,-0.2454112677027948,1,NB
2025-06-25 13:56:06.994,-7.406109868676134e-05,-0.2383193658088614,1,NB
2025-06-25 13:56:07.002,-7.856614881522655e-05,-0.2170497701870156,1,NB
2025-06-25 13:56:07.010,-8.171765684947766e-05,-0.1831653769262504,1,NB
2025-06-25 13:56:07.018,-8.34577421189573e-05,-0.1384344376712828,1,NB
2025-06-25 13:56:07.026,-8.377157295651368e-05,-0.0847895644163221,1,NB
2025-06-25 13:56:07.034,-8.268647574222448e-05,-0.0242872911818527,1,NB
2025-06-25 13:56:07.041,-8.026912734722628e-05,0.0409310666767597,1,NB
2025-06-25 13:56:07.049,-7.662100778617913e-05,0.108676957942939,1,NB
2025-06-25 13:56:07.057,-7.187245172243892e-05,0.1767506610648399,1,NB
2025-06-25 13:56:07.065,-6.617577796249606e-05,0.2429763093562287,1,NB
2025-06-25 13:56:07.073,-5.9698033052802096e-05,0.3052365055412932,1,NB
2025-06-25 13:56:07.080,-5.2613849740189216e-05,0.3615071870174046,1,NB
2025-06-25 13:56:07.088,-4.509883009557888e-05,0.4098932771472324,1,NB
2025-06-25 13:56:07.096,-3.732375180250658e-05,0.4486653949412983,1,NB
2025-06-25 13:56:07.104,-2.9449780676269583e-05,0.4762975289746613,1,NB
2025-06-25 13:56:07.112,-2.162475919290592e-05,0.4915051508396582,1,NB
2025-06-25 13:56:07.120,-1.3980535613925725e-05,0.4932827922775229,1,NB
2025-06-25 13:56:07.127,-6.631214756012865e-06,0.480939684544029,1,NB
2025-06-25 13:56:07.135,3.278264663430593e-07,0.4541317037320978,1,NB
2025-06-25 13:56:07.143,6.820293953458884e-06,0.4128876194558591,1,NB
2025-06-25 13:56:07.151,1.278878001991648e-05,0.3576275322410696,1,NB
2025-06-25 13:56:07.159,1.819404996207572e-05,0.2891714212834397,1,NB
2025-06-25 13:56:07.166,2.301384012601476e-05,0.2087359148720468,1,NB
2025-06-25 13:56:07.174,2.72412163720363e-05,0.1179177404511008,1,NB
2025-06-25 13:56:07.182,3.08825670777475e-05,0.0186628016089608,1,NB
2025-06-25 13:56:07.190,3.3955324908076175e-05,-0.0867795544890393,1,NB
2025-06-25 13:56:07.198,3.648552478062072e-05,-0.1959168041580593,1,NB
2025-06-25 13:56:07.205,3.8505311900448006e-05,-0.3060870029693618,1,NB
2025-06-25 13:56:07.213,4.0050513770176e-05,-0.4145441913240495,1,NB
2025-06-25 13:56:07.221,4.115838421971767e-05,-0.5185528328974974,1,NB
2025-06-25 13:56:07.229,4.186561641764546e-05,-0.6154879488237517,1,NB
2025-06-25 13:56:07.237,4.220670631693567e-05,-0.7029369985699939,1,NB
2025-06-25 13:56:07.245,4.22127289388236e-05,-0.7787991108423195,1,NB
2025-06-25 13:56:07.252,4.1910568261057e-05,-0.8413770387280501,1,NB
2025-06-25 13:56:07.260,4.1322618239722514e-05,-0.8894572448772722,1,NB
2025-06-25 13:56:07.268,4.0466948657437065e-05,-0.9223738365387876,1,NB
2025-06-25 13:56:07.276,3.935790604295172e-05,-0.9400526635395452,1,NB
2025-06-25 13:56:07.284,3.800709780092288e-05,-0.9430327372522548,1,NB
2025-06-25 13:56:07.291,3.6424687822371456e-05,-0.9324631769832638,1,NB
2025-06-25 13:56:07.299,3.462091503684612e-05,-0.9100750786440952,1,NB
2025-06-25 13:56:07.307,3.26077333428406e-05,-0.8781289547838287,1,NB
2025-06-25 13:56:07.315,3.0400462728357652e-05,-0.8393396312471143,1,NB
2025-06-25 13:56:07.323,2.801933765596257e-05,-0.7967816138916859,1,NB
2025-06-25 13:56:07.330,2.549084028147077e-05,-0.7537788742777106,1,NB
2025-06-25 13:56:07.338,2.284871299270902e-05,-0.7137836828790133,1,NB
2025-06-25 13:56:07.346,2.0134557118397345e-05,-0.6802495110108407,1,NB
2025-06-25 13:56:07.354,1.739794231565167e-05,-0.6565031292059831,1,NB
2025-06-25 13:56:07.362,1.469597376491382e-05,-0.6456208773431205,1,NB
2025-06-25 13:56:07.370,1.2092291365851898e-05,-0.6503137165781812,1,NB
2025-06-25 13:56:07.377,9.655505936099696e-06,-0.6728251498008939,1,NB
2025-06-25 13:56:07.385,7.45711108793946e-06,-0.7148454654428705,1,NB
2025-06-25 13:56:07.393,5.568944950382084e-06,-0.7774450530696531,1,NB
2025-06-25 13:56:07.401,4.060312019017906e-06,-0.8610287781556457,1,NB
2025-06-25 13:56:07.409,2.9949108285815265e-06,-0.9653126036828276,1,NB
2025-06-25 13:56:07.416,2.42774642866765e-06,-1.0893228281028269,1,NB
2025-06-25 13:56:07.424,2.402234686710664e-06,-1.2314174983762942,1,NB
2025-06-25 13:56:07.432,2.947717046187618e-06,-1.389328781527175,1,NB
2025-06-25 13:56:07.440,4.077577440050799e-06,-1.5602243681493737,1,NB
2025-06-25 13:56:07.448,5.78807500597396e-06,-1.7407853673361742,1,NB
2025-06-25 13:56:07.455,8.057902136372122e-06,-1.9272976647329805,1,NB
2025-06-25 13:56:07.463,1.084839599679586e-05,-2.115753380272755,1,NB
2025-06-25 13:56:07.471,1.410429805642302e-05,-2.3019588985767845,1,NB
2025-06-25 13:56:07.479,1.7754957863372983e-05,-2.4816459606504626,1,NB
2025-06-25 13:56:07.487,2.171589227576154e-05,-2.650582491774569,1,NB
2025-06-25 13:56:07.495,2.589062857882894e-05,-2.8046801665023837,1,NB
2025-06-25 13:56:07.502,3.017277647248341e-05,-2.940096123489194,1,NB
2025-06-25 13:56:07.510,3.444828865487123e-05,-3.05332667528121,1,NB
2025-06-25 13:56:07.518,3.859788168896015e-05,-3.141291255876918,1,NB
2025-06-25 13:56:07.526,4.249959727207287e-05,-3.201405183831806,1,NB
2025-06-25 13:56:07.534,4.60314884328081e-05,-3.231640092757264,1,NB
2025-06-25 13:56:07.541,4.907441532470898e-05,-3.2305711147707594,1,NB
2025-06-25 13:56:07.549,5.151493121933233e-05,-3.197410119977155,1,NB
2025-06-25 13:56:07.557,5.324823134964056e-05,-3.132024534166538,1,NB
2025-06-25 13:56:07.565,5.418112601194734e-05,-3.0349414853022063,1,NB
2025-06-25 13:56:07.573,5.423498564073228e-05,-2.907337265395936,1,NB
2025-06-25 13:56:07.580,5.334859047891832e-05,-2.751012330479864,1,NB
2025-06-25 13:56:07.588,5.148080220234961e-05,-2.5683522898429128,1,NB
2025-06-25 13:56:07.596,4.861296076925108e-05,-2.362275555265837,1,NB
2025-06-25 13:56:07.604,4.475089826674828e-05,-2.136168540534965,1,NB
2025-06-25 13:56:07.612,3.992645403310456e-05,-1.8938095367074463,1,NB
2025-06-25 13:56:07.620,3.419837319846073e-05,-1.63928265359682,1,NB
2025-06-25 13:56:07.627,2.765247522886236e-05,-1.3768835183082035,1,NB
2025-06-25 13:56:07.635,2.040099109888864e-05,-1.1110187516873686,1,NB
2025-06-25 13:56:07.643,1.2580988113377074e-05,-0.8461015858693816,1,NB
2025-06-25 13:56:07.651,4.351830580575898e-06,-0.5864463111474641,1,NB
2025-06-25 13:56:07.659,-4.108337436336405e-06,-0.3361645081892584,1,NB
2025-06-25 13:56:07.666,-1.2607054556402285e-05,-0.0990661894499506,1,NB
2025-06-25 13:56:07.674,-2.0942862794180343e-05,0.1214309934410323,1,NB
2025-06-25 13:56:07.682,-2.8911339052412392e-05,0.3223814426694523,1,NB
2025-06-25 13:56:07.690,-3.631162463635687e-05,0.5013774618524962,1,NB
2025-06-25 13:56:07.698,-4.295317388697928e-05,0.6565989631802328,1,NB
2025-06-25 13:56:07.705,-4.866238825375325e-05,0.7868453365543766,1,NB
2025-06-25 13:56:07.713,-5.328878223295982e-05,0.8915484944057538,1,NB
2025-06-25 13:56:07.721,-5.6710356939878666e-05,0.9707668818241076,1,NB
2025-06-25 13:56:07.729,-5.8837914287182e-05,1.0251610258739667,1,NB
2025-06-25 13:56:07.737,-5.9618094655261e-05,1.055951936366456,1,NB
2025-06-25 13:56:07.745,-5.903497124853236e-05,1.0648643181673108,1,NB
2025-06-25 13:56:07.752,-5.711013194156051e-05,1.0540570800147748,1,NB
2025-06-25 13:56:07.760,-5.3901333754822944e-05,1.0260440071404486,1,NB
2025-06-25 13:56:07.768,-4.949996350721695e-05,0.9836076963784464,1,NB
2025-06-25 13:56:07.776,-4.402761008555326e-05,0.929709934280908,1,NB
2025-06-25 13:56:07.784,-3.763203835815686e-05,0.8674016418766964,1,NB
2025-06-25 13:56:07.791,-3.0482788402324173e-05,0.7997353340524046,1,NB
2025-06-25 13:56:07.799,-2.2766542945418055e-05,0.7296827719936672,1,NB
2025-06-25 13:56:07.807,-1.468233623181385e-05,0.660060146195772,1,NB
2025-06-25 13:56:07.815,-6.436645382874348e-06,0.5934627301659149,1,NB
2025-06-25 13:56:07.823,1.7615742756080055e-06,0.5322104994245511,1,NB
2025-06-25 13:56:07.830,9.705798523790229e-06,0.4783057249797292,1,NB
2025-06-25 13:56:07.838,1.7196644549527337e-05,0.4334030406215589,1,NB
2025-06-25 13:56:07.846,2.404624796987932e-05,0.398791973701851,1,NB
2025-06-25 13:56:07.854,3.0082210093025114e-05,0.3753914466413798,1,NB
2025-06-25 13:56:07.862,3.515106292534629e-05,0.3637553226373216,1,NB
2025-06-25 13:56:07.870,3.912123873017577e-05,0.3640876976798987,1,NB
2025-06-25 13:56:07.877,4.188556319260935e-05,0.3762663429297269,1,NB
2025-06-25 13:56:07.885,4.336331612733358e-05,0.3998724889197509,1,NB
2025-06-25 13:56:07.893,4.350192128220978e-05,0.434225027799099,1,NB
2025-06-25 13:56:07.901,4.2278337608722585e-05,0.4784171993533478,1,NB
2025-06-25 13:56:07.909,3.970022755467664e-05,0.531353922471854,1,NB
2025-06-25 13:56:07.916,3.5806964845814466e-05,0.5917881338851191,1,NB
2025-06-25 13:56:07.924,3.067049549315289e-05,0.6583547949871957,1,NB
2025-06-25 13:56:07.932,2.439597156011837e-05,0.7296016134820313,1,NB
2025-06-25 13:56:07.940,1.7121965280664625e-05,0.8040159765885099,1,NB
2025-06-25 13:56:07.948,9.019992648751313e-06,0.8800480720018642,1,NB
2025-06-25 13:56:07.955,2.930577715107912e-07,0.956130639022196,1,NB
2025-06-25 13:56:07.963,-8.827038850327192e-06,1.0306961998916533,1,NB
2025-06-25 13:56:07.971,-1.8083824385901025e-05,1.1021929276663025,1,NB
2025-06-25 13:56:07.979,-2.720182785784002e-05,1.1691004763310349,1,NB
2025-06-25 13:56:07.987,-3.5893829199300765e-05,1.2299471072321202,1,NB
2025-06-25 13:56:07.995,-4.386960285961978e-05,1.2833292835647472,1,NB
2025-06-25 13:56:08.002,-5.084596164837485e-05,1.3279345774195015,1,NB
2025-06-25 13:56:08.010,-5.655778739085476e-05,1.3625682631456306,1,NB
2025-06-25 13:56:08.018,-6.076961505223605e-05,1.3861833942924966,1,NB
2025-06-25 13:56:08.026,-6.328722106453601e-05,1.3979135339031572,1,NB
2025-06-25 13:56:08.034,-6.396856141196713e-05,1.39710669709054,1,NB
2025-06-25 13:56:08.041,-6.273332722195301e-05,1.3833585404474718,1,NB
2025-06-25 13:56:08.049,-5.957037079144501e-05,1.35654245550292,1,NB
2025-06-25 13:56:08.057,-5.454234172117172e-05,1.3168340393913924,1,NB
2025-06-25 13:56:08.065,-4.778706043927166e-05,1.2647274575007403,1,NB
2025-06-25 13:56:08.073,-3.951539508456533e-05,1.201041496970472,1,NB
2025-06-25 13:56:08.080,-3.000564594603392e-05,1.1269136306691658,1,NB
2025-06-25 13:56:08.088,-1.959466211373534e-05,1.043781132561398,1,NB
2025-06-25 13:56:08.096,-8.666113981087496e-06,0.9533491403950848,1,NB
2025-06-25 13:56:08.104,2.363496657375406e-06,0.857546461782275,1,NB
2025-06-25 13:56:08.112,1.3060414698388702e-05,0.7584707698275548,1,NB
2025-06-25 13:56:08.120,2.299009858349189e-05,0.6583255497485907,1,NB
2025-06-25 13:56:08.127,3.173389541907504e-05,0.5593516776751415,1,NB
2025-06-25 13:56:08.135,3.890528283829252e-05,0.4637568061648611,1,NB
2025-06-25 13:56:08.143,4.416508393795088e-05,0.3736457951361522,1,NB
2025-06-25 13:56:08.151,4.723511573464855e-05,0.2909552810487398,1,NB
2025-06-25 13:56:08.159,4.7909791389086606e-05,0.2173951556931427,1,NB
2025-06-25 13:56:08.166,4.606526179599155e-05,0.1543992716351713,1,NB
2025-06-25 13:56:08.174,4.166575321995654e-05,0.1030871474085902,1,NB
2025-06-25 13:56:08.182,3.476683490774285e-05,0.0642378493693011,1,NB
2025-06-25 13:56:08.190,2.5515434581393463e-05,0.0382766092728201,1,NB
2025-06-25 13:56:08.198,1.4146510958341042e-05,0.0252741241768914,1,NB
2025-06-25 13:56:08.205,9.763913439152332e-07,0.0249579055383328,1,NB
2025-06-25 13:56:08.213,-1.360711101139314e-05,0.0367345261444912,1,NB
2025-06-25 13:56:08.221,-2.915757104819621e-05,0.0597211842798285,1,NB
2025-06-25 13:56:08.229,-4.518546823687328e-05,0.0927846849892363,1,NB
2025-06-25 13:56:08.237,-6.117587033595758e-05,0.134585739139792,1,NB
2025-06-25 13:56:08.245,-7.660768163624859e-05,0.1836264060968111,1,NB
2025-06-25 13:56:08.252,-9.097372498573232e-05,0.2382985585155824,1,NB
2025-06-25 13:56:08.260,-0.000103800804916,0.2969314300498722,1,NB
2025-06-25 13:56:08.268,-0.0001146687971892,0.3578366085691476,1,NB
2025-06-25 13:56:08.276,-0.0001232277553789,0.4193492259292016,1,NB
2025-06-25 13:56:08.284,-0.0001292120457361,0.4798645183192175,1,NB
2025-06-25 13:56:08.291,-0.0001324506289822,0.5378693341173079,1,NB
2025-06-25 13:56:08.299,-0.0001328728009242,0.5919685086740316,1,NB
2025-06-25 13:56:08.307,-0.0001305089794148,0.6409062879073936,1,NB
2025-06-25 13:56:08.315,-0.0001254864672627,0.6835831636018089,1,NB
2025-06-25 13:56:08.323,-0.0001180204947877,0.7190685926884659,1,NB
2025-06-25 13:56:08.330,-0.0001084012080738,0.7466101232872628,1,NB
2025-06-25 13:56:08.338,-9.69775679814503e-05,0.7656394504355402,1,NB
2025-06-25 13:56:08.346,-8.413930618807807e-05,0.775775875797335,1,NB
2025-06-25 13:56:08.354,-7.029812183991042e-05,0.7768275460550571,1,NB
2025-06-25 13:56:08.362,-5.586922005468908e-05,0.7687906951567101,1,NB
2025-06-25 13:56:08.370,-4.125414233362193e-05,0.7518469269041649,1,NB
2025-06-25 13:56:08.377,-2.6825658481037344e-05,0.7263583698579066,1,NB
2025-06-25 13:56:08.385,-1.2915298604558302e-05,0.6928603496434057,1,NB
2025-06-25 13:56:08.393,1.9608926233296802e-07,0.6520510915526551,1,NB
2025-06-25 13:56:08.401,1.228455907212403e-05,0.6047779222612241,1,NB
2025-06-25 13:56:08.409,2.31860461102685e-05,0.5520195064298652,1,NB
2025-06-25 13:56:08.416,3.27962516357363e-05,0.4948638378339614,1,NB
2025-06-25 13:56:08.424,4.106772384787109e-05,0.4344819904114251,1,NB
2025-06-25 13:56:08.432,4.800454945635218e-05,0.3720979879098571,1,NB
2025-06-25 13:56:08.440,5.365516913743357e-05,0.3089555259142193,1,NB
2025-06-25 13:56:08.448,5.8103901805251855e-05,0.2462826302402731,1,NB
2025-06-25 13:56:08.455,6.146179649282592e-05,0.1852556204826187,1,NB
2025-06-25 13:56:08.463,6.385740609427853e-05,0.1269639344543861,1,NB
2025-06-25 13:56:08.471,6.542798370588838e-05,0.0723774344337914,1,NB
2025-06-25 13:56:08.479,6.631146736330215e-05,0.0223177475691896,1,NB
2025-06-25 13:56:08.487,6.663949418315041e-05,-0.0225650046611572,1,NB
2025-06-25 13:56:08.495,6.653159837996875e-05,-0.0618090362685208,1,NB
2025-06-25 13:56:08.502,6.60906899044865e-05,-0.0951506060031549,1,NB
2025-06-25 13:56:08.510,6.53998626166964e-05,-0.1225263234344853,1,NB
2025-06-25 13:56:08.518,6.452053486853596e-05,-0.1440681516193965,1,NB
2025-06-25 13:56:08.526,6.349188096468086e-05,-0.1600915423433052,1,NB
2025-06-25 13:56:08.534,6.233147051590788e-05,-0.1710774098015732,1,NB
2025-06-25 13:56:08.541,6.103699536172303e-05,-0.1776488414976739,1,NB
2025-06-25 13:56:08.549,5.958893151877062e-05,-0.1805435583849794,1,NB
2025-06-25 13:56:08.557,5.795395734575311e-05,-0.1805831758312554,1,NB
2025-06-25 13:56:08.565,5.608892947808464e-05,-0.1786402992545071,1,NB
2025-06-25 13:56:08.573,5.394520559064752e-05,-0.1756044388835284,1,NB
2025-06-25 13:56:08.580,5.147309805367452e-05,-0.172347675303075,1,NB
2025-06-25 13:56:08.588,4.862624526168784e-05,-0.1696909731115966,1,NB
2025-06-25 13:56:08.596,4.536569789525948e-05,-0.1683720336733187,1,NB
2025-06-25 13:56:08.604,4.166353552681619e-05,-0.1690155969898343,1,NB
2025-06-25 13:56:08.612,3.750585455949679e-05,-0.1721071363073852,1,NB
2025-06-25 13:56:08.620,3.289500109089916e-05,-0.1779709208157889,1,NB
2025-06-25 13:56:08.627,2.785096135865609e-05,-0.186753429946811,1,NB
2025-06-25 13:56:08.635,2.2411867221648262e-05,-0.1984130617998097,1,NB
2025-06-25 13:56:08.643,1.6633623755073347e-05,-0.2127169641789399,1,NB
2025-06-25 13:56:08.651,1.0588719407055924e-05,-0.229245613828346,1,NB
2025-06-25 13:56:08.659,4.364333391566304e-06,-0.2474054744061857,1,NB
2025-06-25 13:56:08.666,-1.940101046758966e-06,-0.2664496872801148,1,NB
2025-06-25 13:56:08.674,-8.215707374819004e-06,-0.2855063147602953,1,NB
2025-06-25 13:56:08.682,-1.43472143269545e-05,-0.3036131957424678,1,NB
2025-06-25 13:56:08.690,-2.0216160959832337e-05,-0.3197580280865681,1,NB
2025-06-25 13:56:08.698,-2.570420645794764e-05,-0.3329219030369378,1,NB
2025-06-25 13:56:08.705,-3.0696482970455545e-05,-0.3421242265604009,1,NB
2025-06-25 13:56:08.713,-3.508491487374541e-05,-0.3464668066688592,1,NB
2025-06-25 13:56:08.721,-3.8771443006375634e-05,-0.345174889477822,1,NB
2025-06-25 13:56:08.729,-4.1671124371875233e-05,-0.3376330987272823,1,NB
2025-06-25 13:56:08.737,-4.37150818843804e-05,-0.3234145627602971,1,NB
2025-06-25 13:56:08.745,-4.485323425391392e-05,-0.3023019691833111,1,NB
2025-06-25 13:56:08.752,-4.505666831212174e-05,-0.2742998263129322,1,NB
2025-06-25 13:56:08.760,-4.431947075772812e-05,-0.2396377800390234,1,NB
2025-06-25 13:56:08.768,-4.265983898088754e-05,-0.1987653794257634,1,NB
2025-06-25 13:56:08.776,-4.012032280329518e-05,-0.1523391500983682,1,NB
2025-06-25 13:56:08.784,-3.676707646656753e-05,-0.1012031774946272,1,NB
2025-06-25 13:56:08.791,-3.2688031375390726e-05,-0.0463645994479998,1,NB
2025-06-25 13:56:08.799,-2.798998223013857e-05,0.0110345397517306,1,NB
2025-06-25 13:56:08.807,-2.2794721759152897e-05,0.0697476962093688,1,NB
2025-06-25 13:56:08.815,-1.7234499413408026e-05,0.1284552940890662,1,NB
2025-06-25 13:56:08.823,-1.1447146060438186e-05,0.1857963064424174,1,NB
2025-06-25 13:56:08.830,-5.571188432636437e-06,0.2403992938575873,1,NB
2025-06-25 13:56:08.838,2.587906434877483e-07,0.2909125345207822,1,NB
2025-06-25 13:56:08.846,5.916373444615632e-06,0.3360331189420266,1,NB
2025-06-25 13:56:08.854,1.128701950434432e-05,0.3745350340835171,1,NB
2025-06-25 13:56:08.862,1.6271245129244513e-05,0.4052963023673296,1,NB
2025-06-25 13:56:08.870,2.0787274616370204e-05,0.4273251699229159,1,NB
2025-06-25 13:56:08.877,2.4773142816843256e-05,0.4397851744858408,1,NB
2025-06-25 13:56:08.885,2.818817564506395e-05,0.4420186995267176,1,NB
2025-06-25 13:56:08.893,3.101374200120462e-05,0.4335683772477665,1,NB
2025-06-25 13:56:08.901,3.3253182179321414e-05,0.4141954796417317,1,NB
2025-06-25 13:56:08.909,3.493086156241901e-05,0.383894270640245,1,NB
2025-06-25 13:56:08.916,3.609035232214784e-05,0.3429012137649594,1,NB
2025-06-25 13:56:08.924,3.67917990240058e-05,0.2916979611654845,1,NB
2025-06-25 13:56:08.932,3.710857372453972e-05,0.2310072033794186,1,NB
2025-06-25 13:56:08.940,3.7123371287577415e-05,0.1617807306226495,1,NB
2025-06-25 13:56:08.948,3.69239352811185e-05,0.085179423899143,1,NB
2025-06-25 13:56:08.955,3.659863806711812e-05,0.0025453237871838,1,NB
2025-06-25 13:56:08.963,3.6232164766524766e-05,-0.0846336187715922,1,NB
2025-06-25 13:56:08.971,3.5901567334080337e-05,-0.1747650533432391,1,NB
2025-06-25 13:56:08.979,3.567295170573335e-05,-0.2661985293163722,1,NB
2025-06-25 13:56:08.987,3.559901676632205e-05,-0.3572747619302722,1,NB
2025-06-25 13:56:08.995,3.5717567150081656e-05,-0.4463757955334813,1,NB
2025-06-25 13:56:09.002,3.605099872472048e-05,-0.5319738717545697,1,NB
2025-06-25 13:56:09.010,3.660665580106309e-05,-0.6126768233350139,1,NB
2025-06-25 13:56:09.018,3.737790870087401e-05,-0.6872679613467626,1,NB
2025-06-25 13:56:09.026,3.834578764225105e-05,-0.7547386928276729,1,NB
2025-06-25 13:56:09.034,3.948101273203636e-05,-0.8143124799304482,1,NB
2025-06-25 13:56:09.041,4.074626976231939e-05,-0.8654592078299795,1,NB
2025-06-25 13:56:09.049,4.209859505372147e-05,-0.9078995372774848,1,NB
2025-06-25 13:56:09.057,4.349174891930116e-05,-0.9415993417322578,1,NB
2025-06-25 13:56:09.065,4.487847558226134e-05,-0.9667548281321532,1,NB
2025-06-25 13:56:09.073,4.6212566735907895e-05,-0.983769378480448,1,NB
2025-06-25 13:56:09.080,4.745066560453684e-05,-0.993223501314924,1,NB
2025-06-25 13:56:09.088,4.855376764130254e-05,-0.9958395371914092,1,NB
2025-06-25 13:56:09.096,4.948839226613636e-05,-0.992442923640361,1,NB
2025-06-25 13:56:09.104,5.022741678849988e-05,-0.9839219026973904,1,NB
2025-06-25 13:56:09.112,5.0750578471220015e-05,-0.9711875560792558,1,NB
2025-06-25 13:56:09.120,5.104466328072273e-05,-0.95513598110032,1,NB
2025-06-25 13:56:09.127,5.110341005487656e-05,-0.9366142731835956,1,NB
2025-06-25 13:56:09.135,5.092716652773719e-05,-0.9163917592795356,1,NB
2025-06-25 13:56:09.143,5.052233890381601e-05,-0.8951376353853259,1,NB
2025-06-25 13:56:09.151,4.990067958281466e-05,-0.873405808469955,1,NB
2025-06-25 13:56:09.159,4.907845838250585e-05,-0.8516273417510789,1,NB
2025-06-25 13:56:09.166,4.807556143542791e-05,-0.8301104752992243,1,NB
2025-06-25 13:56:09.174,4.691455913157088e-05,-0.8090477728686324,1,NB
2025-06-25 13:56:09.182,4.5619780360917146e-05,-0.7885295633349255,1,NB
2025-06-25 13:56:09.190,4.421642520796277e-05,-0.7685625264818551,1,NB
2025-06-25 13:56:09.198,4.272974249760203e-05,-0.7490920321745759,1,NB
2025-06-25 13:56:09.205,4.118429250897117e-05,-0.730026683750689,1,NB
2025-06-25 13:56:09.213,3.960330905963582e-05,-0.7112634406499566,1,NB
2025-06-25 13:56:09.221,3.800816928404999e-05,-0.6927117012280897,1,NB
2025-06-25 13:56:09.229,3.641797401608215e-05,-0.6743148143623757,1,NB
2025-06-25 13:56:09.237,3.4849236920399496e-05,-0.6560676569421929,1,NB
2025-06-25 13:56:09.245,3.331567653948306e-05,-0.6380291591253976,1,NB
2025-06-25 13:56:09.252,3.182810232169109e-05,-0.620328969998358,1,NB
2025-06-25 13:56:09.260,3.039438351315688e-05,-0.6031678158906407,1,NB
2025-06-25 13:56:09.268,2.901948852906682e-05,-0.5868114896534166,1,NB
2025-06-25 13:56:09.276,2.7705582022958085e-05,-0.5715787982030176,1,NB
2025-06-25 13:56:09.284,2.645216726423233e-05,-0.5578241667691739,1,NB
2025-06-25 13:56:09.291,2.525626250132014e-05,-0.5459159331915067,1,NB
2025-06-25 13:56:09.299,2.411260159381255e-05,-0.5362116447755078,1,NB
2025-06-25 13:56:09.307,2.3013851187266905e-05,-0.5290318723866859,1,NB
2025-06-25 13:56:09.315,2.1950838915479356e-05,-0.5246341647070788,1,NB
2025-06-25 13:56:09.323,2.0912789380739816e-05,-0.5231887744147115,1,NB
2025-06-25 13:56:09.330,1.9887566821892155e-05,-0.5247577025692409,1,NB
2025-06-25 13:56:09.338,1.8861925283686328e-05,-0.5292784363321119,1,NB
2025-06-25 13:56:09.346,1.7821768617765908e-05,-0.5365535077320974,1,NB
2025-06-25 13:56:09.354,1.6752423668042263e-05,-0.5462466914146968,1,NB
2025-06-25 13:56:09.362,1.563893044159397e-05,-0.5578863067962756,1,NB
2025-06-25 13:56:09.370,1.4466352892592655e-05,-0.5708757149298814,1,NB
2025-06-25 13:56:09.377,1.3220113137011865e-05,-0.5845107188331105,1,NB
2025-06-25 13:56:09.385,1.18863504909905e-05,-0.5980032014085185,1,NB
2025-06-25 13:56:09.393,1.045230474156809e-05,-0.6105099815140285,1,NB
2025-06-25 13:56:09.401,8.906720604414046e-06,-0.6211655522932027,1,NB
2025-06-25 13:56:09.409,7.240267519190872e-06,-0.6291171038010579,1,NB
2025-06-25 13:56:09.416,5.445965926110898e-06,-0.633560042084511,1,NB
2025-06-25 13:56:09.424,3.51960812542541e-06,-0.6337721178636596,1,NB
2025-06-25 13:56:09.432,1.460158928706204e-06,-0.6291442887290736,1,NB
2025-06-25 13:56:09.440,-7.298812413263381e-07,-0.6192065738113799,1,NB
2025-06-25 13:56:09.448,-3.044170164961269e-06,-0.6036474209031139,1,NB
2025-06-25 13:56:09.455,-5.472295218856516e-06,-0.5823254772789056,1,NB
2025-06-25 13:56:09.463,-7.999643433146216e-06,-0.5552731078581877,1,NB
2025-06-25 13:56:09.471,-1.0607390691909284e-05,-0.5226915029096699,1,NB
2025-06-25 13:56:09.479,-1.3272628820853582e-05,-0.4849377252639266,1,NB
2025-06-25 13:56:09.487,-1.596864637518869e-05,-0.4425045262921817,1,NB
2025-06-25 13:56:09.495,-1.8665374799598534e-05,-0.3959941751801027,1,NB
2025-06-25 13:56:09.502,-2.133000632086109e-05,-0.3460878682459805,1,NB
2025-06-25 13:56:09.510,-2.3927783550898935e-05,-0.293512494050089,1,NB
2025-06-25 13:56:09.518,-2.642295348397929e-05,-0.2390066137682558,1,NB
2025-06-25 13:56:09.526,-2.8779870587681488e-05,-0.1832874699757696,1,NB
2025-06-25 13:56:09.534,-3.096422529309904e-05,-0.1270206654756733,1,NB
2025-06-25 13:56:09.541,-3.294436571919848e-05,-0.0707938763839719,1,NB
2025-06-25 13:56:09.549,-3.4692672298915966e-05,-0.015095615262985,1,NB
2025-06-25 13:56:09.557,-3.618693752555258e-05,0.0397003158172909,1,NB
2025-06-25 13:56:09.565,-3.741169674495095e-05,0.0933444064300922,1,NB
2025-06-25 13:56:09.573,-3.8359451226519856e-05,0.1457151042826299,1,NB
2025-06-25 13:56:09.580,-3.903172208876e-05,0.1968168977186498,1,NB
2025-06-25 13:56:09.588,-3.943987343738215e-05,0.2467733734887112,1,NB
2025-06-25 13:56:09.596,-3.960564565155237e-05,0.2958159827253485,1,NB
2025-06-25 13:56:09.604,-3.956134541106678e-05,0.3442693619860945,1,NB
2025-06-25 13:56:09.612,-3.9349647988514665e-05,0.3925341081361104,1,NB
2025-06-25 13:56:09.620,-3.902297962005066e-05,0.4410678978149813,1,NB
2025-06-25 13:56:09.627,-3.86424633735584e-05,0.490365780440304,1,NB
2025-06-25 13:56:09.635,-3.827643066974701e-05,0.5409403684125305,1,NB
2025-06-25 13:56:09.643,-3.799852214430942e-05,0.5933025126105289,1,NB
2025-06-25 13:56:09.651,-3.788542537430869e-05,0.6479428984198199,1,NB
2025-06-25 13:56:09.659,-3.8014322478003934e-05,0.7053148391790791,1,NB
2025-06-25 13:56:09.666,-3.846014693043091e-05,0.7658183934611871,1,NB
2025-06-25 13:56:09.674,-3.929277517276186e-05,0.8297858072971869,1,NB
2025-06-25 13:56:09.682,-4.057430366554167e-05,0.8974682006504596,1,NB
2025-06-25 13:56:09.690,-4.235658315679281e-05,0.9690233917231644,1,NB
2025-06-25 13:56:09.698,-4.467918819491342e-05,1.044504784075053,1,NB
2025-06-25 13:56:09.705,-4.756796946051172e-05,1.1238513199629356,1,NB
2025-06-25 13:56:09.713,-5.103425691108712e-05,1.2068786135660288,1,NB
2025-06-25 13:56:09.721,-5.507467821524386e-05,1.293271504792091,1,NB
2025-06-25 13:56:09.729,-5.967147832836363e-05,1.3825784034189912,1,NB
2025-06-25 13:56:09.737,-6.479319740804586e-05,1.4742079079406012,1,NB
2025-06-25 13:56:09.745,-7.039557296349094e-05,1.5674282656742675,1,NB
2025-06-25 13:56:09.752,-7.642255602164956e-05,1.6613702740020393,1,NB
2025-06-25 13:56:09.760,-8.280735888380956e-05,1.7550341953337123,1,NB
2025-06-25 13:56:09.768,-8.94734805168683e-05,1.847301164164174,1,NB
2025-06-25 13:56:09.776,-9.633568324204351e-05,1.9369494015028517,1,NB
2025-06-25 13:56:09.784,-0.000103300919737,2.022675323522232,1,NB
2025-06-25 13:56:09.791,-0.0001102692312089,2.1031193503573973,1,NB
2025-06-25 13:56:09.799,-0.0001171346548878,2.176895911615887,1,NB
2025-06-25 13:56:09.807,-0.0001237861909379,2.242626839136406,1,NB
2025-06-25 13:56:09.815,-0.00013010888497,2.298977068259485,1,NB
2025-06-25 13:56:09.823,-0.0001359850823226,2.3446913655432478,1,NB
2025-06-25 13:56:09.831,-0.0001412959042432,2.3786306831188004,1,NB
2025-06-25 13:56:09.838,-0.0001459229844085,2.399806713743119,1,NB
2025-06-25 13:56:09.846,-0.0001497504875428,2.407413278910253,1,NB
2025-06-25 13:56:09.854,-0.0001526674111729,2.400853310063732,1,NB
2025-06-25 13:56:09.862,-0.0001545701479831,2.379760363022008,1,NB
2025-06-25 13:56:09.870,-0.000155365261216,2.344013822364451,1,NB
2025-06-25 13:56:09.877,-0.0001549724006739,2.2937471917450054,1,NB
2025-06-25 13:56:09.885,-0.0001533272638013,2.2293491162253583,1,NB
2025-06-25 13:56:09.893,-0.0001503844868224,2.1514570347174,1,NB
2025-06-25 13:56:09.901,-0.0001461203366975,2.060943607497732,1,NB
2025-06-25 13:56:09.909,-0.0001405350674127,1.9588963003477489,1,NB
2025-06-25 13:56:09.916,-0.0001336548053403,1.8465907306735991,1,NB
2025-06-25 13:56:09.924,-0.0001255328393752,1.72545859137882,1,NB
2025-06-25 13:56:09.932,-0.0001162502132749,1.5970511634965474,1,NB
2025-06-25 13:56:09.940,-0.0001059155490937,1.4629996030574717,1,NB
2025-06-25 13:56:09.948,-9.466406234028829e-05,1.3249733316672765,1,NB
2025-06-25 13:56:09.956,-8.265574062969614e-05,1.1846379607555502,1,NB
2025-06-25 13:56:09.963,-7.007263618193885e-05,1.0436142224411136,1,NB
2025-06-25 13:56:09.971,-5.711519357826068e-05,0.9034393550707008,1,NB
2025-06-25 13:56:09.979,-4.399754571647597e-05,0.7655322951375781,1,NB
2025-06-25 13:56:09.987,-3.094178644811112e-05,0.6311638612346151,1,NB
2025-06-25 13:56:09.995,-1.8171351401694648e-05,0.5014328848248816,1,NB
2025-06-25 13:56:10.002,-5.903774132708837e-06,0.377248956667815,1,NB
2025-06-25 13:56:10.010,5.656804266810807e-06,0.2593221344465684,1,NB
2025-06-25 13:56:10.018,1.6326937732404367e-05,0.1481596205053278,1,NB
2025-06-25 13:56:10.026,2.5950564577134352e-05,0.0440690924063481,1,NB
2025-06-25 13:56:10.034,3.4404721206660125e-05,-0.0528319280133719,1,NB
2025-06-25 13:56:10.041,4.160400227000492e-05,-0.1426015344977952,1,NB
2025-06-25 13:56:10.049,4.750354938117221e-05,-0.2254547865301138,1,NB
2025-06-25 13:56:10.057,5.210037077709391e-05,-0.3017421292511865,1,NB
2025-06-25 13:56:10.065,5.543282124087276e-05,-0.3719260914511711,1,NB
2025-06-25 13:56:10.073,5.7578164810756266e-05,-0.4365574073136571,1,NB
2025-06-25 13:56:10.081,5.8648307185741936e-05,-0.4962515658313579,1,NB
2025-06-25 13:56:10.088,5.8783972106028205e-05,-0.5516665948073974,1,NB
2025-06-25 13:56:10.096,5.814774734855391e-05,-0.6034826617273056,1,NB
2025-06-25 13:56:10.104,5.691650307245435e-05,-0.6523838462775791,1,NB
2025-06-25 13:56:10.112,5.527368495366394e-05,-0.6990422292326274,1,NB
2025-06-25 13:56:10.120,5.340193080659437e-05,-0.7441042662776356,1,NB
2025-06-25 13:56:10.127,5.147637785610573e-05,-0.7881792837657708,1,NB
2025-06-25 13:56:10.135,4.965893184230521e-05,-0.8318298490379178,1,NB
2025-06-25 13:56:10.143,4.8093664140104526e-05,-0.8755637268675553,1,NB
2025-06-25 13:56:10.151,4.690339290347524e-05,-0.9198271293029842,1,NB
2025-06-25 13:56:10.159,4.618739434077462e-05,-0.9649989911549904,1,NB
2025-06-25 13:56:10.166,4.602009398553015e-05,-1.0113860494452362,1,NB
2025-06-25 13:56:10.174,4.645053101196996e-05,-1.059218565869067,1,NB
2025-06-25 13:56:10.182,4.750239543154075e-05,-1.1086466044408465,1,NB
2025-06-25 13:56:10.190,4.917450568375567e-05,-1.1597368612376409,1,NB
2025-06-25 13:56:10.198,5.144168672638253e-05,-1.2124701340366313,1,NB
2025-06-25 13:56:10.206,5.425607792466246e-05,-1.2667396033809288,1,NB
2025-06-25 13:56:10.213,5.7548919599146186e-05,-1.322350156330465,1,NB
2025-06-25 13:56:10.221,6.123285501069302e-05,-1.379019007074768,1,NB
2025-06-25 13:56:10.229,6.520477634331724e-05,-1.4363778513888164,1,NB
2025-06-25 13:56:10.237,6.934924012220392e-05,-1.4939767414092515,1,NB
2025-06-25 13:56:10.245,7.354245128075277e-05,-1.551289797375576,1,NB
2025-06-25 13:56:10.252,7.765675805135895e-05,-1.6077228003048276,1,NB
2025-06-25 13:56:10.260,8.15655283551634e-05,-1.662622647638961,1,NB
2025-06-25 13:56:10.268,8.514820297022323e-05,-1.7152886088008383,1,NB
2025-06-25 13:56:10.276,8.829525398995509e-05,-1.764985286562869,1,NB
2025-06-25 13:56:10.284,9.09127459757562e-05,-1.810957164299616,1,NB
2025-06-25 13:56:10.291,9.292621624997487e-05,-1.8524445883401637,1,NB
2025-06-25 13:56:10.299,9.428364509875271e-05,-1.888700991244175,1,NB
2025-06-25 13:56:10.307,9.49573537346205e-05,-1.9190111025929528,1,NB
2025-06-25 13:56:10.315,9.4944736264696e-05,-1.942709818765344,1,NB
2025-06-25 13:56:10.323,9.426779841713794e-05,-1.9592013140377265,1,NB
2025-06-25 13:56:10.331,9.2971538995985e-05,-1.967977876025935,1,NB
2025-06-25 13:56:10.338,9.112126873687578e-05,-1.9686378457320564,1,NB
2025-06-25 13:56:10.346,8.879901436151302e-05,-1.960901947509509,1,NB
2025-06-25 13:56:10.354,8.609920226535567e-05,-1.9446272247499592,1,NB
2025-06-25 13:56:10.362,8.312385564428043e-05,-1.9198177764371145,1,NB
2025-06-25 13:56:10.370,7.997757031595228e-05,-1.8866315404761909,1,NB
2025-06-25 13:56:10.377,7.676255747305464e-05,-1.8453825032677729,1,NB
2025-06-25 13:56:10.385,7.357405404614236e-05,-1.7965379252133644,1,NB
2025-06-25 13:56:10.393,7.049639321888779e-05,-1.740710438247149,1,NB
2025-06-25 13:56:10.401,6.759997807524491e-05,-1.6786451684805077,1,NB
2025-06-25 13:56:10.409,6.493929904476478e-05,-1.6112023403843034,1,NB
2025-06-25 13:56:10.416,6.255200707686071e-05,-1.5393361057367694,1,NB
2025-06-25 13:56:10.424,6.045894930587679e-05,-1.4640705866168318,1,NB
2025-06-25 13:56:10.432,5.866501859113402e-05,-1.3864743015151075,1,NB
2025-06-25 13:56:10.440,5.716065121153576e-05,-1.3076342343578975,1,NB
2025-06-25 13:56:10.448,5.592380703982226e-05,-1.2286307925843791,1,NB
2025-06-25 13:56:10.456,5.49222733658899e-05,-1.150514777971324,1,NB
2025-06-25 13:56:10.463,5.411614478199266e-05,-1.0742872721642365,1,NB
2025-06-25 13:56:10.471,5.346034633984351e-05,-1.000883043247246,1,NB
2025-06-25 13:56:10.479,5.290708466062922e-05,-0.9311577485182164,1,NB
2025-06-25 13:56:10.487,5.24081309425221e-05,-0.8658788844459449,1,NB
2025-06-25 13:56:10.495,5.191686001427799e-05,-0.8057201545568554,1,NB
2025-06-25 13:56:10.502,5.13899899311964e-05,-0.7512587157670885,1,NB
2025-06-25 13:56:10.510,5.078898638148867e-05,-0.7029746380222055,1,NB
2025-06-25 13:56:10.518,5.008111474144378e-05,-0.6612518758891016,1,NB
2025-06-25 13:56:10.526,4.924013946727299e-05,-0.6263800999191024,1,NB
2025-06-25 13:56:10.534,4.824668523395848e-05,-0.5985568562001398,1,NB
2025-06-25 13:56:10.541,4.708828653643392e-05,-0.5778896902423969,1,NB
2025-06-25 13:56:10.549,4.575916217977287e-05,-0.5643980540549633,1,NB
2025-06-25 13:56:10.557,4.4259758135412e-05,-0.5580149783587821,1,NB
2025-06-25 13:56:10.565,4.259610666289544e-05,-0.5585886060018479,1,NB
2025-06-25 13:56:10.573,4.077905151381501e-05,-0.5658837321784675,1,NB
2025-06-25 13:56:10.581,3.88233886458825e-05,-0.5795834854146649,1,NB
2025-06-25 13:56:10.588,3.674696944241236e-05,-0.5992912313395348,1,NB
2025-06-25 13:56:10.596,3.456980926588316e-05,-0.6245327186098516,1,NB
2025-06-25 13:56:10.604,3.231323861677568e-05,-0.6547584398733178,1,NB
2025-06-25 13:56:10.612,2.9999127582301923e-05,-0.6893461666837443,1,NB
2025-06-25 13:56:10.620,2.764920701064422e-05,-0.7276036400717463,1,NB
2025-06-25 13:56:10.627,2.528450229398016e-05,-0.768771452437071,1,NB
2025-06-25 13:56:10.635,2.2924888128072488e-05,-0.8120262280478314,1,NB
2025-06-25 13:56:10.643,2.058876544920026e-05,-0.856484278515275,1,NB
2025-06-25 13:56:10.651,1.8292855205779207e-05,-0.9012059540921216,1,NB
2025-06-25 13:56:10.659,1.605209793437931e-05,-0.945200917356047,1,NB
2025-06-25 13:56:10.666,1.3879643462754044e-05,-0.9874345342905866,1,NB
2025-06-25 13:56:10.674,1.1786911590327802e-05,-1.026835523519299,1,NB
2025-06-25 13:56:10.682,9.783702382008249e-06,-1.062304944171499,1,NB
2025-06-25 13:56:10.690,7.878333785281202e-06,-1.0927265473795476,1,NB
2025-06-25 13:56:10.698,6.077784624298984e-06,-1.1169784715815358,1,NB
2025-06-25 13:56:10.706,4.387822571694984e-06,-1.1339462319891254,1,NB
2025-06-25 13:56:10.713,2.8130993391561497e-06,-1.1425369409623714,1,NB
2025-06-25 13:56:10.721,1.3571989125022295e-06,-1.1416946922294715,1,NB
2025-06-25 13:56:10.729,2.2629003978645467e-08,-1.130417034698256,1,NB
2025-06-25 13:56:10.737,-1.189249205591202e-06,-1.1077724379362073,1,NB
2025-06-25 13:56:10.745,-2.27835273876087e-06,-1.0729186049104786,1,NB
2025-06-25 13:56:10.752,-3.2460643071930866e-06,-1.025121420187699,1,NB
2025-06-25 13:56:10.760,-4.0954648735704445e-06,-0.9637742404631152,1,NB
2025-06-25 13:56:10.768,-4.831595827343708e-06,-0.8884171465821957,1,NB
2025-06-25 13:56:10.776,-5.461731234881639e-06,-0.7987556881835861,1,NB
2025-06-25 13:56:10.784,-5.995637411966548e-06,-0.6946785691820939,1,NB
2025-06-25 13:56:10.791,-6.445794909233731e-06,-0.5762736506003678,1,NB
2025-06-25 13:56:10.799,-6.827557056444996e-06,-0.4438415928027154,1,NB
2025-06-25 13:56:10.807,-7.159219596458274e-06,-0.2979064259557418,1,NB
2025-06-25 13:56:10.815,-7.461977724947752e-06,-0.1392223258278055,1,NB
2025-06-25 13:56:10.823,-7.759750056124479e-06,0.0312241201565268,1,NB
2025-06-25 13:56:10.831,-8.078853620815056e-06,0.2122168429586535,1,NB
2025-06-25 13:56:10.838,-8.447519875562974e-06,0.4023190436952359,1,NB
2025-06-25 13:56:10.846,-8.89524870443021e-06,0.5998882797048394,1,NB
2025-06-25 13:56:10.854,-9.452005314261311e-06,0.8030982115111887,1,NB
2025-06-25 13:56:10.862,-1.0147273488172296e-05,1.0099670693686753,1,NB
2025-06-25 13:56:10.870,-1.1008987548012451e-05,1.2183925571000678,1,NB
2025-06-25 13:56:10.877,-1.2062374216786e-05,1.4261925214985367,1,NB
2025-06-25 13:56:10.885,-1.3328743963205824e-05,1.6311503109230574,1,NB
2025-06-25 13:56:10.893,-1.4824278925246883e-05,1.8310633626653867,1,NB
2025-06-25 13:56:10.901,-1.6558870709738884e-05,2.023793230392048,1,NB
2025-06-25 13:56:10.909,-1.8535065817455196e-05,2.207315023202511,1,NB
2025-06-25 13:56:10.916,-2.074717873633632e-05,2.379764103977388,1,NB
2025-06-25 13:56:10.924,-2.318063250776748e-05,2.5394779042176547,1,NB
2025-06-25 13:56:10.932,-2.581158348904049e-05,2.685030860265212,1,NB
2025-06-25 13:56:10.940,-2.8606880873254503e-05,2.815260756181662,1,NB
2025-06-25 13:56:10.948,-3.15244021450475e-05,2.9292851613903976,1,NB
2025-06-25 13:56:10.956,-3.451379301741928e-05,3.0265071627434867,1,NB
2025-06-25 13:56:10.963,-3.75176246080916e-05,3.106610188826516,1,NB
2025-06-25 13:56:10.971,-4.04729619069974e-05,3.1695423733929085,1,NB
2025-06-25 13:56:10.979,-4.33133163376476e-05,3.2154915562892064,1,NB
2025-06-25 13:56:10.987,-4.597093194951069e-05,3.244852618642197,1,NB
2025-06-25 13:56:10.995,-4.837933016610118e-05,3.2581893401908006,1,NB
2025-06-25 13:56:11.002,-5.047601286069863e-05,3.2561933054062746,1,NB
2025-06-25 13:56:11.010,-5.220519876732348e-05,3.2396425412272443,1,NB
2025-06-25 13:56:11.018,-5.352044488948931e-05,3.2093625299301225,1,NB
2025-06-25 13:56:11.026,-5.438698374945534e-05,3.1661920104278254,1,NB
2025-06-25 13:56:11.034,-5.478359180044792e-05,3.110955580192175,1,NB
2025-06-25 13:56:11.041,-5.470380494246672e-05,3.0444445694632107,1,NB
2025-06-25 13:56:11.049,-5.415633555735792e-05,2.9674070185899915,1,NB
2025-06-25 13:56:11.057,-5.316463402241231e-05,2.88054689405311,1,NB
2025-06-25 13:56:11.065,-5.1765650825104485e-05,2.784531980402899,1,NB
2025-06-25 13:56:11.073,-5.000794403433408e-05,2.6800092367457085,1,NB
2025-06-25 13:56:11.081,-4.794931553267435e-05,2.5676258556663707,1,NB
2025-06-25 13:56:11.088,-4.56541602828845e-05,2.4480538492396584,1,NB
2025-06-25 13:56:11.096,-4.319069769658074e-05,2.3220157395071808,1,NB
2025-06-25 13:56:11.104,-4.062823371665899e-05,2.190308862655882,1,NB
2025-06-25 13:56:11.112,-3.8034579273433e-05,2.0538259015390867,1,NB
2025-06-25 13:56:11.120,-3.5473726412699846e-05,1.913569518669262,1,NB
2025-06-25 13:56:11.127,-3.300385863030913e-05,1.7706593446730434,1,NB
2025-06-25 13:56:11.135,-3.0675747687892204e-05,1.6263300634455695,1,NB
2025-06-25 13:56:11.143,-2.8531566211629695e-05,1.48191990691782,1,NB
2025-06-25 13:56:11.151,-2.6604124338255534e-05,1.3388495057608605,1,NB
2025-06-25 13:56:11.159,-2.491652007517677e-05,1.198591700815807,1,NB
2025-06-25 13:56:11.166,-2.34821772456983e-05,1.0626335564484948,1,NB
2025-06-25 13:56:11.174,-2.2305232116424823e-05,0.9324323834600264,1,NB
2025-06-25 13:56:11.182,-2.1381220140175936e-05,0.809368036716828,1,NB
2025-06-25 13:56:11.190,-2.069800766198808e-05,0.6946940758830611,1,NB
2025-06-25 13:56:11.198,-2.023690979022007e-05,0.5894905529343092,1,NB
2025-06-25 13:56:11.206,-1.9973934703024195e-05,0.4946212113040234,1,NB
2025-06-25 13:56:11.213,-1.988109614564407e-05,0.4106977460406573,1,NB
2025-06-25 13:56:11.221,-1.9927739427517104e-05,0.3380534815477622,1,NB
2025-06-25 13:56:11.229,-2.008183146798464e-05,0.2767283757956427,1,NB
2025-06-25 13:56:11.237,-2.031117196770458e-05,0.2264666683639732,1,NB
2025-06-25 13:56:11.245,-2.058449020207632e-05,0.1867277808177613,1,NB
2025-06-25 13:56:11.252,-2.087239986018515e-05,0.1567102961351883,1,NB
2025-06-25 13:56:11.260,-2.1148192431774293e-05,0.1353880464849461,1,NB
2025-06-25 13:56:11.268,-2.138845755595881e-05,0.1215565872210867,1,NB
2025-06-25 13:56:11.276,-2.157352621317112e-05,0.1138876886448706,1,NB
2025-06-25 13:56:11.284,-2.1687739439445662e-05,0.1109889876498977,1,NB
2025-06-25 13:56:11.291,-2.171955119439856e-05,0.1114656476196708,1,NB
2025-06-25 13:56:11.299,-2.166147899786632e-05,0.1139807968551332,1,NB
2025-06-25 13:56:11.307,-2.150991989228608e-05,0.1173116524369339,1,NB
2025-06-25 13:56:11.315,-2.1264852162896737e-05,0.1203985686439154,1,NB
2025-06-25 13:56:11.323,-2.0929445072726896e-05,0.1223847433055647,1,NB
2025-06-25 13:56:11.331,-2.0509599698133603e-05,0.1226449260426663,1,NB
2025-06-25 13:56:11.338,-2.001344386803859e-05,0.1208021444907218,1,NB
2025-06-25 13:56:11.346,-1.945080332451992e-05,0.1167321414890828,1,NB
2025-06-25 13:56:11.354,-1.8832669659578426e-05,0.1105558480631811,1,NB
2025-06-25 13:56:11.362,-1.817068347846356e-05,0.1026207679309884,1,NB
2025-06-25 13:56:11.370,-1.747664873353924e-05,0.0934725991298552,1,NB
2025-06-25 13:56:11.377,-1.6762091402019234e-05,0.0838187596435023,1,NB
2025-06-25 13:56:11.385,-1.6037872776779304e-05,0.0744857166578502,1,NB
2025-06-25 13:56:11.393,-1.5313864721493124e-05,0.06637214884652,1,NB
2025-06-25 13:56:11.401,-1.459869141475002e-05,0.0604000087798217,1,NB
2025-06-25 13:56:11.409,-1.389953946104158e-05,0.0574655110518722,1,NB
2025-06-25 13:56:11.416,-1.3222035849824895e-05,0.0583919602335279,1,NB
2025-06-25 13:56:11.424,-1.257019114886329e-05,0.0638861561678909,1,NB
2025-06-25 13:56:11.432,-1.194640355789008e-05,0.0744998794221099,1,NB
2025-06-25 13:56:11.440,-1.1351518039126638e-05,0.0905976816387205,1,NB
2025-06-25 13:56:11.448,-1.0784933682326236e-05,0.1123319049425155,1,NB
2025-06-25 13:56:11.456,-1.0244751740141304e-05,0.1396255527448529,1,NB
2025-06-25 13:56:11.463,-9.727956359810418e-06,0.172163349372749,1,NB
2025-06-25 13:56:11.471,-9.23061990592395e-06,0.2093910719143462,1,NB
2025-06-25 13:56:11.479,-8.748124876979381e-06,0.2505230228424624,1,NB
2025-06-25 13:56:11.487,-8.275394723024804e-06,0.2945573361357385,1,NB
2025-06-25 13:56:11.495,-7.807126329712983e-06,0.3402986629066716,1,NB
2025-06-25 13:56:11.502,-7.338017503986336e-06,0.3863876489823182,1,NB
2025-06-25 13:56:11.510,-6.862983440411441e-06,0.4313364806296254,1,NB
2025-06-25 13:56:11.518,-6.377356832054491e-06,0.4735696250825409,1,NB
2025-06-25 13:56:11.526,-5.877066989183215e-06,0.5114687271470637,1,NB
2025-06-25 13:56:11.534,-5.358794023383705e-06,0.5434204489761444,1,NB
2025-06-25 13:56:11.541,-4.820094831428484e-06,0.5678658731508466,1,NB
2025-06-25 13:56:11.549,-4.259498266874513e-06,0.5833499494687513,1,NB
2025-06-25 13:56:11.557,-3.676567518623692e-06,0.5885693700358168,1,NB
2025-06-25 13:56:11.565,-3.07192833052147e-06,0.5824172152173142,1,NB
2025-06-25 13:56:11.573,-2.4472623044336363e-06,0.5640227303577248,1,NB
2025-06-25 13:56:11.581,-1.8052651434826277e-06,0.5327846765132478,1,NB
2025-06-25 13:56:11.588,-1.1495703253472547e-06,0.4883968561524854,1,NB
2025-06-25 13:56:11.596,-4.846393598564474e-07,0.4308646510628343,1,NB
2025-06-25 13:56:11.604,1.843795100170727e-07,0.360511717267038,1,NB
2025-06-25 13:56:11.612,8.518215540408974e-07,0.2779763415834919,1,NB
2025-06-25 13:56:11.620,1.511701341830266e-06,0.1841973534768161,1,NB
2025-06-25 13:56:11.627,2.157929831397493e-06,0.0803898845198494,1,NB
2025-06-25 13:56:11.635,2.784547661582816e-06,-0.0319883390459143,1,NB
2025-06-25 13:56:11.643,3.38596869164624e-06,-0.1512791114898796,1,NB
2025-06-25 13:56:11.651,3.9572270006230585e-06,-0.2756728705309909,1,NB
2025-06-25 13:56:11.659,4.494219793686506e-06,-0.4032631309043515,1,NB
2025-06-25 13:56:11.666,4.993938005425935e-06,-0.5321042868252179,1,NB
2025-06-25 13:56:11.674,5.454675887647705e-06,-0.6602706596753185,1,NB
2025-06-25 13:56:11.682,5.8762105713521405e-06,-0.7859145595463016,1,NB
2025-06-25 13:56:11.690,6.2599425481755024e-06,-0.9073211051484288,1,NB
2025-06-25 13:56:11.698,6.608988272308226e-06,-1.022957609907274,1,NB
2025-06-25 13:56:11.706,6.928216680586491e-06,-1.1315154919530004,1,NB
2025-06-25 13:56:11.713,7.224222398393886e-06,-1.2319428999009585,1,NB
2025-06-25 13:56:11.721,7.505229762978962e-06,-1.3234665643620742,1,NB
2025-06-25 13:56:11.729,7.780923560299133e-06,-1.4056017887850774,1,NB
2025-06-25 13:56:11.737,8.062204526342414e-06,-1.4781499834183969,1,NB
2025-06-25 13:56:11.745,8.360870180177357e-06,-1.5411837175903045,1,NB
2025-06-25 13:56:11.752,8.689224384809806e-06,-1.5950199017244195,1,NB
2025-06-25 13:56:11.760,9.059622103667431e-06,-1.6401823808535616,1,NB
2025-06-25 13:56:11.768,9.483959045097276e-06,-1.677355880380028,1,NB
2025-06-25 13:56:11.776,9.973119155228023e-06,-1.7073338365960882,1,NB
2025-06-25 13:56:11.784,1.0536396104321356e-05,-1.7309631124226528,1,NB
2025-06-25 13:56:11.791,1.1180907872723217e-05,-1.7490888950593049,1,NB
2025-06-25 13:56:11.799,1.191102612934034e-05,-1.762503161930802,1,NB
2025-06-25 13:56:11.807,1.2727844153194524e-05,-1.7718999634790398,1,NB
2025-06-25 13:56:11.815,1.3628708423437314e-05,-1.7778404009494275,1,NB
2025-06-25 13:56:11.823,1.4606839549786652e-05,-1.7807295894868518,1,NB
2025-06-25 13:56:11.831,1.565106780365242e-05,-1.780807128786717,1,NB
2025-06-25 13:56:11.838,1.6745707033220023e-05,-1.778151710864864,1,NB
2025-06-25 13:56:11.846,1.7870588126992402e-05,-1.772699544180881,1,NB
2025-06-25 13:56:11.854,1.9001269391102907e-05,-1.7642753366884878,1,NB
2025-06-25 13:56:11.862,2.0109436231892125e-05,-1.7526337266115537,1,NB
2025-06-25 13:56:11.870,2.1163496442626063e-05,-1.7375083389539927,1,NB
2025-06-25 13:56:11.877,2.212937029196128e-05,-1.7186651222355342,1,NB
2025-06-25 13:56:11.885,2.29714666688356e-05,-1.6959563081345854,1,NB
2025-06-25 13:56:11.893,2.365382797827836e-05,-1.669371241571766,1,NB
2025-06-25 13:56:11.901,2.414141758522563e-05,-1.6390804415401314,1,NB
2025-06-25 13:56:11.909,2.440151470019853e-05,-1.6054695604161362,1,NB
2025-06-25 13:56:11.916,2.4405173067510543e-05,-1.5691604002397326,1,NB
2025-06-25 13:56:11.924,2.412869206419804e-05,-1.5310168078228037,1,NB
2025-06-25 13:56:11.932,2.355504227936669e-05,-1.492134089242868,1,NB
2025-06-25 13:56:11.940,2.267518276017781e-05,-1.4538115277166193,1,NB
2025-06-25 13:56:11.948,2.1489204314197665e-05,-1.4175086105466337,1,NB
2025-06-25 13:56:11.956,2.000723295237532e-05,-1.384786609929051,1,NB
2025-06-25 13:56:11.963,1.825003009874048e-05,-1.3572381494730066,1,NB
2025-06-25 13:56:11.971,1.624923186983998e-05,-1.3364082546168012,1,NB
2025-06-25 13:56:11.979,1.404717873791755e-05,-1.3237110708860431,1,NB
2025-06-25 13:56:11.987,1.1696299327526267e-05,-1.3203468911920089,1,NB
2025-06-25 13:56:11.995,9.258027920383196e-06,-1.3272243260518426,1,NB
2025-06-25 13:56:12.002,6.801254281886515e-06,-1.344892356042845,1,NB
2025-06-25 13:56:12.010,4.400326347130653e-06,-1.3734866184238737,1,NB
2025-06-25 13:56:12.018,2.132650628597626e-06,-1.4126936138138413,1,NB
2025-06-25 13:56:12.026,7.596128685275352e-08,-1.461735607332063,1,NB
2025-06-25 13:56:12.034,-1.6946441598084392e-06,-1.5193778913845362,1,NB
2025-06-25 13:56:12.041,-3.1097774626952574e-06,-1.583958837751536,1,NB
2025-06-25 13:56:12.049,-4.108789587496632e-06,-1.6534418692049029,1,NB
2025-06-25 13:56:12.057,-4.642583179113785e-06,-1.725487207004907,1,NB
2025-06-25 13:56:12.065,-4.676014045720655e-06,-1.7975400828390022,1,NB
2025-06-25 13:56:12.073,-4.189685476378595e-06,-1.8669311187690745,1,NB
2025-06-25 13:56:12.081,-3.1809743850485785e-06,-1.9309838414580376,1,NB
2025-06-25 13:56:12.088,-1.6642136713419343e-06,-1.9871238567481109,1,NB
2025-06-25 13:56:12.096,3.299344863167988e-07,-2.032984099041563,1,NB
2025-06-25 13:56:12.104,2.7557934208721557e-06,-2.06650079756283,1,NB
2025-06-25 13:56:12.112,5.554516939428732e-06,-2.085995355739728,1,NB
2025-06-25 13:56:12.120,8.656306597916466e-06,-2.090238184483228,1,NB
2025-06-25 13:56:12.127,1.1982858597877074e-05,-2.07849160761181,1,NB
2025-06-25 13:56:12.135,1.544991695654339e-05,-2.0505301919291647,1,NB
2025-06-25 13:56:12.143,1.8969830258494728e-05,-2.006638155190707,1,NB
2025-06-25 13:56:12.151,2.245403012496536e-05,-1.9475847770037344,1,NB
2025-06-25 13:56:12.159,2.581536951222073e-05,-1.8745798926946429,1,NB
2025-06-25 13:56:12.166,2.897027720479251e-05,-1.7892125178941354,1,NB
2025-06-25 13:56:12.174,3.1840700713699365e-05,-1.693376382811654,1,NB
2025-06-25 13:56:12.182,3.4355822731264334e-05,-1.5891866215924204,1,NB
2025-06-25 13:56:12.190,3.6453546044927805e-05,-1.478892055306516,1,NB
2025-06-25 13:56:12.198,3.808174829027674e-05,-1.3647874366715036,1,NB
2025-06-25 13:56:12.206,3.91993112444631e-05,-1.2491297152889926,1,NB
2025-06-25 13:56:12.213,3.9776929825211794e-05,-1.1340618705851295,1,NB
2025-06-25 13:56:12.221,3.979770403034914e-05,-1.0215471920936403,1,NB
2025-06-25 13:56:12.229,3.925751332656939e-05,-0.9133161171790004,1,NB
2025-06-25 13:56:12.237,3.816516817629035e-05,-0.8108269229796502,1,NB
2025-06-25 13:56:12.245,3.654232824863898e-05,-0.715240768964683,1,NB
2025-06-25 13:56:12.252,3.4423172195899696e-05,-0.6274108471080677,1,NB
2025-06-25 13:56:12.260,3.185380048213793e-05,-0.5478847529732777,1,NB
2025-06-25 13:56:12.268,2.889135136966646e-05,-0.4769186647185076,1,NB
2025-06-25 13:56:12.276,2.560281145835882e-05,-0.4145015201594941,1,NB
2025-06-25 13:56:12.284,2.206350666701464e-05,-0.3603871176913579,1,NB
2025-06-25 13:56:12.291,1.8355267625339542e-05,-0.3141319278315837,1,NB
2025-06-25 13:56:12.299,1.456427530882003e-05,-0.2751363723096396,1,NB
2025-06-25 13:56:12.307,1.0778608394093374e-05,-0.2426873891096634,1,NB
2025-06-25 13:56:12.315,7.08553302073248e-06,-0.2160002416604699,1,NB
2025-06-25 13:56:12.323,3.568597976127512e-06,-0.1942577395248316,1,NB
2025-06-25 13:56:12.331,3.046231130798949e-07,-0.1766453051704243,1,NB
2025-06-25 13:56:12.338,-2.639304804182566e-06,-0.1623806297479107,1,NB
2025-06-25 13:56:12.346,-5.208687708579464e-06,-0.1507369915712786,1,NB
2025-06-25 13:56:12.354,-7.364155938393314e-06,-0.1410596500104117,1,NB
2025-06-25 13:56:12.362,-9.083502102946264e-06,-0.1327750674512499,1,NB
2025-06-25 13:56:12.370,-1.0363011333226813e-05,-0.1253930500929209,1,NB
2025-06-25 13:56:12.377,-1.1217919122822124e-05,-0.1185022320313176,1,NB
2025-06-25 13:56:12.385,-1.1681906349900888e-05,-0.111759649522386,1,NB
2025-06-25 13:56:12.393,-1.1805643845839077e-05,-0.1048754496420647,1,NB
2025-06-25 13:56:12.401,-1.16544773503751e-05,-0.0975940292087143,1,NB
2025-06-25 13:56:12.409,-1.1305372890014467e-05,-0.0896730827920074,1,NB
2025-06-25 13:56:12.416,-1.084323684126123e-05,-0.0808621335892139,1,NB
2025-06-25 13:56:12.424,-1.0356716047314624e-05,-0.0708821181569128,1,NB
2025-06-25 13:56:12.432,-9.93360320543791e-06,-0.0594074983818463,1,NB
2025-06-25 13:56:12.440,-9.656035657220398e-06,-0.0460521953088432,1,NB
2025-06-25 13:56:12.448,-9.59575676429019e-06,-0.0303603981932884,1,NB
2025-06-25 13:56:12.456,-9.809759638953544e-06,-0.0118030176596319,1,NB
2025-06-25 13:56:12.463,-1.0336628266523167e-05,0.0102197577170539,1,NB
2025-06-25 13:56:12.471,-1.1193843864886334e-05,0.0363696615730281,1,NB
2025-06-25 13:56:12.479,-1.23762571218967e-05,0.0673554861806385,1,NB
2025-06-25 13:56:12.487,-1.3855851395433267e-05,0.1039126468397297,1,NB
2025-06-25 13:56:12.495,-1.5582841771350135e-05,0.1467779605602643,1,NB
2025-06-25 13:56:12.502,-1.7488072236216916e-05,0.1966606850951788,1,NB
2025-06-25 13:56:12.510,-1.9486590393732224e-05,0.2542110695187441,1,NB
2025-06-25 13:56:12.518,-2.148219844812225e-05,0.3199878046495925,1,NB
2025-06-25 13:56:12.526,-2.3372704561390457e-05,0.3944258276041218,1,NB
2025-06-25 13:56:12.534,-2.5055542191337773e-05,0.4778059336743898,1,NB
2025-06-25 13:56:12.541,-2.6433409545490537e-05,0.5702275868541462,1,NB
2025-06-25 13:56:12.549,-2.7419620257365976e-05,0.6715862051662144,1,NB
2025-06-25 13:56:12.557,-2.7942925571383596e-05,0.781556038426965,1,NB
2025-06-25 13:56:12.565,-2.795161978047476e-05,0.8995795656446718,1,NB
2025-06-25 13:56:12.573,-2.7416751780289357e-05,1.02486412627934,1,NB
2025-06-25 13:56:12.581,-2.6334259456957976e-05,1.1563862698029783,1,NB
2025-06-25 13:56:12.588,-2.472586364436169e-05,1.2929040651676795,1,NB
2025-06-25 13:56:12.596,-2.263862760175868e-05,1.432977359918855,1,NB
2025-06-25 13:56:12.604,-2.0143183666439798e-05,1.5749957225419144,1,NB
2025-06-25 13:56:12.612,-1.7330704464504433e-05,1.7172135463017666,1,NB
2025-06-25 13:56:12.620,-1.4308737014957343e-05,1.857791543434194,1,NB
2025-06-25 13:56:12.627,-1.119605788089484e-05,1.9948436198183288,1,NB
2025-06-25 13:56:12.635,-8.116779766015282e-06,2.12648789557097,1,NB
2025-06-25 13:56:12.643,-5.194029580333491e-06,2.250900427585399,1,NB
2025-06-25 13:56:12.651,-2.543578155437686e-06,2.3663699963694413,1,NB
2025-06-25 13:56:12.659,-2.678076462108666e-07,2.4713521448171965,1,NB
2025-06-25 13:56:12.667,1.5496330133071523e-06,2.5645205094359977,1,NB
2025-06-25 13:56:12.674,2.8481891920427877e-06,2.644813379010169,1,NB
2025-06-25 13:56:12.682,3.5935456974399168e-06,2.7114733690556245,1,NB
2025-06-25 13:56:12.690,3.779391110077445e-06,2.764078132355392,1,NB
2025-06-25 13:56:12.698,3.4277071907263717e-06,2.8025601586516182,1,NB
2025-06-25 13:56:12.706,2.587561475543497e-06,2.8272139740507862,1,NB
2025-06-25 13:56:12.713,1.3324533744023697e-06,2.838689452277748,1,NB
2025-06-25 13:56:12.721,-2.436652927380951e-07,2.8379705006796416,1,NB
2025-06-25 13:56:12.729,-2.0315068662359475e-06,2.826339067354997,1,NB
2025-06-25 13:56:12.737,-3.912450155893128e-06,2.805325193551109,1,NB
2025-06-25 13:56:12.745,-5.765120311257212e-06,2.776644651906912,1,NB
2025-06-25 13:56:12.752,-7.4721888486901984e-06,2.742126500766249,1,NB
2025-06-25 13:56:12.760,-8.92699786277466e-06,2.703633581871703,1,NB
2025-06-25 13:56:12.768,-1.003959562822711e-05,2.662979536957788,1,NB
2025-06-25 13:56:12.776,-1.074179765225864e-05,2.6218462777497598,1,NB
2025-06-25 13:56:12.784,-1.0990970158046416e-05,2.5817059900503643,1,NB
2025-06-25 13:56:12.792,-1.0772346672579344e-05,2.5437516750741107,1,NB
2025-06-25 13:56:12.799,-1.009978545554004e-05,2.5088399276311986,1,NB
2025-06-25 13:56:12.807,-9.014940257360797e-06,2.4774491284869087,1,NB
2025-06-25 13:56:12.815,-7.58488217131233e-06,2.4496555097205883,1,NB
2025-06-25 13:56:12.823,-5.898308990310835e-06,2.425128676902337,1,NB
2025-06-25 13:56:12.831,-4.060594830246862e-06,2.4031471911445417,1,NB
2025-06-25 13:56:12.838,-2.1880194646690785e-06,2.382633780636478,1,NB
2025-06-25 13:56:12.846,-4.015485665058903e-07,2.362208717697741,1,NB
2025-06-25 13:56:12.854,1.1794747100208356e-06,2.340258918378657,1,NB
2025-06-25 13:56:12.862,2.443397707039719e-06,2.3150194546306517,1,NB
2025-06-25 13:56:12.870,3.291797522999176e-06,2.284663469638835,1,NB
2025-06-25 13:56:12.877,3.6442505538208754e-06,2.2473960027394337,1,NB
2025-06-25 13:56:12.885,3.4421436439842244e-06,2.2015469973879767,1,NB
2025-06-25 13:56:12.893,2.6513941931134047e-06,2.145658805720261,1,NB
2025-06-25 13:56:12.901,1.264004944107028e-06,2.0785638205689576,1,NB
2025-06-25 13:56:12.909,-7.015613531453299e-07,1.999448442186057,1,NB
2025-06-25 13:56:12.917,-3.2011428844346853e-06,1.907900379691006,1,NB
2025-06-25 13:56:12.924,-6.166672816594268e-06,1.803937233792525,1,NB
2025-06-25 13:56:12.932,-9.50885008646952e-06,1.6880153354569487,1,NB
2025-06-25 13:56:12.940,-1.3120491683684749e-05,1.5610188550372917,1,NB
2025-06-25 13:56:12.948,-1.6880368994273865e-05,1.4242301889455984,1,NB
