Timestamp,GSR_Filtered,PPG_Filtered
2025-06-03 15:30:36.402,5.14391642525673e-05,8.995800077005411
2025-06-03 15:30:36.410,3.9892789689269546e-05,8.644080613604315
2025-06-03 15:30:36.418,2.890492933085008e-05,8.296914991451066
2025-06-03 15:30:36.425,1.8648737875507065e-05,7.955811717035054
2025-06-03 15:30:36.433,9.256269647826372e-06,7.621992801604948
2025-06-03 15:30:36.441,8.134500925338746e-07,7.2963655787444575
2025-06-03 15:30:36.449,-6.64278696036487e-06,6.979506311185763
2025-06-03 15:30:36.457,-1.312498506327734e-05,6.6716556548048125
2025-06-03 15:30:36.464,-1.8693204409687763e-05,6.3727255471879865
2025-06-03 15:30:36.472,-2.345066884348554e-05,6.082316631211018
2025-06-03 15:30:36.480,-2.753717650291064e-05,5.799744942723093
2025-06-03 15:30:36.488,-3.112053521588118e-05,5.5240763112047455
2025-06-03 15:30:36.496,-3.438639861018101e-05,5.254166754728338
2025-06-03 15:30:36.503,-3.752698599485181e-05,4.988707091659479
2025-06-03 15:30:36.511,-4.072925751687407e-05,4.726270025887469
2025-06-03 15:30:36.519,-4.416317371058224e-05,4.465358067056118
2025-06-03 15:30:36.527,-4.797067089677429e-05,4.204450793744015
2025-06-03 15:30:36.535,-5.225592770907145e-05,3.942050126776436
2025-06-03 15:30:36.543,-5.707742090904631e-05,3.67672243223765
2025-06-03 15:30:36.550,-6.244220691492127e-05,3.407136416451157
2025-06-03 15:30:36.558,-6.830280726494162e-05,3.132095919233568
2025-06-03 15:30:36.566,-7.455697997770666e-05,2.8505668706081515
2025-06-03 15:30:36.574,-8.105051337711609e-05,2.561697855573072
2025-06-03 15:30:36.582,-8.758302226684554e-05,2.26483392769417
2025-06-03 15:30:36.589,-9.391659662354534e-05,1.9595235175203047
2025-06-03 15:30:36.597,-9.978704036164248e-05,1.645518489755868
2025-06-03 15:30:36.605,-0.0001049173009835,1.3227676093022671
2025-06-03 15:30:36.613,-0.0001090325112598,0.9914038761562493
2025-06-03 15:30:36.621,-0.0001118758622168,0.651726378307113
2025-06-03 15:30:36.628,-0.0001132243427133,0.3041774874604505
2025-06-03 15:30:36.636,-0.0001129032645696,-0.0506836174074243
2025-06-03 15:30:36.644,-0.0001107984963382,-0.4122099726477436
2025-06-03 15:30:36.652,-0.000106865477795,-0.7796971558145075
2025-06-03 15:30:36.660,-0.0001011343550045,-1.1524135840130405
2025-06-03 15:30:36.668,-9.371090785054246e-05,-1.5296294011165568
2025-06-03 15:30:36.675,-8.477328485827149e-05,-1.9106425643571616
2025-06-03 15:30:36.683,-7.456486202405343e-05,-2.2948008002768505
2025-06-03 15:30:36.691,-6.338375775890802e-05,-2.681518244709912
2025-06-03 15:30:36.699,-5.156966006753862e-05,-3.0702858243118643
2025-06-03 15:30:36.707,-3.9488698542562646e-05,-3.460674779057145
2025-06-03 15:30:36.714,-2.751716616007676e-05,-3.852333154360094
2025-06-03 15:30:36.722,-1.6024963299953058e-05,-4.244975583220793
2025-06-03 15:30:36.730,-5.359663260323121e-06,-4.63836719287974
2025-06-03 15:30:36.738,4.167946788646178e-06,-5.032302952556066
2025-06-03 15:30:36.746,1.2296113246272029e-05,-5.4265841702724655
2025-06-03 15:30:36.753,1.882157980791792e-05,-5.820994099076666
2025-06-03 15:30:36.761,2.360587839195628e-05,-6.215274697958744
2025-06-03 15:30:36.769,2.657824571800841e-05,-6.609106503180851
2025-06-03 15:30:36.777,2.773514997125689e-05,-7.002093310542056
2025-06-03 15:30:36.785,2.713659233753944e-05,-7.393752970828215
2025-06-03 15:30:36.793,2.4899519177738984e-05,-7.783515096335424
2025-06-03 15:30:36.800,2.1188837204208748e-05,-8.419012994236354
2025-06-03 15:30:36.808,1.620665345359894e-05,-9.061658822763452
2025-06-03 15:30:36.816,1.0180440713717276e-05,-9.71028331936853
2025-06-03 15:30:36.824,3.350842011509581e-06,-10.36350165864132
2025-06-03 15:30:36.832,-4.040210823905972e-06,-11.019756239980188
2025-06-03 15:30:36.839,-1.1760452425042818e-05,-11.67736926749858
2025-06-03 15:30:36.847,-1.959677676834764e-05,-12.334602102956255
2025-06-03 15:30:36.855,-2.7362817158310717e-05,-12.989718080966307
2025-06-03 15:30:36.863,-3.490425362822174e-05,-13.64104538188174
2025-06-03 15:30:36.871,-4.2101592645581904e-05,-14.287036650285364
2025-06-03 15:30:36.878,-4.887030214874183e-05,-14.926322311893903
2025-06-03 15:30:36.886,-5.5158364056611046e-05,-15.557754959164397
2025-06-03 15:30:36.894,-6.094150807483954e-05,-16.180442715906846
2025-06-03 15:30:36.902,-6.621657611687554e-05,-16.793770116771096
2025-06-03 15:30:36.910,-7.099359778222727e-05,-17.39740571410831
2025-06-03 15:30:36.918,-7.528721899531885e-05,-17.991296325144443
2025-06-03 15:30:36.925,-7.91081379870931e-05,-18.575648531295247
2025-06-03 15:30:36.933,-8.245520791682443e-05,-19.15089870709321
2025-06-03 15:30:36.941,-8.530887845098394e-05,-19.717673449332764
2025-06-03 15:30:36.949,-8.762662354729361e-05,-20.27674275827424
2025-06-03 15:30:36.957,-8.934088165773588e-05,-20.82896866123872
2025-06-03 15:30:36.964,-9.035981353550636e-05,-21.375252145799053
2025-06-03 15:30:36.972,-9.057090538026244e-05,-21.91648127695123
2025-06-03 15:30:36.980,-8.984716175553821e-05,-22.453483211989283
2025-06-03 15:30:36.988,-8.805538791112158e-05,-22.986982510920683
2025-06-03 15:30:36.996,-8.506588975050148e-05,-23.51756769167681
2025-06-03 15:30:37.003,-8.076283617930039e-05,-24.045667426421414
2025-06-03 15:30:37.011,-7.505452653982973e-05,-24.5715371484598
2025-06-03 15:30:37.019,-6.788286478332265e-05,-25.095256172326632
2025-06-03 15:30:37.027,-5.92314363252133e-05,-25.616734763178737
2025-06-03 15:30:37.035,-4.913169963891836e-05,-26.13572997241535
2025-06-03 15:30:37.043,-3.766693997604404e-05,-26.651868529648088
2025-06-03 15:30:37.050,-2.4973774375886195e-05,-27.16467468161419
2025-06-03 15:30:37.058,-1.1241127648557436e-05,-27.67360061791668
2025-06-03 15:30:37.066,3.293282617741907e-06,-28.17805703084072
2025-06-03 15:30:37.074,1.834879683404886e-05,-28.67744141887788
2025-06-03 15:30:37.082,3.360972453756861e-05,-29.171161944483416
2025-06-03 15:30:37.089,4.873492777421689e-05,-29.65865496891205
2025-06-03 15:30:37.097,6.336860895434903e-05,-30.1393947816842
2025-06-03 15:30:37.105,7.715181321897954e-05,-30.61289449665117
2025-06-03 15:30:37.113,8.973419070629806e-05,-31.078697585439485
2025-06-03 15:30:37.121,0.0001007856325352,-31.536360048740747
2025-06-03 15:30:37.128,0.0001100074689804,-31.985423769767586
2025-06-03 15:30:37.136,0.0001171429775118,-32.42538213215584
2025-06-03 15:30:37.144,0.0001219869682673,-32.855639494830726
2025-06-03 15:30:37.152,0.000124394183033,-33.275466574739404
2025-06-03 15:30:37.160,0.0001242861870287,-33.68395416761128
2025-06-03 15:30:37.168,0.0001216564009922,-34.07996791004445
2025-06-03 15:30:37.175,0.0001165729410633,-34.46210693316999
2025-06-03 15:30:37.183,0.0001091789951409,-34.82866926888142
2025-06-03 15:30:37.191,9.969054653444798e-05,-35.17762674098051
2025-06-03 15:30:37.199,8.839134938958061e-05,-35.50661180468612
2025-06-03 15:30:37.207,7.562516378658662e-05,-35.812918388685375
2025-06-03 15:30:37.214,6.178537101033818e-05,-36.093518246735584
2025-06-03 15:30:37.222,4.7302210161104376e-05,-36.345093648231845
2025-06-03 15:30:37.230,3.262800426325921e-05,-36.5640864433641
2025-06-03 15:30:37.238,1.8220873285628925e-05,-36.74676265238614
2025-06-03 15:30:37.246,4.527550199845187e-06,-36.88929078864208
2025-06-03 15:30:37.253,-8.034000043672099e-06,-36.98783118692448
2025-06-03 15:30:37.261,-1.9091425574390944e-05,-37.038632740042935
2025-06-03 15:30:37.269,-2.8333561327566573e-05,-37.03813271633862
2025-06-03 15:30:37.277,-3.552399143344002e-05,-36.983054800957866
2025-06-03 15:30:37.285,-4.051186491184213e-05,-36.87050022346276
2025-06-03 15:30:37.293,-4.323930235554285e-05,-36.69802683776416
2025-06-03 15:30:37.300,-4.374490703636739e-05,-36.46371132127803
2025-06-03 15:30:37.308,-4.216313485383343e-05,-36.16619025055798
2025-06-03 15:30:37.316,-3.8719519712061486e-05,-35.80467666698801
2025-06-03 15:30:37.324,-3.372196773056972e-05,-35.37894984166895
2025-06-03 15:30:37.332,-2.7548524011407668e-05,-34.88931726055831
2025-06-03 15:30:37.339,-2.063216292059241e-05,-34.33654935689251
2025-06-03 15:30:37.347,-1.344324984761871e-05,-33.72178918699526
2025-06-03 15:30:37.355,-6.470404094464948e-06,-33.04644103209765
2025-06-03 15:30:37.363,-2.005839865426969e-07,-32.31204375071623
2025-06-03 15:30:37.371,4.900723006520137e-06,-31.520136519875464
2025-06-03 15:30:37.378,8.408347463984344e-06,-30.67212626807652
2025-06-03 15:30:37.386,9.95457438648068e-06,-29.769167439389182
2025-06-03 15:30:37.394,9.243956097318236e-06,-28.8120654946588
2025-06-03 15:30:37.402,6.065301497729716e-06,-27.801215480920582
2025-06-03 15:30:37.410,3.004307884100636e-07,-26.73658585130713
2025-06-03 15:30:37.418,-8.070626650038627e-06,-25.617755379415517
2025-06-03 15:30:37.425,-1.8968215654063077e-05,-24.444007537928783
2025-06-03 15:30:37.433,-3.22155272371214e-05,-23.214482333845076
2025-06-03 15:30:37.441,-4.75449059009014e-05,-21.92838069075285
2025-06-03 15:30:37.449,-6.460772584411322e-05,-20.58521150613584
2025-06-03 15:30:37.457,-8.298733220990239e-05,-19.18506697040666
2025-06-03 15:30:37.464,-0.0001022143313145,-17.728908058824988
2025-06-03 15:30:37.472,-0.0001217833659503,-16.2188396673259
2025-06-03 15:30:37.480,-0.0001411704428862,-14.65835392519962
2025-06-03 15:30:37.488,-0.0001598498904713,-13.052520920401989
2025-06-03 15:30:37.496,-0.0001773101133946,-11.40810841185924
2025-06-03 15:30:37.503,-0.0001930674658946,-9.733615930854382
2025-06-03 15:30:37.511,-0.0002066777544556,-8.039213724308885
2025-06-03 15:30:37.519,-0.0002177450777658,-6.336582908567127
2025-06-03 15:30:37.527,-0.0002259279003692,-4.638659555787716
2025-06-03 15:30:37.535,-0.0002309424309981,-2.959291751695405
2025-06-03 15:30:37.543,-0.0002325635336252,-1.3128244571904717
2025-06-03 15:30:37.550,-0.0002306235347977,0.28636816918796
2025-06-03 15:30:37.558,-0.0002250093936756,1.8243798308421333
2025-06-03 15:30:37.566,-0.0002156587502062,3.288273432036437
2025-06-03 15:30:37.574,-0.0002025553510533,4.666561296326885
2025-06-03 15:30:37.582,-0.0001857242978425,5.949640181760255
2025-06-03 15:30:37.589,-0.0001652275095696,7.130159798736995
2025-06-03 15:30:37.597,-0.0001411597477915,8.203307560345266
2025-06-03 15:30:37.605,-0.0001136454983906,9.166997226574455
2025-06-03 15:30:37.613,-8.283694241422397e-05,10.02195454113446
2025-06-03 15:30:37.621,-4.891321028642889e-05,10.771698479787135
2025-06-03 15:30:37.628,-1.2081091191545134e-05,11.422421950081148
2025-06-03 15:30:37.636,2.742269273945812e-05,11.982780398059468
2025-06-03 15:30:37.644,6.932767904661785e-05,12.463600568748614
2025-06-03 15:30:37.652,0.0001133245558764,12.877524501722478
2025-06-03 15:30:37.660,0.0001590591878519,13.23860566677255
2025-06-03 15:30:37.668,0.0002061263815878,13.56187496978962
2025-06-03 15:30:37.675,0.0002540641070445,13.862894254428188
2025-06-03 15:30:37.683,0.0003023489381485,14.157314010625514
2025-06-03 15:30:37.691,0.0003503934555544,14.460450435471673
2025-06-03 15:30:37.699,0.0003975462651801,14.78689495284926
2025-06-03 15:30:37.707,0.0004430951316833,15.150166958840302
2025-06-03 15:30:37.714,0.0004862735222606,15.56241807429812
2025-06-03 15:30:37.722,0.0005262706422933,16.034193685335683
2025-06-03 15:30:37.730,0.0005622448734777,16.57425514306741
2025-06-03 15:30:37.738,0.0005933404262956,17.189463752357664
2025-06-03 15:30:37.746,0.0006187069734592,17.884725650581032
2025-06-03 15:30:37.753,0.0006375219950023,18.66299488259909
2025-06-03 15:30:37.761,0.0006490155000827,19.52533042731386
2025-06-03 15:30:37.769,0.0006524966665379,20.471001630566864
2025-06-03 15:30:37.777,0.0006473817410955,21.497635451127834
2025-06-03 15:30:37.785,0.0006332222850521,22.601398128857536
2025-06-03 15:30:37.793,0.0006097325807212,23.777203334135784
2025-06-03 15:30:37.800,0.000576814796078,25.0189385564423
2025-06-03 15:30:37.808,0.0005345803879706,26.31970144150429
2025-06-03 15:30:37.816,0.0004833662234623,27.6720379920593
2025-06-03 15:30:37.824,0.0004237440018448,29.068175001456897
2025-06-03 15:30:37.832,0.0003565217509475,30.50023977875614
2025-06-03 15:30:37.839,0.0002827364451142,31.960461127329108
2025-06-03 15:30:37.847,0.0002036371484223,33.44134662320809
2025-06-03 15:30:37.855,0.0001206585235835,34.93583245574828
2025-06-03 15:30:37.863,3.5385057502575964e-05,36.43740337973863
2025-06-03 15:30:37.871,-5.0493081795434506e-05,37.94018161949794
2025-06-03 15:30:37.878,-0.0001352310702373,39.4389848011914
2025-06-03 15:30:37.886,-0.0002170853297555,40.92935411539134
2025-06-03 15:30:37.894,-0.0002943718862602,42.4075548791961
2025-06-03 15:30:37.902,-0.0003655244717249,43.8705524364031
2025-06-03 15:30:37.910,-0.0004291495058739,45.31596688087957
2025-06-03 15:30:37.918,-0.0004840750902325,46.74201040609536
2025-06-03 15:30:37.925,-0.0005293913117682,48.14741118223511
2025-06-03 15:30:37.933,-0.0005644795278311,49.53132756294928
2025-06-03 15:30:37.941,-0.0005890289404367,50.89325615979118
2025-06-03 15:30:37.949,-0.0006030396448405,52.23293693962663
2025-06-03 15:30:37.957,-0.0006068123102981,53.55025805505937
2025-06-03 15:30:37.964,-0.000600925528638,54.84516266884111
2025-06-03 15:30:37.972,-0.0005862025395711,56.11755963183791
2025-06-03 15:30:37.980,-0.0005636695112717,57.367239557855285
2025-06-03 15:30:37.988,-0.0005345078494861,58.593797626194366
2025-06-03 15:30:37.996,-0.0005000031265306,59.79656433106028
2025-06-03 15:30:38.003,-0.0004614931597099,60.974545362078736
2025-06-03 15:30:38.011,-0.0004203175625496,62.126371805636
2025-06-03 15:30:38.019,-0.0003777708018257,63.25026186442398
2025-06-03 15:30:38.027,-0.0003350604650174,64.34399527098635
2025-06-03 15:30:38.035,-0.0002932720927756,65.40490149688567
2025-06-03 15:30:38.043,-0.0002533415531427,66.42986271336923
2025-06-03 15:30:38.050,-0.0002160355281943,67.41533222316784
2025-06-03 15:30:38.058,-0.0001819402827594,68.35736873618544
2025-06-03 15:30:38.066,-0.0001514585353653,69.25168638463087
2025-06-03 15:30:38.074,-0.0001248139612929,70.09371974954291
2025-06-03 15:30:38.082,-0.0001020625940438,70.87870239533794
2025-06-03 15:30:38.089,-8.31101289104506e-05,71.60175650067946
2025-06-03 15:30:38.097,-6.773387589849574e-05,72.2579901901173
2025-06-03 15:30:38.105,-5.560789360428975e-05,72.84259821393084
2025-06-03 15:30:38.113,-4.632971884266307e-05,73.35096083256721
2025-06-03 15:30:38.121,-3.9447135733642015e-05,73.77873529463605
2025-06-03 15:30:38.128,-3.448359761058651e-05,74.1219343085816
2025-06-03 15:30:38.136,-3.096118029070054e-05,74.37698652724369
2025-06-03 15:30:38.144,-2.8420261292065877e-05,74.54077536686741
2025-06-03 15:30:38.152,-2.643545218453172e-05,74.61065445577529
2025-06-03 15:30:38.160,-2.4627623058571936e-05,74.58444052365108
2025-06-03 15:30:38.168,-2.2672114835951985e-05,74.46038733841867
2025-06-03 15:30:38.175,-2.0303427993535244e-05,74.23714699302724
2025-06-03 15:30:38.183,-1.7316820353929154e-05,73.91372699422926
2025-06-03 15:30:38.191,-1.356735098968751e-05,73.48945279554805
2025-06-03 15:30:38.199,-8.966956646214268e-06,72.96394536709626
2025-06-03 15:30:38.207,-3.4801200338885868e-06,72.33712202993976
2025-06-03 15:30:38.214,2.8814098745383323e-06,71.6092262418934
2025-06-03 15:30:38.222,1.0064517340674147e-05,70.78088861732104
2025-06-03 15:30:38.230,1.7981015552498494e-05,69.85321761151586
2025-06-03 15:30:38.238,2.6514143140340517e-05,68.82791445179735
2025-06-03 15:30:38.246,3.5525024172410665e-05,67.70740348503718
2025-06-03 15:30:38.253,4.4858811390796473e-05,66.49496650699
2025-06-03 15:30:38.261,5.435025815214425e-05,65.194868121187
2025-06-03 15:30:38.269,6.382856572029919e-05,63.812458905691216
2025-06-03 15:30:38.277,7.31214813162592e-05,62.35424417855637
2025-06-03 15:30:38.285,8.205872173316807e-05,60.82790835794735
2025-06-03 15:30:38.293,9.047483939157784e-05,59.24228811236435
2025-06-03 15:30:38.300,9.821165073786416e-05,57.607291401276434
2025-06-03 15:30:38.308,0.000105120347058,55.93376375667883
2025-06-03 15:30:38.316,0.0001110634073214,54.233307346612754
2025-06-03 15:30:38.324,0.0001159164062721,52.518062079840405
2025-06-03 15:30:38.332,0.0001195697620656,50.8004608831951
2025-06-03 15:30:38.339,0.0001219304348114,49.09297302288112
2025-06-03 15:30:38.347,0.0001229235937648,47.40784978561948
2025-06-03 15:30:38.355,0.0001224943026858,45.75688596470449
2025-06-03 15:30:38.363,0.0001206092989546,44.15120852207408
2025-06-03 15:30:38.371,0.0001172589315461,42.60110073375195
2025-06-03 15:30:38.379,0.0001124592628295,41.1158663620863
2025-06-03 15:30:38.386,0.0001062542540169,39.70373429718063
2025-06-03 15:30:38.394,9.871788422916936e-05,38.371800092631794
2025-06-03 15:30:38.402,8.995600419804129e-05,37.12599730601882
2025-06-03 15:30:38.410,8.010767477596904e-05,35.97108888869663
2025-06-03 15:30:38.418,6.934569268714988e-05,34.910667290805215
2025-06-03 15:30:38.425,5.787600039832265e-05,33.94715158665204
2025-06-03 15:30:38.433,4.593573484691682e-05,33.08177081462031
2025-06-03 15:30:38.441,3.37897675222552e-05,32.31452480084662
2025-06-03 15:30:38.449,2.172568143812939e-05,31.644116835886035
2025-06-03 15:30:38.457,1.004719385804683e-05,31.067856442452666
2025-06-03 15:30:38.464,-9.339128539575856e-07,30.581534776419662
2025-06-03 15:30:38.472,-1.090720172833046e-05,30.179279561926137
2025-06-03 15:30:38.480,-1.9574041295334488e-05,29.85340048275988
2025-06-03 15:30:38.488,-2.6658657260011717e-05,29.5942392673073
2025-06-03 15:30:38.496,-3.1919176832754484e-05,29.390040999896865
2025-06-03 15:30:38.504,-3.515799165717043e-05,29.226864239717997
2025-06-03 15:30:38.511,-3.623076975410207e-05,29.088547210702373
2025-06-03 15:30:38.519,-3.505352283066661e-05,28.95674563877696
2025-06-03 15:30:38.527,-3.160726088102939e-05,28.811054858783763
2025-06-03 15:30:38.535,-2.5939916336060084e-05,28.62922477705656
2025-06-03 15:30:38.543,-1.816539074730957e-05,28.38747140239776
2025-06-03 15:30:38.550,-8.459785956853227e-06,28.060883236825603
2025-06-03 15:30:38.558,2.9448741905134664e-06,27.62391516834607
2025-06-03 15:30:38.566,1.5768899644781793e-05,27.05095697032393
2025-06-03 15:30:38.574,2.9694500244854835e-05,26.316958426206643
2025-06-03 15:30:38.582,4.437598537813311e-05,25.39808878464676
2025-06-03 15:30:38.589,5.945001374607201e-05,24.272404986957863
2025-06-03 15:30:38.597,7.454545502299228e-05,22.920501115478014
2025-06-03 15:30:38.605,8.929258314148838e-05,21.32611093746933
2025-06-03 15:30:38.613,0.0001033314718593,19.476636340682084
2025-06-03 15:30:38.621,0.0001163195898209,17.363576870888537
2025-06-03 15:30:38.629,0.0001279386687963,14.982839396293109
2025-06-03 15:30:38.636,0.0001379009298938,12.334911946321014
2025-06-03 15:30:38.644,0.0001459547216444,9.424891711288586
2025-06-03 15:30:38.652,0.0001518895973577,6.262363674942131
2025-06-03 15:30:38.660,0.0001555408526072,2.861132974480549
2025-06-03 15:30:38.668,0.0001567935249793,-0.7611795607872841
2025-06-03 15:30:38.675,0.0001555857958404,-4.583663509872691
2025-06-03 15:30:38.683,0.0001519116454399,-8.582746603729902
2025-06-03 15:30:38.691,0.000145822547858,-12.732900433663453
2025-06-03 15:30:38.699,0.0001374279789334,-17.00739802612187
2025-06-03 15:30:38.707,0.0001268945385211,-21.37909607957606
2025-06-03 15:30:38.714,0.0001144435387504,-25.82121484492172
2025-06-03 15:30:38.722,0.0001003469734449,-30.308090016491946
2025-06-03 15:30:38.730,8.492185920692622e-05,-34.81587342860093
2025-06-03 15:30:38.738,6.852302558636471e-05,-39.32316260637021
2025-06-03 15:30:38.746,5.153452934973336e-05,-43.81154303996963
2025-06-03 15:30:38.754,3.435997288059783e-05,-48.26603115584891
2025-06-03 15:30:38.761,1.7412105526008808e-05,-52.67541006257762
2025-06-03 15:30:38.769,1.1021442249420623e-06,-57.032453988566296
2025-06-03 15:30:38.777,-1.4170779265166187e-05,-61.33404068751181
2025-06-03 15:30:38.785,-2.8029762697168306e-05,-65.58115382333087
2025-06-03 15:30:38.793,-4.012974927515171e-05,-69.77877941118
2025-06-03 15:30:38.800,-5.016659688114968e-05,-73.93570182938143
2025-06-03 15:30:38.808,-5.7885565452636495e-05,-78.06420584856728
2025-06-03 15:30:38.816,-6.308906734930108e-05,-82.1796917166623
2025-06-03 15:30:38.824,-6.564336422700012e-05,-86.30021077458346
2025-06-03 15:30:38.832,-6.548376500724718e-05,-90.44592952298704
2025-06-03 15:30:38.839,-6.26178476531157e-05,-94.63853063209451
2025-06-03 15:30:38.847,-5.712631970152756e-05,-98.90056013500993
2025-06-03 15:30:38.855,-4.9161316078372025e-05,-103.25473095477544
2025-06-03 15:30:38.863,-3.894213734796095e-05,-107.72319392413652
2025-06-03 15:30:38.871,-2.674860570952738e-05,-112.3267884787756
2025-06-03 15:30:38.879,-1.2912356527394302e-05,-117.0842861495858
2025-06-03 15:30:38.886,2.1935007572019305e-06,-122.01164076595444
2025-06-03 15:30:38.894,1.8165849457760405e-05,-127.12125984773112
2025-06-03 15:30:38.902,3.458366145480231e-05,-132.42131197442302
2025-06-03 15:30:38.910,5.102027547177596e-05,-137.9150849733661
2025-06-03 15:30:38.918,6.705545935219306e-05,-143.60040958685323
2025-06-03 15:30:38.925,8.228689082126393e-05,-149.4691628968918
2025-06-03 15:30:38.933,9.63407415900043e-05,-155.5068652387606
2025-06-03 15:30:38.941,0.0001088811352515,-161.69238363830442
2025-06-03 15:30:38.949,0.000119618344885,-167.9977539516873
2025-06-03 15:30:38.957,0.000128315656849,-174.38813281989317
2025-06-03 15:30:38.964,0.000134794829443,-180.8218891832691
2025-06-03 15:30:38.972,0.0001389400420089,-187.2508433161348
2025-06-03 15:30:38.980,0.0001407002107998,-193.6206590161013
2025-06-03 15:30:38.988,0.0001400895686618,-199.87139161604696
2025-06-03 15:30:38.996,0.0001371864552288,-205.93819081734603
2025-06-03 15:30:39.004,0.0001321303227585,-211.75215296341452
2025-06-03 15:30:39.011,0.0001251170208937,-217.24131234261048
2025-06-03 15:30:39.019,0.0001163924805716,-222.331755568405
2025-06-03 15:30:39.027,0.0001062449736897,-226.94883725805764
2025-06-03 15:30:39.035,9.499618144292092e-05,-231.0184694303653
2025-06-03 15:30:39.043,8.299136070188335e-05,-234.46845166632508
2025-06-03 15:30:39.050,7.058895427939287e-05,-237.22980461177085
2025-06-03 15:30:39.058,5.815004525599926e-05,-239.238066425042
2025-06-03 15:30:39.066,4.602809702454e-05,-240.43451092962823
2025-06-03 15:30:39.074,3.455942565320163e-05,-240.76724817521037
2025-06-03 15:30:39.082,2.4054795128431505e-05,-240.19217339284845
2025-06-03 15:30:39.089,1.4792402718395856e-05,-238.67373922524283
2025-06-03 15:30:39.097,7.012346469264634e-06,-236.1855383866027
2025-06-03 15:30:39.105,9.124778596888036e-07,-232.71069859131555
2025-06-03 15:30:39.113,-3.3546005881861864e-06,-228.2421069003185
2025-06-03 15:30:39.121,-5.683689150838028e-06,-222.7824942126943
2025-06-03 15:30:39.129,-6.018582587385154e-06,-216.3444201951866
2025-06-03 15:30:39.136,-4.353360856339344e-06,-208.9502030094054
2025-06-03 15:30:39.144,-7.336106508973344e-07,-200.63183639118975
2025-06-03 15:30:39.152,4.742255278424608e-06,-191.4309294782649
2025-06-03 15:30:39.160,1.1921531167387731e-05,-181.3986932775772
2025-06-03 15:30:39.168,2.0595704005092492e-05,-170.59598303029202
2025-06-03 15:30:39.175,3.049914706908717e-05,-159.09338927999835
2025-06-03 15:30:39.183,4.130841807521922e-05,-146.97135351746977
2025-06-03 15:30:39.191,5.264267896172582e-05,-134.32026817797782
2025-06-03 15:30:39.199,6.406584493208895e-05,-121.24050674602373
2025-06-03 15:30:39.207,7.509111482243604e-05,-107.84231890310284
2025-06-03 15:30:39.214,8.518849716363375e-05,-94.24551900297014
2025-06-03 15:30:39.222,9.379578234232912e-05,-80.57889443423906
2025-06-03 15:30:39.230,0.0001003331144571,-66.9792641357822
2025-06-03 15:30:39.238,0.000104220952338,-53.59012688064583
2025-06-03 15:30:39.246,0.0001049008804368,-40.55985384567202
2025-06-03 15:30:39.254,0.0001018584948786,-28.039400031743263
2025-06-03 15:30:39.261,9.464742487472296e-05,-16.179533584920872
2025-06-03 15:30:39.269,8.291340568720299e-05,-5.127610001260437
2025-06-03 15:30:39.277,6.641719441817443e-05,4.9760516573771465
2025-06-03 15:30:39.285,4.505505630780497e-05,14.00210248391298
2025-06-03 15:30:39.293,1.8875574802637387e-05,21.836289201136584
2025-06-03 15:30:39.300,-1.1908355412412867e-05,28.38362555180012
2025-06-03 15:30:39.308,-4.691332616772558e-05,33.57244030843307
2025-06-03 15:30:39.316,-8.558575946051889e-05,37.35811508800436
2025-06-03 15:30:39.324,-0.0001272092848526,39.72631525263383
2025-06-03 15:30:39.332,-0.0001709193272095,40.69551644701856
2025-06-03 15:30:39.339,-0.0002157247406914,40.318639125758864
2025-06-03 15:30:39.347,-0.0002605359839029,38.68362480751612
2025-06-03 15:30:39.355,-0.0003041990195825,35.91282127920226
2025-06-03 15:30:39.363,-0.0003455338454538,32.1610892102221
2025-06-03 15:30:39.371,-0.0003833762967936,27.612598057719072
2025-06-03 15:30:39.379,-0.0004166214797228,22.47634188590829
2025-06-03 15:30:39.386,-0.0004442669075638,16.98047191576858
2025-06-03 15:30:39.394,-0.0004654531772501,11.365607900255496
2025-06-03 15:30:39.402,-0.0004794999017359,5.877350433489347
2025-06-03 15:30:39.410,-0.0004859346504333,0.7582671032340909
2025-06-03 15:30:39.418,-0.0004845128994626,-3.760336299066903
2025-06-03 15:30:39.425,-0.0004752275281696,-7.466524959989396
2025-06-03 15:30:39.433,-0.0004583072063238,-10.175383295347066
2025-06-03 15:30:39.441,-0.0004342039415056,-11.735871444160296
2025-06-03 15:30:39.449,-0.0004035708828527,-12.036586743878829
2025-06-03 15:30:39.457,-0.0003672320653495,-11.010170452527104
2025-06-03 15:30:39.464,-0.0003261461153411,-8.636157439560321
2025-06-03 15:30:39.472,-0.0002813660935421,-4.942135011625002
2025-06-03 15:30:39.480,-0.0002339976977105,-0.0031527207333209
2025-06-03 15:30:39.488,-0.0001851580000877,6.060596431934979
2025-06-03 15:30:39.496,-0.0001359367290745,13.087726168475198
2025-06-03 15:30:39.504,-8.736180875851837e-05,20.881070711377923
2025-06-03 15:30:39.511,-4.037047913400987e-05,29.214334090100103
2025-06-03 15:30:39.519,4.213105951315184e-06,37.839699853147465
2025-06-03 15:30:39.527,4.569332035241691e-05,46.49609411823223
2025-06-03 15:30:39.535,8.351144467647859e-05,54.917778821906005
2025-06-03 15:30:39.543,0.0001172472264423,62.8429517616085
2025-06-03 15:30:39.550,0.0001466141889801,70.0220447820577
2025-06-03 15:30:39.558,0.0001714495658198,76.22543967954203
2025-06-03 15:30:39.566,0.0001917000032388,81.25036063778163
2025-06-03 15:30:39.574,0.0002074043468679,84.92674910269612
2025-06-03 15:30:39.582,0.0002186748853569,87.12197848191563
2025-06-03 15:30:39.589,0.0002256783814051,87.74431861630046
2025-06-03 15:30:39.597,0.0002286181056808,86.74511080845097
2025-06-03 15:30:39.605,0.0002277179207007,84.11966111998427
2025-06-03 15:30:39.613,0.0002232092512463,79.90690106813264
2025-06-03 15:30:39.621,0.0002153215363109,74.18789966381898
2025-06-03 15:30:39.629,0.0002042764964176,67.08333825340215
2025-06-03 15:30:39.636,0.0001902862812285,58.750079551354105
2025-06-03 15:30:39.644,0.0001735552973772,49.376974689321294
2025-06-03 15:30:39.652,0.0001542852667411,39.18005763127988
2025-06-03 15:30:39.660,0.0001326828415758,28.397275929503376
2025-06-03 15:30:39.668,0.0001089689147763,17.28290182816393
2025-06-03 15:30:39.675,8.338862113549885e-05,6.10175955364243
2025-06-03 15:30:39.683,5.622094560993743e-05,-4.876605416322782
2025-06-03 15:30:39.691,2.7786863330526637e-05,-15.383700080984802
2025-06-03 15:30:39.699,-1.5449517715705052e-06,-25.157696165322964
2025-06-03 15:30:39.707,-3.135562196259717e-05,-33.94878604029238
2025-06-03 15:30:39.714,-6.117731716500085e-05,-41.52419574879016
2025-06-03 15:30:39.722,-9.049859624666914e-05,-47.67277537162763
2025-06-03 15:30:39.730,-0.0001187739446607,-52.20909245445914
2025-06-03 15:30:39.738,-0.0001454373657413,-54.97695887661196
2025-06-03 15:30:39.746,-0.0001699196090069,-55.85232617091071
2025-06-03 15:30:39.754,-0.0001916683290413,-54.745489968860994
2025-06-03 15:30:39.761,-0.0002101701845333,-51.60255222752214
2025-06-03 15:30:39.769,-0.0002249736523257,-46.40610156367691
2025-06-03 15:30:39.777,-0.000235711201375,-39.175088601408
2025-06-03 15:30:39.785,-0.0002421194761669,-29.96389541533546
2025-06-03 15:30:39.793,-0.0002440562584838,-18.86062562029359
2025-06-03 15:30:39.800,-0.0002415131644487,-5.984672849906604
2025-06-03 15:30:39.808,-0.0002346232557222,8.51634248762
2025-06-03 15:30:39.816,-0.0002236629854897,24.470148743329545
2025-06-03 15:30:39.824,-0.0002090481568721,41.68376815585926
2025-06-03 15:30:39.832,-0.0001913238404487,59.94767494241385
2025-06-03 15:30:39.839,-0.0001711484751028,79.04000689053801
2025-06-03 15:30:39.847,-0.000149272658246,98.73067962044362
2025-06-03 15:30:39.855,-0.0001265134128677,118.78527202648444
2025-06-03 15:30:39.863,-0.0001037249926122,138.96858002604455
2025-06-03 15:30:39.871,-8.17675345730532e-05,159.04777172406722
2025-06-03 15:30:39.879,-6.147505368068674e-05,178.79511789533743
2025-06-03 15:30:39.886,-4.36243415309124e-05,197.99031389317173
2025-06-03 15:30:39.894,-2.8906261087635955e-05,216.4224484309734
2025-06-03 15:30:39.902,-1.7900741236514975e-05,233.8917064398387
2025-06-03 15:30:39.910,-1.105652179642548e-05,250.2109131876066
2025-06-03 15:30:39.918,-8.676418674960682e-06,265.20703242475616
2025-06-03 15:30:39.925,-1.0908587500983266e-05,278.72272199928176
2025-06-03 15:30:39.933,-1.7743969122951484e-05,290.6180276373032
2025-06-03 15:30:39.941,-2.901980652599082e-05,300.77226228941714
2025-06-03 15:30:39.949,-4.442883429205433e-05,309.0860781694678
2025-06-03 15:30:39.957,-6.353346436576795e-05,315.48369509489754
2025-06-03 15:30:39.964,-8.578404082092164e-05,319.9152055818097
2025-06-03 15:30:39.972,-0.000110540047404,322.3588377836267
2025-06-03 15:30:39.980,-0.0001370930720485,322.82302506578003
2025-06-03 15:30:39.988,-0.0001646903833931,321.34810884279
2025-06-03 15:30:39.996,-0.0001925581271333,318.00749191142097
2025-06-03 15:30:40.004,-0.0002199233506901,312.9080647505592
2025-06-03 15:30:40.011,-0.0002460342713876,306.1897477489932
2025-06-03 15:30:40.019,-0.0002701783962535,298.02402713744664
2025-06-03 15:30:40.027,-0.0002916982721828,288.6114090336947
2025-06-03 15:30:40.035,-0.0003100047884045,278.1777706564838
2025-06-03 15:30:40.043,-0.0003245880656997,266.9696458864809
2025-06-03 15:30:40.050,-0.0003350260472353,255.248539490661
2025-06-03 15:30:40.058,-0.0003409909546088,243.28441692918437
2025-06-03 15:30:40.066,-0.0003422537918384,231.34856246414373
2025-06-03 15:30:40.074,-0.000338687073187,219.70603604347875
2025-06-03 15:30:40.082,-0.000330265922762,208.60798838528115
2025-06-03 15:30:40.089,-0.0003170676506801,198.28411320357696
2025-06-03 15:30:40.097,-0.0002992698588396,188.93552496694215
2025-06-03 15:30:40.105,-0.0002771470759999,180.7283493429589
2025-06-03 15:30:40.113,-0.0002510658739801,173.78830096996825
2025-06-03 15:30:40.121,-0.0002214783811336,168.19649891447924
2025-06-03 15:30:40.129,-0.000188914091993,163.98673379895064
2025-06-03 15:30:40.136,-0.0001539698783855,161.14435218884694
2025-06-03 15:30:40.144,-0.0001172981414305,159.60686421957362
2025-06-03 15:30:40.152,-7.959310832602713e-05,159.2663115323277
2025-06-03 15:30:40.160,-4.157537369185376e-05,159.97335748090222
2025-06-03 15:30:40.168,-3.974910134913073e-06,161.54298429862817
2025-06-03 15:30:40.175,3.248708564602346e-05,163.7616069268545
2025-06-03 15:30:40.183,6.711701312138327e-05,166.39534488664208
2025-06-03 15:30:40.191,9.926776326576716e-05,169.19913587839162
2025-06-03 15:30:40.199,0.0001283570564818,171.92633101698183
2025-06-03 15:30:40.207,0.0001538846039854,174.33838425947178
2025-06-03 15:30:40.214,0.0001754475427424,176.21423930566704
2025-06-03 15:30:40.222,0.0001927537077195,177.3590268005947
2025-06-03 15:30:40.230,0.0002056324282122,177.61171287176035
2025-06-03 15:30:40.238,0.0002140426227457,176.85138576833072
2025-06-03 15:30:40.246,0.0002180779979951,175.00192852580244
2025-06-03 15:30:40.254,0.0002179691563336,172.03489907679617
2025-06-03 15:30:40.261,0.0002140824348961,167.9705211124364
2025-06-03 15:30:40.269,0.0002069153639599,162.8767746646445
2025-06-03 15:30:40.277,0.0001970887338813,156.86665990395204
2025-06-03 15:30:40.285,0.0001853353763202,150.09378619402068
2025-06-03 15:30:40.293,0.0001724858762572,142.7465067104682
2025-06-03 15:30:40.300,0.0001594515039503,135.04087356342268
2025-06-03 15:30:40.308,0.0001472046556913,127.2127271848918
2025-06-03 15:30:40.316,0.0001367570221157,119.50925569466756
2025-06-03 15:30:40.324,0.0001291356150513,112.18036487210456
2025-06-03 15:30:40.332,0.0001253567385946,105.4701878442401
2025-06-03 15:30:40.339,0.0001263980220412,99.60903714688394
2025-06-03 15:30:40.347,0.0001331687511612,94.80606290950958
2025-06-03 15:30:40.355,0.0001464789258492,91.24283287674228
2025-06-03 15:30:40.363,0.0001670077020569,89.06799653198162
2025-06-03 15:30:40.371,0.0001952721087981,88.3931403618893
2025-06-03 15:30:40.379,0.0002315971433704,89.28988746924772
2025-06-03 15:30:40.386,0.0002760885239843,91.78824486533354
2025-06-03 15:30:40.394,0.0003286095048492,95.87615778519812
2025-06-03 15:30:40.402,0.0003887632214066,101.50019363529996
2025-06-03 15:30:40.410,0.0004558820212318,108.56724955927277
2025-06-03 15:30:40.418,0.0005290251380061,116.9471574692178
2025-06-03 15:30:40.425,0.000606985865306,126.47604860608642
2025-06-03 15:30:40.433,0.0006883090594826,136.960335584044
2025-06-03 15:30:40.441,0.000771319335397,148.18117224579186
2025-06-03 15:30:40.449,0.0008541597472623,159.89925896461688
2025-06-03 15:30:40.457,0.0009348401388955,171.8598716089973
2025-06-03 15:30:40.464,0.0010112937756932,183.7980046369216
2025-06-03 15:30:40.472,0.0010814403928133,195.443531291408
2025-06-03 15:30:40.480,0.0011432534493036,206.5262954629069
2025-06-03 15:30:40.488,0.0011948291684901,216.7810596129514
2025-06-03 15:30:40.496,0.0012344548316582,225.95224070527647
2025-06-03 15:30:40.504,0.0012606737188256,233.79837121767068
2025-06-03 15:30:40.511,0.0012723440108626,240.096225227288
2025-06-03 15:30:40.519,0.0012686888644109,244.64455084101496
2025-06-03 15:30:40.527,0.0012493347873091,247.26735076539143
2025-06-03 15:30:40.535,0.0012143355097724,247.81665373210936
2025-06-03 15:30:40.543,0.0011641789690156,246.17472217359693
2025-06-03 15:30:40.550,0.0010997759615292,242.2556474286033
2025-06-03 15:30:40.558,0.001022430421217,236.0062941694046
2025-06-03 15:30:40.566,0.0009337928593261,227.40657149610425
2025-06-03 15:30:40.574,0.0008357998679257,216.46902912311967
2025-06-03 15:30:40.582,0.0007306034759447,203.2378019744691
2025-06-03 15:30:40.589,0.0006204945018023,187.78695286583223
2025-06-03 15:30:40.597,0.0005078239781498,170.2182876214408
2025-06-03 15:30:40.605,0.0003949263813565,150.6587367256986
2025-06-03 15:30:40.613,0.0002840478817707,129.25740990983547
2025-06-03 15:30:40.621,0.0001772821983653,106.182433691419
2025-06-03 15:30:40.629,7.651595501714936e-05,81.61767702758611
2025-06-03 15:30:40.636,-1.6615234367250917e-05,55.759458185279165
2025-06-03 15:30:40.644,-0.0001007593280735,28.813308472564987
2025-06-03 15:30:40.652,-0.0001748689648344,0.9908475933123576
2025-06-03 15:30:40.660,-0.0002382114785786,-27.49319684598373
2025-06-03 15:30:40.668,-0.0002903686101103,-56.42381455502662
2025-06-03 15:30:40.675,-0.0003312270915608,-85.5883897249992
2025-06-03 15:30:40.683,-0.0003609615511917,-114.77925053993118
2025-06-03 15:30:40.691,-0.0003800112795827,-143.79611778809883
2025-06-03 15:30:40.699,-0.000389052313953,-172.4484779574766
2025-06-03 15:30:40.707,-0.0003889660877247,-200.55789720411897
2025-06-03 15:30:40.714,-0.0003808056203712,-227.96027711792044
2025-06-03 15:30:40.722,-0.0003657599540991,-254.50803329249027
2025-06-03 15:30:40.730,-0.0003451173469658,-280.0721557971159
2025-06-03 15:30:40.738,-0.0003202276462746,-304.54408922505644
2025-06-03 15:30:40.746,-0.0002924642800225,-327.8373513114333
2025-06-03 15:30:40.754,-0.0002631863799996,-349.8887952103359
2025-06-03 15:30:40.761,-0.0002337016673995,-370.6594132712301
2025-06-03 15:30:40.769,-0.0002052308994775,-390.1345812627876
2025-06-03 15:30:40.777,-0.000178874899361,-408.3236528245986
2025-06-03 15:30:40.785,-0.0001555854266645,-425.2588351881295
2025-06-03 15:30:40.793,-0.0001361412943878,-440.9933085336952
2025-06-03 15:30:40.800,-0.0001211310882996,-455.59859102438566
2025-06-03 15:30:40.808,-0.0001109435425409,-469.1611965210416
2025-06-03 15:30:40.816,-0.000105766108091,-481.7786781419671
2025-06-03 15:30:40.824,-0.0001055916429113,-493.5551936435823
2025-06-03 15:30:40.832,-0.0001102325953264,-504.59676389947685
2025-06-03 15:30:40.839,-0.0001193416259787,-515.0064205986989
2025-06-03 15:30:40.847,-0.0001324373191048,-524.8794523168763
2025-06-03 15:30:40.855,-0.0001489334425017,-534.2989593064801
2025-06-03 15:30:40.863,-0.0001681701282404,-543.3319174460531
2025-06-03 15:30:40.871,-0.000189445393326,-552.0259318980467
2025-06-03 15:30:40.879,-0.0002120456046948,-560.4068324849673
2025-06-03 15:30:40.886,-0.000235273750647,-568.4772271070692
2025-06-03 15:30:40.894,-0.0002584746081907,-576.2160883340316
2025-06-03 15:30:40.902,-0.0002810560298648,-583.5794033601738
2025-06-03 15:30:40.910,-0.0003025056326965,-590.5018706520489
2025-06-03 15:30:40.918,-0.0003224022336571,-596.8995797271338
2025-06-03 15:30:40.925,-0.0003404215301721,-602.6735654968966
2025-06-03 15:30:40.933,-0.0003563358352047,-607.7140873964719
2025-06-03 15:30:40.941,-0.0003700081589928,-611.9054479795267
2025-06-03 15:30:40.949,-0.0003813815319403,-615.1311375816329
2025-06-03 15:30:40.957,-0.0003904650558309,-617.2790727388085
2025-06-03 15:30:40.964,-0.0003973185669973,-618.2466878271164
2025-06-03 15:30:40.972,-0.000402037837097,-617.945643202938
2025-06-03 15:30:40.980,-0.0004047419031689,-616.3059300588483
2025-06-03 15:30:40.988,-0.0004055635456709,-613.2791829505387
2025-06-03 15:30:40.996,-0.0004046433139821,-608.8410552016132
2025-06-03 15:30:41.004,-0.0004021269590268,-602.9925677218719
2025-06-03 15:30:41.011,-0.0003981657066041,-595.7604028303116
2025-06-03 15:30:41.019,-0.0003929184997037,-587.196174332802
2025-06-03 15:30:41.027,-0.0003865551787219,-577.3747571690583
2025-06-03 15:30:41.035,-0.0003792595731685,-566.3918009928835
2025-06-03 15:30:41.043,-0.0003712316234632,-554.3605811966626
2025-06-03 15:30:41.050,-0.0003626878868008,-541.4083585928054
2025-06-03 15:30:41.058,-0.0003538600649946,-527.6724262127763
2025-06-03 15:30:41.066,-0.0003449914925665,-513.2960197224213
2025-06-03 15:30:41.074,-0.0003363317960074,-498.4242581845595
2025-06-03 15:30:41.082,-0.0003281301255725,-483.2002658231853
2025-06-03 15:30:41.089,-0.0003206274403927,-467.761604585232
2025-06-03 15:30:41.097,-0.000314048316807,-452.23712315686055
2025-06-03 15:30:41.105,-0.0003085926952253,-436.7443020983066
2025-06-03 15:30:41.113,-0.0003044279173644,-421.3871482255393
2025-06-03 15:30:41.121,-0.0003016813469702,-406.2546654512786
2025-06-03 15:30:41.129,-0.0003004338163971,-391.4199049931706
2025-06-03 15:30:41.136,-0.0003007140996479,-376.9395759670109
2025-06-03 15:30:41.144,-0.0003024945799897,-362.8541785179598
2025-06-03 15:30:41.152,-0.000305688256804,-349.1886062199077
2025-06-03 15:30:41.160,-0.0003101472211017,-335.95315272439024
2025-06-03 15:30:41.168,-0.0003156627209215,-323.1448496255245
2025-06-03 15:30:41.175,-0.000321966935079,-310.74905813200496
2025-06-03 15:30:41.183,-0.0003287365746806,-298.7412361742148
2025-06-03 15:30:41.191,-0.0003355984346061,-287.08880468782525
2025-06-03 15:30:41.199,-0.000342137019967,-275.75304158460494
2025-06-03 15:30:41.207,-0.0003479043720421,-264.69093886758446
2025-06-03 15:30:41.214,-0.000352432203263,-253.8569669589653
2025-06-03 15:30:41.222,-0.0003552463981278,-243.20470006328563
2025-06-03 15:30:41.230,-0.0003558838232825,-232.688266774387
2025-06-03 15:30:41.238,-0.0003539112096408,-222.2636006704541
2025-06-03 15:30:41.246,-0.0003489456293301,-211.88947588892177
2025-06-03 15:30:41.254,-0.0003406758004297,-201.5283222519726
2025-06-03 15:30:41.261,-0.0003288831368593,-191.14682311033323
2025-06-03 15:30:41.269,-0.00031346117122,-180.71630644705343
2025-06-03 15:30:41.277,-0.0002944317942532,-170.21294576693873
2025-06-03 15:30:41.285,-0.0002719567618155,-159.61779179798148
2025-06-03 15:30:41.293,-0.0002463431495159,-148.91665902660864
2025-06-03 15:30:41.300,-0.0002180418067693,-138.0998926234613
2025-06-03 15:30:41.308,-0.0001876382459005,-127.1620414940665
2025-06-03 15:30:41.316,-0.0001558357654894,-116.10146216149369
2025-06-03 15:30:41.324,-0.00012343106493,-104.9198761472584
2025-06-03 15:30:41.332,-9.128327948060276e-05,-93.62190068280746
2025-06-03 15:30:41.340,-6.027819386598544e-05,-82.2145691959162
2025-06-03 15:30:41.347,-3.129012701202558e-05,-70.70685432036889
2025-06-03 15:30:41.355,-5.144350877173166e-06,-59.10920241521789
2025-06-03 15:30:41.363,1.741718884576249e-05,-47.43308497938104
2025-06-03 15:30:41.371,3.5764533380701e-05,-35.690569113737304
2025-06-03 15:30:41.379,4.940103998969252e-05,-23.89390649212457
2025-06-03 15:30:41.386,5.797629131937109e-05,-12.055138294469252
2025-06-03 15:30:41.394,6.129013432609338e-05,-0.185712327765251
2025-06-03 15:30:41.402,5.9288074112537605e-05,11.703891833328768
2025-06-03 15:30:41.410,5.204892031862219e-05,23.604533408835685
2025-06-03 15:30:41.418,3.976615535547966e-05,35.50877915655541
2025-06-03 15:30:41.425,2.2724895802262255e-05,47.411270814352285
2025-06-03 15:30:41.433,1.2765445975343046e-06,59.30908921008599
2025-06-03 15:30:41.441,-2.418669850050413e-05,71.2021100255315
2025-06-03 15:30:41.449,-5.325537787515874e-05,83.09334297414632
2025-06-03 15:30:41.457,-8.552251237335618e-05,94.98924289199137
2025-06-03 15:30:41.465,-0.0001205980610981,106.8999781710697
2025-06-03 15:30:41.472,-0.0001581173063124,118.839639313995
2025-06-03 15:30:41.480,-0.0001977431838729,130.8263683812961
2025-06-03 15:30:41.488,-0.0002391634936261,142.88238894387962
2025-06-03 15:30:41.496,-0.0002820846083214,155.03391602235988
2025-06-03 15:30:41.504,-0.0003262235448499,167.31092653523763
2025-06-03 15:30:41.511,-0.000371300031938,179.74677308718984
2025-06-03 15:30:41.519,-0.0004170296797241,192.37762755135984
2025-06-03 15:30:41.527,-0.0004631187843708,205.24174581988387
2025-06-03 15:30:41.535,-0.0005092608621424,218.3785512355372
2025-06-03 15:30:41.543,-0.000555134751993,231.82754142890064
2025-06-03 15:30:41.550,-0.0006004040215189,245.62703135790997
2025-06-03 15:30:41.558,-0.0006447173959131,259.8127540041061
2025-06-03 15:30:41.566,-0.0006877099444739,274.4163490885708
2025-06-03 15:30:41.574,-0.0007290047691098,289.4637789477296
2025-06-03 15:30:41.582,-0.0007682149324148,304.9737189345984
2025-06-03 15:30:41.590,-0.0008049453385024,320.95597694027515
2025-06-03 15:30:41.597,-0.0008387942415616,337.41000241156905
2025-06-03 15:30:41.605,-0.0008693540212393,354.3235491326616
2025-06-03 15:30:41.613,-0.0008962108779857,371.6715576321632
2025-06-03 15:30:41.621,-0.0009189432457098,389.4153220154293
2025-06-03 15:30:41.629,-0.0009371190560909,407.5020020241409
2025-06-03 15:30:41.636,-0.0009502924846686,425.8645340062218
2025-06-03 15:30:41.644,-0.0009580013013739,444.421984171684
2025-06-03 15:30:41.652,-0.0009597662121965,463.0803740822287
2025-06-03 15:30:41.660,-0.0009550934628235,481.733991993508
2025-06-03 15:30:41.668,-0.00094348151665,500.26718481900105
2025-06-03 15:30:41.675,-0.0009244320204063,518.556604659714
2025-06-03 15:30:41.683,-0.0008974647381853,536.4738617569145
2025-06-03 15:30:41.691,-0.000862135756865,553.8885132492001
2025-06-03 15:30:41.699,-0.0008180580292899,570.6712952711588
2025-06-03 15:30:41.707,-0.0007649231817197,586.6974858654562
2025-06-03 15:30:41.715,-0.0007025234362899,601.8502691370664
2025-06-03 15:30:41.722,-0.0006307725150515,616.023958362315
2025-06-03 15:30:41.730,-0.0005497246040046,629.1269286989668
2025-06-03 15:30:41.738,-0.0004595909397138,641.0841100177736
2025-06-03 15:30:41.746,-0.0003607542329385,651.8388983963227
2025-06-03 15:30:41.754,-0.0002537816554369,661.3543620462677
2025-06-03 15:30:41.761,-0.0001394371429714,669.6136447428485
2025-06-03 15:30:41.769,-1.8693162393999475e-05,676.619507682014
2025-06-03 15:30:41.777,0.0001072589766012,682.3929986493534
2025-06-03 15:30:41.785,0.0002370023001787,686.9712928803052
2025-06-03 15:30:41.793,0.0003688935858999,690.4048075702215
2025-06-03 15:30:41.800,0.0005010718036127,692.7537444660865
2025-06-03 15:30:41.808,0.0006314777762338,694.0842561210645
2025-06-03 15:30:41.816,0.0007578862601856,694.4644578340117
2025-06-03 15:30:41.824,0.0008779505238949,693.9605182506795
2025-06-03 15:30:41.832,0.000989258510609,692.6330577256996
2025-06-03 15:30:41.840,0.0010893990107128,690.5340661276349
2025-06-03 15:30:41.847,0.0011760359736469,687.7045224791992
2025-06-03 15:30:41.855,0.0012469889868974,684.1728596206123
2025-06-03 15:30:41.863,0.0013003177766607,679.9543701609562
2025-06-03 15:30:41.871,0.0013344081256283,675.0515977126541
2025-06-03 15:30:41.879,0.0013480557654829,669.4557022797499
2025-06-03 15:30:41.886,0.0013405436966033,663.1487332450824
2025-06-03 15:30:41.894,0.0013117073783674,656.1066902306467
2025-06-03 15:30:41.902,0.0012619818186488,648.303203687504
2025-06-03 15:30:41.910,0.0011924251340716,639.713625787423
2025-06-03 15:30:41.918,0.0011047147013141,630.3192902425376
2025-06-03 15:30:41.925,0.0010011143755548,620.1116790410723
2025-06-03 15:30:41.933,0.000884414080214,609.0962264320774
2025-06-03 15:30:41.941,0.000757845869121,597.2954971456583
2025-06-03 15:30:41.949,0.0006249827100084,584.751497720431
2025-06-03 15:30:41.957,0.0004896273044321,571.526917387403
2025-06-03 15:30:41.965,0.0003556982371268,557.7051480899103
2025-06-03 15:30:41.972,0.0002271199613313,543.3890007787224
2025-06-03 15:30:41.980,0.00010772194231,528.6981142699434
2025-06-03 15:30:41.988,1.1508972702780925e-06,513.7651384444607
2025-06-03 15:30:41.996,-8.920149478053946e-05,498.7308579883141
2025-06-03 15:30:42.004,-0.0001602548147698,483.7384982403741
2025-06-03 15:30:42.011,-0.0002092814179058,468.92751450826165
2025-06-03 15:30:42.019,-0.0002339366196069,454.4272063927273
2025-06-03 15:30:42.027,-0.0002322826853429,440.35051730292383
2025-06-03 15:30:42.035,-0.0002028126929022,426.788375807082
2025-06-03 15:30:42.043,-0.0001444799761079,413.8049098627094
2025-06-03 15:30:42.050,-5.67371996702362e-05,401.4338181459965
2025-06-03 15:30:42.058,6.041340987563552e-05,389.6761165714134
2025-06-03 15:30:42.066,0.0002063600192801,378.4993962814475
2025-06-03 15:30:42.074,0.0003798154389725,367.8386376499412
2025-06-03 15:30:42.082,0.0005787521048601,357.5985307262938
2025-06-03 15:30:42.090,0.0008003459633202,347.65716412016627
2025-06-03 15:30:42.097,0.0010409385896603,337.8708685826384
2025-06-03 15:30:42.105,0.0012960273988695,328.0799433892878
2025-06-03 15:30:42.113,0.0015602934698173,318.1149558953115
2025-06-03 15:30:42.121,0.0018276750722207,307.8032886498651
2025-06-03 15:30:42.129,0.0020914924499963,296.9756145335916
2025-06-03 15:30:42.136,0.0023446259188747,285.47200762545833
2025-06-03 15:30:42.144,0.0025797450003549,273.1474430395602
2025-06-03 15:30:42.152,0.0027895812468668,259.876497292882
2025-06-03 15:30:42.160,0.002967231881246,245.55712436927664
2025-06-03 15:30:42.168,0.00310647591543,230.1134441682735
2025-06-03 15:30:42.175,0.003202079885085,213.4975343208637
2025-06-03 15:30:42.183,0.0032500679424147,195.69026094891177
2025-06-03 15:30:42.191,0.0032479321069336,176.70121818235063
2025-06-03 15:30:42.199,0.0031947636847726,156.56787035663092
2025-06-03 15:30:42.207,0.0030912955040013,135.35400548307808
2025-06-03 15:30:42.215,0.0029398545167121,113.14761484101264
2025-06-03 15:30:42.222,0.0027442329885763,90.05831266394563
2025-06-03 15:30:42.230,0.0025094924203825,66.21440334218961
2025-06-03 15:30:42.238,0.0022417174222686,41.75969289785069
2025-06-03 15:30:42.246,0.0019477377107035,16.850128281566008
2025-06-03 15:30:42.254,0.0016348359920906,-8.34966618529652
2025-06-03 15:30:42.261,0.0013104582106769,-33.66989974538024
2025-06-03 15:30:42.269,0.0009819406761565,-58.93913028955281
2025-06-03 15:30:42.277,0.0006562660266343,-83.9877500334649
2025-06-03 15:30:42.285,0.0003398569196822,-108.65141460848668
2025-06-03 15:30:42.293,3.841298467617859e-05,-132.77439106472025
2025-06-03 15:30:42.300,-0.0002432067462579,-156.21279915612166
2025-06-03 15:30:42.308,-0.0005010566102128,-178.83771556018243
2025-06-03 15:30:42.316,-0.0007321352205006,-200.53810289210665
2025-06-03 15:30:42.324,-0.0009343790372017,-221.2235152976756
2025-06-03 15:30:42.332,-0.0011066242034788,-240.82652108096647
2025-06-03 15:30:42.340,-0.0012485429197453,-259.3047714650539
2025-06-03 15:30:42.347,-0.0013605609305178,-276.64263455297936
2025-06-03 15:30:42.355,-0.0014437626187516,-292.85230628071724
2025-06-03 15:30:42.363,-0.0014997897267253,-307.97430706225003
2025-06-03 15:30:42.371,-0.0015307388797494,-322.0772752745217
2025-06-03 15:30:42.379,-0.0015390619755342,-335.2569779242597
2025-06-03 15:30:42.386,-0.0015274722766506,-347.6344757658868
2025-06-03 15:30:42.394,-0.0014988578770193,-359.3534054970268
2025-06-03 15:30:42.402,-0.0014562032271347,-370.5763757871326
2025-06-03 15:30:42.410,-0.0014025186397254,-381.4805166557906
2025-06-03 15:30:42.418,-0.001340777145398,-392.2522720597772
2025-06-03 15:30:42.425,-0.0012738577050688,-403.0815805541374
2025-06-03 15:30:42.433,-0.0012044936141733,-414.155642877591
2025-06-03 15:30:42.441,-0.0011352249952001,-425.6525203933412
2025-06-03 15:30:42.449,-0.0010683546355209,-437.73483679334686
2025-06-03 15:30:42.457,-0.0010059070882308,-450.5438622892494
2025-06-03 15:30:42.465,-0.000949591773923,-464.1942432983978
2025-06-03 15:30:42.472,-0.00090077156391,-478.76960384221206
2025-06-03 15:30:42.480,-0.0008604387897281,-494.31919341700967
2025-06-03 15:30:42.488,-0.0008292007282098,-510.8556976629133
2025-06-03 15:30:42.496,-0.0008072763771659,-528.3542695142697
2025-06-03 15:30:42.504,-0.0007945058350511,-546.75278384483
2025-06-03 15:30:42.511,-0.0007903729137788,-565.953269817202
2025-06-03 15:30:42.519,-0.0007940408101989,-585.8244329415381
2025-06-03 15:30:42.527,-0.0008043997604273,-606.2051435479651
2025-06-03 15:30:42.535,-0.0008201246442427,-626.908740100094
2025-06-03 15:30:42.543,-0.0008397396418373,-647.7279745244997
2025-06-03 15:30:42.550,-0.0008616864782705,-668.4404124312589
2025-06-03 15:30:42.558,-0.0008843926341406,-688.8140936485839
2025-06-03 15:30:42.566,-0.0009063361083874,-708.6132577870158
2025-06-03 15:30:42.574,-0.0009261037686485,-727.6039455098324
2025-06-03 15:30:42.582,-0.0009424409218402,-745.5592987841752
2025-06-03 15:30:42.590,-0.0009542904357572,-762.2644026389975
2025-06-03 15:30:42.597,-0.000960820494913,-777.5205369227269
2025-06-03 15:30:42.605,-0.0009614408014435,-791.1487392927934
2025-06-03 15:30:42.613,-0.0009558076484164,-802.9926199508699
2025-06-03 15:30:42.621,-0.0009438187629753,-812.9204131143683
2025-06-03 15:30:42.629,-0.0009255991828904,-820.8262963178869
2025-06-03 15:30:42.636,-0.0009014797567402,-826.631050544051
2025-06-03 15:30:42.644,-0.0008719701326484,-830.2821657426159
2025-06-03 15:30:42.652,-0.0008377282193549,-831.7535135512167
2025-06-03 15:30:42.660,-0.0007995279821755,-831.044711136041
2025-06-03 15:30:42.668,-0.0007582271111787,-828.180288458704
2025-06-03 15:30:42.675,-0.0007147357002006,-823.2087485070809
2025-06-03 15:30:42.683,-0.000669986733516,-816.2015791760082
2025-06-03 15:30:42.691,-0.0006249089619941,-807.2522399002529
2025-06-03 15:30:42.699,-0.0005804026610093,-796.4751093132011
2025-06-03 15:30:42.707,-0.0005373187273816,-784.004345611991
2025-06-03 15:30:42.715,-0.0004964414709101,-769.9925822931721
2025-06-03 15:30:42.722,-0.0004584751989414,-754.6093615495566
2025-06-03 15:30:42.730,-0.0004240343199973,-738.0391985609807
2025-06-03 15:30:42.738,-0.000393636352787,-720.4791743234628
2025-06-03 15:30:42.746,-0.0003676970515968,-702.1359739881465
2025-06-03 15:30:42.754,-0.0003465268818645,-683.22232223196
2025-06-03 15:30:42.761,-0.0003303282534253,-663.952815363177
2025-06-03 15:30:42.769,-0.0003191931673643,-644.5392074674495
2025-06-03 15:30:42.777,-0.0003131011863282,-625.1852683205615
2025-06-03 15:30:42.785,-0.0003119178588581,-606.0813866276254
2025-06-03 15:30:42.793,-0.0003153939222197,-587.3991372239797
2025-06-03 15:30:42.800,-0.0003231657973139,-569.2860612780445
2025-06-03 15:30:42.808,-0.0003347580516378,-551.860922277849
2025-06-03 15:30:42.816,-0.0003495885721428,-535.2096967665728
2025-06-03 15:30:42.824,-0.0003669771077066,-519.382537129856
2025-06-03 15:30:42.832,-0.0003861576235875,-504.3919045341281
2025-06-03 15:30:42.840,-0.0004062946148889,-490.2120146599045
2025-06-03 15:30:42.847,-0.0004265032132943,-476.7796700899291
2025-06-03 15:30:42.855,-0.0004458726219969,-463.99647611794376
2025-06-03 15:30:42.863,-0.0004634921052695,-451.7323581363684
2025-06-03 15:30:42.871,-0.0004784783877958,-439.8302259754484
2025-06-03 15:30:42.879,-0.0004900028883938,-428.11156990488
2025-06-03 15:30:42.886,-0.0004973168639396,-416.3827287484141
2025-06-03 15:30:42.894,-0.0004997725089512,-404.44154497025374
2025-06-03 15:30:42.902,-0.0004968385021097,-392.084115545232
2025-06-03 15:30:42.910,-0.0004881093226466,-379.1113608732164
2025-06-03 15:30:42.918,-0.0004733085517197,-365.3351658030009
2025-06-03 15:30:42.925,-0.0004522869884883,-350.58389399146733
2025-06-03 15:30:42.933,-0.0004250166501167,-334.7071338240951
2025-06-03 15:30:42.941,-0.0003915817700821,-317.5795935681728
2025-06-03 15:30:42.949,-0.0003521679789355,-299.1041181742756
2025-06-03 15:30:42.957,-0.0003070509408342,-279.2138453585333
2025-06-03 15:30:42.965,-0.0002565856292385,-257.87355223519336
2025-06-03 15:30:42.972,-0.0002011970452412,-235.0802656653974
2025-06-03 15:30:42.980,-0.0001413726476072,-210.8632204345938
2025-06-03 15:30:42.988,-7.765631326104767e-05,-185.28325066889803
2025-06-03 15:30:42.996,-1.0643408079966487e-05,-158.43169321205832
2025-06-03 15:30:43.004,5.902350066496715e-05,-130.42886893581175
2025-06-03 15:30:43.011,0.0001306586963629,-101.42219123742326
2025-06-03 15:30:43.019,0.0002035374380306,-71.58393243995793
2025-06-03 15:30:43.027,0.0002769003933254,-41.1086605631551
2025-06-03 15:30:43.035,0.0003499585907765,-10.210342946852466
2025-06-03 15:30:43.043,0.0004218991040084,20.880898773079508
2025-06-03 15:30:43.050,0.0004918916608531,51.92240438133058
2025-06-03 15:30:43.058,0.0005590962978951,82.66298358916123
2025-06-03 15:30:43.066,0.0006226720603584,112.84733236026618
2025-06-03 15:30:43.074,0.0006817866241408,142.22085774648207
2025-06-03 15:30:43.082,0.0007356266638599,170.5348906435285
2025-06-03 15:30:43.090,0.0007834088493911,197.55223848491303
2025-06-03 15:30:43.097,0.0008243914881513,223.05299769019655
2025-06-03 15:30:43.105,0.0008578869679055,246.84051041279932
2025-06-03 15:30:43.113,0.0008832752401713,268.7473139155666
2025-06-03 15:30:43.121,0.0009000185650827,288.6408961708557
2025-06-03 15:30:43.129,0.0009076775509771,306.4290406852673
2025-06-03 15:30:43.136,0.0009059281548582,322.06451984956607
2025-06-03 15:30:43.144,0.0008945788540744,335.54888207027267
2025-06-03 15:30:43.152,0.000873586793992,346.93507617795467
2025-06-03 15:30:43.160,0.0008430714614934,356.328669476277
2025-06-03 15:30:43.168,0.0008033243714995,363.887445173908
2025-06-03 15:30:43.175,0.0007548133972689,369.81921200656126
2025-06-03 15:30:43.183,0.000698180720132,374.3777238785263
2025-06-03 15:30:43.191,0.0006342338840054,377.8566895256694
2025-06-03 15:30:43.199,0.0005639300554144,380.581949250006
2025-06-03 15:30:43.207,0.0004883542409035,382.9020029952577
2025-06-03 15:30:43.215,0.0004086927961386,385.1771832845796
2025-06-03 15:30:43.222,0.0003262039262947,387.76786671286914
2025-06-03 15:30:43.230,0.0002421869069047,391.0221971428584
2025-06-03 15:30:43.238,0.0001579514614368,395.26384316177047
2025-06-03 15:30:43.246,7.478825758234983e-05,400.7803263221894
2025-06-03 15:30:43.254,-6.059024961347545e-06,407.81243454299727
2025-06-03 15:30:43.261,-8.342007349063426e-05,416.5451809551166
2025-06-03 15:30:43.269,-0.0001562231393743,427.1006900071853
2025-06-03 15:30:43.277,-0.0002235194830165,439.5332980259424
2025-06-03 15:30:43.285,-0.0002845071161856,453.82705166820153
2025-06-03 15:30:43.293,-0.000338553183354,469.8956806085386
2025-06-03 15:30:43.300,-0.0003852136070936,487.58501567389214
2025-06-03 15:30:43.308,-0.0004242481362702,506.6777253600496
2025-06-03 15:30:43.316,-0.00045562873235,526.9001562471727
2025-06-03 15:30:43.324,-0.0004795393238551,547.9309889368875
2025-06-03 15:30:43.332,-0.0004963653909845,569.4113621381543
2025-06-03 15:30:43.340,-0.0005066725493147,590.9560739505672
2025-06-03 15:30:43.347,-0.0005111741215747,612.1654413314
2025-06-03 15:30:43.355,-0.0005106885871811,632.6373861181482
2025-06-03 15:30:43.363,-0.0005060889102226,651.9793186750406
2025-06-03 15:30:43.371,-0.0004982470191517,669.8194080754978
2025-06-03 15:30:43.379,-0.00048797775702,685.8168605470669
2025-06-03 15:30:43.386,-0.0004759870592056,699.6708754696006
2025-06-03 15:30:43.394,-0.0004628289053289,711.1280099870003
2025-06-03 15:30:43.402,-0.0004488749067369,719.9877575652846
2025-06-03 15:30:43.410,-0.0004342993463263,726.1062286130923
2025-06-03 15:30:43.418,-0.0004190811214407,729.397906180409
2025-06-03 15:30:43.425,-0.0004030224503997,729.8355297570495
2025-06-03 15:30:43.433,-0.0003857825736334,727.4482300416391
2025-06-03 15:30:43.441,-0.0003669231927541,722.3180946004511
2025-06-03 15:30:43.449,-0.0003459611878071,714.5753878153073
2025-06-03 15:30:43.457,-0.0003224234002652,704.3926785654529
2025-06-03 15:30:43.465,-0.0002958981649412,691.978146290749
2025-06-03 15:30:43.472,-0.0002660789201375,677.5683413794446
2025-06-03 15:30:43.480,-0.0002327964978472,661.4206704429956
2025-06-03 15:30:43.488,-0.000196038269783,643.8058624418804
2025-06-03 15:30:43.496,-0.0001559538430499,625.0006494237821
2025-06-03 15:30:43.504,-0.0001128482311507,605.2808675123798
2025-06-03 15:30:43.511,-6.716429950751407e-05,584.9151514060867
2025-06-03 15:30:43.519,-1.9456827536980657e-05,564.1593605816004
2025-06-03 15:30:43.527,2.963917645530389e-05,543.2518390764644
2025-06-03 15:30:43.535,7.944313547215567e-05,522.4095744228482
2025-06-03 15:30:43.543,0.000129263764918,501.8252861464898
2025-06-03 15:30:43.550,0.0001784315470655,481.66544121191527
2025-06-03 15:30:43.558,0.000226326663053,462.0691637285521
2025-06-03 15:30:43.566,0.0002724008933095,443.147979833016
2025-06-03 15:30:43.574,0.0003161928182123,424.98631648831287
2025-06-03 15:30:43.582,0.0003573364849747,407.6426553959174
2025-06-03 15:30:43.590,0.0003955643682221,391.1512305414328
2025-06-03 15:30:43.597,0.0004307057682233,375.5241501575397
2025-06-03 15:30:43.605,0.0004626817175619,360.7538209911848
2025-06-03 15:30:43.613,0.0004914971632389,346.81555445304525
2025-06-03 15:30:43.621,0.0005172309140516,333.6702401168841
2025-06-03 15:30:43.629,0.0005400237217239,321.26698162260465
2025-06-03 15:30:43.636,0.0005600648360031,309.54560273747853
2025-06-03 15:30:43.644,0.0005775773445762,298.4389465182058
2025-06-03 15:30:43.652,0.0005928025698815,287.87490755060185
2025-06-03 15:30:43.660,0.0006059837824232,277.77815548853164
2025-06-03 15:30:43.668,0.0006173495335366,268.071526957073
2025-06-03 15:30:43.675,0.0006270970366688,258.67708175647573
2025-06-03 15:30:43.683,0.000635376243807,249.51683769271625
2025-06-03 15:30:43.691,0.000642275533388,240.5132158210837
2025-06-03 15:30:43.699,0.0006478101798733,231.58924401512348
2025-06-03 15:30:43.707,0.0006519149662554,222.66858113498816
2025-06-03 15:30:43.715,0.0006544424016668,213.67543612184352
2025-06-03 15:30:43.722,0.0006551679549447,204.534465349274
2025-06-03 15:30:43.730,0.0006538034171571,195.1707365867581
2025-06-03 15:30:43.738,0.0006500189122566,185.5098479770833
2025-06-03 15:30:43.746,0.0006434732006242,175.47828466343452
2025-06-03 15:30:43.754,0.0006338507983441,165.00408367515536
2025-06-03 15:30:43.761,0.0006209031399126,154.0178594588723
2025-06-03 15:30:43.769,0.0006044897464366,142.45421860286936
2025-06-03 15:30:43.777,0.0005846144619811,130.25356387711966
2025-06-03 15:30:43.785,0.0005614516481533,117.36425611601494
2025-06-03 15:30:43.793,0.0005353580134473,103.74506945485558
2025-06-03 15:30:43.800,0.0005068674638338,89.36784300167912
2025-06-03 15:30:43.808,0.0004766686255531,74.22020233345434
2025-06-03 15:30:43.816,0.0004455669170949,58.30819940116902
2025-06-03 15:30:43.824,0.0004144347068399,41.65870151932183
2025-06-03 15:30:43.832,0.0003841539828219,24.321350838283497
2025-06-03 15:30:43.840,0.0003555562090913,6.369916412437156
2025-06-03 15:30:43.847,0.0003293638983199,-12.097127422521698
2025-06-03 15:30:43.855,0.0003061380775062,-30.95693981137566
2025-06-03 15:30:43.863,0.0002862353437595,-50.06367893409168
2025-06-03 15:30:43.871,0.0002697776080838,-69.25096031332403
2025-06-03 15:30:43.879,0.0002566368597995,-88.33542224011315
2025-06-03 15:30:43.886,0.0002464362856016,-107.12135614297571
2025-06-03 15:30:43.894,0.0002385678524729,-125.40630177815925
2025-06-03 15:30:43.902,0.0002322251711023,-142.98745120994514
2025-06-03 15:30:43.910,0.00022644934993,-159.6686545193002
2025-06-03 15:30:43.918,0.0002201848166371,-175.26777623695526
2025-06-03 15:30:43.925,0.0002123417321622,-189.62411649783408
2025-06-03 15:30:43.933,0.0002018615159936,-202.6055865655974
2025-06-03 15:30:43.941,0.0001877819843591,-214.11531626182924
2025-06-03 15:30:43.949,0.0001692985962381,-224.0973723045765
2025-06-03 15:30:43.957,0.0001458183174204,-232.5412825612311
2025-06-03 15:30:43.965,0.0001170027126083,-239.48509213329072
2025-06-03 15:30:43.972,8.279715264882336e-05,-245.01672276952405
2025-06-03 15:30:43.980,4.344360911608727e-05,-249.27346648400905
2025-06-03 15:30:43.988,-5.244760542089528e-07,-252.43951591461297
2025-06-03 15:30:43.996,-4.830532740431891e-05,-254.74151557678908
2025-06-03 15:30:44.004,-9.886844870436472e-05,-256.4422064854679
2025-06-03 15:30:44.011,-0.0001510077428306,-257.8323274524564
2025-06-03 15:30:44.019,-0.0002034041853449,-259.22102485095365
2025-06-03 15:30:44.027,-0.0002546936719568,-260.92510350373846
2025-06-03 15:30:44.035,-0.0003035357571386,-263.2575191362719
2025-06-03 15:30:44.043,-0.0003486794948297,-266.5155622154025
2025-06-03 15:30:44.050,-0.0003890232798579,-270.96920946415
2025-06-03 15:30:44.058,-0.0004236662521476,-276.8501200817816
2025-06-03 15:30:44.066,-0.0004519493319181,-284.3417282185403
2025-06-03 15:30:44.074,-0.0004734843021865,-293.57083372089795
2025-06-03 15:30:44.082,-0.000488169642081,-304.6010243720863
2025-06-03 15:30:44.090,-0.0004961921728736,-317.4281815921926
2025-06-03 15:30:44.097,-0.0004980141209551,-331.9782351271034
2025-06-03 15:30:44.105,-0.0004943459758701,-348.1072466355821
2025-06-03 15:30:44.113,-0.0004861064763219,-365.603820939333
2025-06-03 15:30:44.121,-0.000474372044968,-384.19376864725984
2025-06-03 15:30:44.129,-0.0004603188181006,-403.5468754234847
2025-06-03 15:30:44.136,-0.0004451609120728,-423.2855715095169
2025-06-03 15:30:44.144,-0.0004300886644687,-442.9952403731835
2025-06-03 15:30:44.152,-0.0004162103281286,-462.23585776283215
2025-06-03 15:30:44.160,-0.0004045001836729,-480.5546123698494
2025-06-03 15:30:44.168,-0.0003957553588753,-497.4991273252648
2025-06-03 15:30:44.176,-0.000390562858597,-512.6308786918873
2025-06-03 15:30:44.183,-0.0003892774895411,-525.5383940169323
2025-06-03 15:30:44.191,-0.0003920106162104,-535.8498121413477
2025-06-03 15:30:44.199,-0.0003986291073709,-543.244396180713
2025-06-03 15:30:44.207,-0.0004087634708935,-547.4626161680343
2025-06-03 15:30:44.215,-0.0004218240052544,-548.3144572355271
2025-06-03 15:30:44.222,-0.0004370237498786,-545.6856638334831
2025-06-03 15:30:44.230,-0.0004534070409917,-539.5416998473999
2025-06-03 15:30:44.238,-0.0004698825768776,-529.9292863613499
2025-06-03 15:30:44.246,-0.0004852600799029,-516.9754684667831
2025-06-03 15:30:44.254,-0.000498289866815,-500.88425307586857
2025-06-03 15:30:44.261,-0.0005077048090099,-481.93094434748747
2025-06-03 15:30:44.269,-0.0005122642090087,-460.4543774934597
2025-06-03 15:30:44.277,-0.0005107990249128,-436.8473135500509
2025-06-03 15:30:44.285,-0.0005022576654414,-411.545307060765
2025-06-03 15:30:44.293,-0.0004857512894755,-385.014396078994
2025-06-03 15:30:44.301,-0.0004605972139683,-357.73799018421823
2025-06-03 15:30:44.308,-0.0004263587153965,-330.2033480363805
2025-06-03 15:30:44.316,-0.000382879277677,-302.88804203490804
2025-06-03 15:30:44.324,-0.0003303092604832,-276.24680447586167
2025-06-03 15:30:44.332,-0.0002691230611481,-250.69913767539288
2025-06-03 15:30:44.340,-0.0002001251239489,-226.61805018872928
2025-06-03 15:30:44.347,-0.0001244436177609,-204.3202527148599
2025-06-03 15:30:44.355,-4.351123102215616e-05,-184.058110636341
2025-06-03 15:30:44.363,4.09667606798715e-05,-166.01360540239514
2025-06-03 15:30:44.371,0.0001270563099293,-150.29450405404802
2025-06-03 15:30:44.379,0.0002126488476342,-136.93287502230933
2025-06-03 15:30:44.386,0.0002955240587556,-125.88601888457976
2025-06-03 15:30:44.394,0.000373419002557,-117.03980533274805
2025-06-03 15:30:44.402,0.000444101305607,-110.2143233309215
2025-06-03 15:30:44.410,0.0005054441670182,-105.17166306089794
2025-06-03 15:30:44.418,0.0005555009290918,-101.6255605300167
2025-06-03 15:30:44.426,0.00059257692851,-99.25255493651288
2025-06-03 15:30:44.433,0.000615296271231,-97.70424148131848
2025-06-03 15:30:44.441,0.0006226611246534,-96.6201533573275
2025-06-03 15:30:44.449,0.0006141011323734,-95.64077914494835
2025-06-03 15:30:44.457,0.0005895106432866,-94.4202170116564
2025-06-03 15:30:44.465,0.0005492716337379,-92.63798503928255
2025-06-03 15:30:44.472,0.0004942605356719,-90.00954699822523
2025-06-03 15:30:44.480,0.0004258376851204,-86.29517338303098
2025-06-03 15:30:44.488,0.0003458187345101,-81.3068357966163
2025-06-03 15:30:44.496,0.0002564280786553,-74.91292484097796
2025-06-03 15:30:44.504,0.0001602351324413,-67.0406824736925
2025-06-03 15:30:44.511,6.007519256659397e-05,-57.67634355454818
2025-06-03 15:30:44.519,-4.104244515282108e-05,-46.86308208080907
2025-06-03 15:30:44.527,-0.0001400356146644,-34.69694980217216
2025-06-03 15:30:44.535,-0.0002338555757639,-21.321073779789067
2025-06-03 15:30:44.543,-0.0003195940862692,-6.918441479692624
2025-06-03 15:30:44.551,-0.0003945867706256,8.296354963139192
2025-06-03 15:30:44.558,-0.0004565084143099,24.08602036853412
2025-06-03 15:30:44.566,-0.0005034561335282,40.199705129348665
2025-06-03 15:30:44.574,-0.000534016919185,56.38201611587656
2025-06-03 15:30:44.582,-0.0005473168238673,72.38153571341464
2025-06-03 15:30:44.590,-0.0005430499977665,87.95853962755649
2025-06-03 15:30:44.597,-0.0005214867886559,102.89166065940798
2025-06-03 15:30:44.605,-0.0004834610964586,116.98331116970616
2025-06-03 15:30:44.613,-0.0004303380357218,130.06374810288634
2025-06-03 15:30:44.621,-0.0003639636660994,141.9937374243534
2025-06-03 15:30:44.629,-0.0002865990865699,152.665845503197
2025-06-03 15:30:44.636,-0.0002008415564921,162.00444920129635
2025-06-03 15:30:44.644,-0.000109535514544,169.964610470363
2025-06-03 15:30:44.652,-1.5676436919126513e-05,176.53000226505125
2025-06-03 15:30:44.660,7.768953484293922e-05,181.71009901663595
2025-06-03 15:30:44.668,0.0001675672783133,185.53685669071027
2025-06-03 15:30:44.676,0.0002511127292149,188.06110567035788
2025-06-03 15:30:44.683,0.0003257282357252,189.34886613509028
2025-06-03 15:30:44.691,0.0003891501151528,189.4777722745449
2025-06-03 15:30:44.699,0.0004395252788251,188.53376070393867
2025-06-03 15:30:44.707,0.0004754738651644,186.6081420256245
2025-06-03 15:30:44.715,0.0004961350695444,183.7951348487387
2025-06-03 15:30:44.722,0.0005011938795143,180.18990097155788
2025-06-03 15:30:44.730,0.0004908872477146,175.8870810065564
2025-06-03 15:30:44.738,0.0004659892728239,170.9797934999603
2025-06-03 15:30:44.746,0.0004277760367279,165.5590293753698
2025-06-03 15:30:44.754,0.0003779717012847,159.71334886805053
2025-06-03 15:30:44.761,0.0003186782188309,153.52877126612867
2025-06-03 15:30:44.769,0.0002522915598485,147.08873965595308
2025-06-03 15:30:44.777,0.0001814077614409,140.4740440401275
2025-06-03 15:30:44.785,0.0001087224083635,133.7625968411263
2025-06-03 15:30:44.793,3.692739873389557e-05,127.02897470935362
2025-06-03 15:30:44.801,-3.139100168955692e-05,120.3436690258724
2025-06-03 15:30:44.808,-9.384879576394682e-05,113.77202307475216
2025-06-03 15:30:44.816,-0.0001483517126044,107.37287395826984
2025-06-03 15:30:44.824,-0.0001931699454176,101.1969580706803
2025-06-03 15:30:44.832,-0.0002269971275858,95.28517569126176
2025-06-03 15:30:44.840,-0.0002489911581709,89.66683852240247
2025-06-03 15:30:44.847,-0.0002587952505423,84.35804034610948
2025-06-03 15:30:44.855,-0.0002565383924812,79.36029365008781
2025-06-03 15:30:44.863,-0.0002428152399224,74.65956442701787
2025-06-03 15:30:44.871,-0.0002186463292419,70.22581580570933
2025-06-03 15:30:44.879,-0.0001854204146998,66.01314248660152
2025-06-03 15:30:44.886,-0.0001448217145005,61.96054589063075
2025-06-03 15:30:44.894,-9.874580506927782e-05,57.99336720690926
2025-06-03 15:30:44.902,-4.920871227288793e-05,54.02536366953226
2025-06-03 15:30:44.910,1.745719844560527e-06,49.961383248960495
2025-06-03 15:30:44.918,5.213496934715123e-05,45.70056513514955
2025-06-03 15:30:44.926,0.0001001186387982,41.13996851342736
2025-06-03 15:30:44.933,0.0001440669476958,36.17851078405946
2025-06-03 15:30:44.941,0.0001826141809431,30.72107914326245
2025-06-03 15:30:44.949,0.0002146957139184,24.682666908224093
2025-06-03 15:30:44.957,0.0002395684836008,17.992378691287623
2025-06-03 15:30:44.965,0.0002568157903899,10.597147030579231
2025-06-03 15:30:44.972,0.0002663380459172,2.465007827739671
2025-06-03 15:30:44.980,0.0002683315217235,-6.412206696542605
2025-06-03 15:30:44.988,0.0002632573329393,-16.016880582736707
2025-06-03 15:30:44.996,0.0002518028731091,-26.30443008677375
2025-06-03 15:30:45.004,0.0002348377723943,-37.20298881681918
2025-06-03 15:30:45.011,0.0002133662434798,-48.613989856927546
2025-06-03 15:30:45.019,0.0001884774688577,-60.41363112205613
2025-06-03 15:30:45.027,0.0001612955327243,-72.45516991536229
2025-06-03 15:30:45.035,0.0001329303433912,-84.571960235971
2025-06-03 15:30:45.043,0.0001044310016895,-96.58112710231734
2025-06-03 15:30:45.051,7.674308102591258e-05,-108.2877666618277
2025-06-03 15:30:45.058,5.067123880556735e-05,-119.48956466843804
2025-06-03 15:30:45.066,2.6848456406328063e-05,-129.98173245205683
2025-06-03 15:30:45.074,5.713006241106084e-06,-139.5621637457177
2025-06-03 15:30:45.082,-1.2506026727847412e-05,-148.0367154850325
2025-06-03 15:30:45.090,-2.779416874580755e-05,-155.22451077485968
2025-06-03 15:30:45.097,-4.034776843175125e-05,-160.9631533833586
2025-06-03 15:30:45.105,-5.056114656577778e-05,-165.11373157831326
2025-06-03 15:30:45.113,-5.900509528838105e-05,-167.56547640109957
2025-06-03 15:30:45.121,-6.639739999145041e-05,-168.2399273825926
2025-06-03 15:30:45.129,-7.356641998062687e-05,-167.0944492320883
2025-06-03 15:30:45.136,-8.14092791160799e-05,-164.1249382590482
2025-06-03 15:30:45.144,-9.084680150877368e-05,-159.36755929511705
2025-06-03 15:30:45.152,-0.0001027777425799,-152.89936463280242
2025-06-03 15:30:45.160,-0.0001180348424544,-144.83766772483287
2025-06-03 15:30:45.168,-0.000137344695864,-135.33807747109392
2025-06-03 15:30:45.176,-0.0001612926238604,-124.59114460875062
2025-06-03 15:30:45.183,-0.0001902930040479,-112.8176295954218
2025-06-03 15:30:45.191,-0.0002245650862401,-100.26246910707587
2025-06-03 15:30:45.199,-0.0002641142017365,-87.187591230552
2025-06-03 15:30:45.207,-0.0003087183686417,-73.86380121531354
2025-06-03 15:30:45.215,-0.0003579204828732,-60.56202351860127
2025-06-03 15:30:45.222,-0.0004110264588524,-47.54423628527402
2025-06-03 15:30:45.230,-0.0004671097821724,-35.054467748746085
2025-06-03 15:30:45.238,-0.000525022957222,-23.31023844027029
2025-06-03 15:30:45.246,-0.0005834163002746,-12.49482776754163
2025-06-03 15:30:45.254,-0.0006407644275546,-2.750718463719534
2025-06-03 15:30:45.261,-0.0006954005590707,5.825471505419162
2025-06-03 15:30:45.269,-0.0007455583752053,13.186320758536356
2025-06-03 15:30:45.277,-0.0007894206918997,19.335025704841662
2025-06-03 15:30:45.285,-0.0008251737977607,24.32482094291881
2025-06-03 15:30:45.293,-0.00085106602754,28.256397858727208
2025-06-03 15:30:45.301,-0.0008654690216049,31.273409948769675
2025-06-03 15:30:45.308,-0.0008669400345485,33.55623865380669
2025-06-03 15:30:45.316,-0.000854283506407,35.31427035023511
2025-06-03 15:30:45.324,-0.0008266098686641,36.777000154078685
2025-06-03 15:30:45.332,-0.0007833892637674,38.18432876958408
2025-06-03 15:30:45.340,-0.0007244975909254,39.77645311972048
2025-06-03 15:30:45.347,-0.0006502521463906,41.78376908074877
2025-06-03 15:30:45.355,-0.0005614341831748,44.4172050038687
2025-06-03 15:30:45.363,-0.0004592960226685,47.859387894988686
2025-06-03 15:30:45.371,-0.0003455509175227,52.2570104929219
2025-06-03 15:30:45.379,-0.0002223446451888,57.71471778823206
2025-06-03 15:30:45.386,-9.220870482922364e-05,64.29076712080997
2025-06-03 15:30:45.394,4.200412582257536e-05,71.99463908576828
2025-06-03 15:30:45.402,0.0001772003257383,80.78669021343839
2025-06-03 15:30:45.410,0.0003101399953677,90.57984677679796
2025-06-03 15:30:45.418,0.0004375420610635,101.2432467238499
2025-06-03 15:30:45.426,0.0005561965389275,112.60764847688694
2025-06-03 15:30:45.433,0.000663079276382,124.4723458908721
2025-06-03 15:30:45.441,0.0007554638868075,136.6132622977281
2025-06-03 15:30:45.449,0.0008310251057784,148.79184696461246
2025-06-03 15:30:45.457,0.0008879276595447,160.76436739729533
2025-06-03 15:30:45.465,0.0009248950836246,172.29118269472795
2025-06-03 15:30:45.472,0.0009412538469225,183.14559742142893
2025-06-03 15:30:45.480,0.000936949622438,193.1219317034645
2025-06-03 15:30:45.488,0.000912534503985,202.0424992165324
2025-06-03 15:30:45.496,0.0008691262164779,209.76325576465047
2025-06-03 15:30:45.504,0.0008083426535191,216.1779602369945
2025-06-03 15:30:45.511,0.0007322171073454,221.22076906774564
2025-06-03 15:30:45.519,0.0006431010426225,224.86725853472728
2025-06-03 15:30:45.527,0.0005435619932449,227.13393258174537
2025-06-03 15:30:45.535,0.0004362840517457,228.07632587274333
2025-06-03 15:30:45.543,0.0003239775188553,227.78585231069405
2025-06-03 15:30:45.551,0.0002093027016481,226.38557873233185
2025-06-03 15:30:45.558,9.481076970853108e-05,224.02512273612103
2025-06-03 15:30:45.566,-1.709773188104542e-05,220.87488368786333
2025-06-03 15:30:45.574,-0.0001241983160006,217.1198181229376
2025-06-03 15:30:45.582,-0.0002244552920672,212.9529663659156
2025-06-03 15:30:45.590,-0.0003160262068276,208.56892757313815
2025-06-03 15:30:45.597,-0.0003972625781816,204.1574668756671
2025-06-03 15:30:45.605,-0.0004667109491675,199.89742205257772
2025-06-03 15:30:45.613,-0.0005231172197,195.9510592352185
2025-06-03 15:30:45.621,-0.0005654359010659,192.45900837992428
2025-06-03 15:30:45.629,-0.0005928445847823,189.53589028922613
2025-06-03 15:30:45.636,-0.0006047626915742,187.26672823534292
2025-06-03 15:30:45.644,-0.0006008725995379,185.70421896388663
2025-06-03 15:30:45.652,-0.0005811406104791,184.8669200632717
2025-06-03 15:30:45.660,-0.000545834925291,184.73839325378492
2025-06-03 15:30:45.668,-0.0004955378796337,185.2673258412336
2025-06-03 15:30:45.676,-0.0004311501373856,186.36863508545903
2025-06-03 15:30:45.683,-0.0003538852999594,187.92554222639447
2025-06-03 15:30:45.691,-0.0002652543383697,189.79258409507835
2025-06-03 15:30:45.699,-0.0001670401822163,191.7995104029859
2025-06-03 15:30:45.707,-6.126347186024197e-05,193.7559938697346
2025-06-03 15:30:45.715,4.985923654052873e-05,195.45705840760343
2025-06-03 15:30:45.722,0.0001639635796608,196.6891079258581
2025-06-03 15:30:45.730,0.0002785907794281,197.23641546796352
2025-06-03 15:30:45.738,0.0003912454350133,196.8879101036192
2025-06-03 15:30:45.746,0.0004994568229889,195.44407824754217
2025-06-03 15:30:45.754,0.000600842701276,192.72377806039452
2025-06-03 15:30:45.761,0.0006931744931193,188.5707516728235
2025-06-03 15:30:45.769,0.0007744426161125,182.85961165808664
2025-06-03 15:30:45.777,0.0008429205035379,175.50107702605186
2025-06-03 15:30:45.785,0.0008972254007979,166.44624157952097
2025-06-03 15:30:45.793,0.0009363732963348,155.68967523273676
2025-06-03 15:30:45.801,0.0009598245489322,143.27118813435263
2025-06-03 15:30:45.808,0.0009675162143627,129.27612915308438
2025-06-03 15:30:45.816,0.0009598770327907,113.83414480205184
2025-06-03 15:30:45.824,0.0009378216259455,97.11639074414018
2025-06-03 15:30:45.832,0.0009027216130746,79.3312616170476
2025-06-03 15:30:45.840,0.0008563529412673,60.71877925417864
2025-06-03 15:30:45.847,0.0008008205381109,41.543846983299154
2025-06-03 15:30:45.855,0.0007384631853112,22.08863302058938
2025-06-03 15:30:45.863,0.000671743078074,2.644386291895316
2025-06-03 15:30:45.871,0.0006031258227691,-16.496987592397875
2025-06-03 15:30:45.879,0.0005349576671677,-35.05125415826838
2025-06-03 15:30:45.886,0.0004693474976628,-52.749753255421865
2025-06-03 15:30:45.894,0.0004080613917168,-69.34657243475263
2025-06-03 15:30:45.902,0.0003524371030726,-84.62472371642451
2025-06-03 15:30:45.910,0.0003033247293638,-98.401109613155
2025-06-03 15:30:45.918,0.0002610580422249,-110.53012952709696
2025-06-03 15:30:45.926,0.0002254587130728,-120.90585193508277
2025-06-03 15:30:45.933,0.000195873178237,-129.46275510255106
2025-06-03 15:30:45.941,0.0001712394234902,-136.1751119372596
2025-06-03 15:30:45.949,0.0001501787471173,-141.0551564393153
2025-06-03 15:30:45.957,0.0001311057084484,-144.15021618780918
2025-06-03 15:30:45.965,0.0001123481080647,-145.5390263174305
2025-06-03 15:30:45.972,9.226818386892236e-05,-145.327456031285
2025-06-03 15:30:45.980,6.937644370187077e-05,-143.6438802081402
2025-06-03 15:30:45.988,4.243068665240233e-05,-140.63441785890546
2025-06-03 15:30:45.996,1.0514532795784731e-05,-136.45823812442157
2025-06-03 15:30:46.004,-2.6908175022814727e-05,-131.28310543238322
2025-06-03 15:30:46.011,-6.996469375223728e-05,-125.2813006890014
2025-06-03 15:30:46.019,-0.0001183701276764,-118.62601731882782
2025-06-03 15:30:46.027,-0.0001714476130551,-111.48829185124792
2025-06-03 15:30:46.035,-0.0002281685724032,-104.03449069432465
2025-06-03 15:30:46.043,-0.0002872087703985,-96.42433962282946
2025-06-03 15:30:46.051,-0.0003470155831078,-88.80945194785673
2025-06-03 15:30:46.058,-0.00040588204969,-81.3322866223596
2025-06-03 15:30:46.066,-0.0004620236808292,-74.12544961290345
2025-06-03 15:30:46.074,-0.0005136544958911,-67.31124130748147
2025-06-03 15:30:46.082,-0.0005590593489718,-61.00134973332572
2025-06-03 15:30:46.090,-0.0005966603112108,-55.2965937613447
2025-06-03 15:30:46.097,-0.0006250756097091,-50.286631759236336
2025-06-03 15:30:46.105,-0.0006431701736217,-46.04956848361224
2025-06-03 15:30:46.113,-0.0006500970504205,-42.65141524431303
2025-06-03 15:30:46.121,-0.0006453288885986,-40.14538415928628
2025-06-03 15:30:46.129,-0.0006286785873361,-38.57102508134264
2025-06-03 15:30:46.136,-0.0006003083318036,-37.95324181850034
2025-06-03 15:30:46.144,-0.0005607266296906,-38.30125081296504
2025-06-03 15:30:46.152,-0.0005107735403381,-39.607568706909554
2025-06-03 15:30:46.160,-0.0004515948951439,-41.84713348206648
2025-06-03 15:30:46.168,-0.0003846068270446,-44.97667551776551
2025-06-03 15:30:46.176,-0.0003114522830598,-48.93445856505771
2025-06-03 15:30:46.183,-0.000233951364494,-53.640505136621776
2025-06-03 15:30:46.191,-0.0001540473641704,-58.997405332908905
2025-06-03 15:30:46.199,-7.375034269253097e-05,-64.89178220781373
2025-06-03 15:30:46.207,4.919905436672906e-06,-71.19645044267679
2025-06-03 15:30:46.215,7.998960345062543e-05,-77.77325916437309
2025-06-03 15:30:46.222,0.0001495835984949,-84.4765565583507
2025-06-03 15:30:46.230,0.0002119731592124,-91.15715820607068
2025-06-03 15:30:46.238,0.0002656176891018,-97.66664984288568
2025-06-03 15:30:46.246,0.0003091996193797,-103.86181620276486
2025-06-03 15:30:46.254,0.0003416523888657,-109.60896691392357
2025-06-03 15:30:46.261,0.0003621820615501,-114.78793113770811
2025-06-03 15:30:46.269,0.000370283565633,-119.29551454965748
2025-06-03 15:30:46.277,0.0003657525249894,-123.0482517792947
2025-06-03 15:30:46.285,0.0003486931123514,-125.9843382145584
2025-06-03 15:30:46.293,0.000319521481499,-128.06467973920772
2025-06-03 15:30:46.301,0.0002789635452294,-129.27305131875082
2025-06-03 15:30:46.308,0.0002280455073119,-129.61540162611402
2025-06-03 15:30:46.316,0.0001680756663932,-129.11837943596765
2025-06-03 15:30:46.324,0.0001006163834536,-127.82718779259476
2025-06-03 15:30:46.332,2.744561819815645e-05,-125.80289395849688
2025-06-03 15:30:46.340,-4.949181963924112e-05,-123.11933715766372
2025-06-03 15:30:46.347,-0.00012814211223,-119.85978264190824
2025-06-03 15:30:46.355,-0.0002064069868985,-116.1134703152834
2025-06-03 15:30:46.363,-0.0002822116139478,-111.97219987125985
2025-06-03 15:30:46.371,-0.0003535720015795,-107.52708304404338
2025-06-03 15:30:46.379,-0.0004186581461452,-102.86557811536996
2025-06-03 15:30:46.386,-0.0004758497739486,-98.06890323270856
2025-06-03 15:30:46.394,-0.0005237823668872,-93.20990434804716
2025-06-03 15:30:46.402,-0.0005613821128807,-88.35143159770173
2025-06-03 15:30:46.410,-0.0005878893192619,-83.54525556571824
2025-06-03 15:30:46.418,-0.0006028705691105,-78.83153287643854
2025-06-03 15:30:46.426,-0.0006062204051741,-74.23880962171923
2025-06-03 15:30:46.433,-0.0005981535432397,-69.7845318210326
2025-06-03 15:30:46.441,-0.0005791885746053,-65.47601491203538
2025-06-03 15:30:46.449,-0.0005501239367562,-61.311809548486735
2025-06-03 15:30:46.457,-0.0005120067695224,-57.28338901891324
2025-06-03 15:30:46.465,-0.0004660952507829,-53.37707458082204
2025-06-03 15:30:46.472,-0.0004138151697309,-49.57610903724048
2025-06-03 15:30:46.480,-0.0003567118202087,-45.86278599673636
2025-06-03 15:30:46.488,-0.0002963986904121,-42.22054242074591
2025-06-03 15:30:46.496,-0.0002345047682623,-38.63592518023603
2025-06-03 15:30:46.504,-0.0001726224766322,-35.10034827215903
2025-06-03 15:30:46.511,-0.0001122582527629,-31.61156589184585
2025-06-03 15:30:46.519,-5.4787594207358335e-05,-28.174797483191487
2025-06-03 15:30:46.527,-1.4160594481344785e-06,-24.80345391480838
2025-06-03 15:30:46.535,4.6852674356848606e-05,-21.51942873667128
2025-06-03 15:30:46.543,8.924094068880203e-05,-18.35293469659564
2025-06-03 15:30:46.551,0.0001252129101193,-15.34188293657374
2025-06-03 15:30:46.558,0.000154481819287,-12.530820102019732
2025-06-03 15:30:46.566,0.0001770084661729,-9.969456498856356
2025-06-03 15:30:46.574,0.0001929910026416,-7.710835902980691
2025-06-03 15:30:46.582,0.0002028462820409,-5.809214109469556
2025-06-03 15:30:46.590,0.0002071833303896,-4.3177282237497385
2025-06-03 15:30:46.597,0.000206769879668,-3.2859514455256567
2025-06-03 15:30:46.605,0.0002024932806824,-2.7574380755993437
2025-06-03 15:30:46.613,0.0001953174607662,-2.7673700940378807
2025-06-03 15:30:46.621,0.0001862378794465,-3.3404193535334548
2025-06-03 15:30:46.629,0.000176236623797,-4.488937693740909
2025-06-03 15:30:46.636,0.0001662398259028,-6.211580675458239
2025-06-03 15:30:46.644,0.0001570794556845,-8.492458822674099
2025-06-03 15:30:46.652,0.0001494612698586,-11.30089303686717
2025-06-03 15:30:46.660,0.0001439403269718,-14.591828154188166
2025-06-03 15:30:46.668,0.0001409050302807,-18.306930570228893
2025-06-03 15:30:46.676,0.00014057013624,-22.37636277291954
2025-06-03 15:30:46.683,0.0001429785845099,-26.721190041870344
2025-06-03 15:30:46.691,0.0001480114145609,-31.25633340389596
2025-06-03 15:30:46.699,0.0001554044977719,-35.89393998897843
2025-06-03 15:30:46.707,0.0001647703924811,-40.54700088405053
2025-06-03 15:30:46.715,0.0001756233789956,-45.133013529535646
2025-06-03 15:30:46.722,0.000187405712346,-49.577467904886674
2025-06-03 15:30:46.730,0.0001995133835757,-53.81693850754369
2025-06-03 15:30:46.738,0.0002113201721231,-57.80158791986622
2025-06-03 15:30:46.746,0.000222199377883,-61.49692795650967
2025-06-03 15:30:46.754,0.0002315431830201,-64.88473379228468
2025-06-03 15:30:46.761,0.0002387799885033,-67.96305853480337
2025-06-03 15:30:46.769,0.0002433902374505,-70.7453461662339
2025-06-03 15:30:46.777,0.0002449211623042,-73.25868737685725
2025-06-03 15:30:46.785,0.0002430006020035,-75.54130431746003
2025-06-03 15:30:46.793,0.0002373496093796,-77.63938587071208
2025-06-03 15:30:46.801,0.0002277931318662,-79.60342404799245
2025-06-03 15:30:46.808,0.0002142677153602,-81.48422409420905
2025-06-03 15:30:46.816,0.0001968250357452,-83.32877553032125
2025-06-03 15:30:46.824,0.0001756301890537,-85.17617853957807
2025-06-03 15:30:46.832,0.0001509541303337,-87.0538198165856
2025-06-03 15:30:46.840,0.0001231603757742,-88.9739844014196
2025-06-03 15:30:46.847,9.268685360114696e-05,-90.93107541186502
2025-06-03 15:30:46.855,6.00243694495329e-05,-92.89959240753818
2025-06-03 15:30:46.863,2.5693416648622365e-05,-94.83299195538984
2025-06-03 15:30:46.871,-9.778983415640117e-06,-96.66352154492414
2025-06-03 15:30:46.879,-4.588097183064273e-05,-98.3030811956
2025-06-03 15:30:46.886,-8.213491215377235e-05,-99.64512692601336
2025-06-03 15:30:46.894,-0.0001181128404416,-100.5675878759434
2025-06-03 15:30:46.902,-0.0001534474185922,-100.9367255869366
2025-06-03 15:30:46.910,-0.0001878376178292,-100.61182118023956
2025-06-03 15:30:46.918,-0.0002210486005351,-99.4505354582591
2025-06-03 15:30:46.926,-0.0002529056739168,-97.31474991938016
2025-06-03 15:30:46.933,-0.0002832827168008,-94.07666499236154
2025-06-03 15:30:46.941,-0.0003120860364953,-89.62490715644226
2025-06-03 15:30:46.949,-0.0003392350970462,-83.87038067379842
2025-06-03 15:30:46.957,-0.000364641912463,-76.75159398996561
2025-06-03 15:30:46.965,-0.0003881910866628,-68.23919687180303
2025-06-03 15:30:46.972,-0.0004097224763979,-58.33948324901283
2025-06-03 15:30:46.980,-0.000429018242738,-47.09664740673061
2025-06-03 15:30:46.988,-0.0004457956753791,-34.59362812082512
2025-06-03 15:30:46.996,-0.0004597066918742,-20.95143623188304
2025-06-03 15:30:47.004,-0.0004703444039106,-6.326934165387197
2025-06-03 15:30:47.011,-0.000477256657723,9.090883266258835
2025-06-03 15:30:47.019,-0.0004799660131775,25.0859755179614
2025-06-03 15:30:47.027,-0.0004779952113528,41.42150371911002
2025-06-03 15:30:47.035,-0.0004708967751755,57.84696943809544
2025-06-03 15:30:47.043,-0.0004582850098144,74.10592929260508
2025-06-03 15:30:47.051,-0.0004398683891472,89.94394213134197
2025-06-03 15:30:47.058,-0.0004154802122885,105.11639675357726
2025-06-03 15:30:47.066,-0.000385105511278,119.39587848560994
2025-06-03 15:30:47.074,-0.0003489024310044,132.5787620982206
2025-06-03 15:30:47.082,-0.000307216606546,144.49076558056055
2025-06-03 15:30:47.090,-0.0002605873934744,154.99126189156658
2025-06-03 15:30:47.097,-0.0002097451707489,163.97621946782922
2025-06-03 15:30:47.105,-0.0001555993500349,171.37972017982804
2025-06-03 15:30:47.113,-9.92171911484676e-05,177.174078057733
2025-06-03 15:30:47.121,-4.1794022199685205e-05,181.36864740181304
2025-06-03 15:30:47.129,1.538404855272411e-05,184.00746147597692
2025-06-03 15:30:47.137,7.098342126974152e-05,185.1658817836584
2025-06-03 15:30:47.144,0.0001236704656305,184.9464631889494
2025-06-03 15:30:47.152,0.0001721610929805,183.47425276047736
2025-06-03 15:30:47.160,0.000215270195716,180.8917414428792
2025-06-03 15:30:47.168,0.0002519585766563,177.35367902859562
2025-06-03 15:30:47.176,0.0002813749681457,173.0219461200416
2025-06-03 15:30:47.183,0.0003028909217914,168.0606536471204
2025-06-03 15:30:47.191,0.0003161267710455,162.6316128677784
2025-06-03 15:30:47.199,0.000320967456429,156.89028841230984
2025-06-03 15:30:47.207,0.0003175676392982,150.98231550901318
2025-06-03 15:30:47.215,0.0003063461482395,145.04063156319637
2025-06-03 15:30:47.222,0.0002879703812174,139.1832430666875
2025-06-03 15:30:47.230,0.0002633317890639,133.51162247452766
2025-06-03 15:30:47.238,0.0002335139373726,128.10970703507164
2025-06-03 15:30:47.246,0.0001997548504166,123.04345317933188
2025-06-03 15:30:47.254,0.0001634053746935,118.36088629175708
2025-06-03 15:30:47.262,0.0001258851781123,114.092576582283
2025-06-03 15:30:47.269,8.863778073255074e-05,110.25246721993906
2025-06-03 15:30:47.277,5.3085787484927816e-05,106.83898053568257
2025-06-03 15:30:47.285,2.0587350595284163e-05,103.83633145416825
2025-06-03 15:30:47.293,-7.605139570959518e-06,101.2159837368802
2025-06-03 15:30:47.301,-3.0383095510862864e-05,98.93819338405704
2025-06-03 15:30:47.308,-4.681542895496869e-05,96.95359386565016
2025-06-03 15:30:47.316,-5.617684186747195e-05,95.2047889297752
2025-06-03 15:30:47.324,-5.796973646269954e-05,93.62792978726564
2025-06-03 15:30:47.332,-5.1938929051906624e-05,92.15426376278576
2025-06-03 15:30:47.340,-3.807858112593194e-05,90.71165039051635
2025-06-03 15:30:47.347,-1.6631034428526853e-05,89.22604788062816
2025-06-03 15:30:47.355,1.1922467926852244e-05,87.62297748930106
2025-06-03 15:30:47.363,4.68788852795538e-05,85.82897533670652
2025-06-03 15:30:47.371,8.733770476319559e-05,83.77304054049446
2025-06-03 15:30:47.379,0.0001322315759265,81.38808523719237
2025-06-03 15:30:47.387,0.0001803620738427,78.612386382907
2025-06-03 15:30:47.394,0.000230439228828,75.39103154426232
2025-06-03 15:30:47.402,0.0002811233896448,71.67734173712667
2025-06-03 15:30:47.410,0.0003310679998268,67.43424439131255
2025-06-03 15:30:47.418,0.0003789619134136,62.63555945660133
2025-06-03 15:30:47.426,0.0004235699203812,57.267152327902025
2025-06-03 15:30:47.433,0.0004637701800186,51.32789949690304
2025-06-03 15:30:47.441,0.0004985872730093,44.8304074730126
2025-06-03 15:30:47.449,0.000527219594493,37.801423355556935
2025-06-03 15:30:47.457,0.0005490598583441,30.281877200311243
2025-06-03 15:30:47.465,0.0005637076212844,22.3265026067978
2025-06-03 15:30:47.472,0.0005709730112794,14.002993204372377
2025-06-03 15:30:47.480,0.0005708712878178,5.390669193172678
2025-06-03 15:30:47.488,0.0005636084768096,-3.421350157913257
2025-06-03 15:30:47.496,0.0005495590514151,-12.336445365343774
2025-06-03 15:30:47.504,0.0005292373326779,-21.25321313678198
2025-06-03 15:30:47.512,0.0005032648051302,-30.068512999723463
2025-06-03 15:30:47.519,0.0004723358033193,-38.68072488890007
2025-06-03 15:30:47.527,0.0004371840346765,-46.99307412878912
2025-06-03 15:30:47.535,0.0003985521910814,-54.91686937627492
2025-06-03 15:30:47.543,0.000357166477181,-62.37450386782345
2025-06-03 15:30:47.551,0.0003137172869717,-69.30208807412015
2025-06-03 15:30:47.558,0.0002688465777681,-75.65160704905881
2025-06-03 15:30:47.566,0.0002231417963283,-81.39252318529094
2025-06-03 15:30:47.574,0.0001771355416299,-86.51277166302285
2025-06-03 15:30:47.582,0.0001313095631889,-91.01912033638246
2025-06-03 15:30:47.590,8.610131668324755e-05,-94.9368877797199
2025-06-03 15:30:47.597,4.191125228468421e-05,-98.30903267510048
2025-06-03 15:30:47.605,-8.906923629785046e-07,-101.19464475685383
2025-06-03 15:30:47.613,-4.196041899365631e-05,-103.6668823180564
2025-06-03 15:30:47.621,-8.097732971087038e-05,-105.8104140562907
2025-06-03 15:30:47.629,-0.0001176444600432,-107.71843403820245
2025-06-03 15:30:47.637,-0.0001516910054306,-109.48932802762108
2025-06-03 15:30:47.644,-0.0001828770395227,-111.22307754491084
2025-06-03 15:30:47.652,-0.0002110000894406,-113.01749493979614
2025-06-03 15:30:47.660,-0.0002359030256784,-114.96438852236498
2025-06-03 15:30:47.668,-0.0002574824730734,-117.14576137501652
2025-06-03 15:30:47.676,-0.0002756967471892,-119.63015073811758
2025-06-03 15:30:47.683,-0.0002905722429191,-122.46921661338295
2025-06-03 15:30:47.691,-0.0003022072764018,-125.69468817537695
2025-06-03 15:30:47.699,-0.0003107726082474,-129.3157743804325
2025-06-03 15:30:47.707,-0.0003165082297959,-133.3171404401146
2025-06-03 15:30:47.715,-0.000319716398733,-137.65754420893617
2025-06-03 15:30:47.722,-0.0003207512620564,-142.2692156825239
2025-06-03 15:30:47.730,-0.0003200056387191,-147.05804844169614
2025-06-03 15:30:47.738,-0.0003178956577806,-151.9046538460482
2025-06-03 15:30:47.746,-0.0003148440035005,-156.66630705797417
2025-06-03 15:30:47.754,-0.0003112625400206,-161.17978872293938
2025-06-03 15:30:47.762,-0.0003075350881241,-165.26509770840093
2025-06-03 15:30:47.769,-0.0003040011083226,-168.72997930186872
2025-06-03 15:30:47.777,-0.0003009410097867,-171.37518051471133
2025-06-03 15:30:47.785,-0.0002985637548334,-173.00031069688
2025-06-03 15:30:47.793,-0.000296997365129,-173.41015283144242
2025-06-03 15:30:47.801,-0.0002962828595875,-172.42124014604644
2025-06-03 15:30:47.808,-0.0002963720662304,-169.86848572273465
2025-06-03 15:30:47.816,-0.0002971296520224,-165.61163140412603
2025-06-03 15:30:47.824,-0.0002983396053513,-159.54126834358115
2025-06-03 15:30:47.832,-0.0002997162736108,-151.5841768830106
2025-06-03 15:30:47.840,-0.0003009198630389,-141.70773982863676
2025-06-03 15:30:47.847,-0.0003015759875482,-129.92320221493287
2025-06-03 15:30:47.855,-0.0003012983834471,-116.28758356036067
2025-06-03 15:30:47.863,-0.0002997133625634,-100.90409600684086
2025-06-03 15:30:47.871,-0.0002964841139871,-83.92098271218163
2025-06-03 15:30:47.879,-0.0002913327471249,-65.52876211529215
2025-06-03 15:30:47.887,-0.0002840581015495,-45.955939362637125
2025-06-03 15:30:47.894,-0.0002745478326348,-25.46331935941346
2025-06-03 15:30:47.902,-0.0002627839804808,-4.337120817954917
2025-06-03 15:30:47.910,-0.0002488419267975,17.118856139456664
2025-06-03 15:30:47.918,-0.000232883183091,38.591716320493134
2025-06-03 15:30:47.926,-0.0002151428179751,59.76829106878893
2025-06-03 15:30:47.933,-0.0001959125907593,80.34396424545605
2025-06-03 15:30:47.941,-0.0001755210691031,100.03117349526624
2025-06-03 15:30:47.949,-0.0001543121777204,118.56727347701532
2025-06-03 15:30:47.957,-0.0001326237201636,135.7214773252419
2025-06-03 15:30:47.965,-0.000110767389494,151.30063562901998
2025-06-03 15:30:47.972,-8.901161545431154e-05,165.15366762449636
2025-06-03 15:30:47.980,-6.756831489183197e-05,177.17452463742427
2025-06-03 15:30:47.988,-4.658427411894045e-05,187.30363654969847
2025-06-03 15:30:47.996,-2.613754049425976e-05,195.52786197803883
2025-06-03 15:30:48.004,-6.238858382097621e-06,201.8790256657836
2025-06-03 15:30:48.012,1.3162136138233176e-05,206.43117781761543
2025-06-03 15:30:48.019,3.216653580905635e-05,209.29674780420493
2025-06-03 15:30:48.027,5.091240992203641e-05,210.62178888566245
2025-06-03 15:30:48.035,6.95586510254705e-05,210.5805224928414
2025-06-03 15:30:48.043,8.826745718921986e-05,209.36939179299296
2025-06-03 15:30:48.051,0.0001071864781046,207.2008266106385
2025-06-03 15:30:48.058,0.0001264316188294,204.29690724408405
2025-06-03 15:30:48.066,0.0001460714588347,200.88309529200663
2025-06-03 15:30:48.074,0.0001661141942487,197.18217718418285
2025-06-03 15:30:48.082,0.0001864979276218,193.40854244101268
2025-06-03 15:30:48.090,0.0002070850040767,189.7628952929175
2025-06-03 15:30:48.097,0.0002276609265257,186.4274764276552
2025-06-03 15:30:48.105,0.0002479381797573,183.56185225149585
2025-06-03 15:30:48.113,0.0002675650588455,181.2993127769864
2025-06-03 15:30:48.121,0.000286139336292,179.7439063889329
2025-06-03 15:30:48.129,0.0003032263124344,178.96813028253524
2025-06-03 15:30:48.137,0.0003183804645172,179.0112890194535
2025-06-03 15:30:48.144,0.0003311695510631,179.8785298690883
2025-06-03 15:30:48.152,0.0003411997082711,181.540561657245
2025-06-03 15:30:48.160,0.0003481398978596,183.9340628578533
2025-06-03 15:30:48.168,0.0003517440848095,186.96278368594847
2025-06-03 15:30:48.176,0.0003518697047853,190.4993450242508
2025-06-03 15:30:48.183,0.0003484912544846,194.3877332435717
2025-06-03 15:30:48.191,0.0003417081554354,198.44648358602265
2025-06-03 15:30:48.199,0.0003317463829066,202.47253518207856
2025-06-03 15:30:48.207,0.0003189537060948,206.24572761894044
2025-06-03 15:30:48.215,0.0003037887347545,209.5338922011958
2025-06-03 15:30:48.222,0.000286804272813,212.09847089177327
2025-06-03 15:30:48.230,0.0002686257013248,213.7005729692602
2025-06-03 15:30:48.238,0.0002499252580832,214.1073545987465
2025-06-03 15:30:48.246,0.0002313932168134,213.09858102072175
2025-06-03 15:30:48.254,0.0002137071603742,210.4732064413203
2025-06-03 15:30:48.262,0.0001975007818053,206.055784728681
2025-06-03 15:30:48.269,0.0001833338483998,199.70250664041063
2025-06-03 15:30:48.277,0.0001716650121431,191.30664859105332
2025-06-03 15:30:48.285,0.00016282897333,180.8032160014781
2025-06-03 15:30:48.293,0.0001570191397206,168.17257305778037
2025-06-03 15:30:48.301,0.0001542765051712,153.44287200831693
2025-06-03 15:30:48.308,0.0001544851311065,136.69113007304978
2025-06-03 15:30:48.316,0.0001573743835596,118.04285028393517
2025-06-03 15:30:48.324,0.0001625278843167,97.6701413135196
2025-06-03 15:30:48.332,0.0001693988905156,75.78835527594833
2025-06-03 15:30:48.340,0.000177331524679,52.65132538909373
2025-06-03 15:30:48.347,0.0001855870187808,28.54534234260169
2025-06-03 15:30:48.355,0.0001933739637817,3.782056605402231
2025-06-03 15:30:48.363,0.000199881425586,-21.309467100438287
2025-06-03 15:30:48.371,0.0002043136236182,-46.39128736753745
2025-06-03 15:30:48.379,0.0002059246657946,-71.125439636491
2025-06-03 15:30:48.387,0.0002040516678804,-95.18281849503512
2025-06-03 15:30:48.394,0.0001981445305063,-118.25179953923669
2025-06-03 15:30:48.402,0.0001877907311947,-140.04631876051874
2025-06-03 15:30:48.410,0.0001727337127066,-160.3131439078159
2025-06-03 15:30:48.418,0.0001528838212032,-178.83809829156914
2025-06-03 15:30:48.426,0.0001283212702333,-195.4510332288162
2025-06-03 15:30:48.433,9.929122114280004e-05,-210.02939063496032
2025-06-03 15:30:48.441,6.619164911192632e-05,-222.50025113368775
2025-06-03 15:30:48.449,2.9555080055713263e-05,-232.84082305116985
2025-06-03 15:30:48.457,-9.974505462860367e-06,-241.0773899063628
2025-06-03 15:30:48.465,-5.166824513575307e-05,-247.2827938794894
2025-06-03 15:30:48.472,-9.474109578609404e-05,-251.5725859124968
2025-06-03 15:30:48.480,-0.0001383813404623,-254.10001639297403
2025-06-03 15:30:48.488,-0.000181779612325,-255.05007213568828
2025-06-03 15:30:48.496,-0.0002241561864205,-254.63278537306184
2025-06-03 15:30:48.504,-0.000264785369208,-253.0760495184553
2025-06-03 15:30:48.512,-0.000303015969198,-250.61817598807815
2025-06-03 15:30:48.519,-0.0003382870658629,-247.50041801156152
2025-06-03 15:30:48.527,-0.0003701385987348,-243.95967281696397
2025-06-03 15:30:48.535,-0.0003982166794184,-240.22155446242112
2025-06-03 15:30:48.543,-0.0004222739759963,-236.49400738506532
2025-06-03 15:30:48.551,-0.0004421659628658,-232.96160674113668
2025-06-03 15:30:48.558,-0.0004578441648046,-229.78066688852556
2025-06-03 15:30:48.566,-0.0004693476775791,-227.0752547400523
2025-06-03 15:30:48.574,-0.0004767941965354,-224.93418077088296
2025-06-03 15:30:48.582,-0.0004803715359286,-223.4090175378356
2025-06-03 15:30:48.590,-0.0004803302085352,-222.51317378977063
2025-06-03 15:30:48.597,-0.0004769771340235,-222.22203156625864
2025-06-03 15:30:48.605,-0.0004706700516542,-222.47413391135672
2025-06-03 15:30:48.613,-0.0004618118057727,-223.1733917015416
2025-06-03 15:30:48.621,-0.0004508434255257,-224.19225930248177
2025-06-03 15:30:48.629,-0.0004382349241559,-225.3758100537268
2025-06-03 15:30:48.637,-0.0004244730484219,-226.546623735212
2025-06-03 15:30:48.644,-0.0004100457496941,-227.51037912005967
2025-06-03 15:30:48.652,-0.0003954237690483,-228.0620255540154
2025-06-03 15:30:48.660,-0.0003810402859813,-227.99238850684583
2025-06-03 15:30:48.668,-0.0003672699995356,-227.09504571036788
2025-06-03 15:30:48.676,-0.0003544092638179,-225.1732935424996
2025-06-03 15:30:48.683,-0.0003426589842363,-222.04700865567145
2025-06-03 15:30:48.691,-0.0003321119150453,-217.55919858565957
2025-06-03 15:30:48.699,-0.0003227457983024,-211.58202846650144
2025-06-03 15:30:48.707,-0.0003144234392869,-204.0221103693202
2025-06-03 15:30:48.715,-0.0003069003122454,-194.824848562506
2025-06-03 15:30:48.722,-0.0002998396513222,-183.9776495024218
2025-06-03 15:30:48.730,-0.0002928342590494,-171.51183082944553
2025-06-03 15:30:48.738,-0.0002854335507974,-157.50310006262512
2025-06-03 15:30:48.746,-0.0002771737729038,-142.0705216345165
2025-06-03 15:30:48.754,-0.0002676090070388,-125.37395005958544
2025-06-03 15:30:48.762,-0.0002563405685286,-107.60997533516318
2025-06-03 15:30:48.769,-0.0002430426910723,-89.0064996897714
2025-06-03 15:30:48.777,-0.0002274828540998,-69.8161360476266
2025-06-03 15:30:48.785,-0.000209535634326,-50.30868121528294
2025-06-03 15:30:48.793,-0.0001891894895813,-30.762965459677613
2025-06-03 15:30:48.801,-0.0001665464034262,-11.458411765471205
2025-06-03 15:30:48.808,-0.0001418148284226,7.333348617873756
2025-06-03 15:30:48.816,-0.0001152968257724,25.356462968190712
2025-06-03 15:30:48.824,-8.73706433017048e-05,42.37812839152893
2025-06-03 15:30:48.832,-5.8470148564356e-05,58.194870792998046
2025-06-03 15:30:48.840,-2.9062536625747687e-05,72.63761118690613
2025-06-03 15:30:48.847,3.7438836855957714e-07,85.57536735618778
2025-06-03 15:30:48.855,2.937423852894065e-05,96.91751336736128
2025-06-03 15:30:48.863,5.7502442139976574e-05,106.61459323635852
2025-06-03 15:30:48.871,8.437424003722712e-05,114.65775178080628
2025-06-03 15:30:48.879,0.0001096696019015,121.07690108423276
2025-06-03 15:30:48.887,0.0001331444586701,125.9377831330389
2025-06-03 15:30:48.894,0.000154637757489,129.33811791065602
2025-06-03 15:30:48.902,0.0001740740669584,131.40304233032862
2025-06-03 15:30:48.910,0.0001914618203013,132.280050122829
2025-06-03 15:30:48.918,0.000206887705598,132.1336377224745
2025-06-03 15:30:48.926,0.0002205080185501,131.139848056074
2025-06-03 15:30:48.933,0.0002325378297961,129.48088477499903
2025-06-03 15:30:48.941,0.0002432385990218,127.3399457342073
2025-06-03 15:30:48.949,0.000252904582539,124.8963982042764
2025-06-03 15:30:48.957,0.0002618482434592,122.32139106336504
2025-06-03 15:30:48.965,0.0002703849582887,119.77397252896168
2025-06-03 15:30:48.972,0.0002788175393844,117.39775709737263
2025-06-03 15:30:48.980,0.0002874213214663,115.31816324385775
2025-06-03 15:30:48.988,0.000296430684678,113.64022480056931
2025-06-03 15:30:48.996,0.0003060278641923,112.44696419094797
2025-06-03 15:30:49.004,0.000316334748379,111.79830499836706
2025-06-03 15:30:49.012,0.0003274081440772,111.7304945644348
2025-06-03 15:30:49.019,0.000339238727954,112.2560040976204
2025-06-03 15:30:49.027,0.0003517536265784,113.3638735794295
2025-06-03 15:30:49.035,0.0003648222846726,115.02047088424392
2025-06-03 15:30:49.043,0.0003782650012757,117.17063817623226
2025-06-03 15:30:49.051,0.0003918632573704,119.7392029541878
2025-06-03 15:30:49.058,0.0004053707665936,122.6328352218374
2025-06-03 15:30:49.066,0.0004185241064392,125.74223535426904
2025-06-03 15:30:49.074,0.0004310518673762,128.9446385939365
2025-06-03 15:30:49.082,0.0004426814967835,132.10662116516315
2025-06-03 15:30:49.090,0.0004531433937211,135.087189344206
2025-06-03 15:30:49.097,0.0004621722737437,137.74112626976958
2025-06-03 15:30:49.105,0.0004695062743941,139.92256186150533
2025-06-03 15:30:49.113,0.0004748846262999,141.48871920614016
2025-06-03 15:30:49.121,0.0004780449489145,142.30377668756591
2025-06-03 15:30:49.129,0.0004787213595095,142.24276972413378
2025-06-03 15:30:49.137,0.0004766446024267,141.1954401888803
2025-06-03 15:30:49.144,0.000471545267891,139.06992655991024
2025-06-03 15:30:49.152,0.0004631608301634,135.7961748485882
2025-06-03 15:30:49.160,0.0004512466960471,131.32894073812884
2025-06-03 15:30:49.168,0.0004355907953678,125.65024851727848
2025-06-03 15:30:49.176,0.0004160306054612,118.771173658033
2025-06-03 15:30:49.183,0.0003924710301852,110.73282450111252
2025-06-03 15:30:49.191,0.0003649013490215,101.60641553918435
2025-06-03 15:30:49.199,0.0003334095259855,91.49235103148224
2025-06-03 15:30:49.207,0.000298192445842,80.51827356285105
2025-06-03 15:30:49.215,0.0002595610179984,68.83607739919603
2025-06-03 15:30:49.222,0.0002179394888262,56.6179395784698
2025-06-03 15:30:49.230,0.0001738587116729,44.05147934941813
2025-06-03 15:30:49.238,0.0001279435194081,31.33421383333365
2025-06-03 15:30:49.246,8.089469169212642e-05,18.66752867100878
2025-06-03 15:30:49.254,3.3466300471178565e-05,6.250421124669808
2025-06-03 15:30:49.262,-1.3560518059965854e-05,-5.726705055267291
2025-06-03 15:30:49.269,-5.940606375264051e-05,-17.087911704291518
2025-06-03 15:30:49.277,-0.0001033213338371,-27.67700270700764
2025-06-03 15:30:49.285,-0.0001446164178234,-37.361980094369
2025-06-03 15:30:49.293,-0.0001826864113592,-46.03850746394647
2025-06-03 15:30:49.301,-0.0002170333806535,-53.63226899942508
2025-06-03 15:30:49.308,-0.0002472831647962,-60.10017412692572
2025-06-03 15:30:49.316,-0.0002731961466034,-65.43041518730531
2025-06-03 15:30:49.324,-0.0002946715471968,-69.64143510876812
2025-06-03 15:30:49.332,-0.0003117452740052,-72.779902568573
2025-06-03 15:30:49.340,-0.0003245817946977,-74.91782329522567
2025-06-03 15:30:49.347,-0.0003334608422671,-76.14893827416941
2025-06-03 15:30:49.355,-0.0003387599633259,-76.58457326809037
2025-06-03 15:30:49.363,-0.0003409340353578,-76.34911004775618
2025-06-03 15:30:49.371,-0.0003404929299754,-75.57524900291381
2025-06-03 15:30:49.379,-0.0003379784929447,-74.39922640915609
2025-06-03 15:30:49.387,-0.0003339419327766,-72.95613864512978
2025-06-03 15:30:49.394,-0.0003289225513177,-71.37551114898366
2025-06-03 15:30:49.402,-0.0003234285431408,-69.77723287891189
2025-06-03 15:30:49.410,-0.0003179203904591,-68.26795841226094
2025-06-03 15:30:49.418,-0.0003127972176878,-66.93806037489668
2025-06-03 15:30:49.426,-0.0003083863375688,-65.85919529686656
2025-06-03 15:30:49.433,-0.0003049361018763,-65.08252675944983
2025-06-03 15:30:49.441,-0.000302612057398,-64.63763121033375
2025-06-03 15:30:49.449,-0.0003014963028678,-64.5320943267834
2025-06-03 15:30:49.457,-0.0003015898466087,-64.75178943775838
2025-06-03 15:30:49.465,-0.0003028176791169,-65.26181431948444
2025-06-03 15:30:49.472,-0.0003050362005474,-66.00804863172796
2025-06-03 15:30:49.480,-0.0003080425805482,-66.91928130002647
2025-06-03 15:30:49.488,-0.0003115855773873,-67.90984519617747
2025-06-03 15:30:49.496,-0.0003153773049027,-68.88268546494093
2025-06-03 15:30:49.504,-0.0003191054110966,-69.73277777102248
2025-06-03 15:30:49.512,-0.0003224451308584,-70.35080364345285
2025-06-03 15:30:49.519,-0.0003250707179606,-70.62698210102359
2025-06-03 15:30:49.527,-0.0003266658610398,-70.45495006743114
2025-06-03 15:30:49.535,-0.0003269328283069,-69.73557903397125
2025-06-03 15:30:49.543,-0.0003256002356274,-68.38061239375259
2025-06-03 15:30:49.551,-0.0003224294683249,-66.31600732275422
2025-06-03 15:30:49.558,-0.0003172198740215,-63.48486754373826
2025-06-03 15:30:49.566,-0.0003098128431664,-59.84985933178813
2025-06-03 15:30:49.574,-0.0003000948175493,-55.39501325310003
2025-06-03 15:30:49.582,-0.0002879991805166,-50.126828877334674
2025-06-03 15:30:49.590,-0.0002735069371991,-44.07461949224802
2025-06-03 15:30:49.597,-0.000256646099729,-37.29005897420727
2025-06-03 15:30:49.605,-0.0002374897552272,-29.84592350626088
2025-06-03 15:30:49.613,-0.0002161529152155,-21.834056386914423
2025-06-03 15:30:49.621,-0.0001927883862779,-13.362623344291924
2025-06-03 15:30:49.629,-0.000167581983979,-4.552765607000383
2025-06-03 15:30:49.637,-0.0001407473776197,4.465206021560404
2025-06-03 15:30:49.644,-0.0001125207287955,13.555905648366346
2025-06-03 15:30:49.652,-8.315516829543511e-05,22.58307018038186
2025-06-03 15:30:49.660,-5.291512812909922e-05,31.41367440867983
2025-06-03 15:30:49.668,-2.2070620794024348e-05,39.92178858433781
2025-06-03 15:30:49.676,9.108310959516156e-06,47.99202554096357
2025-06-03 15:30:49.683,4.0356632887382094e-05,55.52245386624354
2025-06-03 15:30:49.691,7.141847198064824e-05,62.42688831907026
2025-06-03 15:30:49.699,0.0001020501058179,68.63650623480953
2025-06-03 15:30:49.707,0.0001320217257694,74.10077654259032
2025-06-03 15:30:49.715,0.0001611181653547,78.78772359970941
2025-06-03 15:30:49.722,0.0001891389799329,82.68357888787742
2025-06-03 15:30:49.730,0.0002158983277302,85.7918979365211
2025-06-03 15:30:49.738,0.000241225010652,88.13223678944728
2025-06-03 15:30:49.746,0.0002649628234441,89.73849187620452
2025-06-03 15:30:49.754,0.0002869711302532,90.65700976729728
2025-06-03 15:30:49.762,0.0003071254510288,90.9445697474661
2025-06-03 15:30:49.769,0.0003253178567615,90.6663333740869
2025-06-03 15:30:49.777,0.0003414571202521,89.8938422585636
2025-06-03 15:30:49.785,0.0003554687575246,88.70312934953402
2025-06-03 15:30:49.793,0.0003672952159591,87.17299116536321
2025-06-03 15:30:49.801,0.0003768964587987,85.38344985882313
2025-06-03 15:30:49.808,0.0003842510752497,83.41441577909822
2025-06-03 15:30:49.816,0.0003893578629501,81.34454431025708
2025-06-03 15:30:49.824,0.0003922376379855,79.25026606987358
2025-06-03 15:30:49.832,0.0003929348801646,77.20495775370424
2025-06-03 15:30:49.840,0.0003915187712505,75.2782125481665
2025-06-03 15:30:49.847,0.000388083248392,73.53516445310504
2025-06-03 15:30:49.855,0.0003827458300332,72.03582022243481
2025-06-03 15:30:49.863,0.0003756451157256,70.83435590629858
2025-06-03 15:30:49.871,0.0003669370000287,69.97834194415357
2025-06-03 15:30:49.879,0.0003567897939005,69.50787101553895
2025-06-03 15:30:49.887,0.0003453785996308,69.45457584546583
2025-06-03 15:30:49.894,0.0003328793767534,69.84053918665559
2025-06-03 15:30:49.902,0.0003194631306298,70.67711445058038
2025-06-03 15:30:49.910,0.0003052905884254,71.96369204008096
2025-06-03 15:30:49.918,0.0002905076597054,73.6864624058283
2025-06-03 15:30:49.926,0.0002752419240513,75.81724125183239
2025-06-03 15:30:49.933,0.0002596003144518,78.31243422167809
2025-06-03 15:30:49.941,0.0002436680546862,81.11222694157185
2025-06-03 15:30:49.949,0.0002275087804786,84.1400907161859
2025-06-03 15:30:49.957,0.0002111656636326,87.30269384703581
2025-06-03 15:30:49.965,0.0001946633006935,90.490303025065
2025-06-03 15:30:49.973,0.0001780101396016,93.57774830109447
2025-06-03 15:30:49.980,0.0001612012758824,96.42600875582671
2025-06-03 15:30:49.988,0.000144221506247,98.88445442574468
2025-06-03 15:30:49.996,0.0001270485570189,100.79375381071397
2025-06-03 15:30:50.004,0.0001096564194204,101.98942618372544
2025-06-03 15:30:50.012,9.201874406926514e-05,102.3059850005226
2025-06-03 15:30:50.019,7.411228048931631e-05,101.58158427626093
2025-06-03 15:30:50.027,5.592038308960483e-05,99.6630453930468
2025-06-03 15:30:50.035,3.743660914174492e-05,96.41110914998892
2025-06-03 15:30:50.043,1.866836291222521e-05,91.70572883036309
2025-06-03 15:30:50.051,-3.596150695353767e-07,85.45119658414497
2025-06-03 15:30:50.058,-1.960229191188605e-05,77.58087946304737
2025-06-03 15:30:50.066,-3.899239867689394e-05,68.0613348586824
2025-06-03 15:30:50.074,-5.843994310462706e-05,56.89557949648585
2025-06-03 15:30:50.082,-7.783346327943482e-05,44.12530277509405
2025-06-03 15:30:50.090,-9.704307399012825e-05,29.831845007068654
2025-06-03 15:30:50.098,-0.0001159251035251,14.135804544754311
2025-06-03 15:30:50.105,-0.0001343278963968,-2.804805402565248
2025-06-03 15:30:50.113,-0.0001520982221886,-20.797861167370478
2025-06-03 15:30:50.121,-0.0001690877100476,-39.621829590116434
2025-06-03 15:30:50.129,-0.0001851588003343,-59.031724183626096
2025-06-03 15:30:50.137,-0.0002001898216364,-78.76610390708717
2025-06-03 15:30:50.144,-0.0002140789264434,-98.55484185752988
2025-06-03 15:30:50.152,-0.0002267467371225,-118.12734585281429
2025-06-03 15:30:50.160,-0.000238137660585,-137.22088420083165
2025-06-03 15:30:50.168,-0.0002482199226364,-155.5886587751501
2025-06-03 15:30:50.176,-0.0002569844495945,-173.00727421231878
2025-06-03 15:30:50.183,-0.0002644427841272,-189.28327666191805
2025-06-03 15:30:50.191,-0.0002706242638891,-204.25847769461652
2025-06-03 15:30:50.199,-0.0002755727154943,-217.81383751745213
2025-06-03 15:30:50.207,-0.0002793429233302,-229.8717538163528
2025-06-03 15:30:50.215,-0.0002819971238683,-240.3966834624072
2025-06-03 15:30:50.223,-0.0002836017531047,-249.39410731123817
2025-06-03 15:30:50.230,-0.0002842246395775,-256.9079264597399
2025-06-03 15:30:50.238,-0.0002839327903861,-263.0164462144889
2025-06-03 15:30:50.246,-0.0002827908653167,-267.8271586876227
2025-06-03 15:30:50.254,-0.0002808603772598,-271.470575399155
2025-06-03 15:30:50.262,-0.000278199598356,-274.09338770919754
2025-06-03 15:30:50.269,-0.0002748640934682,-275.8512460576708
2025-06-03 15:30:50.277,-0.0002709077483549,-276.90144988723097
2025-06-03 15:30:50.285,-0.0002663841118186,-277.3958300158763
2025-06-03 15:30:50.293,-0.0002613478330807,-277.4740855080326
2025-06-03 15:30:50.301,-0.0002558559594105,-277.2578092602324
2025-06-03 15:30:50.308,-0.0002499688869225,-276.845402108993
2025-06-03 15:30:50.316,-0.0002437508419565,-276.30803582852565
2025-06-03 15:30:50.324,-0.0002372698861184,-275.686782431692
2025-06-03 15:30:50.332,-0.0002305975338253,-274.9909821861221
2025-06-03 15:30:50.340,-0.000223808111374,-274.19787711082506
2025-06-03 15:30:50.348,-0.0002169779619507,-273.2534917571859
2025-06-03 15:30:50.355,-0.0002101845211492,-272.0747000585652
2025-06-03 15:30:50.363,-0.0002035051884603,-270.5523771402405
2025-06-03 15:30:50.371,-0.0001970158531722,-268.5554993350057
2025-06-03 15:30:50.379,-0.000190788923793,-265.93602530548617
2025-06-03 15:30:50.387,-0.0001848907460869,-262.53436712707537
2025-06-03 15:30:50.394,-0.0001793783537469,-258.185243369787
2025-06-03 15:30:50.402,-0.0001742955657763,-252.72369750480863
2025-06-03 15:30:50.410,-0.0001696685216037,-245.9910651172014
2025-06-03 15:30:50.418,-0.000165500825929,-237.8406829121233
2025-06-03 15:30:50.426,-0.000161768557133,-228.1431512131678
2025-06-03 15:30:50.433,-0.0001584154724719,-216.7909884509832
2025-06-03 15:30:50.441,-0.0001553488168361,-203.70254888751927
2025-06-03 15:30:50.449,-0.0001524362062317,-188.8251107513048
2025-06-03 15:30:50.457,-0.0001495041091402,-172.13707837960655
2025-06-03 15:30:50.465,-0.0001463384839436,-153.64927683141042
2025-06-03 15:30:50.473,-0.0001426881331516,-133.40534947117126
2025-06-03 15:30:50.480,-0.0001382712615151,-111.48129740288056
2025-06-03 15:30:50.488,-0.0001327855100153,-87.98422360177683
2025-06-03 15:30:50.496,-0.000125921354009,-63.05036332087875
2025-06-03 15:30:50.504,-0.0001173782721228,-36.84249516687556
2025-06-03 15:30:50.512,-0.0001068826543373,-9.546834017538272
2025-06-03 15:30:50.519,-9.42061406902936e-05,18.630491691879445
2025-06-03 15:30:50.527,-7.918299853463752e-05,47.46727866149334
2025-06-03 15:30:50.535,-6.172521855521979e-05,76.72930943316378
2025-06-03 15:30:50.543,-4.183418184880971e-05,106.17454825555484
2025-06-03 15:30:50.551,-1.9607984463490505e-05,135.55739257092756
2025-06-03 15:30:50.558,4.756214844394777e-06,164.6329071287715
2025-06-03 15:30:50.566,3.096514141470644e-05,193.1609727959073
2025-06-03 15:30:50.574,5.863761953546981e-05,220.91028533017985
2025-06-03 15:30:50.582,8.731767511547065e-05,247.6621406531648
2025-06-03 15:30:50.590,0.0001164918147939,273.2139427615692
2025-06-03 15:30:50.598,0.0001456094946825,297.3823689346352
2025-06-03 15:30:50.605,0.0001741055893178,320.0061251858102
2025-06-03 15:30:50.613,0.000201423548606,340.94822407019973
2025-06-03 15:30:50.621,0.0002270379006403,360.097718276532
2025-06-03 15:30:50.629,0.0002504748351502,377.3708283005869
2025-06-03 15:30:50.637,0.0002713297838571,392.7114123532036
2025-06-03 15:30:50.644,0.0002892811820695,406.0907428746066
2025-06-03 15:30:50.652,0.000304099931589,417.5065776594529
2025-06-03 15:30:50.660,0.0003156544660982,426.98154469647056
2025-06-03 15:30:50.668,0.0003239116938754,434.56089641595617
2025-06-03 15:30:50.676,0.0003289343775101,440.3097266433118
2025-06-03 15:30:50.683,0.000330875644691,444.30977635214913
2025-06-03 15:30:50.691,0.0003299712994413,446.6559774093468
2025-06-03 15:30:50.699,0.0003265304557314,447.45289452838887
2025-06-03 15:30:50.707,0.0003209248104,446.811224586302
2025-06-03 15:30:50.715,0.0003135766800608,444.8445006375386
2025-06-03 15:30:50.723,0.0003049457938308,441.6661272338082
2025-06-03 15:30:50.730,0.0002955147879947,437.3868461041719
2025-06-03 15:30:50.738,0.0002857734188937,432.1126990407975
2025-06-03 15:30:50.746,0.0002762017072285,425.9435201790547
2025-06-03 15:30:50.754,0.0002672525088277,418.9719549234044
2025-06-03 15:30:50.762,0.0002593342857826,411.2829696166889
2025-06-03 15:30:50.769,0.0002527950391725,402.95378658229873
2025-06-03 15:30:50.777,0.0002479084185504,394.05415507572087
2025-06-03 15:30:50.785,0.0002448629601356,384.6468513965028
2025-06-03 15:30:50.793,0.0002437552614611,374.7882920723865
2025-06-03 15:30:50.801,0.0002445876876142,364.5291434504472
2025-06-03 15:30:50.808,0.0002472709150278,353.9148196883653
2025-06-03 15:30:50.816,0.0002516312538977,342.9857791491757
2025-06-03 15:30:50.824,0.0002574222712457,331.7775563064733
2025-06-03 15:30:50.832,0.0002643398099039,320.32050171843014
2025-06-03 15:30:50.840,0.0002720391439239,308.6392448182394
2025-06-03 15:30:50.848,0.0002801528185984,296.7519400708762
2025-06-03 15:30:50.855,0.0002883077425746,284.6694013744355
2025-06-03 15:30:50.863,0.0002961403056277,272.3942658394558
2025-06-03 15:30:50.871,0.0003033086053653,259.9203496060285
2025-06-03 15:30:50.879,0.0003095011980598,247.2323602183147
2025-06-03 15:30:50.887,0.0003144421200618,234.30611034436936
2025-06-03 15:30:50.894,0.0003178922784973,221.1093378929521
2025-06-03 15:30:50.902,0.0003196476817256,207.60318267730725
2025-06-03 15:30:50.910,0.0003195353140051,193.7443068238082
2025-06-03 15:30:50.918,0.0003174076779803,179.48758291160294
2025-06-03 15:30:50.926,0.0003131370944199,164.7892171086823
2025-06-03 15:30:50.933,0.0003066107818722,149.61012907507734
2025-06-03 15:30:50.941,0.0002977275878981,133.91937898432386
2025-06-03 15:30:50.949,0.0002863970367362,117.69741631749676
2025-06-03 15:30:50.957,0.0002725410852807,100.93892606636318
2025-06-03 15:30:50.965,0.0002560986190756,83.65506605550296
2025-06-03 15:30:50.973,0.0002370322988508,65.87492401264241
2025-06-03 15:30:50.980,0.0002153369829075,47.646073470766105
2025-06-03 15:30:50.988,0.0001910487167413,29.034170485474544
2025-06-03 15:30:50.996,0.0001642532531762,10.121603075012608
2025-06-03 15:30:51.004,0.0001350932031022,-8.994725123613321
2025-06-03 15:30:51.012,0.0001037731165449,-28.206333968903635
2025-06-03 15:30:51.019,7.05619716064136e-05,-47.39663845493649
2025-06-03 15:30:51.027,3.579268968506261e-05,-66.44473348975119
2025-06-03 15:30:51.035,-1.4156865194800506e-07,-85.22926304533758
2025-06-03 15:30:51.043,-3.679441425862652e-05,-103.6321554769226
2025-06-03 15:30:51.051,-7.367645371121064e-05,-121.54203598844308
2025-06-03 15:30:51.058,-0.0001102684567424,-138.85717147551316
2025-06-03 15:30:51.066,-0.0001460370376556,-155.48785616427324
2025-06-03 15:30:51.074,-0.0001804522650926,-171.35820087456744
2025-06-03 15:30:51.082,-0.0002130064306007,-186.4073373251236
2025-06-03 15:30:51.090,-0.000243233011287,-200.59008705593493
2025-06-03 15:30:51.098,-0.0002707247218195,-213.87717023081635
2025-06-03 15:30:51.105,-0.0002951495183041,-226.25504242925845
2025-06-03 15:30:51.113,-0.0003162634929874,-237.72544807919292
2025-06-03 15:30:51.121,-0.000333919773091,-248.30476873585425
2025-06-03 15:30:51.129,-0.0003480728179781,-258.02322537144266
2025-06-03 15:30:51.137,-0.0003587778900608,-266.92396997472736
2025-06-03 15:30:51.144,-0.0003661858897891,-275.0620779359413
2025-06-03 15:30:51.152,-0.0003705340919476,-282.5034337520265
2025-06-03 15:30:51.160,-0.0003721335359345,-289.3234917788093
2025-06-03 15:30:51.168,-0.0003713539148791,-295.6058916433533
2025-06-03 15:30:51.176,-0.0003686068224273,-301.4409126077414
2025-06-03 15:30:51.183,-0.0003643281878802,-306.92375973444854
2025-06-03 15:30:51.191,-0.0003589606760086,-312.15268473916944
2025-06-03 15:30:51.199,-0.0003529367536615,-317.226954486413
2025-06-03 15:30:51.207,-0.0003466630359825,-322.2446893224153
2025-06-03 15:30:51.215,-0.0003405064252098,-327.30060128533967
2025-06-03 15:30:51.223,-0.000334782448925,-332.48366853958146
2025-06-03 15:30:51.230,-0.0003297460960723,-337.8747875055582
2025-06-03 15:30:51.238,-0.0003255853414787,-343.54444868864715
2025-06-03 15:30:51.246,-0.0003224174458035,-349.5504865655758
2025-06-03 15:30:51.254,-0.0003202880201778,-355.9359581098659
2025-06-03 15:30:51.262,-0.0003191727550699,-362.7272083817757
2025-06-03 15:30:51.269,-0.0003189816324983,-369.9321846734094
2025-06-03 15:30:51.277,-0.0003195653705434,-377.53906252238335
