Timestamp,GSR_Filtered,PPG_Filtered,FMS,Condition
2025-06-03 15:41:55.620,0.0013939262467297,-38.63281900856549,0,NB
2025-06-03 15:41:55.627,0.0011696195991186,-38.94435639183785,0,NB
2025-06-03 15:41:55.635,0.0009474973591784,-38.98716132514823,0,NB
2025-06-03 15:41:55.643,0.0007305645151243,-38.75392753679121,0,NB
2025-06-03 15:41:55.651,0.0005215551549421,-38.24235769836214,0,NB
2025-06-03 15:41:55.659,0.000322857975702,-37.45542810200674,0,NB
2025-06-03 15:41:55.667,0.0001364589827272,-36.40147731628533,0,NB
2025-06-03 15:41:55.674,-3.609716883679398e-05,-35.09410952386298,0,NB
2025-06-03 15:41:55.682,-0.0001937269933874,-33.55191220325592,0,NB
2025-06-03 15:41:55.690,-0.0003358100870745,-31.79799667353917,0,NB
2025-06-03 15:41:55.698,-0.0004621749958956,-29.859378259761908,0,NB
2025-06-03 15:41:55.706,-0.0005730716339084,-27.766220112204888,0,NB
2025-06-03 15:41:55.713,-0.0006691333072429,-25.55097075719149,0,NB
2025-06-03 15:41:55.792,-0.0007513314347523,-23.24743002970224,0,NB
2025-06-03 15:41:55.799,-0.0008209256471985,-20.889780915750418,0,NB
2025-06-03 15:41:55.807,-0.0008794113224274,-18.511625843709496,0,NB
2025-06-03 15:41:55.823,-0.0009284660413153,-16.145065068883017,0,NB
2025-06-03 15:41:55.831,-0.0009698960359988,-13.819852156661796,0,NB
2025-06-03 15:41:55.838,-0.0010055834668743,-11.56265750630287,0,NB
2025-06-03 15:41:55.846,-0.0010374353446671,-9.396465708506865,0,NB
2025-06-03 15:41:55.854,-0.0010673350809705,-7.340126567497469,0,NB
2025-06-03 15:41:55.862,-0.0010970978446091,-5.408073072720104,0,NB
2025-06-03 15:41:55.870,-0.0011284309422204,-3.6102127187906,0,NB
2025-06-03 15:41:55.877,-0.0011629002609106,-1.9519916111102569,0,NB
2025-06-03 15:41:55.885,-0.0012019034860385,-0.4346240316996156,0,NB
2025-06-03 15:41:55.893,-0.0012466505209662,0.9445261633895634,0,NB
2025-06-03 15:41:55.901,-0.0012981514136682,2.191431552257533,0,NB
2025-06-03 15:41:55.909,-0.0013572120349711,3.314778518185353,0,NB
2025-06-03 15:41:55.917,-0.0014244375197814,4.325263632000555,0,NB
2025-06-03 15:41:55.924,-0.0015002430074326,5.234839270276799,0,NB
2025-06-03 15:41:55.932,-0.0015848706978934,6.055940110863613,0,NB
2025-06-03 15:41:55.940,-0.0016784119081197,6.800722391738862,0,NB
2025-06-03 15:41:55.948,-0.0017808327031483,7.480346903019734,0,NB
2025-06-03 15:41:55.956,-0.0018920016719886,8.104334642755923,0,NB
2025-06-03 15:41:55.963,-0.002011718408396,8.680020968603788,0,NB
2025-06-03 15:41:55.971,-0.0021397411958653,9.212130010566254,0,NB
2025-06-03 15:41:55.979,-0.0022758122797057,9.702486198154542,0,NB
2025-06-03 15:41:55.987,-0.002419678972614,10.149874162135378,0,NB
2025-06-03 15:41:55.995,-0.0025711087911146,10.55005220160067,0,NB
2025-06-03 15:41:56.002,-0.0027298970065192,10.895918198139109,0,NB
2025-06-03 15:41:56.010,-0.0028958654857164,11.177820560875642,0,NB
2025-06-03 15:41:56.018,-0.0030688524296764,11.384000747291555,0,NB
2025-06-03 15:41:56.026,-0.0032486934802142,11.50114836180833,0,NB
2025-06-03 15:41:56.034,-0.0034351955640874,11.51504500573949,0,NB
2025-06-03 15:41:56.042,-0.0036281056606235,11.411269129665463,0,NB
2025-06-03 15:41:56.049,-0.0038270772947278,11.175931279433517,0,NB
2025-06-03 15:41:56.057,-0.0040316379117505,10.796407455605834,0,NB
2025-06-03 15:41:56.065,-0.0042411603390461,10.262037928921188,0,NB
2025-06-03 15:41:56.073,-0.004454841230397,9.564759863087655,0,NB
2025-06-03 15:41:56.081,-0.0046716887876132,8.699644565015273,0,NB
2025-06-03 15:41:56.088,-0.0048905213400656,7.665314159203241,0,NB
2025-06-03 15:41:56.096,-0.0051099776315726,6.4642179732738905,0,NB
2025-06-03 15:41:56.104,-0.0053285388484003,5.102755823162442,0,NB
2025-06-03 15:41:56.260,-0.0055445614807708,3.591243347229442,0,NB
2025-06-03 15:41:56.268,-0.005756319152639,1.94372287553903,0,NB
2025-06-03 15:41:56.276,-0.0059620507567903,0.1776311888787816,0,NB
2025-06-03 15:41:56.284,-0.0061600117238011,-1.6866577551503354,0,NB
2025-06-03 15:41:56.292,-0.0063485250635889,-3.626391808843573,0,NB
2025-06-03 15:41:56.299,-0.0065260288868264,-5.617074319695446,0,NB
2025-06-03 15:41:56.307,-0.0066911173946554,-7.633143302532046,0,NB
2025-06-03 15:41:56.315,-0.0068425728593077,-9.648666089121576,0,NB
2025-06-03 15:41:56.323,-0.0069793869335214,-11.638019932866808,0,NB
2025-06-03 15:41:56.362,-0.0071007706246723,-13.576530696460908,0,NB
2025-06-03 15:41:56.370,-0.0072061532770708,-15.441044443150046,0,NB
2025-06-03 15:41:56.377,-0.0072951717882298,-17.210410364301755,0,NB
2025-06-03 15:41:56.385,-0.0073676519559374,-18.865857872331613,0,NB
2025-06-03 15:41:56.393,-0.0074235842295642,-20.39125570977725,0,NB
2025-06-03 15:41:56.401,-0.0074630961813709,-21.77324638524867,0,NB
2025-06-03 15:41:56.409,-0.0074864238121596,-23.001254943161783,0,NB
2025-06-03 15:41:56.424,-0.0074938835344906,-24.06737680924381,0,NB
2025-06-03 15:41:56.432,-0.0074858464363196,-24.96615503745585,0,NB
2025-06-03 15:41:56.440,-0.0074627161982612,-25.694262519174508,0,NB
2025-06-03 15:41:56.448,-0.0074249117702225,-26.25010938744204,0,NB
2025-06-03 15:41:56.456,-0.0073728555972788,-26.633399725767937,0,NB
2025-06-03 15:41:56.463,-0.0073069678374833,-26.84466453600001,0,NB
2025-06-03 15:41:56.471,-0.0072276666586768,-26.884799519020643,0,NB
2025-06-03 15:41:56.479,-0.0071353743597814,-26.75463641537141,0,NB
2025-06-03 15:41:56.487,-0.0070305287559533,-26.454575356614004,0,NB
2025-06-03 15:41:56.495,-0.0069135990106736,-25.984302891359064,0,NB
2025-06-03 15:41:56.502,-0.0067851048767467,-25.342616152959355,0,NB
2025-06-03 15:41:56.510,-0.0066456380633398,-24.52736819048701,0,NB
2025-06-03 15:41:56.518,-0.0064958841197911,-23.535543031871683,0,NB
2025-06-03 15:41:56.526,-0.0063366428450939,-22.363461898606488,0,NB
2025-06-03 15:41:56.534,-0.0061688449253984,-21.007114507124506,0,NB
2025-06-03 15:41:56.542,-0.0059935624417239,-19.462601964277493,0,NB
2025-06-03 15:41:56.549,-0.0058120111899854,-17.72667079238705,0,NB
2025-06-03 15:41:56.557,-0.0056255433865178,-15.797311488883208,0,NB
2025-06-03 15:41:56.565,-0.0054356301293005,-13.674390091415644,0,NB
2025-06-03 15:41:56.573,-0.0052438337706351,-11.36027779053536,0,NB
2025-06-03 15:41:56.581,-0.0050517710446026,-8.86044195589085,0,NB
2025-06-03 15:41:56.588,-0.0048610683572971,-6.18396218388541,0,NB
2025-06-03 15:41:56.596,-0.0046733110731728,-3.3439371966969134,0,NB
2025-06-03 15:41:56.604,-0.0044899889359187,-0.3577525668836073,0,NB
2025-06-03 15:41:56.612,-0.0043124400113683,2.7528148689246192,0,NB
2025-06-03 15:41:56.620,-0.0041417957646398,5.961672691638523,0,NB
2025-06-03 15:41:56.627,-0.0039789300279173,9.238677010261323,0,NB
2025-06-03 15:41:56.635,-0.0038244145964441,12.550084209148896,0,NB
2025-06-03 15:41:56.643,-0.0036784839992781,15.859180200560658,0,NB
2025-06-03 15:41:56.651,-0.0035410116929727,19.12706797821756,0,NB
2025-06-03 15:41:56.659,-0.0034114995606045,22.31358593816805,0,NB
2025-06-03 15:41:56.667,-0.0032890821204449,25.37832230146331,0,NB
2025-06-03 15:41:56.674,-0.00317254618938,28.28168545021156,0,NB
2025-06-03 15:41:56.682,-0.0030603659133866,30.985986426377263,0,NB
2025-06-03 15:41:56.690,-0.0029507521604398,33.456488523716324,0,NB
2025-06-03 15:41:56.698,-0.0028417143637129,35.66238002735741,0,NB
2025-06-03 15:41:56.706,-0.0027311320566783,37.57762978384141,0,NB
2025-06-03 15:41:56.713,-0.0026168325870773,39.18169121803005,0,NB
2025-06-03 15:41:56.721,-0.0024966708902796,40.46002811189503,0,NB
2025-06-03 15:41:56.729,-0.0023686068684733,41.40444416106779,0,NB
2025-06-03 15:41:56.737,-0.0022307760207562,42.013207310851456,0,NB
2025-06-03 15:41:56.745,-0.0020815495729288,42.29096864224997,0,NB
2025-06-03 15:41:56.753,-0.0019195813709573,42.248483816545786,0,NB
2025-06-03 15:41:56.760,-0.001743840041968,41.902152569409424,0,NB
2025-06-03 15:41:56.768,-0.0015536262094378,41.273398278749525,0,NB
2025-06-03 15:41:56.776,-0.001348575693634,40.38791503265625,0,NB
2025-06-03 15:41:56.784,-0.0011286504490633,39.27481371892253,0,NB
2025-06-03 15:41:56.792,-0.0008941193961609,37.96570128699183,0,NB
2025-06-03 15:41:56.799,-0.000645531369451,36.493728393727736,0,NB
2025-06-03 15:41:56.807,-0.0003836822914239,34.89264013301831,0,NB
2025-06-03 15:41:56.815,-0.0001095785157713,33.19586257420718,0,NB
2025-06-03 15:41:56.823,0.0001756018784004,31.435654589618984,0,NB
2025-06-03 15:41:56.831,0.0004705482013537,29.642350183002783,0,NB
2025-06-03 15:41:56.838,0.0007738551755908,27.84371151369347,0,NB
2025-06-03 15:41:56.846,0.0010840585653455,26.064407332438076,0,NB
2025-06-03 15:41:56.854,0.0013996674332752,24.325625882921894,0,NB
2025-06-03 15:41:56.862,0.0017191924737664,22.64482573110612,0,NB
2025-06-03 15:41:56.870,0.0020411703198063,21.035622681214853,0,NB
2025-06-03 15:41:56.878,0.0023641841208221,19.50780610622636,0,NB
2025-06-03 15:41:56.885,0.0026868810332727,18.067473810790307,0,NB
2025-06-03 15:41:56.893,0.0030079875109104,16.717271066708136,0,NB
2025-06-03 15:41:56.901,0.0033263233087194,15.456716785913688,0,NB
2025-06-03 15:41:56.909,0.0036408148839273,14.2825979547702,0,NB
2025-06-03 15:41:56.917,0.003950508553552,13.189412446286983,0,NB
2025-06-03 15:41:56.924,0.0042545835623555,12.169840129699304,0,NB
2025-06-03 15:41:56.932,0.004552365169273,11.215222766063691,0,NB
2025-06-03 15:41:56.940,0.0048433378707346,10.3160344503622,0,NB
2025-06-03 15:41:56.948,0.0051271588513506,9.462326250905424,0,NB
2025-06-03 15:41:56.956,0.0054036716582471,8.644131104664217,0,NB
2025-06-03 15:41:56.963,0.0056729199422811,7.851817842941673,0,NB
2025-06-03 15:41:56.971,0.0059351609129473,7.076386334496672,0,NB
2025-06-03 15:41:56.979,0.0061908779315863,6.3096990311116565,0,NB
2025-06-03 15:41:56.987,0.0064407914384065,5.544647564993573,0,NB
2025-06-03 15:41:56.995,0.0066858671922627,4.775256345452419,0,NB
2025-06-03 15:41:57.003,0.006927320617186,3.99672818519037,0,NB
2025-06-03 15:41:57.010,0.0071666159143055,3.205439695424843,0,NB
2025-06-03 15:41:57.018,0.0074054585280616,2.3988963672887964,0,NB
2025-06-03 15:41:57.026,0.0076457795648019,1.5756587651423826,0,NB
2025-06-03 15:41:57.034,0.0078897108598834,0.735251988754727,0,NB
2025-06-03 15:41:57.042,0.0081395495822011,-0.1219295443788185,0,NB
2025-06-03 15:41:57.049,0.0083977115540488,-0.994710888930474,0,NB
2025-06-03 15:41:57.057,0.0086666728459952,-1.8812095409892493,0,NB
2025-06-03 15:41:57.065,0.0089488996726272,-2.7788855451461005,0,NB
2025-06-03 15:41:57.073,0.0092467671521301,-3.684564493029268,0,NB
2025-06-03 15:41:57.081,0.0095624680824915,-4.594432174698447,0,NB
2025-06-03 15:41:57.088,0.0098979135069154,-5.504002624031021,0,NB
2025-06-03 15:41:57.096,0.0102546274642511,-6.408064033984723,0,NB
2025-06-03 15:41:57.104,0.0106336389172528,-7.30060934072651,0,NB
2025-06-03 15:41:57.112,0.0110353743906072,-8.174760079246509,0,NB
2025-06-03 15:41:57.120,0.0114595552993115,-9.022693341352207,0,NB
2025-06-03 15:41:57.128,0.0119051042740126,-9.835582305628664,0,NB
2025-06-03 15:41:57.135,0.0123700649630821,-10.60356087725767,0,NB
2025-06-03 15:41:57.143,0.0128515397846751,-11.315722514780692,0,NB
2025-06-03 15:41:57.151,0.0133456498939826,-11.960162377340062,0,NB
2025-06-03 15:41:57.159,0.0138475212060828,-12.524070536662927,0,NB
2025-06-03 15:41:57.167,0.0143512996659921,-12.993882188031126,0,NB
2025-06-03 15:41:57.174,0.0148501980922184,-13.355488585593577,0,NB
2025-06-03 15:41:57.182,0.0153365758882814,-13.594509851236223,0,NB
2025-06-03 15:41:57.190,0.0158020518421804,-13.696627914284974,0,NB
2025-06-03 15:41:57.198,0.0162376492573128,-13.647974709821767,0,NB
2025-06-03 15:41:57.206,0.0166339717774814,-13.43556750610975,0,NB
2025-06-03 15:41:57.213,0.0169814072910583,-13.047779988088116,0,NB
2025-06-03 15:41:57.221,0.0172703560447419,-12.474834661437072,0,NB
2025-06-03 15:41:57.229,0.0174914775987011,-11.709299444300909,0,NB
2025-06-03 15:41:57.237,0.0176359497100934,-10.74656917231941,0,NB
2025-06-03 15:41:57.245,0.017695730841298,-9.58531134161794,0,NB
2025-06-03 15:41:57.253,0.0176638168946309,-8.227854911591933,0,NB
2025-06-03 15:41:57.260,0.0175344820874637,-6.680501494273594,0,NB
2025-06-03 15:41:57.268,0.017303493702473,-4.953739819979628,0,NB
2025-06-03 15:41:57.276,0.0169682908660855,-3.062346983676162,0,NB
2025-06-03 15:41:57.284,0.0165281185633383,-1.0253635880611924,0,NB
2025-06-03 15:41:57.292,0.015984109711803,1.1340655972560316,0,NB
2025-06-03 15:41:57.299,0.0153393100816389,3.388988611432548,0,NB
2025-06-03 15:41:57.307,0.014598642946303,5.709078341554245,0,NB
2025-06-03 15:41:57.315,0.0137688125104692,8.061191133127828,0,NB
2025-06-03 15:41:57.323,0.0128581474682354,10.410037692411096,0,NB
2025-06-03 15:41:57.331,0.011876388594517,12.718946688087549,0,NB
2025-06-03 15:41:57.338,0.0108344270745066,14.950696943401478,0,NB
2025-06-03 15:41:57.346,0.0097440031866409,17.068390667971645,0,NB
2025-06-03 15:41:57.354,0.0086173776589554,19.036338021061265,0,NB
2025-06-03 15:41:57.362,0.0074669901212421,20.82092254949849,0,NB
2025-06-03 15:41:57.370,0.0063051202626796,22.39141773481328,0,NB
2025-06-03 15:41:57.378,0.0051435674312256,23.720726956395083,0,NB
2025-06-03 15:41:57.385,0.0039933634614932,24.786022491784745,0,NB
2025-06-03 15:41:57.393,0.0028645315422665,25.56926352598524,0,NB
2025-06-03 15:41:57.401,0.0017659010425465,26.057578269342383,0,NB
2025-06-03 15:41:57.409,0.000704984609116,26.243500888915783,0,NB
2025-06-03 15:41:57.417,-0.0003120801744638,26.12505972173034,0,NB
2025-06-03 15:41:57.424,-0.0012805263850625,25.705718844180364,0,NB
2025-06-03 15:41:57.432,-0.0021968962908831,24.994180233239653,0,NB
2025-06-03 15:41:57.440,-0.0030589317569565,24.004058235061237,0,NB
2025-06-03 15:41:57.448,-0.0038654277783252,22.75344168528309,0,NB
2025-06-03 15:41:57.456,-0.0046160615018968,21.26436171245588,0,NB
2025-06-03 15:41:57.463,-0.0053112089918041,19.56218499164312,0,NB
2025-06-03 15:41:57.471,-0.0059517609321946,17.67495305763518,0,NB
2025-06-03 15:41:57.479,-0.00653894687147,15.632688342583414,0,NB
2025-06-03 15:41:57.487,-0.007074175971696,13.466687006614157,0,NB
2025-06-03 15:41:57.495,-0.0075589009038486,11.208817529801165,0,NB
2025-06-03 15:41:57.503,-0.0079945105410137,8.890842569545459,0,NB
2025-06-03 15:41:57.510,-0.0083822560338155,6.543779868457281,0,NB
2025-06-03 15:41:57.518,-0.0087232130919565,4.19731608902029,0,NB
2025-06-03 15:41:57.526,-0.0090182804737153,1.8792853747048517,0,NB
2025-06-03 15:41:57.534,-0.0092682111054744,-0.3847778105294682,0,NB
2025-06-03 15:41:57.542,-0.0094736688930974,-2.5720044363636547,0,NB
2025-06-03 15:41:57.549,-0.0096353021644592,-4.662470712435354,0,NB
2025-06-03 15:41:57.557,-0.0097538241637653,-6.639390108390382,0,NB
2025-06-03 15:41:57.565,-0.0098300917826217,-8.489218483477984,0,NB
2025-06-03 15:41:57.573,-0.0098651752268319,-10.201675864966,0,NB
2025-06-03 15:41:57.581,-0.0098604131624674,-11.76969082341578,0,NB
2025-06-03 15:41:57.588,-0.0098174497600693,-13.189275427468743,0,NB
2025-06-03 15:41:57.596,-0.0097382517438902,-14.45934031344557,0,NB
2025-06-03 15:41:57.604,-0.00962510496261,-15.581460416679208,0,NB
2025-06-03 15:41:57.612,-0.0094805911936355,-16.559602376759788,0,NB
2025-06-03 15:41:57.620,-0.0093075470220348,-17.399824591683583,0,NB
2025-06-03 15:41:57.628,-0.0091090077698419,-18.109960436140785,0,NB
2025-06-03 15:41:57.635,-0.0088881404839476,-18.69929437275177,0,NB
2025-06-03 15:41:57.643,-0.0086481706950747,-19.17823966459731,0,NB
2025-06-03 15:41:57.651,-0.0083923078615871,-19.55802522052836,0,NB
2025-06-03 15:41:57.659,-0.0081236741000781,-19.850397830837988,0,NB
2025-06-03 15:41:57.667,-0.0078452401187611,-20.06734472219437,0,NB
2025-06-03 15:41:57.674,-0.0075597714062726,-20.22084000631542,0,NB
2025-06-03 15:41:57.682,-0.007269786843267,-20.32261724076121,0,NB
2025-06-03 15:41:57.690,-0.0069775310472362,-20.383968992528114,0,NB
2025-06-03 15:41:57.698,-0.0066849608969342,-20.415573038643345,0,NB
2025-06-03 15:41:57.706,-0.0063937457787259,-20.42734370542615,0,NB
2025-06-03 15:41:57.713,-0.0061052801944591,-20.428305894249377,0,NB
2025-06-03 15:41:57.721,-0.0058207066052601,-20.42648861796077,0,NB
2025-06-03 15:41:57.729,-0.0055409459360485,-20.4288344257968,0,NB
2025-06-03 15:41:57.737,-0.0052667331216522,-20.44112096783924,0,NB
2025-06-03 15:41:57.745,-0.0049986553558017,-20.467891176909003,0,NB
2025-06-03 15:41:57.753,-0.0047371911131904,-20.512389147166708,0,NB
2025-06-03 15:41:57.760,-0.0044827483571857,-20.57649976570656,0,NB
2025-06-03 15:41:57.768,-0.0042357005263195,-20.660691478387776,0,NB
2025-06-03 15:41:57.776,-0.0039964189730837,-20.76396317635176,0,NB
2025-06-03 15:41:57.784,-0.0037653006553491,-20.88379795806784,0,NB
2025-06-03 15:41:57.792,-0.00354279012386,-21.016128286953847,0,NB
2025-06-03 15:41:57.799,-0.0033293951563444,-21.15531862658353,0,NB
2025-06-03 15:41:57.807,-0.0031256956782147,-21.294172790112984,0,NB
2025-06-03 15:41:57.815,-0.0029323458382566,-21.42397381310174,0,NB
2025-06-03 15:41:57.823,-0.0027500692661969,-21.53456403034425,0,NB
2025-06-03 15:41:57.831,-0.0025796476532779,-21.61447215900757,0,NB
2025-06-03 15:41:57.838,-0.0024219029314724,-21.651092588312537,0,NB
2025-06-03 15:41:57.846,-0.0022776735233245,-21.630919846321827,0,NB
2025-06-03 15:41:57.854,-0.0021477853451984,-21.53983850930326,0,NB
2025-06-03 15:41:57.862,-0.0020330184176735,-21.363465824865308,0,NB
2025-06-03 15:41:57.870,-0.0019340701322393,-21.087541232632397,0,NB
2025-06-03 15:41:57.878,-0.0018515165483719,-20.69835397193893,0,NB
2025-06-03 15:41:57.885,-0.0017857735247697,-20.18319723143317,0,NB
2025-06-03 15:41:57.893,-0.0017370598800051,-19.53083496618701,0,NB
2025-06-03 15:41:57.901,-0.0017053650041428,-18.73196570968607,0,NB
2025-06-03 15:41:57.909,-0.0016904233462882,-17.779666544305726,0,NB
2025-06-03 15:41:57.917,-0.001691697970624,-16.66979993925521,0,NB
2025-06-03 15:41:57.924,-0.0017083749324042,-15.401366459728363,0,NB
2025-06-03 15:41:57.932,-0.0017393696527834,-13.976787398716432,0,NB
2025-06-03 15:41:57.940,-0.0017833458542779,-12.402103152695794,0,NB
2025-06-03 15:41:57.948,-0.00183874699743,-10.687075593818172,0,NB
2025-06-03 15:41:57.956,-0.0019038395425419,-8.845185698712926,0,NB
2025-06-03 15:41:57.963,-0.00197676675765,-6.893521168757811,0,NB
2025-06-03 15:41:57.971,-0.0020556111888629,-4.8525525891413,0,NB
2025-06-03 15:41:57.979,-0.0021384632715508,-2.745800678577812,0,NB
2025-06-03 15:41:57.987,-0.0022234929394132,-0.599401221243419,0,NB
2025-06-03 15:41:57.995,-0.0023090206255727,1.5584218176405662,0,NB
2025-06-03 15:41:58.003,-0.0023935838689918,3.697960882360798,0,NB
2025-06-03 15:41:58.010,-0.0024759958815392,5.788689879103804,0,NB
2025-06-03 15:41:58.018,-0.0025553928954535,7.799969951798552,0,NB
2025-06-03 15:41:58.026,-0.0026312678557532,9.701774526237926,0,NB
2025-06-03 15:41:58.034,-0.0027034889167678,11.465411315407955,0,NB
2025-06-03 15:41:58.042,-0.0027723020693786,13.064219017729192,0,NB
2025-06-03 15:41:58.049,-0.0028383179397803,14.474217337029296,0,NB
2025-06-03 15:41:58.057,-0.0029024833176876,15.674690632587074,0,NB
2025-06-03 15:41:58.065,-0.0029660383204095,16.648687865680905,0,NB
2025-06-03 15:41:58.073,-0.0030304603889316,17.38342442436833,0,NB
2025-06-03 15:41:58.081,-0.0030973966971559,17.87057474635584,0,NB
2025-06-03 15:41:58.088,-0.0031685871094331,18.10644827643913,0,NB
2025-06-03 15:41:58.096,-0.003245780459268,18.0920450422324,0,NB
2025-06-03 15:41:58.104,-0.0033306474774348,17.832990868200444,0,NB
2025-06-03 15:41:58.112,-0.003424694047802,17.33935584658916,0,NB
2025-06-03 15:41:58.120,-0.0035291785655992,16.625363037352074,0,NB
2025-06-03 15:41:58.128,-0.0036450370114586,15.708997390898748,0,NB
2025-06-03 15:41:58.135,-0.0037728189754354,14.61152750892782,0,NB
2025-06-03 15:41:58.143,-0.003912637378182,13.356955023912388,0,NB
2025-06-03 15:41:58.151,-0.0040641341688169,11.97140803973824,0,NB
2025-06-03 15:41:58.159,-0.0042264638422875,10.482496197243886,0,NB
2025-06-03 15:41:58.167,-0.0043982960982626,8.918645487329238,0,NB
2025-06-03 15:41:58.174,-0.0045778382889997,7.308430929215785,0,NB
2025-06-03 15:41:58.182,-0.0047628775290689,5.679924679891186,0,NB
2025-06-03 15:41:58.190,-0.0049508415234715,4.060076078062543,0,NB
2025-06-03 15:41:58.198,-0.0051388763146184,2.474138607613559,0,NB
2025-06-03 15:41:58.206,-0.0053239382799493,0.94515686952461,0,NB
2025-06-03 15:41:58.213,-0.0055028969041102,-0.5064755266406686,0,NB
2025-06-03 15:41:58.221,-0.0056726441558012,-1.8633785964205736,0,NB
2025-06-03 15:41:58.229,-0.0058302057512944,-3.1114630170879245,0,NB
2025-06-03 15:41:58.237,-0.0059728492471747,-4.240117867437285,0,NB
2025-06-03 15:41:58.245,-0.0060981838715906,-5.242307716473216,0,NB
2025-06-03 15:41:58.253,-0.0062042473616818,-6.11457993556411,0,NB
2025-06-03 15:41:58.260,-0.0062895758303451,-6.856985205625687,0,NB
2025-06-03 15:41:58.268,-0.0063532537254412,-7.47291615592489,0,NB
2025-06-03 15:41:58.276,-0.0063949421008786,-7.9688709031497185,0,NB
2025-06-03 15:41:58.284,-0.0064148845706128,-8.354149940698825,0,NB
2025-06-03 15:41:58.292,-0.0064138914090969,-8.640496315097623,0,NB
2025-06-03 15:41:58.299,-0.0063933032495336,-8.84169025110454,0,NB
2025-06-03 15:41:58.307,-0.0063549366407751,-8.973110267859253,0,NB
2025-06-03 15:41:58.315,-0.0063010143086891,-9.051273286003648,0,NB
2025-06-03 15:41:58.323,-0.0062340833747449,-9.093366200214176,0,NB
2025-06-03 15:41:58.331,-0.0061569250695495,-9.116780858598508,0,NB
2025-06-03 15:41:58.338,-0.0060724595814842,-9.138663373273843,0,NB
2025-06-03 15:41:58.346,-0.0059836495002617,-9.175487261316476,0,NB
2025-06-03 15:41:58.354,-0.0058934048822411,-9.242658204761929,0,NB
2025-06-03 15:41:58.362,-0.0058044924271665,-9.354156373946635,0,NB
2025-06-03 15:41:58.370,-0.0057194507468813,-9.522220437733814,0,NB
2025-06-03 15:41:58.378,-0.0056405132882932,-9.757075728719158,0,NB
2025-06-03 15:41:58.385,-0.0055695401687393,-10.066707649532107,0,NB
2025-06-03 15:41:58.393,-0.005507960002019,-10.456680360872888,0,NB
2025-06-03 15:41:58.401,-0.005456722734598,-10.930000097636112,0,NB
2025-06-03 15:41:58.409,-0.0054162645364774,-11.487022089298632,0,NB
2025-06-03 15:41:58.417,-0.0053864858141666,-12.125399959548666,0,NB
2025-06-03 15:41:58.424,-0.0053667433411664,-12.8400765800433,0,NB
2025-06-03 15:41:58.432,-0.0053558572920037,-13.62331558710808,0,NB
2025-06-03 15:41:58.440,-0.0053521336135336,-14.464773081574297,0,NB
2025-06-03 15:41:58.448,-0.0053534016715554,-15.351609377731,0,NB
2025-06-03 15:41:58.456,-0.0053570665095715,-16.26864101156335,0,NB
2025-06-03 15:41:58.463,-0.0053601744409868,-17.19853351949722,0,NB
2025-06-03 15:41:58.471,-0.0053594901543808,-18.122035700155628,0,NB
2025-06-03 15:41:58.479,-0.0053515830884965,-19.018256102613424,0,NB
2025-06-03 15:41:58.487,-0.0053329205456739,-19.86498227130466,0,NB
2025-06-03 15:41:58.495,-0.0052999648635998,-20.63904275537733,0,NB
2025-06-03 15:41:58.503,-0.0052492719311362,-21.31671101328173,0,NB
2025-06-03 15:41:58.510,-0.0051775883526001,-21.87414909208197,0,NB
2025-06-03 15:41:58.518,-0.0050819445979426,-22.287887348025425,0,NB
2025-06-03 15:41:58.526,-0.0049597415753145,-22.535334550204425,0,NB
2025-06-03 15:41:58.534,-0.0048088282860482,-22.5953105597925,0,NB
2025-06-03 15:41:58.542,-0.0046275685098542,-22.44859152161894,0,NB
2025-06-03 15:41:58.549,-0.0044148947180308,-22.0784552855246,0,NB
2025-06-03 15:41:58.557,-0.0041703476454988,-21.47121275509041,0,NB
2025-06-03 15:41:58.565,-0.003894100273186,-20.616709217957737,0,NB
2025-06-03 15:41:58.573,-0.0035869653982363,-19.5087786228503,0,NB
2025-06-03 15:41:58.581,-0.0032503864082559,-18.145633394534663,0,NB
2025-06-03 15:41:58.588,-0.0028864112726987,-16.53017284416378,0,NB
2025-06-03 15:41:58.596,-0.002497650184504,-14.670194606337054,0,NB
2025-06-03 15:41:58.604,-0.0020872178236426,-12.578495808324712,0,NB
2025-06-03 15:41:58.612,-0.0016586619067281,-10.272853764155771,0,NB
2025-06-03 15:41:58.620,-0.0012158805010585,-7.775879732114281,0,NB
2025-06-03 15:41:58.628,-0.0007630313750091,-5.114743479275553,0,NB
2025-06-03 15:41:58.635,-0.0003044371604015,-2.3207708413328203,0,NB
2025-06-03 15:41:58.643,0.0001555099141159,0.5710790694354964,0,NB
2025-06-03 15:41:58.651,0.0006124405080008,3.5228460753160125,0,NB
2025-06-03 15:41:58.659,0.0010620955605231,6.494295715413536,0,NB
2025-06-03 15:41:58.667,0.0015004072738813,9.443722350061629,0,NB
2025-06-03 15:41:58.674,0.0019235732077917,12.328807571720043,0,NB
2025-06-03 15:41:58.682,0.0023281234979284,15.10751086871305,0,NB
2025-06-03 15:41:58.690,0.0027109813453498,17.738968251421753,0,NB
2025-06-03 15:41:58.698,0.0030695168226689,20.184374162720854,0,NB
2025-06-03 15:41:58.706,0.0034015938017909,22.407822470131077,0,NB
2025-06-03 15:41:58.713,0.0037056094254112,24.377083649566867,0,NB
2025-06-03 15:41:58.721,0.003980525053364,26.06429734963053,0,NB
2025-06-03 15:41:58.729,0.0042258872110358,27.44656226347609,0,NB
2025-06-03 15:41:58.737,0.0044418369827553,28.50640849622521,0,NB
2025-06-03 15:41:58.745,0.0046291065624239,29.23214124523473,0,NB
2025-06-03 15:41:58.753,0.0047890021307904,29.618048448428542,0,NB
2025-06-03 15:41:58.760,0.0049233727390646,29.664468953419146,0,NB
2025-06-03 15:41:58.768,0.0050345654612706,29.377721590982077,0,NB
2025-06-03 15:41:58.776,0.0051253677756878,28.769899198908785,0,NB
2025-06-03 15:41:58.784,0.0051989388733118,27.858535052679716,0,NB
2025-06-03 15:41:58.792,0.0052587322194762,26.66615224485797,0,NB
2025-06-03 15:41:58.799,0.0053084121089283,25.2197092515905,0,NB
2025-06-03 15:41:58.807,0.0053517671246574,23.549957179790862,0,NB
2025-06-03 15:41:58.815,0.0053926233442158,21.690725964045047,0,NB
2025-06-03 15:41:58.823,0.0054347598573101,19.678158053109076,0,NB
2025-06-03 15:41:58.831,0.0054818287188016,17.549908880872003,0,NB
2025-06-03 15:41:58.838,0.0055372809602321,15.344333660719672,0,NB
2025-06-03 15:41:58.846,0.0056042998222071,13.09967979662757,0,NB
2025-06-03 15:41:58.854,0.0056857419969489,10.85330350293972,0,NB
2025-06-03 15:41:58.862,0.0057840873931353,8.640928110096949,0,NB
2025-06-03 15:41:58.870,0.0059013977599242,6.495960054282325,0,NB
2025-06-03 15:41:58.878,0.0060392844275075,4.448876756665175,0,NB
2025-06-03 15:41:58.885,0.0061988854141448,2.5266985414516183,0,NB
2025-06-03 15:41:58.893,0.0063808521695992,0.7525544634493607,0,NB
2025-06-03 15:41:58.901,0.0065853461815523,-0.8546505466144731,0,NB
2025-06-03 15:41:58.909,0.0068120454966332,-2.280462414599194,0,NB
2025-06-03 15:41:58.917,0.0070601609604072,-3.5149964166288923,0,NB
2025-06-03 15:41:58.924,0.0073284617708053,-4.552948011461441,0,NB
2025-06-03 15:41:58.932,0.0076153097840703,-5.39349919619772,0,NB
2025-06-03 15:41:58.940,0.0079187018837425,-6.040125994286143,0,NB
2025-06-03 15:41:58.948,0.0082363196527412,-6.5003148438503375,0,NB
2025-06-03 15:41:58.956,0.0085655855957859,-6.785197488061837,0,NB
2025-06-03 15:41:58.963,0.0089037251498195,-6.909115438969576,0,NB
2025-06-03 15:41:58.971,0.0092478335645473,-6.8891261711409335,0,NB
2025-06-03 15:41:58.979,0.0095949464306803,-6.744463899458737,0,NB
2025-06-03 15:41:58.987,0.009942112325059,-6.4959681259138256,0,NB
2025-06-03 15:41:58.995,0.0102864658777634,-6.165493143431142,0,NB
2025-06-03 15:41:59.003,0.0106252995528925,-5.77531141484952,0,NB
2025-06-03 15:41:59.010,0.0109561324522446,-5.347523261063708,0,NB
2025-06-03 15:41:59.018,0.0112767743982733,-4.903484648934025,0,NB
2025-06-03 15:41:59.026,0.0115853834361669,-4.463264110828377,0,NB
2025-06-03 15:41:59.034,0.0118805147969771,-4.045138983568225,0,NB
2025-06-03 15:41:59.042,0.0121611593691224,-3.665140243650818,0,NB
2025-06-03 15:41:59.049,0.0124267698534902,-3.33665425101284,0,NB
2025-06-03 15:41:59.057,0.0126772729696363,-3.070088707254439,0,NB
2025-06-03 15:41:59.065,0.0129130663002853,-2.872609096480843,0,NB
2025-06-03 15:41:59.073,0.0131349986634301,-2.7479508133720465,0,NB
2025-06-03 15:41:59.081,0.0133443333388008,-2.696311092916399,0,NB
2025-06-03 15:41:59.088,0.0135426940108456,-2.714323731675483,0,NB
2025-06-03 15:41:59.096,0.0137319938823507,-2.795118416996344,0,NB
2025-06-03 15:41:59.104,0.0139143491031262,-2.928465239000518,0,NB
2025-06-03 15:41:59.112,0.0140919784779186,-3.101003628790595,0,NB
2025-06-03 15:41:59.120,0.0142670922728848,-3.296553520761296,0,NB
2025-06-03 15:41:59.128,0.0144417736627363,-3.4965049497379344,0,NB
2025-06-03 15:41:59.135,0.0146178568280898,-3.68028054061864,0,NB
2025-06-03 15:41:59.143,0.0147968058831873,-3.825863422047768,0,NB
2025-06-03 15:41:59.151,0.014979598718713,-3.9103810206033622,0,NB
2025-06-03 15:41:59.159,0.0151666195953525,-3.910733031499877,0,NB
2025-06-03 15:41:59.167,0.0153575640786992,-3.8042497182222417,0,NB
2025-06-03 15:41:59.174,0.0155513597442057,-3.569364701438254,0,NB
2025-06-03 15:41:59.182,0.0157461059248991,-3.186284713681202,0,NB
2025-06-03 15:41:59.190,0.0159390354751937,-2.6376375857906678,0,NB
2025-06-03 15:41:59.198,0.016126501011341,-1.909079147899145,0,NB
2025-06-03 15:41:59.206,0.0163039874401918,-0.9898398895609126,0,NB
2025-06-03 15:41:59.213,0.0164661519611987,0.1268068103725917,0,NB
2025-06-03 15:41:59.221,0.0166068922109084,1.4431713116742708,0,NB
2025-06-03 15:41:59.229,0.0167194427513942,2.9568831377320803,0,NB
2025-06-03 15:41:59.237,0.0167964995473979,4.66074603826329,0,NB
2025-06-03 15:41:59.245,0.0168303713455279,6.542719969949478,0,NB
2025-06-03 15:41:59.253,0.0168131559589147,8.58603342082614,0,NB
2025-06-03 15:41:59.260,0.0167369384141145,10.769425528069403,0,NB
2025-06-03 15:41:59.268,0.0165940067937377,13.067513500773394,0,NB
2025-06-03 15:41:59.276,0.0163770804794708,15.451277097481627,0,NB
2025-06-03 15:41:59.284,0.0160795444408846,17.888648437980727,0,NB
2025-06-03 15:41:59.292,0.0156956822807329,20.345192343742163,0,NB
2025-06-03 15:41:59.299,0.0152208999545758,22.784859770557656,0,NB
2025-06-03 15:41:59.307,0.0146519314533073,25.17079476325426,0,NB
2025-06-03 15:41:59.315,0.0139870173773945,27.466173747230066,0,NB
2025-06-03 15:41:59.323,0.0132260474427055,29.63505488577944,0,NB
2025-06-03 15:41:59.331,0.0123706587419729,31.643214689252545,0,NB
2025-06-03 15:41:59.338,0.0114242831136341,33.45894908671433,0,NB
2025-06-03 15:41:59.346,0.0103921391375341,35.053816798240995,0,NB
2025-06-03 15:41:59.354,0.0092811669164465,36.40330411479368,0,NB
2025-06-03 15:41:59.362,0.0080999067648185,37.4873921350484,0,NB
2025-06-03 15:41:59.370,0.0068583259833618,38.29101013784968,0,NB
2025-06-03 15:41:59.378,0.0055676006570765,38.80436206018715,0,NB
2025-06-03 15:41:59.385,0.0042398614798814,39.02311692328838,0,NB
2025-06-03 15:41:59.393,0.0028879138327551,38.94845836349711,0,NB
2025-06-03 15:41:59.401,0.0015249428205455,38.58699299130583,0,NB
2025-06-03 15:41:59.409,0.0001642138103448,37.95052190148599,0,NB
2025-06-03 15:41:59.417,-0.0011812217821025,37.0556840579107,0,NB
2025-06-03 15:41:59.424,-0.0024988070848676,35.92348425612846,0,NB
2025-06-03 15:41:59.432,-0.0037767400676496,34.57872173704297,0,NB
2025-06-03 15:41:59.440,-0.005004208515727,33.04933815412113,0,NB
2025-06-03 15:41:59.448,-0.0061715959457778,31.36570541681216,0,NB
2025-06-03 15:41:59.456,-0.0072706556553026,29.559874933241545,0,NB
2025-06-03 15:41:59.463,-0.0082946508552568,27.664809984224583,0,NB
2025-06-03 15:41:59.471,-0.009238459574083,25.71362243103857,0,NB
2025-06-03 15:41:59.479,-0.0100986436692139,23.73883375998785,0,NB
2025-06-03 15:41:59.487,-0.0108734816775532,21.77167868065254,0,NB
2025-06-03 15:41:59.495,-0.0115629653468232,19.841467221557448,0,NB
2025-06-03 15:41:59.503,-0.0121687596433888,17.975018625416133,0,NB
2025-06-03 15:41:59.510,-0.0126941259994214,16.196177470812305,0,NB
2025-06-03 15:41:59.518,-0.0131438086770989,14.525419480080773,0,NB
2025-06-03 15:41:59.526,-0.0135238844917777,12.979551551350092,0,NB
2025-06-03 15:41:59.534,-0.0138415768298913,11.571507797151456,0,NB
2025-06-03 15:41:59.542,-0.0141050359530208,10.310240878253708,0,NB
2025-06-03 15:41:59.549,-0.0143230889357237,9.200705752718344,0,NB
2025-06-03 15:41:59.557,-0.0145049640868575,8.243931142727334,0,NB
2025-06-03 15:41:59.565,-0.0146599961790135,7.437172544430816,0,NB
2025-06-03 15:41:59.573,-0.0147973201250493,6.77413942995074,0,NB
2025-06-03 15:41:59.581,-0.014925561789197,6.245288366777216,0,NB
2025-06-03 15:41:59.588,-0.0150525353230268,5.838173065797033,0,NB
2025-06-03 15:41:59.596,-0.0151849567487415,5.537841837192568,0,NB
2025-06-03 15:41:59.604,-0.0153281834830617,5.327272570134856,0,NB
2025-06-03 15:41:59.612,-0.0154859891153588,5.187835157414229,0,NB
2025-06-03 15:41:59.620,-0.0156603820689155,5.099771271572029,0,NB
2025-06-03 15:41:59.628,-0.0158514758790611,5.042681583650932,0,NB
2025-06-03 15:41:59.635,-0.0160574177995687,4.996010915401802,0,NB
2025-06-03 15:41:59.643,-0.0162743813046559,4.939522431442464,0,NB
2025-06-03 15:41:59.651,-0.0164966266965317,4.85375278778039,0,NB
2025-06-03 15:41:59.659,-0.0167166323229813,4.720441114345311,0,NB
2025-06-03 15:41:59.667,-0.0169252968040081,4.522925762650613,0,NB
2025-06-03 15:41:59.674,-0.0171122102448393,4.246503824859079,0,NB
2025-06-03 15:41:59.682,-0.0172659897755677,3.878749451457744,0,NB
2025-06-03 15:41:59.690,-0.0173746719042821,3.409787890801208,0,NB
2025-06-03 15:41:59.698,-0.0174261510595834,2.8325228921186483,0,NB
2025-06-03 15:41:59.706,-0.0174086504247025,2.1428156279316988,0,NB
2025-06-03 15:41:59.714,-0.0173112080873884,1.3396136055761445,0,NB
2025-06-03 15:41:59.721,-0.0171241592036194,0.4250281832444508,0,NB
2025-06-03 15:41:59.729,-0.0168395937432545,-0.5956406580712741,0,NB
2025-06-03 15:41:59.737,-0.0164517694939182,-1.7139336342294942,0,NB
2025-06-03 15:41:59.745,-0.015957461064128,-2.9183168721865216,0,NB
2025-06-03 15:41:59.753,-0.0153562273909099,-4.194323164155656,0,NB
2025-06-03 15:41:59.760,-0.0146505827058634,-5.524750579991929,0,NB
2025-06-03 15:41:59.768,-0.0138460591911037,-6.889918718321091,0,NB
2025-06-03 15:41:59.776,-0.0129511537263117,-8.26798210333622,0,NB
2025-06-03 15:41:59.784,-0.0119771560376351,-9.63529922119879,0,NB
2025-06-03 15:41:59.792,-0.0109378609533435,-10.966854458104477,0,NB
2025-06-03 15:41:59.799,-0.0098491731902914,-12.236728789272275,0,NB
2025-06-03 15:41:59.807,-0.0087286190865294,-13.418613515963752,0,NB
2025-06-03 15:41:59.815,-0.00759478579453,-14.486359690923184,0,NB
2025-06-03 15:41:59.823,-0.006466714081229,-15.414554140473976,0,NB
2025-06-03 15:41:59.831,-0.0053632749642716,-16.179111219467508,0,NB
2025-06-03 15:41:59.839,-0.0043025618023382,-16.757867681644488,0,NB
2025-06-03 15:41:59.846,-0.0033013277121462,-17.131166405587564,0,NB
2025-06-03 15:41:59.854,-0.0023744938636489,-17.28241331423951,0,NB
2025-06-03 15:41:59.862,-0.0015347483645447,-17.19859082007534,0,NB
2025-06-03 15:41:59.870,-0.000792249016629,-16.870710684974892,0,NB
2025-06-03 15:41:59.878,-0.0001544368326971,-16.294189456701872,0,NB
2025-06-03 15:41:59.885,0.0003740387379348,-15.469130745843724,0,NB
2025-06-03 15:41:59.893,0.0007912871205909,-14.400500592896096,0,NB
2025-06-03 15:41:59.901,0.0010980450069533,-13.098185035936092,0,NB
2025-06-03 15:41:59.909,0.0012974578120177,-11.576922653302478,0,NB
2025-06-03 15:41:59.917,0.0013947888880618,-9.856109187428856,0,NB
2025-06-03 15:41:59.924,0.0013970731908464,-7.959476155354493,0,NB
2025-06-03 15:41:59.932,0.0013127333188089,-5.9146503614735,0,NB
2025-06-03 15:41:59.940,0.0011511762596241,-3.7526061543303215,0,NB
2025-06-03 15:41:59.948,0.0009223888335991,-1.5070268045323167,0,NB
2025-06-03 15:41:59.956,0.0006365488086102,0.7864047714791158,0,NB
2025-06-03 15:41:59.964,0.0003036670799955,3.0907628195836394,0,NB
2025-06-03 15:41:59.971,-6.67257522194686e-05,5.368658219738705,0,NB
2025-06-03 15:41:59.979,-0.000465837576837,7.583015271082567,0,NB
2025-06-03 15:41:59.987,-0.0008858097752444,9.697821232144811,0,NB
2025-06-03 15:41:59.995,-0.0013198441576907,11.678826034417918,0,NB
2025-06-03 15:42:00.003,-0.0017622600930907,13.494172577766737,0,NB
2025-06-03 15:42:00.010,-0.0022084832266533,15.114941792339987,0,NB
2025-06-03 15:42:00.018,-0.0026549702540617,16.51560095424139,0,NB
2025-06-03 15:42:00.026,-0.0030990770994203,17.674348303161192,0,NB
2025-06-03 15:42:00.034,-0.0035388803730738,18.57335157227231,0,NB
2025-06-03 15:42:00.042,-0.0039729640678053,19.198882371894037,0,NB
2025-06-03 15:42:00.049,-0.004400185000978,19.541352270670988,0,NB
2025-06-03 15:42:00.057,-0.0048194314130847,19.595259731578384,0,NB
2025-06-03 15:42:00.065,-0.005229389302413,19.359059665555,0,NB
2025-06-03 15:42:00.073,-0.0056283304944118,18.834969185994343,0,NB
2025-06-03 15:42:00.081,-0.0060139351726445,18.028724149293115,0,NB
2025-06-03 15:42:00.089,-0.0063831597647529,16.949301258143677,0,NB
2025-06-03 15:42:00.096,-0.0067321588322813,15.608619930030464,0,NB
2025-06-03 15:42:00.104,-0.0070562670717538,14.021236869976908,0,NB
2025-06-03 15:42:00.112,-0.0073500447871023,12.204044435048626,0,NB
2025-06-03 15:42:00.120,-0.0076073873388789,10.175981554085524,0,NB
2025-06-03 15:42:00.128,-0.0078216961856472,7.957763292641252,0,NB
2025-06-03 15:42:00.135,-0.0079861062363538,5.5716322605941,0,NB
2025-06-03 15:42:00.143,-0.0080937613698005,3.0411320897997616,0,NB
2025-06-03 15:42:00.151,-0.0081381272441111,0.3909003152321412,0,NB
2025-06-03 15:42:00.159,-0.0081133280695508,-2.3535246605123974,0,NB
2025-06-03 15:42:00.167,-0.0080144920553365,-5.165890082114039,0,NB
2025-06-03 15:42:00.174,-0.0078380889621557,-8.019418061089034,0,NB
2025-06-03 15:42:00.182,-0.0075822427056895,-10.887007652358536,0,NB
2025-06-03 15:42:00.190,-0.0072470022787182,-13.741460005956112,0,NB
2025-06-03 15:42:00.198,-0.006834555387943,-16.555735935280847,0,NB
2025-06-03 15:42:00.206,-0.006349371151718,-19.303253401424,0,NB
2025-06-03 15:42:00.214,-0.0057982609583655,-21.958229651647976,0,NB
2025-06-03 15:42:00.221,-0.0051903500024026,-24.49606918525139,0,NB
2025-06-03 15:42:00.229,-0.0045369558180925,-26.89379453318799,0,NB
2025-06-03 15:42:00.237,-0.0038513740213392,-29.130512265730548,0,NB
2025-06-03 15:42:00.245,-0.0031485752943856,-31.187901966490905,0,NB
2025-06-03 15:42:00.253,-0.002444821357899,-33.05071144525385,0,NB
2025-06-03 15:42:00.260,-0.0017572111760254,-34.70723754120444,0,NB
2025-06-03 15:42:00.268,-0.0011031717157182,-36.14976883734399,0,NB
2025-06-03 15:42:00.276,-0.0004999099920097,-37.37496480686536,0,NB
2025-06-03 15:42:00.284,3.6155257972222565e-05,-38.384145647542574,0,NB
2025-06-03 15:42:00.292,0.0004899630882351,-39.18346854707601,0,NB
2025-06-03 15:42:00.299,0.0008483616204691,-39.78396943357936,0,NB
2025-06-03 15:42:00.307,0.0011006218169022,-40.20145429711325,0,NB
2025-06-03 15:42:00.315,0.0012388949752949,-40.45623064044906,0,NB
2025-06-03 15:42:00.323,0.0012585962077287,-40.57267710406264,0,NB
2025-06-03 15:42:00.331,0.0011586980690211,-40.57865729092785,0,NB
2025-06-03 15:42:00.339,0.0009419213631688,-40.50479173919488,0,NB
2025-06-03 15:42:00.346,0.0006148137013024,-40.38360933412516,0,NB
2025-06-03 15:42:00.354,0.0001877102184664,-40.24860577022689,0,NB
2025-06-03 15:42:00.362,-0.0003254252698076,-40.13324162849971,0,NB
2025-06-03 15:42:00.370,-0.0009072765814752,-40.0699159915989,0,NB
2025-06-03 15:42:00.378,-0.0015375631990983,-40.08895315969606,0,NB
2025-06-03 15:42:00.385,-0.0021935308247086,-40.21763992936541,0,NB
2025-06-03 15:42:00.393,-0.0028505320908923,-40.47934912248719,0,NB
2025-06-03 15:42:00.401,-0.0034826822037995,-40.89278174379752,0,NB
2025-06-03 15:42:00.409,-0.0040635718871193,-41.47135551003697,0,NB
2025-06-03 15:42:00.417,-0.0045670181929746,-42.22276178593974,0,NB
2025-06-03 15:42:00.424,-0.0049678325829681,-43.14870647174067,0,NB
2025-06-03 15:42:00.432,-0.0052425850541997,-44.2448434199714,0,NB
2025-06-03 15:42:00.440,-0.0053703428331194,-45.50090182174015,0,NB
2025-06-03 15:42:00.448,-0.005333362140453,-46.90100198042983,0,NB
2025-06-03 15:42:00.456,-0.0051177116231727,-48.42414723671693,0,NB
2025-06-03 15:42:00.464,-0.0047138061996733,-50.04487374014536,0,NB
2025-06-03 15:42:00.471,-0.0041168303626471,-51.73403446319136,0,NB
2025-06-03 15:42:00.479,-0.0033270307249502,-53.45968947376696,0,NB
2025-06-03 15:42:00.487,-0.0023498592598169,-55.18807113414233,0,NB
2025-06-03 15:42:00.495,-0.0011959518187366,-56.88459065633636,0,NB
2025-06-03 15:42:00.503,0.0001190685023806,-58.51485136715288,0,NB
2025-06-03 15:42:00.510,0.0015749666369038,-60.045634147639305,0,NB
2025-06-03 15:42:00.518,0.0031474442362352,-61.445821810343,0,NB
2025-06-03 15:42:00.526,0.0048088465121941,-62.6872316252503,0,NB
2025-06-03 15:42:00.534,0.0065290014830237,-63.74532872314944,0,NB
2025-06-03 15:42:00.542,0.0082761563314891,-64.59979757380133,0,NB
2025-06-03 15:42:00.549,0.0100179685149888,-65.23495399637021,0,NB
2025-06-03 15:42:00.557,0.0117225056233024,-65.63998601635936,0,NB
2025-06-03 15:42:00.565,0.0133592079327583,-65.80901811667977,0,NB
2025-06-03 15:42:00.573,0.0148997709770516,-65.74099981063931,0,NB
2025-06-03 15:42:00.581,0.0163189119621981,-65.43942577051774,0,NB
2025-06-03 15:42:00.589,0.0175949927922415,-64.9119007791812,0,NB
2025-06-03 15:42:00.596,0.0187104825212459,-64.16956836470982,0,NB
2025-06-03 15:42:00.604,0.0196522517725867,-63.22642698471391,0,NB
2025-06-03 15:42:00.612,0.0204117002167908,-62.09856191640922,0,NB
2025-06-03 15:42:00.620,0.0209847254148181,-60.80332444589624,0,NB
2025-06-03 15:42:00.628,0.0213715473540943,-59.35849238395054,0,NB
2025-06-03 15:42:00.635,0.0215764078894888,-57.78144719681999,0,NB
2025-06-03 15:42:00.643,0.0216071678493395,-56.08840295800108,0,NB
2025-06-03 15:42:00.651,0.0214748263325266,-54.2937207558514,0,NB
2025-06-03 15:42:00.659,0.0211929863518545,-52.40933904606891,0,NB
2025-06-03 15:42:00.667,0.0207772887214667,-50.44434572067608,0,NB
2025-06-03 15:42:00.674,0.020244832922675,-48.40471149206304,0,NB
2025-06-03 15:42:00.682,0.0196136007646714,-46.2931968029309,0,NB
2025-06-03 15:42:00.690,0.0189018966048235,-44.10943623346229,0,NB
2025-06-03 15:42:00.698,0.0181278166870298,-41.85019574647775,0,NB
2025-06-03 15:42:00.706,0.017308759504949,-39.509789604934944,0,NB
2025-06-03 15:42:00.714,0.0164609886699067,-37.08063592917496,0,NB
2025-06-03 15:42:00.721,0.0155992591732227,-34.5539230959454,0,NB
2025-06-03 15:42:00.729,0.0147365167768363,-31.920353885710632,0,NB
2025-06-03 15:42:00.737,0.0138836782775946,-29.17093071221979,0,NB
2025-06-03 15:42:00.745,0.0130494975312571,-26.29774355361693,0,NB
2025-06-03 15:42:00.753,0.0122405185918224,-23.294722372094093,0,NB
2025-06-03 15:42:00.760,0.0114611135206482,-20.158317786663883,0,NB
2025-06-03 15:42:00.768,0.0107135988295512,-16.888077397708393,0,NB
2025-06-03 15:42:00.776,0.009998421529085,-13.487090235032325,0,NB
2025-06-03 15:42:00.784,0.0093144035352879,-9.96227804636485,0,NB
2025-06-03 15:42:00.792,0.0086590317163804,-6.324519258797084,0,NB
2025-06-03 15:42:00.799,0.0080287800000449,-2.5885991101241257,0,NB
2025-06-03 15:42:00.807,0.0074194496234889,1.2270126667424284,0,NB
2025-06-03 15:42:00.815,0.0068265138095316,5.10054744012943,0,NB
2025-06-03 15:42:00.823,0.0062454538977117,9.007470029946257,0,NB
2025-06-03 15:42:00.831,0.0056720751259129,12.921134654911992,0,NB
2025-06-03 15:42:00.839,0.0051027916507017,16.813535703587842,0,NB
2025-06-03 15:42:00.846,0.0045348718898676,20.656120199290285,0,NB
2025-06-03 15:42:00.854,0.0039666368629821,24.420625925167407,0,NB
2025-06-03 15:42:00.862,0.0033976059261731,28.0799078614276,0,NB
2025-06-03 15:42:00.870,0.0028285861089234,31.608715937051542,0,NB
2025-06-03 15:42:00.878,0.0022617030585533,34.9843891249571,0,NB
2025-06-03 15:42:00.885,0.0017003733079352,38.18743455992922,0,NB
2025-06-03 15:42:00.893,0.0011492192204259,41.20196551665267,0,NB
2025-06-03 15:42:00.901,0.0006139295785685,44.01597857283511,0,NB
2025-06-03 15:42:00.909,0.0001010703440893,46.62145785862744,0,NB
2025-06-03 15:42:00.917,-0.0003821484771903,49.014302652052905,0,NB
2025-06-03 15:42:00.924,-0.0008281427788236,51.19408335386852,0,NB
2025-06-03 15:42:00.932,-0.0012292531450746,53.16363965275027,0,NB
2025-06-03 15:42:00.940,-0.0015780638897831,54.928543039490606,0,NB
2025-06-03 15:42:00.948,-0.0018677332761284,56.49645331100234,0,NB
2025-06-03 15:42:00.956,-0.0020923255175295,57.87640490019763,0,NB
2025-06-03 15:42:00.964,-0.0022471348879007,59.07806339248636,0,NB
2025-06-03 15:42:00.971,-0.0023289919523447,60.110995125087655,0,NB
2025-06-03 15:42:00.979,-0.0023365415754017,60.98399308469731,0,NB
2025-06-03 15:42:00.987,-0.0022704821594118,61.70450030827895,0,NB
2025-06-03 15:42:00.995,-0.0021337557000091,62.278167663693296,0,NB
2025-06-03 15:42:01.003,-0.0019316787747526,62.70857638523476,0,NB
2025-06-03 15:42:01.010,-0.0016720055238898,62.99714733061455,0,NB
2025-06-03 15:42:01.018,-0.0013649151271911,63.14324898471325,0,NB
2025-06-03 15:42:01.026,-0.0010229182923158,63.14450522763463,0,NB
2025-06-03 15:42:01.034,-0.0006606797716301,62.99729235736199,0,NB
2025-06-03 15:42:01.042,-0.0002947567459747,62.6974034297813,0,NB
2025-06-03 15:42:01.049,5.674409676599823e-05,62.24084732596928,0,NB
2025-06-03 15:42:01.057,0.000374584930258,61.62474077578492,0,NB
2025-06-03 15:42:01.065,0.0006388818300412,60.84824452105575,0,NB
2025-06-03 15:42:01.073,0.0008296450668475,59.91349044549245,0,NB
2025-06-03 15:42:01.081,0.000927360955388,58.826445203471856,0,NB
2025-06-03 15:42:01.089,0.0009135996383073,57.597657781105,0,NB
2025-06-03 15:42:01.096,0.0007716315505095,56.242843398834914,0,NB
2025-06-03 15:42:01.104,0.0004870339095424,54.783263853623545,0,NB
2025-06-03 15:42:01.112,4.82674733889119e-05,53.24587425163525,0,NB
2025-06-03 15:42:01.120,-0.0005527968040608,51.66321743778184,0,NB
2025-06-03 15:42:01.128,-0.0013204215036827,50.07305958588076,0,NB
2025-06-03 15:42:01.135,-0.0022546362772389,48.5177726855501,0,NB
2025-06-03 15:42:01.143,-0.0033509789684472,47.04348141013016,0,NB
2025-06-03 15:42:01.151,-0.0046003596891927,45.69900250837482,0,NB
2025-06-03 15:42:01.159,-0.0059890600704989,44.53461396083904,0,NB
2025-06-03 15:42:01.167,-0.0074988761081613,43.60069831656293,0,NB
2025-06-03 15:42:01.174,-0.009107408678339,42.94630962421381,0,NB
2025-06-03 15:42:01.182,-0.0107885009361063,42.617716054021365,0,NB
2025-06-03 15:42:01.190,-0.0125128163746942,42.656970649479966,0,NB
2025-06-03 15:42:01.198,-0.0142485452987393,43.10056074764476,0,NB
2025-06-03 15:42:01.206,-0.015962221031751,43.97818267268585,0,NB
2025-06-03 15:42:01.214,-0.0176196207611713,45.311682639890094,0,NB
2025-06-03 15:42:01.221,-0.0191867201558861,47.11419777219477,0,NB
2025-06-03 15:42:01.229,-0.0206306665852098,49.38952313048956,0,NB
2025-06-03 15:42:01.237,-0.021920733749144,52.13172210276618,0,NB
2025-06-03 15:42:01.245,-0.0230292212038755,55.32498878062606,0,NB
2025-06-03 15:42:01.253,-0.0239322653401085,58.943762433378005,0,NB
2025-06-03 15:42:01.260,-0.0246105330699431,62.95308617436519,0,NB
2025-06-03 15:42:01.268,-0.0250497750117715,67.30919464067635,0,NB
2025-06-03 15:42:01.276,-0.0252412208292495,71.96030915245512,0,NB
2025-06-03 15:42:01.284,-0.0251818053819674,76.84761350515333,0,NB
2025-06-03 15:42:01.292,-0.0248742203966297,81.90637935752636,0,NB
2025-06-03 15:42:01.299,-0.0243267922871947,87.06720715450916,0,NB
2025-06-03 15:42:01.307,-0.0235531922626111,92.25734668330206,0,NB
2025-06-03 15:42:01.315,-0.0225719897505605,97.40206069295937,0,NB
2025-06-03 15:42:01.323,-0.0214060643879354,102.42599547164912,0,NB
2025-06-03 15:42:01.331,-0.0200818954572205,107.25452379490152,0,NB
2025-06-03 15:42:01.339,-0.0186287507970607,111.81502812453915,0,NB
2025-06-03 15:42:01.346,-0.0170777999976071,116.0380952243693,0,NB
2025-06-03 15:42:01.354,-0.0154611791964311,119.8585973285636,0,NB
2025-06-03 15:42:01.362,-0.013811037045318,123.21663950843109,0,NB
2025-06-03 15:42:01.370,-0.0121585933052029,126.05835778297543,0,NB
2025-06-03 15:42:01.378,-0.0105332427122743,128.33655765603197,0,NB
2025-06-03 15:42:01.385,-0.0089617367092574,130.0111879889172,0,NB
2025-06-03 15:42:01.393,-0.0074674737571418,131.04965028594196,0,NB
2025-06-03 15:42:01.401,-0.0060699248170185,131.42694842893812,0,NB
2025-06-03 15:42:01.409,-0.0047842142513449,131.12568848025634,0,NB
2025-06-03 15:42:01.417,-0.0036208684415496,130.13594220175443,0,NB
2025-06-03 15:42:01.424,-0.0025857358276875,128.45499122849213,0,NB
2025-06-03 15:42:01.432,-0.0016800737831933,126.08697122706486,0,NB
2025-06-03 15:42:01.440,-0.0009007903641414,123.04243673891482,0,NB
2025-06-03 15:42:01.448,-0.0002408228374955,119.3378677045746,0,NB
2025-06-03 15:42:01.456,0.0003103698119553,114.99513791946278,0,NB
2025-06-03 15:42:01.464,0.0007662263274719,110.04096401543168,0,NB
2025-06-03 15:42:01.471,0.0011424420524025,104.50635120831656,0,NB
2025-06-03 15:42:01.479,0.0014562948313571,98.4260492658789,0,NB
2025-06-03 15:42:01.487,0.0017259645447993,91.8380292076006,0,NB
2025-06-03 15:42:01.495,0.0019698710132008,84.7829883862789,0,NB
2025-06-03 15:42:01.503,0.0022060524645703,77.30388898429067,0,NB
2025-06-03 15:42:01.510,0.0024516036984491,69.44553265283682,0,NB
2025-06-03 15:42:01.518,0.0027221896165133,61.254172016934135,0,NB
2025-06-03 15:42:01.526,0.0030316459874856,52.77715801106692,0,NB
2025-06-03 15:42:01.534,0.0033916752241909,44.06262046141848,0,NB
2025-06-03 15:42:01.542,0.0038116406960032,35.159177992539824,0,NB
2025-06-03 15:42:01.549,0.004298458894129,26.115672249477697,0,NB
2025-06-03 15:42:01.557,0.0048565848508302,16.980920649180998,0,NB
2025-06-03 15:42:01.565,0.0054880827688456,7.803481463622615,0,NB
2025-06-03 15:42:01.573,0.0061927709319822,-1.3685749679286885,0,NB
2025-06-03 15:42:01.581,0.006968427701172,-10.4878946819725,0,NB
2025-06-03 15:42:01.589,0.0078110438640097,-19.50807314593901,0,NB
2025-06-03 15:42:01.596,0.0087151059257677,-28.383896693013156,0,NB
2025-06-03 15:42:01.604,0.0096738951257527,-37.071594635920334,0,NB
2025-06-03 15:42:01.612,0.0106797878903755,-45.52910271971237,0,NB
2025-06-03 15:42:01.620,0.0117245448568136,-53.71633688210435,0,NB
2025-06-03 15:42:01.628,0.0127995773393453,-61.59547465892181,0,NB
2025-06-03 15:42:01.635,0.0138961821033383,-69.13124009353236,0,NB
2025-06-03 15:42:01.643,0.0150057375064064,-76.29118674556324,0,NB
2025-06-03 15:42:01.651,0.0161198563276018,-83.04597238378985,0,NB
2025-06-03 15:42:01.659,0.0172304928073931,-89.3696182178739,0,NB
2025-06-03 15:42:01.667,0.0183300035409157,-95.23974510042366,0,NB
2025-06-03 15:42:01.674,0.0194111639207268,-100.63777903901372,0,NB
2025-06-03 15:42:01.682,0.020467143790984,-105.54911860677852,0,NB
2025-06-03 15:42:01.690,0.0214914478131473,-109.96325741236885,0,NB
2025-06-03 15:42:01.698,0.0224778276920029,-113.87385563810275,0,NB
2025-06-03 15:42:01.706,0.0234201747383093,-117.27875571125912,0,NB
2025-06-03 15:42:01.714,0.0243124020908664,-120.17993836718183,0,NB
2025-06-03 15:42:01.721,0.0251483261949247,-122.5834166400929,0,NB
2025-06-03 15:42:01.729,0.0259215568371421,-124.49906665365552,0,NB
2025-06-03 15:42:01.737,0.0266254042317451,-125.9403954865112,0,NB
2025-06-03 15:42:01.745,0.0272528104528801,-126.92424789120598,0,NB
2025-06-03 15:42:01.753,0.0277963110831859,-127.4704552887641,0,NB
2025-06-03 15:42:01.760,0.0282480314509883,-127.60143227354158,0,NB
2025-06-03 15:42:01.768,0.0285997203038273,-127.34172784249236,0,NB
2025-06-03 15:42:01.776,0.028842822216518,-126.71754066951306,0,NB
2025-06-03 15:42:01.784,0.0289685885785138,-125.75620989678904,0,NB
2025-06-03 15:42:01.792,0.0289682258570446,-124.4856949862062,0,NB
2025-06-03 15:42:01.799,0.0288330790646834,-122.93406000032122,0,NB
2025-06-03 15:42:01.807,0.0285548478102017,-121.12897906855164,0,NB
2025-06-03 15:42:01.815,0.0281258316509035,-119.097280530417,0,NB
2025-06-03 15:42:01.823,0.0275392002809272,-116.86454713295748,0,NB
2025-06-03 15:42:01.831,0.0267892820601823,-114.45478853033224,0,NB
2025-06-03 15:42:01.839,0.0258718616351083,-111.8902000979686,0,NB
2025-06-03 15:42:01.846,0.0247844746821387,-109.19101874268472,0,NB
2025-06-03 15:42:01.854,0.0235266861359264,-106.37548209245388,0,NB
2025-06-03 15:42:01.862,0.0221003382268202,-103.45989241938882,0,NB
2025-06-03 15:42:01.870,0.0205097560040562,-100.45878119918622,0,NB
2025-06-03 15:42:01.878,0.0187618999650867,-97.3851646974077,0,NB
2025-06-03 15:42:01.885,0.0168664572402878,-94.2508757714829,0,NB
2025-06-03 15:42:01.893,0.014835864338959,-91.06695254864565,0,NB
2025-06-03 15:42:01.901,0.012685256073556,-87.84406110325206,0,NB
2025-06-03 15:42:01.909,0.010432337309108,-84.59292695991651,0,NB
2025-06-03 15:42:01.917,0.0080971766484702,-81.3247493471167,0,NB
2025-06-03 15:42:01.924,0.0057019237221573,-78.05157267394196,0,NB
2025-06-03 15:42:01.932,0.0032704540209214,-74.7865916552465,0,NB
2025-06-03 15:42:01.940,0.0008279470537825,-71.54436972891119,0,NB
2025-06-03 15:42:01.948,-0.0015995947835042,-68.34095467407934,0,NB
2025-06-03 15:42:01.956,-0.0039858775220131,-65.1938803733543,0,NB
2025-06-03 15:42:01.964,-0.0063048858592365,-62.12204915654235,0,NB
2025-06-03 15:42:01.971,-0.0085314783671712,-59.145494808636414,0,NB
2025-06-03 15:42:01.979,-0.0106419904831405,-56.28503183587885,0,NB
2025-06-03 15:42:01.987,-0.0126148245929854,-53.561801722215385,0,NB
2025-06-03 15:42:01.995,-0.0144310033514664,-50.9967314903311,0,NB
2025-06-03 15:42:02.003,-0.0160746604487008,-48.60992377449279,0,NB
2025-06-03 15:42:02.010,-0.0175334431827956,-46.42000072549003,0,NB
2025-06-03 15:42:02.018,-0.0187988039892778,-44.443426340003086,0,NB
2025-06-03 15:42:02.026,-0.0198661635509874,-42.693833200553264,0,NB
2025-06-03 15:42:02.034,-0.0207349357272457,-41.18138011270067,0,NB
2025-06-03 15:42:02.042,-0.0214084132911033,-39.91216673694379,0,NB
2025-06-03 15:42:02.049,-0.0218935221000604,-38.88773004989911,0,NB
2025-06-03 15:42:02.057,-0.0222004586692529,-38.104645358806586,0,NB
2025-06-03 15:42:02.065,-0.0223422314377931,-37.55425167719584,0,NB
2025-06-03 15:42:02.073,-0.0223341292282587,-37.22251761610693,0,NB
2025-06-03 15:42:02.081,-0.0221931418430608,-37.0900596562328,0,NB
2025-06-03 15:42:02.089,-0.021937357841772,-37.132319874565766,0,NB
2025-06-03 15:42:02.096,-0.0215853635900625,-37.319905058327855,0,NB
2025-06-03 15:42:02.104,-0.0211556658177591,-37.61908380970461,0,NB
2025-06-03 15:42:02.112,-0.0206661572949006,-37.99243288371227,0,NB
2025-06-03 15:42:02.120,-0.0201336420272355,-38.39961875886482,0,NB
2025-06-03 15:42:02.128,-0.0195734328489264,-38.79829546557392,0,NB
2025-06-03 15:42:02.135,-0.0189990306735055,-39.14509514384535,0,NB
2025-06-03 15:42:02.143,-0.0184218910728851,-39.39668382826019,0,NB
2025-06-03 15:42:02.151,-0.0178512803541959,-39.51085172587638,0,NB
2025-06-03 15:42:02.159,-0.0172942199787587,-39.447604922020034,0,NB
2025-06-03 15:42:02.167,-0.0167555150855924,-39.17022417076336,0,NB
2025-06-03 15:42:02.174,-0.0162378600507922,-38.64625632671777,0,NB
2025-06-03 15:42:02.182,-0.0157420114577993,-37.84840513315959,0,NB
2025-06-03 15:42:02.190,-0.0152670167117227,-36.75529051648733,0,NB
2025-06-03 15:42:02.198,-0.0148104850244407,-35.352049193829494,0,NB
2025-06-03 15:42:02.206,-0.0143688868207192,-33.63075415265686,0,NB
2025-06-03 15:42:02.214,-0.0139378678351666,-31.59063622477549,0,NB
2025-06-03 15:42:02.221,-0.0135125651419766,-29.23809733731005,0,NB
2025-06-03 15:42:02.229,-0.0130879137645431,-26.586511861907137,0,NB
2025-06-03 15:42:02.237,-0.0126589340286758,-23.655819595490836,0,NB
2025-06-03 15:42:02.245,-0.0122209912854827,-20.47192110041541,0,NB
2025-06-03 15:42:02.253,-0.0117700210608486,-17.065893218626687,0,NB
2025-06-03 15:42:02.260,-0.0113027142279884,-13.473049346537008,0,NB
2025-06-03 15:42:02.268,-0.010816658564677,-9.73187527594016,0,NB
2025-06-03 15:42:02.276,-0.0103104350117811,-5.882876793909954,0,NB
2025-06-03 15:42:02.284,-0.009783668906436,-1.9673794824439372,0,NB
2025-06-03 15:42:02.292,-0.0092370382099588,1.9736760475092356,0,NB
2025-06-03 15:42:02.299,-0.0086722421769298,5.900899190019016,0,NB
2025-06-03 15:42:02.307,-0.0080919350111969,9.777531206403014,0,NB
2025-06-03 15:42:02.315,-0.0074996298260947,13.570403316555774,0,NB
2025-06-03 15:42:02.323,-0.0068995786360586,17.250735160341556,0,NB
2025-06-03 15:42:02.331,-0.0062966341739167,20.79474419306136,0,NB
2025-06-03 15:42:02.339,-0.0056960991545301,24.184044364304388,0,NB
2025-06-03 15:42:02.346,-0.0051035682696482,27.40582118658337,0,NB
2025-06-03 15:42:02.354,-0.0045247677200457,30.4527796004088,0,NB
2025-06-03 15:42:02.362,-0.0039653965352782,33.32287044543975,0,NB
2025-06-03 15:42:02.370,-0.003430973441145,36.01881042263041,0,NB
2025-06-03 15:42:02.378,-0.0029266926945739,38.5474187809883,0,NB
2025-06-03 15:42:02.385,-0.0024572920418398,40.918801239806754,0,NB
2025-06-03 15:42:02.393,-0.0020269356159814,43.14541758998225,0,NB
2025-06-03 15:42:02.401,-0.0016391140919969,45.24107381180611,0,NB
2025-06-03 15:42:02.409,-0.0012965638227299,47.21988228083712,0,NB
2025-06-03 15:42:02.417,-0.0010012061169894,49.09523465128839,0,NB
2025-06-03 15:42:02.424,-0.0007541073569114,50.878831307776565,0,NB
2025-06-03 15:42:02.432,-0.0005554602210398,52.57980891719446,0,NB
2025-06-03 15:42:02.440,-0.0004045858108796,54.20400370364001,0,NB
2025-06-03 15:42:02.448,-0.0002999559906274,55.75338276903342,0,NB
2025-06-03 15:42:02.456,-0.0002392347935406,57.22566928452231,0,NB
2025-06-03 15:42:02.464,-0.0002193373580838,58.6141799014783,0,NB
2025-06-03 15:42:02.471,-0.0002365046082969,59.90788450663562,0,NB
2025-06-03 15:42:02.479,-0.0002863918687599,61.09168970770819,0,NB
2025-06-03 15:42:02.487,-0.000364169731978,62.14693842269735,0,NB
2025-06-03 15:42:02.495,-0.0004646355386048,63.05210891803927,0,NB
2025-06-03 15:42:02.503,-0.0005823336081911,63.78368789905908,0,NB
2025-06-03 15:42:02.510,-0.0007116818926499,64.31718415503518,0,NB
2025-06-03 15:42:02.518,-0.0008471021558434,64.6282422018361,0,NB
2025-06-03 15:42:02.526,-0.0009831502278761,64.69380977094892,0,NB
2025-06-03 15:42:02.534,-0.0011146424273785,64.49330926861438,0,NB
2025-06-03 15:42:02.542,-0.0012367740098764,64.00976180674849,0,NB
2025-06-03 15:42:02.550,-0.0013452256094738,63.2308133034325,0,NB
2025-06-03 15:42:02.557,-0.0014362540726626,62.149615524444286,0,NB
2025-06-03 15:42:02.565,-0.001506764648306,60.765520679322925,0,NB
2025-06-03 15:42:02.573,-0.0015543620786116,59.08455602981809,0,NB
2025-06-03 15:42:02.581,-0.0015773788497175,57.11965451901446,0,NB
2025-06-03 15:42:02.589,-0.001574879861815,54.89062818872085,0,NB
2025-06-03 15:42:02.596,-0.0015466439836219,52.42388255208971,0,NB
2025-06-03 15:42:02.604,-0.0014931240926643,49.75188152080421,0,NB
2025-06-03 15:42:02.612,-0.001415388083824,46.91238334643664,0,NB
2025-06-03 15:42:02.620,-0.0013150439645063,43.94747776479844,0,NB
2025-06-03 15:42:02.628,-0.0011941526291325,40.90246265592663,0,NB
2025-06-03 15:42:02.635,-0.0010551322634651,37.824604686491305,0,NB
2025-06-03 15:42:02.643,-0.0009006585903919,34.76183234669342,0,NB
2025-06-03 15:42:02.651,-0.0007335653211517,31.761411425279405,0,NB
2025-06-03 15:42:02.659,-0.000556749127174,28.868652314037025,0,NB
2025-06-03 15:42:02.667,-0.0003730830658915,26.12569574923352,0,NB
2025-06-03 15:42:02.675,-0.0001853416094255,23.570418933954848,0,NB
2025-06-03 15:42:02.682,3.860712991950859e-06,21.23549776860638,0,NB
2025-06-03 15:42:02.690,0.0001921163465549,19.14765352258514,0,NB
2025-06-03 15:42:02.698,0.0003772578493024,17.32710410845915,0,NB
2025-06-03 15:42:02.706,0.000557378289498,15.787231570992578,0,NB
2025-06-03 15:42:02.714,0.0007308403187517,14.534468854660174,0,NB
2025-06-03 15:42:02.721,0.0008962753644294,13.56840070418595,0,NB
2025-06-03 15:42:02.729,0.0010525744276364,12.882065977207692,0,NB
2025-06-03 15:42:02.737,0.0011988721410562,12.462441952061363,0,NB
2025-06-03 15:42:02.745,0.0013345259673367,12.29108558972195,0,NB
2025-06-03 15:42:02.753,0.0014590925541784,12.3449022972216,0,NB
2025-06-03 15:42:02.760,0.0015723032253294,12.59700963795131,0,NB
2025-06-03 15:42:02.768,0.0016740404204299,13.017661708350092,0,NB
2025-06-03 15:42:02.776,0.0017643166542035,13.575199582321794,0,NB
2025-06-03 15:42:02.784,0.0018432572166504,14.23699429371162,0,NB
2025-06-03 15:42:02.792,0.0019110873594797,14.970351194222085,0,NB
2025-06-03 15:42:02.800,0.0019681242060747,15.74334803071384,0,NB
2025-06-03 15:42:02.807,0.0020147732173107,16.525583517847533,0,NB
2025-06-03 15:42:02.815,0.0020515287611042,17.28881829002885,0,NB
2025-06-03 15:42:02.823,0.0020789780697791,18.00749563395244,0,NB
2025-06-03 15:42:02.831,0.0020978075684297,18.65913505837912,0,NB
2025-06-03 15:42:02.839,0.0021088103027852,19.22459728482712,0,NB
2025-06-03 15:42:02.846,0.0021128931112679,19.688224392253165,0,NB
2025-06-03 15:42:02.854,0.0021110822784251,20.037863403462747,0,NB
2025-06-03 15:42:02.862,0.0021045265563548,20.26478539081208,0,NB
2025-06-03 15:42:02.870,0.002094496541674,20.3635150896148,0,NB
2025-06-03 15:42:02.878,0.0020823794463305,20.33158798274278,0,NB
2025-06-03 15:42:02.885,0.0020696683709576,20.169252854212324,0,NB
2025-06-03 15:42:02.893,0.0020579453535543,19.879137940119303,0,NB
2025-06-03 15:42:02.901,0.0020488577508821,19.465898102072195,0,NB
2025-06-03 15:42:02.909,0.002044087877412,18.93585900994874,0,NB
2025-06-03 15:42:02.917,0.0020453162188502,18.296672274194687,0,NB
2025-06-03 15:42:02.925,0.0020541789368087,17.556992963997416,0,NB
2025-06-03 15:42:02.932,0.002072220811731,16.726188151309646,0,NB
2025-06-03 15:42:02.940,0.0021008452372721,15.81408219972455,0,NB
2025-06-03 15:42:02.948,0.002141263323013,14.83074163611931,0,NB
2025-06-03 15:42:02.956,0.0021944444814447,13.786299755647049,0,NB
2025-06-03 15:42:02.964,0.0022610709752373,12.690818746945416,0,NB
2025-06-03 15:42:02.971,0.0023414987582093,11.554185177215077,0,NB
2025-06-03 15:42:02.979,0.0024357266222,10.386033199158804,0,NB
2025-06-03 15:42:02.987,0.0025433752366818,9.19568885395763,0,NB
2025-06-03 15:42:02.995,0.0026636771671619,7.992128342996969,0,NB
2025-06-03 15:42:03.003,0.002795478423512,6.783943105668243,0,NB
2025-06-03 15:42:03.010,0.0029372516268557,5.579304940773146,0,NB
2025-06-03 15:42:03.018,0.0030871206025783,4.38592521057981,0,NB
2025-06-03 15:42:03.026,0.0032428960972571,3.2110033346357225,0,NB
2025-06-03 15:42:03.034,0.0034021222181712,2.0611612761572204,0,NB
2025-06-03 15:42:03.042,0.0035621329406774,0.94236249359492,0,NB
2025-06-03 15:42:03.050,0.0037201176145307,-0.1401842065148292,0,NB
2025-06-03 15:42:03.057,0.0038731939453719,-1.1821334341561658,0,NB
2025-06-03 15:42:03.065,0.0040184865352579,-2.1801201284008966,0,NB
2025-06-03 15:42:03.073,0.0041532087489479,-3.131878370139051,0,NB
2025-06-03 15:42:03.081,0.0042747453742335,-4.036354431137845,0,NB
2025-06-03 15:42:03.089,0.004380733232949,-4.8938054742341714,0,NB
2025-06-03 15:42:03.096,0.004469136665023,-5.705874983567087,0,NB
2025-06-03 15:42:03.104,0.004538314812342,-6.475636286294102,0,NB
2025-06-03 15:42:03.112,0.004587077920867,-7.207596401167325,0,NB
2025-06-03 15:42:03.120,0.0046147303169644,-7.907653838901325,0,NB
2025-06-03 15:42:03.128,0.0046210981105679,-8.5830057755356,0,NB
2025-06-03 15:42:03.135,0.0046065400069189,-9.24200209336492,0,NB
2025-06-03 15:42:03.143,0.004571940025536,-9.893945994474432,0,NB
2025-06-03 15:42:03.151,0.0045186815831684,-10.548843102427682,0,NB
2025-06-03 15:42:03.159,0.0044486032966836,-11.21710306123468,0,NB
2025-06-03 15:42:03.167,0.0043639378744461,-11.909199535017638,0,NB
2025-06-03 15:42:03.175,0.0042672364362038,-12.635296164465217,0,NB
2025-06-03 15:42:03.182,0.0041612814038162,-13.404847441307911,0,NB
2025-06-03 15:42:03.190,0.0040489916518323,-14.226184641384425,0,NB
2025-06-03 15:42:03.198,0.0039333238931065,-15.106097946759826,0,NB
2025-06-03 15:42:03.206,0.0038171744035771,-16.049426721565407,0,NB
2025-06-03 15:42:03.214,0.0037032852776062,-17.058670599063056,0,NB
2025-06-03 15:42:03.221,0.0035941594131303,-18.133634573669784,0,NB
2025-06-03 15:42:03.229,0.0034919881377346,-19.27112162543468,0,NB
2025-06-03 15:42:03.237,0.0033985946199104,-20.46468646481706,0,NB
2025-06-03 15:42:03.245,0.0033153950534555,-21.70446368534459,0,NB
2025-06-03 15:42:03.253,0.0032433783566851,-22.977082856453308,0,NB
2025-06-03 15:42:03.260,0.0031831040060458,-24.26568178658181,0,NB
2025-06-03 15:42:03.268,0.0031347166454853,-25.55002726023719,0,NB
2025-06-03 15:42:03.276,0.0030979752645914,-26.806749955554167,0,NB
2025-06-03 15:42:03.284,0.003072294081412,-28.009696980242506,0,NB
2025-06-03 15:42:03.292,0.0030567918760283,-29.13040158035393,0,NB
2025-06-03 15:42:03.300,0.0030503464277592,-30.1386651964066,0,NB
2025-06-03 15:42:03.307,0.0030516509051876,-31.003242343480338,0,NB
2025-06-03 15:42:03.315,0.0030592695170633,-31.692614004419816,0,NB
2025-06-03 15:42:03.323,0.0030716903864966,-32.175830607838954,0,NB
2025-06-03 15:42:03.331,0.0030873743186897,-32.423401482056526,0,NB
2025-06-03 15:42:03.339,0.0031047987089605,-32.40820418454683,0,NB
2025-06-03 15:42:03.346,0.0031224961806194,-32.106384524541994,0,NB
2025-06-03 15:42:03.354,0.0031390877048412,-31.498216600345387,0,NB
2025-06-03 15:42:03.362,0.0031533100476114,-30.56889188503263,0,NB
2025-06-03 15:42:03.370,0.00316403744107,-29.309207378047468,0,NB
2025-06-03 15:42:03.378,0.0031702973503739,-27.716125101311523,0,NB
2025-06-03 15:42:03.385,0.0031712801174449,-25.793178707385795,0,NB
2025-06-03 15:42:03.393,0.003166342224859,-23.550707579797603,0,NB
2025-06-03 15:42:03.401,0.003155003088448,-21.005904381741747,0,NB
2025-06-03 15:42:03.409,0.0031369357255116,-18.18266833486849,0,NB
2025-06-03 15:42:03.417,0.0031119522446531,-15.111263325504476,0,NB
2025-06-03 15:42:03.425,0.0030799856215502,-11.827786952035444,0,NB
2025-06-03 15:42:03.432,0.0030410694937012,-8.37346354204593,0,NB
2025-06-03 15:42:03.440,0.0029953177333808,-4.793780680878248,0,NB
2025-06-03 15:42:03.448,0.0029429054166229,-1.1374946190854405,0,NB
2025-06-03 15:42:03.456,0.0028840525348598,2.544465191756079,0,NB
2025-06-03 15:42:03.464,0.002819011415528,6.200158460515086,0,NB
2025-06-03 15:42:03.471,0.0027480583526504,9.77782693309694,0,NB
2025-06-03 15:42:03.479,0.0026714894196767,13.227080413908464,0,NB
2025-06-03 15:42:03.487,0.0025896199005207,16.500039036648566,0,NB
2025-06-03 15:42:03.495,0.002502786335055,19.552396806136525,0,NB
2025-06-03 15:42:03.503,0.0024113499274786,22.344374704520035,0,NB
2025-06-03 15:42:03.510,0.0023157000495698,24.841536123224227,0,NB
2025-06-03 15:42:03.518,0.0022162567630823,27.01544282447009,0,NB
2025-06-03 15:42:03.526,0.0021134716074947,28.84413578316413,0,NB
2025-06-03 15:42:03.534,0.0020078262618518,30.31243181433805,0,NB
2025-06-03 15:42:03.542,0.0018998290501661,31.41203354662385,0,NB
2025-06-03 15:42:03.550,0.0017900096031829,32.14145675710725,0,NB
2025-06-03 15:42:03.557,0.0016789122677964,32.50578505737648,0,NB
2025-06-03 15:42:03.565,0.0015670889860069,32.51626717455706,0,NB
2025-06-03 15:42:03.573,0.0014550922755173,32.189776419134134,0,NB
2025-06-03 15:42:03.581,0.0013434686390059,31.54815525075953,0,NB
2025-06-03 15:42:03.589,0.0012327523289797,30.617470086681323,0,NB
2025-06-03 15:42:03.596,0.0011234590714983,29.42720264950529,0,NB
2025-06-03 15:42:03.604,0.0010160792194038,28.00940427871968,0,NB
2025-06-03 15:42:03.612,0.0009110698740193,26.39783883224998,0,NB
2025-06-03 15:42:03.620,0.0008088457102691,24.62713821249143,0,NB
2025-06-03 15:42:03.628,0.0007097684745538,22.73199232488384,0,NB
2025-06-03 15:42:03.635,0.0006141353546493,20.74639258943013,0,NB
2025-06-03 15:42:03.643,0.0005221666355918,18.70294514552164,0,NB
2025-06-03 15:42:03.651,0.0004339932443015,16.63226676573743,0,NB
2025-06-03 15:42:03.659,0.0003496449652488,14.562473342504552,0,NB
2025-06-03 15:42:03.667,0.0002690403122527,12.5187677180455,0,NB
2025-06-03 15:42:03.675,0.0001919792233374,10.52313064857722,0,NB
2025-06-03 15:42:03.682,0.0001181397765647,8.594115861546879,0,NB
2025-06-03 15:42:03.690,4.707992859788085e-05,6.746747502328852,0,NB
2025-06-03 15:42:03.698,-2.1755073970713246e-05,4.992515796346573,0,NB
2025-06-03 15:42:03.706,-8.901934214674408e-05,3.3394644988278275,0,NB
2025-06-03 15:42:03.714,-0.000155447147861,1.7923616922948165,0,NB
2025-06-03 15:42:03.721,-0.0002218283315498,0.3529437436230853,0,NB
2025-06-03 15:42:03.729,-0.0002889790490829,-0.9797792325618456,0,NB
2025-06-03 15:42:03.737,-0.0003577087656906,-2.209169219960775,0,NB
2025-06-03 15:42:03.745,-0.0004287845353598,-3.340571109338117,0,NB
2025-06-03 15:42:03.753,-0.0005028938090026,-4.380902607974434,0,NB
2025-06-03 15:42:03.760,-0.0005806072870869,-5.338237490609856,0,NB
2025-06-03 15:42:03.768,-0.0006623435759796,-6.221396124794914,0,NB
2025-06-03 15:42:03.776,-0.000748337584242,-7.039556460587055,0,NB
2025-06-03 15:42:03.784,-0.0008386147332254,-7.801897479315379,0,NB
2025-06-03 15:42:03.792,-0.0009329731348923,-8.517285446567483,0,NB
2025-06-03 15:42:03.800,-0.0010309757924652,-9.194011234353267,0,NB
2025-06-03 15:42:03.807,-0.0011319544579516,-9.839584524760092,0,NB
2025-06-03 15:42:03.815,-0.0012350259733532,-10.46058797729433,0,NB
2025-06-03 15:42:03.823,-0.0013391208542966,-11.062591563331043,0,NB
2025-06-03 15:42:03.831,-0.0014430228098685,-11.650124399634963,0,NB
2025-06-03 15:42:03.839,-0.0015454170468725,-12.226698718800298,0,NB
2025-06-03 15:42:03.846,-0.0016449446393764,-12.794878261654638,0,NB
2025-06-03 15:42:03.854,-0.0017402599139913,-13.356381502346586,0,NB
2025-06-03 15:42:03.862,-0.0018300876757658,-13.9122088179108,0,NB
2025-06-03 15:42:03.870,-0.0019132772166791,-14.462782043679857,0,NB
2025-06-03 15:42:03.878,-0.0019888504449483,-15.008084827283165,0,NB
2025-06-03 15:42:03.885,-0.0020560420375518,-15.547792788731847,0,NB
2025-06-03 15:42:03.893,-0.0021143300387657,-16.08138366977029,0,NB
2025-06-03 15:42:03.901,-0.002163455719712,-16.60821934857427,0,NB
2025-06-03 15:42:03.909,-0.0022034318667643,-17.127593720023047,0,NB
2025-06-03 15:42:03.917,-0.002234539077294,-17.638742889734655,0,NB
2025-06-03 15:42:03.925,-0.0022573101411176,-18.14081677805829,0,NB
2025-06-03 15:42:03.932,-0.0022725031766561,-18.632813944936828,0,NB
2025-06-03 15:42:03.940,-0.0022810648325606,-19.11348409133346,0,NB
2025-06-03 15:42:03.948,-0.0022840854677776,-19.58120513361399,0,NB
2025-06-03 15:42:03.956,-0.0022827487008713,-20.033843857000903,0,NB
2025-06-03 15:42:03.964,-0.0022782780341791,-20.46861081584393,0,NB
2025-06-03 15:42:03.971,-0.0022718834025225,-20.88192125715276,0,NB
2025-06-03 15:42:03.979,-0.002264710471905,-21.26927431381112,0,NB
2025-06-03 15:42:03.987,-0.0022577953271767,-21.625162488968197,0,NB
2025-06-03 15:42:03.995,-0.0022520268491082,-21.94302251538384,0,NB
2025-06-03 15:42:04.003,-0.0022481186043129,-22.215237046165253,0,NB
2025-06-03 15:42:04.010,-0.0022465914728517,-22.43319438001395,0,NB
2025-06-03 15:42:04.018,-0.0022477675379347,-22.58741064734184,0,NB
2025-06-03 15:42:04.026,-0.0022517749877298,-22.667715719207152,0,NB
2025-06-03 15:42:04.034,-0.0022585629929607,-22.6635007064592,0,NB
2025-06-03 15:42:04.042,-0.0022679248577615,-22.564021459702023,0,NB
2025-06-03 15:42:04.050,-0.0022795273602763,-22.358749135508805,0,NB
2025-06-03 15:42:04.057,-0.0022929441564394,-22.03775583931888,0,NB
2025-06-03 15:42:04.065,-0.0023076912679699,-21.59212076839131,0,NB
2025-06-03 15:42:04.073,-0.0023232628121346,-21.01434032441231,0,NB
2025-06-03 15:42:04.081,-0.0023391652173518,-20.29872448482717,0,NB
2025-06-03 15:42:04.089,-0.0023549483146119,-19.44176141757541,0,NB
2025-06-03 15:42:04.096,-0.002370231965522,-18.4424329494725,0,NB
2025-06-03 15:42:04.104,-0.0023847272328279,-17.302465046989568,0,NB
2025-06-03 15:42:04.112,-0.002398251439229,-16.026499865817176,0,NB
2025-06-03 15:42:04.120,-0.002410736754575,-14.622179037692318,0,NB
2025-06-03 15:42:04.128,-0.0024222321888948,-13.100131510792592,0,NB
2025-06-03 15:42:04.135,-0.0024328990460285,-11.473863239988368,0,NB
2025-06-03 15:42:04.143,-0.0024430000148335,-9.759550121533808,0,NB
2025-06-03 15:42:04.151,-0.0024528821813522,-7.975739569744217,0,NB
2025-06-03 15:42:04.159,-0.0024629544402027,-6.142969839575397,0,NB
2025-06-03 15:42:04.167,-0.0024736601778993,-4.283319436134216,0,NB
2025-06-03 15:42:04.175,-0.0024854466526665,-2.41990159050126,0,NB
2025-06-03 15:42:04.182,-0.0024987329675856,-0.5763207380370381,0,NB
2025-06-03 15:42:04.190,-0.0025138787185083,1.2238908336686958,0,NB
2025-06-03 15:42:04.198,-0.0025311553276523,2.9578375100885843,0,NB
2025-06-03 15:42:04.206,-0.0025507219074336,4.603807631476013,0,NB
2025-06-03 15:42:04.214,-0.0025726072697215,6.141786047857794,0,NB
2025-06-03 15:42:04.221,-0.0025966992979344,7.553916030415696,0,NB
2025-06-03 15:42:04.229,-0.0026227422816644,8.82489674038742,0,NB
2025-06-03 15:42:04.237,-0.0026503420717559,9.942305027731551,0,NB
2025-06-03 15:42:04.245,-0.0026789782182761,10.896833240377193,0,NB
2025-06-03 15:42:04.253,-0.0027080217411006,11.682437840019766,0,NB
2025-06-03 15:42:04.260,-0.0027367569077784,12.296396801123144,0,NB
2025-06-03 15:42:04.268,-0.0027644053648906,12.739276873689898,0,NB
2025-06-03 15:42:04.276,-0.0027901511824699,13.014814684193212,0,NB
2025-06-03 15:42:04.284,-0.0028131657488592,13.129718219535148,0,NB
2025-06-03 15:42:04.292,-0.002832631800625,13.093397403625527,0,NB
2025-06-03 15:42:04.300,-0.0028477659909738,12.917634190919964,0,NB
2025-06-03 15:42:04.307,-0.0028578392907648,12.61620385728303,0,NB
2025-06-03 15:42:04.315,-0.0028621944090523,12.20445998068138,0,NB
2025-06-03 15:42:04.323,-0.0028602595465334,11.698895998820722,0,NB
2025-06-03 15:42:04.331,-0.0028515581586324,11.116696240701833,0,NB
2025-06-03 15:42:04.339,-0.0028357148176958,10.47528899330134,0,NB
2025-06-03 15:42:04.346,-0.0028124575693026,9.791913528067054,0,NB
2025-06-03 15:42:04.354,-0.0027816173743678,9.083212121453762,0,NB
2025-06-03 15:42:04.362,-0.0027431253622833,8.364857002288637,0,NB
2025-06-03 15:42:04.370,-0.0026970086533061,7.651220881481506,0,NB
2025-06-03 15:42:04.378,-0.0026433854017001,6.955098293782554,0,NB
2025-06-03 15:42:04.385,-0.0025824595275616,6.287483429227259,0,NB
2025-06-03 15:42:04.393,-0.0025145154049798,5.657408473981155,0,NB
2025-06-03 15:42:04.401,-0.0024399125266007,5.071844738125469,0,NB
2025-06-03 15:42:04.409,-0.0023590798568979,4.5356670483371975,0,NB
2025-06-03 15:42:04.417,-0.0022725093205391,4.05168006173813,0,NB
2025-06-03 15:42:04.425,-0.0021807478074529,3.6207033573260015,0,NB
2025-06-03 15:42:04.432,-0.0020843872940798,3.241710432808929,0,NB
2025-06-03 15:42:04.440,-0.0019840530794202,2.912015128826177,0,NB
2025-06-03 15:42:04.448,-0.0018803904880112,2.6274975716363027,0,NB
2025-06-03 15:42:04.456,-0.0017740505709577,2.382860522915487,0,NB
2025-06-03 15:42:04.464,-0.0016656754217716,2.171906105304648,0,NB
2025-06-03 15:42:04.471,-0.0015558838323078,1.9878222845532063,0,NB
2025-06-03 15:42:04.479,-0.0014452581043811,1.823468274518501,0,NB
2025-06-03 15:42:04.487,-0.0013343327935941,1.6716482215687631,0,NB
2025-06-03 15:42:04.495,-0.0012235860044831,1.5253631424072864,0,NB
2025-06-03 15:42:04.503,-0.0011134337022734,1.3780321416858354,0,NB
2025-06-03 15:42:04.510,-0.0010042274289902,1.22367540801722,0,NB
2025-06-03 15:42:04.518,-0.0008962557451153,1.0570533378349547,0,NB
2025-06-03 15:42:04.526,-0.0007897495209388,0.8737583009326673,0,NB
2025-06-03 15:42:04.534,-0.0006848908071142,0.6702579527121878,0,NB
2025-06-03 15:42:04.542,-0.0005818245122918,0.4438915051715396,0,NB
2025-06-03 15:42:04.550,-0.0004806716769364,0.192822856228341,0,NB
2025-06-03 15:42:04.557,-0.0003815428812253,-0.084043203691683,0,NB
2025-06-03 15:42:04.565,-0.0002845503092304,-0.3871734830097247,0,NB
2025-06-03 15:42:04.573,-0.0001898172131105,-0.7165377880628089,0,NB
2025-06-03 15:42:04.581,-9.748393515624349e-05,-1.0717484129140775,0,NB
2025-06-03 15:42:04.589,-7.710130780747682e-06,-1.4521964775745997,0,NB
2025-06-03 15:42:04.596,7.932677485176178e-05,-1.8571740728891928,0,NB
2025-06-03 15:42:04.604,0.0001634366577335,-2.2859719846388,0,NB
2025-06-03 15:42:04.612,0.0002444249623379,-2.737944152047384,0,NB
2025-06-03 15:42:04.620,0.0003221037068471,-3.212531893936971,0,NB
2025-06-03 15:42:04.628,0.0003963045063722,-3.709243215905399,0,NB
2025-06-03 15:42:04.635,0.0004668925077214,-4.227585087213857,0,NB
2025-06-03 15:42:04.643,0.000533779739426,-4.766949332560859,0,NB
2025-06-03 15:42:04.651,0.0005969361854744,-5.326455606516555,0,NB
2025-06-03 15:42:04.659,0.0006563970495149,-5.904757693768072,0,NB
2025-06-03 15:42:04.667,0.0007122651839569,-6.499821992738995,0,NB
2025-06-03 15:42:04.675,0.0007647083480108,-7.108689377331364,0,NB
2025-06-03 15:42:04.682,0.0008139516240509,-7.727233577125824,0,NB
2025-06-03 15:42:04.690,0.0008602658274222,-8.349930666773211,0,NB
2025-06-03 15:42:04.698,0.000903953042232,-8.96965512264959,0,NB
2025-06-03 15:42:04.706,0.0009453305227798,-9.57751811463674,0,NB
2025-06-03 15:42:04.714,0.0009847141901569,-10.162763188251008,0,NB
2025-06-03 15:42:04.721,0.0010224029030022,-10.712733205256274,0,NB
2025-06-03 15:42:04.729,0.001058664592767,-11.212920323095233,0,NB
2025-06-03 15:42:04.737,0.0010937251603246,-11.647107921336726,0,NB
2025-06-03 15:42:04.745,0.0011277607010122,-11.997609797946872,0,NB
2025-06-03 15:42:04.753,0.0011608932452182,-12.245607787307204,0,NB
2025-06-03 15:42:04.760,0.0011931899286136,-12.371584372608432,0,NB
2025-06-03 15:42:04.768,0.0012246654229451,-12.355842091218904,0,NB
2025-06-03 15:42:04.776,0.0012552874899737,-12.179096798083688,0,NB
2025-06-03 15:42:04.784,0.0012849855129582,-11.823127400561347,0,NB
2025-06-03 15:42:04.792,0.0013136617072934,-11.27146074298507,0,NB
2025-06-03 15:42:04.800,0.0013412044175571,-10.51006711984973,0,NB
2025-06-03 15:42:04.807,0.0013675025831712,-9.528039630851262,0,NB
2025-06-03 15:42:04.815,0.0013924602599398,-8.31822942810423,0,NB
2025-06-03 15:42:04.823,0.0014160101010474,-6.877808972831872,0,NB
2025-06-03 15:42:04.831,0.001438124857293,-5.20873678535666,0,NB
2025-06-03 15:42:04.839,0.001458826133293,-3.3180998389015137,0,NB
2025-06-03 15:42:04.846,0.0014781898220682,-1.2183136397941268,0,NB
2025-06-03 15:42:04.854,0.0014963479087936,1.0728349971220046,0,NB
2025-06-03 15:42:04.862,0.0015134866761369,3.532311650873272,0,NB
2025-06-03 15:42:04.870,0.0015298416283614,6.132127255869795,0,NB
2025-06-03 15:42:04.878,0.0015456895941995,8.839796451089976,0,NB
2025-06-03 15:42:04.885,0.0015613385077816,11.618950852696887,0,NB
2025-06-03 15:42:04.893,0.0015771153447617,14.430090563022896,0,NB
2025-06-03 15:42:04.901,0.0015933525977324,17.231451662089885,0,NB
2025-06-03 15:42:04.909,0.0016103735522043,19.979962767997502,0,NB
2025-06-03 15:42:04.917,0.0016284765941924,22.63226020122964,0,NB
2025-06-03 15:42:04.925,0.0016479189127657,25.14572898519821,0,NB
2025-06-03 15:42:04.932,0.0016689001740534,27.479535934823613,0,NB
2025-06-03 15:42:04.940,0.0016915468820413,29.59562143756715,0,NB
2025-06-03 15:42:04.948,0.0017158981284463,31.459618173119978,0,NB
2025-06-03 15:42:04.956,0.0017418933364361,33.0416678569134,0,NB
2025-06-03 15:42:04.964,0.0017693625662947,34.31711099195324,0,NB
2025-06-03 15:42:04.971,0.0017980200481125,35.26702939327837,0,NB
2025-06-03 15:42:04.979,0.0018274617541022,35.878626691074494,0,NB
2025-06-03 15:42:04.987,0.001857167866052,36.14543787493087,0,NB
2025-06-03 15:42:04.995,0.0018865108555708,36.06736495183225,0,NB
2025-06-03 15:42:05.003,0.0019147696410663,35.650541697322815,0,NB
2025-06-03 15:42:05.010,0.0019411500336197,34.90703604823405,0,NB
2025-06-03 15:42:05.018,0.0019648114446658,33.8544037173195,0,NB
2025-06-03 15:42:05.026,0.0019848994888205,32.51511094717425,0,NB
2025-06-03 15:42:05.034,0.0020005836100077,30.91584784657985,0,NB
2025-06-03 15:42:05.042,0.0020110982538386,29.086756390372425,0,NB
2025-06-03 15:42:05.050,0.0020157855016674,27.060598875117048,0,NB
2025-06-03 15:42:05.057,0.0020141365552158,24.871893403509105,0,NB
2025-06-03 15:42:05.065,0.0020058291239738,22.556042849236945,0,NB
2025-06-03 15:42:05.073,0.0019907577188886,20.148482788279598,0,NB
2025-06-03 15:42:05.081,0.0019690541304183,17.683872151613635,0,NB
2025-06-03 15:42:05.089,0.0019410959646482,15.19534795135682,0,NB
2025-06-03 15:42:05.096,0.0019075019824761,12.713862457887403,0,NB
2025-06-03 15:42:05.104,0.001869114003809,10.267617763614014,0,NB
2025-06-03 15:42:05.112,0.0018269661499326,7.881608867880483,0,NB
2025-06-03 15:42:05.120,0.0017822431373115,5.57728237135879,0,NB
2025-06-03 15:42:05.128,0.0017362301844282,3.3723137011852664,0,NB
2025-06-03 15:42:05.135,0.001690257745428,1.280501636551397,0,NB
2025-06-03 15:42:05.143,0.0016456445716113,-0.688225080607156,0,NB
2025-06-03 15:42:05.151,0.0016036424477288,-2.527697920341636,0,NB
2025-06-03 15:42:05.159,0.0015653854428325,-4.235307554156169,0,NB
2025-06-03 15:42:05.167,0.0015318458510027,-5.811726198934431,0,NB
2025-06-03 15:42:05.175,0.0015037983803738,-7.260569599354796,0,NB
2025-06-03 15:42:05.182,0.0014817936781534,-8.588015841867003,0,NB
2025-06-03 15:42:05.190,0.0014661418901511,-9.80239825093446,0,NB
2025-06-03 15:42:05.198,0.0014569065066627,-10.913788857653255,0,NB
2025-06-03 15:42:05.206,0.0014539081797656,-11.93358742778345,0,NB
2025-06-03 15:42:05.214,0.001456737591242,-12.874128901610929,0,NB
2025-06-03 15:42:05.221,0.0014647759632438,-13.748319469279595,0,NB
2025-06-03 15:42:05.229,0.0014772215246164,-14.56930853635281,0,NB
2025-06-03 15:42:05.237,0.0014931201384664,-15.350200689063872,0,NB
2025-06-03 15:42:05.245,0.0015113983141555,-16.103808618048653,0,NB
2025-06-03 15:42:05.253,0.0015308970049687,-16.842444980484423,0,NB
2025-06-03 15:42:05.260,0.0015504049567456,-17.577748550438194,0,NB
2025-06-03 15:42:05.268,0.0015686908246301,-18.32053788960942,0,NB
2025-06-03 15:42:05.276,0.0015845336450745,-19.08068430024758,0,NB
2025-06-03 15:42:05.284,0.0015967514216261,-19.86699509091381,0,NB
2025-06-03 15:42:05.292,0.0016042275503361,-20.687098236158548,0,NB
2025-06-03 15:42:05.300,0.0016059346796379,-21.54732033575864,0,NB
2025-06-03 15:42:05.307,0.0016009555294908,-22.452551325091004,0,NB
2025-06-03 15:42:05.315,0.0015885002684137,-23.406091560412406,0,NB
2025-06-03 15:42:05.323,0.0015679201983582,-24.409479566848816,0,NB
2025-06-03 15:42:05.331,0.0015387176149236,-25.462301726932573,0,NB
2025-06-03 15:42:05.339,0.0015005517924967,-26.5619883200716,0,NB
2025-06-03 15:42:05.346,0.0014532411768368,-27.703603411490057,0,NB
2025-06-03 15:42:05.354,0.0013967620558689,-28.879638952709485,0,NB
2025-06-03 15:42:05.362,0.0013312441076515,-30.079825927085004,0,NB
2025-06-03 15:42:05.370,0.0012569632227803,-31.29097730217717,0,NB
2025-06-03 15:42:05.378,0.0011743319201858,-32.49687880248304,0,NB
2025-06-03 15:42:05.385,0.0010838875765713,-33.6782439760974,0,NB
2025-06-03 15:42:05.393,0.0009862785737886,-34.81274960342251,0,NB
2025-06-03 15:42:05.401,0.0008822483816682,-35.87516612100676,0,NB
2025-06-03 15:42:05.409,0.0007726176347436,-36.83759538439146,0,NB
2025-06-03 15:42:05.417,0.0006582644370786,-37.66982479151616,0,NB
2025-06-03 15:42:05.425,0.0005401033232554,-38.33980260248789,0,NB
2025-06-03 15:42:05.432,0.0004190634401511,-38.81423434455101,0,NB
2025-06-03 15:42:05.440,0.0002960666374874,-39.0592946613708,0,NB
2025-06-03 15:42:05.448,0.0001720063034066,-39.04144308630352,0,NB
2025-06-03 15:42:05.456,4.772790470431212e-05,-38.72832626762633,0,NB
2025-06-03 15:42:05.464,-7.598778174530138e-05,-38.089743456405344,0,NB
2025-06-03 15:42:05.471,-0.0001984378608926,-37.09864690503869,0,NB
2025-06-03 15:42:05.479,-0.0003190062791907,-35.73214453568297,0,NB
2025-06-03 15:42:05.487,-0.0004371682468875,-33.97246912544827,0,NB
2025-06-03 15:42:05.495,-0.0005524902710906,-31.8078765869274,0,NB
2025-06-03 15:42:05.503,-0.0006646264509244,-29.233435907306205,0,NB
2025-06-03 15:42:05.511,-0.0007733121147037,-26.251675072110007,0,NB
2025-06-03 15:42:05.518,-0.0008783560688612,-22.87305085956004,0,NB
2025-06-03 15:42:05.526,-0.0009796325995054,-19.116215647943708,0,NB
2025-06-03 15:42:05.534,-0.0010770740026037,-15.008061112564414,0,NB
2025-06-03 15:42:05.542,-0.0011706639846048,-10.583526582984533,0,NB
2025-06-03 15:42:05.550,-0.0012604318981578,-5.88516850029543,0,NB
2025-06-03 15:42:05.557,-0.0013464475116477,-0.962496438288508,0,NB
2025-06-03 15:42:05.565,-0.0014288158741881,4.128909896504017,0,NB
2025-06-03 15:42:05.573,-0.0015076718368002,9.32847980928083,0,NB
2025-06-03 15:42:05.581,-0.0015831739224875,14.57189644312342,0,NB
2025-06-03 15:42:05.589,-0.0016554974622203,19.792470449449223,0,NB
2025-06-03 15:42:05.596,-0.0017248271219575,24.92260077153898,0,NB
2025-06-03 15:42:05.604,-0.0017913490137544,29.895277587177247,0,NB
2025-06-03 15:42:05.612,-0.0018552425058041,34.645581012054386,0,NB
2025-06-03 15:42:05.620,-0.0019166717449896,39.11212952247895,0,NB
2025-06-03 15:42:05.628,-0.0019757768620352,43.23843415303694,0,NB
2025-06-03 15:42:05.636,-0.0020326648040475,46.97411822150072,0,NB
2025-06-03 15:42:05.643,-0.0020873996970437,50.27596742127239,0,NB
2025-06-03 15:42:05.651,-0.0021399926333076,53.10878134231014,0,NB
2025-06-03 15:42:05.659,-0.0021903908764472,55.44600454548031,0,NB
2025-06-03 15:42:05.667,-0.0022384667050708,57.27012292239924,0,NB
2025-06-03 15:42:05.675,-0.0022840064340029,58.57281892864084,0,NB
2025-06-03 15:42:05.682,-0.0023267004410753,59.35488710391252,0,NB
2025-06-03 15:42:05.690,-0.0023661351322664,59.625918828767965,0,NB
2025-06-03 15:42:05.698,-0.0024017876517879,59.40377227352992,0,NB
2025-06-03 15:42:05.706,-0.0024330239367255,58.71384975234004,0,NB
2025-06-03 15:42:05.714,-0.00245910062943,57.5882100110118,0,NB
2025-06-03 15:42:05.721,-0.0024791714306767,56.06454719373137,0,NB
2025-06-03 15:42:05.729,-0.0024922985819816,54.18507123511602,0,NB
2025-06-03 15:42:05.737,-0.0024974701951584,51.99532614229033,0,NB
2025-06-03 15:42:05.745,-0.0024936240361213,49.54298304826553,0,NB
2025-06-03 15:42:05.753,-0.0024796780428136,46.87664406741276,0,NB
2025-06-03 15:42:05.761,-0.0024545672852914,44.04469095229546,0,NB
2025-06-03 15:42:05.768,-0.0024172863645988,41.0942094680905,0,NB
2025-06-03 15:42:05.776,-0.0023669355776293,38.070016425035895,0,NB
2025-06-03 15:42:05.784,-0.002302768686066,35.013811616596485,0,NB
2025-06-03 15:42:05.792,-0.0022242398819906,31.96347168877633,0,NB
2025-06-03 15:42:05.800,-0.002131047558842,28.952497411036564,0,NB
2025-06-03 15:42:05.807,-0.0020231727461849,26.0096201343072,0,NB
2025-06-03 15:42:05.815,-0.001900910445176,23.158567611880358,0,NB
2025-06-03 15:42:05.823,-0.0017648924519012,20.417984031027885,0,NB
2025-06-03 15:42:05.831,-0.0016161004717629,17.80149426097113,0,NB
2025-06-03 15:42:05.839,-0.0014558684224804,15.3178981541209,0,NB
2025-06-03 15:42:05.846,-0.0012858729105591,12.971477391136196,0,NB
2025-06-03 15:42:05.854,-0.0011081111040209,10.76239492757801,0,NB
2025-06-03 15:42:05.862,-0.00092486569986,8.6871656126986,0,NB
2025-06-03 15:42:05.870,-0.0007386573247,6.739175994674932,0,NB
2025-06-03 15:42:05.878,-0.0005521853766156,4.909231654575645,0,NB
2025-06-03 15:42:05.886,-0.0003682589681978,3.186111553143766,0,NB
2025-06-03 15:42:05.893,-0.0001897202599088,1.5571107429159543,0,NB
2025-06-03 15:42:05.901,-1.936300621700008e-05,0.0085552966266099,0,NB
2025-06-03 15:42:05.909,0.0001401505187274,-1.473723672593586,0,NB
2025-06-03 15:42:05.917,0.0002863709358964,-2.9039665917949304,0,NB
2025-06-03 15:42:05.925,0.000417138364612,-4.2961186098843065,0,NB
2025-06-03 15:42:05.932,0.0005306514037494,-5.66352161054909,0,NB
2025-06-03 15:42:05.940,0.0006255261234175,-7.018663648835527,0,NB
2025-06-03 15:42:05.948,0.0007008430937123,-8.37298111695464,0,NB
2025-06-03 15:42:05.956,0.0007561807578293,-9.736706212209532,0,NB
2025-06-03 15:42:05.964,0.000791633706268,-11.118750269730745,0,NB
2025-06-03 15:42:05.971,0.0008078147877433,-12.526612354291473,0,NB
2025-06-03 15:42:05.979,0.000805840588125,-13.96630224044153,0,NB
2025-06-03 15:42:05.987,0.0007873005507498,-15.442267549117537,0,NB
2025-06-03 15:42:05.995,0.0007542107485102,-16.9573162931497,0,NB
2025-06-03 15:42:06.003,0.0007089539413691,-18.51252830214426,0,NB
2025-06-03 15:42:06.011,0.0006542080262797,-20.10715179449998,0,NB
2025-06-03 15:42:06.018,0.0005928653097086,-21.738484555237925,0,NB
2025-06-03 15:42:06.026,0.0005279452196838,-23.401742558492,0,NB
2025-06-03 15:42:06.034,0.0004625031669898,-25.08992223128861,0,NB
2025-06-03 15:42:06.042,0.0003995383437949,-26.79366568178249,0,NB
2025-06-03 15:42:06.050,0.0003419033623015,-28.50114091096817,0,NB
2025-06-03 15:42:06.057,0.0002922187120387,-30.19795110712913,0,NB
2025-06-03 15:42:06.065,0.0002527949003937,-31.86708842560352,0,NB
2025-06-03 15:42:06.073,0.0002255647689576,-33.488948057851616,0,NB
2025-06-03 15:42:06.081,0.0002120279367253,-35.0414178129935,0,NB
2025-06-03 15:42:06.089,0.0002132087929546,-36.50005683651492,0,NB
2025-06-03 15:42:06.096,0.0002296290998917,-37.83837448188784,0,NB
2025-06-03 15:42:06.104,0.000261296045591,-39.0282167829913,0,NB
2025-06-03 15:42:06.112,0.000307706312756,-40.04026354990066,0,NB
2025-06-03 15:42:06.120,0.0003678662745244,-40.84463398250232,0,NB
2025-06-03 15:42:06.128,0.0004403279030846,-41.41159307044293,0,NB
2025-06-03 15:42:06.136,0.0005232395382497,-41.71234517266351,0,NB
2025-06-03 15:42:06.143,0.0006144102656492,-41.71989533111257,0,NB
2025-06-03 15:42:06.151,0.0007113861400688,-41.40995338720323,0,NB
2025-06-03 15:42:06.159,0.0008115358360263,-40.761851169041776,0,NB
2025-06-03 15:42:06.167,0.0009121426452465,-39.75943923331624,0,NB
2025-06-03 15:42:06.175,0.0010104991924936,-38.39192718696293,0,NB
2025-06-03 15:42:06.182,0.0011040008868547,-36.65463074671208,0,NB
2025-06-03 15:42:06.190,0.0011902340572733,-34.549589618927634,0,NB
2025-06-03 15:42:06.198,0.0012670549867979,-32.086023103117626,0,NB
2025-06-03 15:42:06.206,0.001332656575419,-29.28059502700256,0,NB
2025-06-03 15:42:06.214,0.0013856199723965,-26.15746606470759,0,NB
2025-06-03 15:42:06.221,0.0014249491467495,-22.748119398386155,0,NB
2025-06-03 15:42:06.229,0.0014500870724182,-19.090954668090085,0,NB
2025-06-03 15:42:06.237,0.0014609131250733,-15.230654736073244,0,NB
2025-06-03 15:42:06.245,0.0014577224447964,-11.217339437601089,0,NB
2025-06-03 15:42:06.253,0.0014411892086826,-7.105529659845618,0,NB
2025-06-03 15:42:06.261,0.0014123166617458,-2.952953279893278,0,NB
2025-06-03 15:42:06.268,0.0013723772104745,1.1807687289106903,0,NB
2025-06-03 15:42:06.276,0.0013228460016328,5.235512683878829,0,NB
2025-06-03 15:42:06.284,0.0012653313915674,9.152072686283,0,NB
2025-06-03 15:42:06.292,0.0012015056075291,12.87356388179412,0,NB
2025-06-03 15:42:06.300,0.0011330386170928,16.346762284975476,0,NB
2025-06-03 15:42:06.307,0.0010615377064085,19.523338060359137,0,NB
2025-06-03 15:42:06.315,0.0009884945986007,22.360943969621857,0,NB
2025-06-03 15:42:06.323,0.0009152412529767,24.824126909358075,0,NB
2025-06-03 15:42:06.331,0.000842914910407,26.885037699966425,0,NB
2025-06-03 15:42:06.339,0.0007724325934462,28.523922146000164,0,NB
2025-06-03 15:42:06.346,0.0007044751384842,29.729384483203106,0,NB
2025-06-03 15:42:06.354,0.0006394808262571,30.498422298610382,0,NB
2025-06-03 15:42:06.362,0.0005776486325084,30.836239544298163,0,NB
2025-06-03 15:42:06.370,0.0005189509319936,30.755851106633763,0,NB
2025-06-03 15:42:06.378,0.0004631551529935,30.277498350495243,0,NB
2025-06-03 15:42:06.386,0.0004098534787322,29.42790000711391,0,NB
2025-06-03 15:42:06.393,0.0003584993119641,28.23936664733801,0,NB
2025-06-03 15:42:06.401,0.0003084489016427,26.748809754996,0,NB
2025-06-03 15:42:06.409,0.0002590062897223,24.99667809492617,0,NB
2025-06-03 15:42:06.417,0.0002094695782448,23.02585468886245,0,NB
2025-06-03 15:42:06.425,0.0001591764465975,20.880547322321128,0,NB
2025-06-03 15:42:06.432,0.0001075468689697,18.60520417737188,0,NB
2025-06-03 15:42:06.440,5.412109352756125e-05,16.24348400266613,0,NB
2025-06-03 15:42:06.448,-1.408853331694917e-06,13.837307281272894,0,NB
2025-06-03 15:42:06.456,-5.917558504574442e-05,11.426011227361592,0,NB
2025-06-03 15:42:06.464,-0.0001191217710366,9.045627229075238,0,NB
2025-06-03 15:42:06.471,-0.0001809951851284,6.7282946705510325,0,NB
2025-06-03 15:42:06.479,-0.0002443535501335,4.501820054813202,0,NB
2025-06-03 15:42:06.487,-0.0003085789229735,2.3893851868126887,0,NB
2025-06-03 15:42:06.495,-0.0003729010464868,0.409403061054549,0,NB
2025-06-03 15:42:06.503,-0.0004364288060824,-1.4244847617031298,0,NB
2025-06-03 15:42:06.511,-0.00049818853031,-3.103279911647433,0,NB
2025-06-03 15:42:06.518,-0.0005571673357051,-4.622382508589343,0,NB
2025-06-03 15:42:06.526,-0.0006123592041349,-5.981247440984488,0,NB
2025-06-03 15:42:06.534,-0.0006628112320076,-7.182961256899731,0,NB
2025-06-03 15:42:06.542,-0.0007076676154304,-8.233760612461259,0,NB
2025-06-03 15:42:06.550,-0.000746209327589,-9.142513657842295,0,NB
2025-06-03 15:42:06.557,-0.0007778878717089,-9.920185326497649,0,NB
2025-06-03 15:42:06.565,-0.0008023517927165,-10.579306284747831,0,NB
2025-06-03 15:42:06.573,-0.0008194648354377,-11.133463372449237,0,NB
2025-06-03 15:42:06.581,-0.0008293148915998,-11.596826819886616,0,NB
2025-06-03 15:42:06.589,-0.00083221325621,-11.98372648137255,0,NB
2025-06-03 15:42:06.596,-0.0008286841680492,-12.30828592366973,0,NB
2025-06-03 15:42:06.604,-0.0008194450615745,-12.584119608221656,0,NB
2025-06-03 15:42:06.612,-0.0008053783685134,-12.82409478437477,0,NB
2025-06-03 15:42:06.620,-0.0007874960649155,-13.040156241254174,0,NB
2025-06-03 15:42:06.628,-0.0007668984580061,-13.243208911727145,0,NB
2025-06-03 15:42:06.636,-0.0007447289425668,-13.443050625865228,0,NB
2025-06-03 15:42:06.643,-0.0007221266253436,-13.648345191750185,0,NB
2025-06-03 15:42:06.651,-0.000700178815583,-13.866624526934768,0,NB
2025-06-03 15:42:06.659,-0.0006798754083795,-14.104307828160556,0,NB
2025-06-03 15:42:06.667,-0.0006620671439691,-14.366725768981636,0,NB
2025-06-03 15:42:06.675,-0.0006474296100461,-14.658138445156686,0,NB
2025-06-03 15:42:06.682,-0.0006364346660883,-14.98173721412666,0,NB
2025-06-03 15:42:06.690,-0.0006293307099692,-15.339622642487717,0,NB
2025-06-03 15:42:06.698,-0.0006261328803574,-15.732753398970765,0,NB
2025-06-03 15:42:06.706,-0.0006266238974408,-16.16086398884057,0,NB
2025-06-03 15:42:06.714,-0.0006303657947411,-16.62235256140239,0,NB
2025-06-03 15:42:06.721,-0.000636722293344,-17.114143447748788,0,NB
2025-06-03 15:42:06.729,-0.0006448910257655,-17.63153239387522,0,NB
2025-06-03 15:42:06.737,-0.0006539442463334,-18.168025434336712,0,NB
2025-06-03 15:42:06.745,-0.0006628761134972,-18.715184808849965,0,NB
2025-06-03 15:42:06.753,-0.0006706541801223,-19.262497094905907,0,NB
2025-06-03 15:42:06.761,-0.0006762724400671,-19.79727968777589,0,NB
2025-06-03 15:42:06.768,-0.0006788031225543,-20.30464181860333,0,NB
2025-06-03 15:42:06.776,-0.00067744436122,-20.76751541608564,0,NB
2025-06-03 15:42:06.784,-0.0006715609702821,-21.16676928718367,0,NB
2025-06-03 15:42:06.792,-0.0006607159526603,-21.48141736213896,0,NB
2025-06-03 15:42:06.800,-0.0006446910283563,-21.68892820228413,0,NB
2025-06-03 15:42:06.807,-0.0006234952687428,-21.765638720010948,0,NB
2025-06-03 15:42:06.815,-0.0005973617287215,-21.68727025241424,0,NB
2025-06-03 15:42:06.823,-0.0005667327239539,-21.429539941647604,0,NB
2025-06-03 15:42:06.831,-0.000532235073664,-20.96885502287678,0,NB
2025-06-03 15:42:06.839,-0.0004946471713779,-20.2830723564789,0,NB
2025-06-03 15:42:06.846,-0.0004548600737019,-19.35230063690627,0,NB
2025-06-03 15:42:06.854,-0.000413834862042,-18.15971844061434,0,NB
2025-06-03 15:42:06.862,-0.0003725584119749,-16.69237790053385,0,NB
2025-06-03 15:42:06.870,-0.0003319995582332,-14.941961552375624,0,NB
2025-06-03 15:42:06.878,-0.0002930675523619,-12.905458994762464,0,NB
2025-06-03 15:42:06.886,-0.0002565746352362,-10.5857306047423,0,NB
2025-06-03 15:42:06.893,-0.0002232044185565,-7.991927759760611,0,NB
2025-06-03 15:42:06.901,-0.0001934875567141,-5.139742868945879,0,NB
2025-06-03 15:42:06.909,-0.0001677858900597,-2.0514679493636536,0,NB
2025-06-03 15:42:06.917,-0.000146285856935,1.2441526714870863,0,NB
2025-06-03 15:42:06.925,-0.0001290015112589,4.712281963734801,0,NB
2025-06-03 15:42:06.932,-0.0001157869535586,8.312559803856137,0,NB
2025-06-03 15:42:06.940,-0.0001063573969244,11.999871205847604,0,NB
2025-06-03 15:42:06.948,-0.0001003174638926,15.725292894640834,0,NB
2025-06-03 15:42:06.956,-9.71946983886312e-05,19.43718971093774,0,NB
2025-06-03 15:42:06.964,-9.647580141037804e-05,23.082425268619502,0,NB
2025-06-03 15:42:06.971,-9.76429217944022e-05,26.607645820275867,0,NB
2025-06-03 15:42:06.979,-0.0001002075306484,29.960592769891,0,NB
2025-06-03 15:42:06.987,-0.0001037398931018,33.09139792054752,0,NB
2025-06-03 15:42:06.995,-0.0001078927524293,35.953816420945515,0,NB
2025-06-03 15:42:07.003,-0.0001124184277072,38.50635537802983,0,NB
2025-06-03 15:42:07.011,-0.00011717903691,40.71326098453967,0,NB
2025-06-03 15:42:07.018,-0.0001221499687117,42.545333400253256,0,NB
2025-06-03 15:42:07.026,-0.0001274170240313,43.98054607945578,0,NB
2025-06-03 15:42:07.034,-0.0001331678230012,45.00445428573672,0,NB
2025-06-03 15:42:07.042,-0.0001396781198451,45.610385731007625,0,NB
2025-06-03 15:42:07.050,-0.0001472935925581,45.79941422545124,0,NB
2025-06-03 15:42:07.057,-0.0001564075184258,45.58012460863736,0,NB
2025-06-03 15:42:07.065,-0.0001674346249055,44.96818380764989,0,NB
2025-06-03 15:42:07.073,-0.0001807814739409,43.98573846877903,0,NB
2025-06-03 15:42:07.081,-0.0001968140689934,42.66066413194712,0,NB
2025-06-03 15:42:07.089,-0.0002158238793406,41.02569431131751,0,NB
2025-06-03 15:42:07.096,-0.0002379939841531,39.11746010847917,0,NB
2025-06-03 15:42:07.104,-0.0002633674199553,36.97547215538072,0,NB
2025-06-03 15:42:07.112,-0.0002918200132989,34.641076832124995,0,NB
2025-06-03 15:42:07.120,-0.0003230399779198,32.156417912096714,0,NB
2025-06-03 15:42:07.128,-0.0003565163463468,29.563433136843425,0,NB
2025-06-03 15:42:07.136,-0.000391537890848,26.902912798488646,0,NB
2025-06-03 15:42:07.143,-0.0004272035758594,24.21364429575866,0,NB
2025-06-03 15:42:07.151,-0.0004624447943527,21.531662927448192,0,NB
2025-06-03 15:42:07.159,-0.0004960587337875,18.88962500195987,0,NB
2025-06-03 15:42:07.167,-0.0005267513280874,16.316314795090218,0,NB
2025-06-03 15:42:07.175,-0.0005531875585554,13.836292120156648,0,NB
2025-06-03 15:42:07.182,-0.0005740464658093,11.469682442403204,0,NB
2025-06-03 15:42:07.190,-0.0005880780640806,9.232106739543449,0,NB
2025-06-03 15:42:07.198,-0.0005941592697843,7.134743842717935,0,NB
2025-06-03 15:42:07.206,-0.0005913459035323,5.184513933058484,0,NB
2025-06-03 15:42:07.214,-0.0005789178754397,3.3843683498228487,0,NB
2025-06-03 15:42:07.221,-0.000556414968102,1.7336680042975576,0,NB
2025-06-03 15:42:07.229,-0.0005236612632475,0.2286305900609962,0,NB
2025-06-03 15:42:07.237,-0.0004807771236992,-1.1371744875962693,0,NB
2025-06-03 15:42:07.245,-0.0004281785393019,-2.372304925471842,0,NB
2025-06-03 15:42:07.253,-0.0003665643764048,-3.4869190375042867,0,NB
2025-06-03 15:42:07.261,-0.0002968925413623,-4.492263576094676,0,NB
2025-06-03 15:42:07.268,-0.0002203463455056,-5.400193353742634,0,NB
2025-06-03 15:42:07.276,-0.0001382925956611,-6.222737423957754,0,NB
2025-06-03 15:42:07.284,-5.223320918965741e-05,-6.97172338289658,0,NB
2025-06-03 15:42:07.292,3.62475768839496e-05,-7.658467863419536,0,NB
2025-06-03 15:42:07.300,0.0001255381380958,-8.293537674992232,0,NB
2025-06-03 15:42:07.307,0.000214054185306,-8.886582448539658,0,NB
2025-06-03 15:42:07.315,0.0003002909541722,-9.446236216933857,0,NB
2025-06-03 15:42:07.323,0.0003828706751002,-9.980082228359787,0,NB
2025-06-03 15:42:07.331,0.0004605833812632,-10.49467256250457,0,NB
2025-06-03 15:42:07.339,0.0005324194563421,-10.995591890887578,0,NB
2025-06-03 15:42:07.346,0.0005975927603263,-11.487553070971442,0,NB
2025-06-03 15:42:07.354,0.0006555536917881,-11.974511253825526,0,NB
2025-06-03 15:42:07.362,0.0007059921376371,-12.459782861888687,0,NB
2025-06-03 15:42:07.370,0.0007488309085071,-12.946156173375227,0,NB
2025-06-03 15:42:07.378,0.0007842109079691,-13.43598131762734,0,NB
2025-06-03 15:42:07.386,0.000812469815272,-13.931229195116751,0,NB
2025-06-03 15:42:07.393,0.0008341163141771,-14.433511114371294,0,NB
2025-06-03 15:42:07.401,0.0008498017998423,-14.944053691330444,0,NB
2025-06-03 15:42:07.409,0.0008602911297875,-15.46362667045057,0,NB
2025-06-03 15:42:07.417,0.0008664335261766,-15.992424669416565,0,NB
2025-06-03 15:42:07.425,0.0008691343168909,-16.52990727368082,0,NB
2025-06-03 15:42:07.432,0.0008693278815283,-17.074605254858067,0,NB
2025-06-03 15:42:07.440,0.0008679519677384,-17.62390379219037,0,NB
2025-06-03 15:42:07.448,0.0008659234689007,-18.17381627108937,0,NB
2025-06-03 15:42:07.456,0.0008641157790335,-18.718764357536028,0,NB
2025-06-03 15:42:07.464,0.0008633378955942,-19.251381462018788,0,NB
2025-06-03 15:42:07.471,0.0008643154755222,-19.76235730086822,0,NB
2025-06-03 15:42:07.479,0.000867674100255,-20.24034095947802,0,NB
2025-06-03 15:42:07.487,0.0008739251111532,-20.671918620538417,0,NB
2025-06-03 15:42:07.495,0.0008834544563964,-21.04167993870814,0,NB
2025-06-03 15:42:07.503,0.0008965149198406,-21.332383958577328,0,NB
2025-06-03 15:42:07.511,0.0009132218860337,-21.525231562930585,0,NB
2025-06-03 15:42:07.518,0.0009335525558364,-21.60024681939265,0,NB
2025-06-03 15:42:07.526,0.0009573483705813,-21.536764419817047,0,NB
2025-06-03 15:42:07.534,0.0009843203628561,-21.314014873844144,0,NB
2025-06-03 15:42:07.542,0.0010140571985754,-20.911793466120667,0,NB
2025-06-03 15:42:07.550,0.0010460357261916,-20.31119349758025,0,NB
2025-06-03 15:42:07.557,0.0010796338229382,-19.49537931662445,0,NB
2025-06-03 15:42:07.565,0.0011141452270155,-18.450370428862605,0,NB
2025-06-03 15:42:07.573,0.0011487959707552,-17.165804865697496,0,NB
2025-06-03 15:42:07.581,0.0011827620953778,-15.635648268511602,0,NB
2025-06-03 15:42:07.589,0.0012151885278276,-13.858815022643146,0,NB
2025-06-03 15:42:07.596,0.0012452091796971,-11.839669384665587,0,NB
2025-06-03 15:42:07.604,0.0012719683289558,-9.588377910385049,0,NB
2025-06-03 15:42:07.612,0.0012946431611662,-7.121089510922773,0,NB
2025-06-03 15:42:07.620,0.0013124670714694,-4.459925923216858,0,NB
2025-06-03 15:42:07.628,0.0013247530060039,-1.6327729609902528,0,NB
2025-06-03 15:42:07.636,0.0013309157610372,1.3271287793706334,0,NB
2025-06-03 15:42:07.643,0.0013304918578266,4.381786480920023,0,NB
2025-06-03 15:42:07.651,0.001323155537532,7.489235210477284,0,NB
2025-06-03 15:42:07.659,0.0013087296516964,10.604471984011946,0,NB
2025-06-03 15:42:07.667,0.0012871906771236,13.680513359849858,0,NB
2025-06-03 15:42:07.675,0.0012586675776762,16.669540637277873,0,NB
2025-06-03 15:42:07.682,0.0012234346084349,19.524092897850448,0,NB
2025-06-03 15:42:07.690,0.0011818983932358,22.198266126365723,0,NB
2025-06-03 15:42:07.698,0.0011345798224833,24.6488765701523,0,NB
2025-06-03 15:42:07.706,0.0010820915895394,26.836548308613533,0,NB
2025-06-03 15:42:07.714,0.0010251124653224,28.72668857122656,0,NB
2025-06-03 15:42:07.721,0.0009643596551746,30.2903194236033,0,NB
2025-06-03 15:42:07.729,0.0009005607967001,31.50474071836837,0,NB
2025-06-03 15:42:07.737,0.0008344273008483,32.35400630663322,0,NB
2025-06-03 15:42:07.745,0.0007666306905765,32.82920302930447,0,NB
2025-06-03 15:42:07.753,0.0006977832858641,32.92852956256012,0,NB
2025-06-03 15:42:07.761,0.0006284241080326,32.6571794154986,0,NB
2025-06-03 15:42:07.768,0.0005590103981283,32.02703896010614,0,NB
2025-06-03 15:42:07.776,0.0004899147874556,31.056217076273377,0,NB
2025-06-03 15:42:07.784,0.0004214279663476,29.768427661410318,0,NB
2025-06-03 15:42:07.792,0.0003537666415388,28.19224980821572,0,NB
2025-06-03 15:42:07.800,0.0002870865437583,26.360292885809997,0,NB
2025-06-03 15:42:07.807,0.0002215000918405,24.30829511219471,0,NB
2025-06-03 15:42:07.815,0.0001570979641971,22.07418456151554,0,NB
2025-06-03 15:42:07.823,9.39733575722346e-05,19.697131011058403,0,NB
2025-06-03 15:42:07.831,3.224729120913343e-05,17.216615707571254,0,NB
2025-06-03 15:42:07.839,-2.79069377798672e-05,14.67154411995394,0,NB
2025-06-03 15:42:07.846,-8.62420803408555e-05,12.099424135623384,0,NB
2025-06-03 15:42:07.854,-0.0001424197999905,9.535629036215012,0,NB
2025-06-03 15:42:07.862,-0.0001959994901735,7.012761040207259,0,NB
2025-06-03 15:42:07.870,-0.0002464340638115,4.560127313957792,0,NB
2025-06-03 15:42:07.878,-0.0002930734157285,2.203336223889079,0,NB
2025-06-03 15:42:07.886,-0.0003351760015701,-0.0359826577237181,0,NB
2025-06-03 15:42:07.893,-0.0003719286033192,-2.140335536912498,0,NB
2025-06-03 15:42:07.901,-0.0004024737581429,-4.096403207434064,0,NB
2025-06-03 15:42:07.909,-0.0004259436560242,-5.89497027696878,0,NB
2025-06-03 15:42:07.917,-0.0004414987782002,-7.530756656841318,0,NB
2025-06-03 15:42:07.925,-0.0004483692089735,-9.002165770684902,0,NB
2025-06-03 15:42:07.932,-0.0004458963454622,-10.310965785553574,0,NB
2025-06-03 15:42:07.940,-0.0004335726411304,-11.461921185666531,0,NB
2025-06-03 15:42:07.948,-0.0004110770989523,-12.462392175771429,0,NB
2025-06-03 15:42:07.956,-0.0003783044806829,-13.32191875294826,0,NB
2025-06-03 15:42:07.964,-0.0003353865525187,-14.051804902806287,0,NB
2025-06-03 15:42:07.971,-0.0002827041013416,-14.664716371688096,0,NB
2025-06-03 15:42:07.979,-0.0002208889659529,-15.174302976311482,0,NB
2025-06-03 15:42:07.987,-0.0001508159620334,-15.594853587420598,0,NB
2025-06-03 15:42:07.995,-7.358522706002709e-05,-15.940988924767712,0,NB
2025-06-03 15:42:08.003,9.50402546870654e-06,-16.227394288134782,0,NB
2025-06-03 15:42:08.011,9.69871259633362e-05,-16.468591477571255,0,NB
2025-06-03 15:42:08.018,0.0001872735747067,-16.678746569639294,0,NB
2025-06-03 15:42:08.026,0.0002786911055508,-16.871508045302956,0,NB
2025-06-03 15:42:08.034,0.0003695324538077,-17.05986811802159,0,NB
2025-06-03 15:42:08.042,0.000458103075613,-17.25603906669546,0,NB
2025-06-03 15:42:08.050,0.000542768139664,-17.471335982621614,0,NB
2025-06-03 15:42:08.057,0.0006219971651847,-17.716057605818136,0,NB
2025-06-03 15:42:08.065,0.0006944047092747,-17.999357838721977,0,NB
2025-06-03 15:42:08.073,0.0007587855933284,-18.32910204214592,0,NB
2025-06-03 15:42:08.081,0.0008141433346004,-18.71170426997105,0,NB
2025-06-03 15:42:08.089,0.0008597106767503,-19.15194408764288,0,NB
2025-06-03 15:42:08.096,0.0008949613859588,-19.65276441976581,0,NB
2025-06-03 15:42:08.104,0.000919612838717,-20.215054834854183,0,NB
2025-06-03 15:42:08.112,0.0009336193436115,-20.837427634472807,0,NB
2025-06-03 15:42:08.120,0.0009371565166106,-21.515996893936823,0,NB
2025-06-03 15:42:08.128,0.0009305973704051,-22.24417302595646,0,NB
2025-06-03 15:42:08.136,0.0009144812003099,-23.01248734086607,0,NB
2025-06-03 15:42:08.143,0.0008894769119186,-23.80846231241599,0,NB
2025-06-03 15:42:08.151,0.0008563430477129,-24.61654371030205,0,NB
2025-06-03 15:42:08.159,0.0008158872399194,-25.4181103464892,0,NB
2025-06-03 15:42:08.167,0.0007689279523774,-26.191575855476664,0,NB
2025-06-03 15:42:08.175,0.0007162610954585,-26.91259468128384,0,NB
2025-06-03 15:42:08.182,0.0006586334954219,-27.554381306015184,0,NB
2025-06-03 15:42:08.190,0.0005967244490746,-28.088147791684616,0,NB
2025-06-03 15:42:08.198,0.0005311358334909,-28.48366002119458,0,NB
2025-06-03 15:42:08.206,0.000462390535324,-28.70990776249192,0,NB
2025-06-03 15:42:08.214,0.0003909383460756,-28.735878037918184,0,NB
2025-06-03 15:42:08.221,0.0003171679604222,-28.53141550316918,0,NB
2025-06-03 15:42:08.229,0.0002414233318076,-28.06814791174889,0,NB
2025-06-03 15:42:08.237,0.0001640223957719,-27.320449572374017,0,NB
2025-06-03 15:42:08.245,8.527607475929769e-05,-26.26641131849789,0,NB
2025-06-03 15:42:08.253,5.505531253423028e-06,-24.88878220842797,0,NB
2025-06-03 15:42:08.261,-7.49441632158183e-05,-23.175846231669293,0,NB
2025-06-03 15:42:08.268,-0.0001556954345682,-21.12219692331523,0,NB
2025-06-03 15:42:08.276,-0.0002363357101126,-18.72937412060752,0,NB
2025-06-03 15:42:08.284,-0.000316421460655,-16.006330187122174,0,NB
2025-06-03 15:42:08.292,-0.0003954885546314,-12.969697840894906,0,NB
2025-06-03 15:42:08.300,-0.0004730680074428,-9.643838115867029,0,NB
2025-06-03 15:42:08.307,-0.0005487056277053,-6.060654727188904,0,NB
2025-06-03 15:42:08.315,-0.0006219837623977,-2.2591698776374085,0,NB
2025-06-03 15:42:08.323,-0.0006925434122957,1.7151340624452371,0,NB
2025-06-03 15:42:08.331,-0.0007601053461643,5.811192999926594,0,NB
2025-06-03 15:42:08.339,-0.0008244892934444,9.973436431495212,0,NB
2025-06-03 15:42:08.347,-0.0008856306444925,14.143027918179657,0,NB
2025-06-03 15:42:08.354,-0.00094359421337,18.259231831179235,0,NB
2025-06-03 15:42:08.362,-0.0009985845214567,22.26086194710214,0,NB
2025-06-03 15:42:08.370,-0.0010509518581028,26.08776388423109,0,NB
2025-06-03 15:42:08.378,-0.0011011932319758,29.682281905031022,0,NB
2025-06-03 15:42:08.386,-0.0011499473635782,32.990661311433264,0,NB
2025-06-03 15:42:08.393,-0.0011979830967349,35.964340445563714,0,NB
2025-06-03 15:42:08.401,-0.0012461809478845,38.56109097752685,0,NB
2025-06-03 15:42:08.409,-0.0012955078853493,40.74597142001756,0,NB
2025-06-03 15:42:08.417,-0.0013469857962349,42.49206630533588,0,NB
2025-06-03 15:42:08.425,-0.0014016544425178,43.78099181111245,0,NB
2025-06-03 15:42:08.432,-0.0014605300217118,44.60315743025232,0,NB
2025-06-03 15:42:08.440,-0.0015245607227443,44.95778215328222,0,NB
2025-06-03 15:42:08.448,-0.0015945808957859,44.852672191580986,0,NB
2025-06-03 15:42:08.456,-0.0016712656275039,44.303775177819645,0,NB
2025-06-03 15:42:08.464,-0.0017550876226689,43.33453274371875,0,NB
2025-06-03 15:42:08.472,-0.0018462783320827,41.9750591622454,0,NB
2025-06-03 15:42:08.479,-0.0019447952292785,40.261178187067706,0,NB
2025-06-03 15:42:08.487,-0.0020502970195928,38.233353235457336,0,NB
2025-06-03 15:42:08.495,-0.0021621283620277,35.93554762384745,0,NB
2025-06-03 15:42:08.503,-0.0022793153959449,33.41405172613985,0,NB
2025-06-03 15:42:08.511,-0.0024005729927348,30.71631278629026,0,NB
2025-06-03 15:42:08.518,-0.0025243242017419,27.889800822299563,0,NB
2025-06-03 15:42:08.526,-0.002648731837649,24.980940781471237,0,NB
2025-06-03 15:42:08.534,-0.0027717415743739,22.03413703904432,0,NB
2025-06-03 15:42:08.542,-0.0028911352830103,19.090911675953496,0,NB
2025-06-03 15:42:08.550,-0.0030045926966821,16.189172929143748,0,NB
2025-06-03 15:42:08.557,-0.0031097588303958,13.36262497760018,0,NB
2025-06-03 15:42:08.565,-0.0032043139911774,10.640325000392888,0,NB
2025-06-03 15:42:08.573,-0.0032860428157596,8.046388402537298,0,NB
2025-06-03 15:42:08.581,-0.0033528987415835,5.599838420268043,0,NB
2025-06-03 15:42:08.589,-0.0034030607379934,3.3145921397904896,0,NB
2025-06-03 15:42:08.597,-0.0034349799200901,1.199571418060721,0,NB
2025-06-03 15:42:08.604,-0.0034474146679118,-0.7410756233660675,0,NB
2025-06-03 15:42:08.612,-0.0034394539142313,-2.507658887784008,0,NB
2025-06-03 15:42:08.620,-0.0034105291817989,-4.104553945045455,0,NB
2025-06-03 15:42:08.628,-0.0033604165775375,-5.539751004930018,0,NB
2025-06-03 15:42:08.636,-0.0032892302120174,-6.8243628551288,0,NB
2025-06-03 15:42:08.643,-0.0031974084973571,-7.972108364443342,0,NB
2025-06-03 15:42:08.651,-0.0030856946610935,-8.998786525661092,0,NB
2025-06-03 15:42:08.659,-0.0029551127281114,-9.921753906275423,0,NB
2025-06-03 15:42:08.667,-0.0028069401939175,-10.75941592638214,0,NB
2025-06-03 15:42:08.675,-0.0026426785615044,-11.530739752524184,0,NB
2025-06-03 15:42:08.682,-0.0024640227131121,-12.254793960678636,0,NB
2025-06-03 15:42:08.690,-0.0022728296891845,-12.95031766041185,0,NB
2025-06-03 15:42:08.698,-0.0020710869580058,-13.63531965134256,0,NB
2025-06-03 15:42:08.706,-0.0018608798662132,-14.326706538680105,0,NB
2025-06-03 15:42:08.714,-0.0016443577996941,-15.039937661123036,0,NB
2025-06-03 15:42:08.722,-0.0014236987075193,-15.78870422837281,0,NB
2025-06-03 15:42:08.729,-0.0012010720225681,-16.5846302250976,0,NB
2025-06-03 15:42:08.737,-0.0009786005383485,-17.436993366114063,0,NB
2025-06-03 15:42:08.745,-0.0007583223032078,-18.352465597448514,0,NB
2025-06-03 15:42:08.753,-0.0005421539432945,-19.334874213705977,0,NB
2025-06-03 15:42:08.761,-0.0003318569808963,-20.384986469242104,0,NB
2025-06-03 15:42:08.768,-0.0001290086690149,-21.500322456335525,0,NB
2025-06-03 15:42:08.776,6.502135772953007e-05,-22.675002863970136,0,NB
2025-06-03 15:42:08.784,0.0002490876329007,-23.899639874718364,0,NB
2025-06-03 15:42:08.792,0.0004222779859735,-25.16128076997741,0,NB
2025-06-03 15:42:08.800,0.0005839150666134,-26.44341467059595,0,NB
2025-06-03 15:42:08.807,0.0007335506379744,-27.7260531251688,0,NB
2025-06-03 15:42:08.815,0.0008709535876076,-28.98589486527044,0,NB
2025-06-03 15:42:08.823,0.0009960930428897,-30.196583885061404,0,NB
2025-06-03 15:42:08.831,0.0011091181667961,-31.329068013405237,0,NB
2025-06-03 15:42:08.839,0.0012103361225134,-32.35206231993364,0,NB
2025-06-03 15:42:08.847,0.0013001893797628,-33.23261808153298,0,NB
2025-06-03 15:42:08.854,0.0013792331231968,-33.93679374357615,0,NB
2025-06-03 15:42:08.862,0.0014481131912965,-34.43041951224089,0,NB
2025-06-03 15:42:08.870,0.0015075448213197,-34.67994213902599,0,NB
2025-06-03 15:42:08.878,0.0015582924425912,-34.6533313856291,0,NB
2025-06-03 15:42:08.886,0.0016011507122669,-34.32102490176469,0,NB
2025-06-03 15:42:08.893,0.0016369268598212,-33.65688413561229,0,NB
2025-06-03 15:42:08.901,0.0016664242439263,-32.63913073279186,0,NB
2025-06-03 15:42:08.909,0.0016904268846403,-31.251230924723828,0,NB
2025-06-03 15:42:08.917,0.0017096845949487,-29.48269484927958,0,NB
2025-06-03 15:42:08.925,0.0017248981996875,-27.329758683919813,0,NB
2025-06-03 15:42:08.932,0.001736704352711,-24.79591990389856,0,NB
2025-06-03 15:42:08.940,0.0017456598102584,-21.8922998137061,0,NB
2025-06-03 15:42:08.948,0.0017522256005824,-18.637812574392616,0,NB
2025-06-03 15:42:08.956,0.0017567520601405,-15.059126048608196,0,NB
2025-06-03 15:42:08.964,0.0017594659906443,-11.190406661741632,0,NB
2025-06-03 15:42:08.972,0.0017604612258219,-7.07284785959663,0,NB
2025-06-03 15:42:08.979,0.0017596937519706,-2.753989339568386,0,NB
2025-06-03 15:42:08.987,0.0017569822731016,1.7131582610886025,0,NB
2025-06-03 15:42:08.995,0.0017520148347686,6.27116142842972,0,NB
2025-06-03 15:42:09.003,0.0017443618736842,10.859356385621036,0,NB
2025-06-03 15:42:09.011,0.0017334957819593,15.415152619129472,0,NB
2025-06-03 15:42:09.018,0.0017188166571524,19.875409443716464,0,NB
2025-06-03 15:42:09.026,0.0016996833679564,24.17784487463822,0,NB
2025-06-03 15:42:09.034,0.0016754485448559,28.26243470837069,0,NB
2025-06-03 15:42:09.042,0.0016454957286677,32.07275988611865,0,NB
2025-06-03 15:42:09.050,0.0016092767265991,35.557261912395404,0,NB
2025-06-03 15:42:09.057,0.0015663472513792,38.67036924760465,0,NB
2025-06-03 15:42:09.065,0.0015163991259644,41.3734620543896,0,NB
2025-06-03 15:42:09.073,0.0014592876422323,43.63564826588033,0,NB
2025-06-03 15:42:09.081,0.0013950529877745,45.43433043026887,0,NB
2025-06-03 15:42:09.089,0.001323934964507,46.75554990936031,0,NB
2025-06-03 15:42:09.097,0.0012463805088287,47.59410248692948,0,NB
2025-06-03 15:42:09.104,0.0011630437848332,47.95342698162307,0,NB
2025-06-03 15:42:09.112,0.0010747788602057,47.84527576285501,0,NB
2025-06-03 15:42:09.120,0.0009826251903417,47.28918285398574,0,NB
2025-06-03 15:42:09.128,0.0008877863318541,46.31175132164971,0,NB
2025-06-03 15:42:09.136,0.0007916024840207,44.94578668219767,0,NB
2025-06-03 15:42:09.143,0.0006955176176852,43.22930694713981,0,NB
2025-06-03 15:42:09.151,0.0006010420968747,41.20446258128944,0,NB
2025-06-03 15:42:09.159,0.0005097118293282,38.91640102564709,0,NB
2025-06-03 15:42:09.167,0.0004230450975692,36.41211056571424,0,NB
2025-06-03 15:42:09.175,0.0003424983202234,33.73927727624249,0,NB
2025-06-03 15:42:09.182,0.0002694220708933,30.945186652897323,0,NB
2025-06-03 15:42:09.190,0.000205018734759,28.07569848322843,0,NB
2025-06-03 15:42:09.198,0.000150303205847,25.1743196653747,0,NB
2025-06-03 15:42:09.206,0.0001060680144647,22.28139521991846,0,NB
2025-06-03 15:42:09.214,7.28542180003006e-05,19.433432838374397,0,NB
2025-06-03 15:42:09.222,5.092928242662054e-05,16.662571160222026,0,NB
2025-06-03 15:42:09.229,4.027302007406977e-05,13.996196762293064,0,NB
2025-06-03 15:42:09.237,4.057242606820419e-05,11.456709773104455,0,NB
2025-06-03 15:42:09.245,5.122596718918638e-05,9.061433278408815,0,NB
2025-06-03 15:42:09.253,7.135752063529012e-05,6.822657432969072,0,NB
2025-06-03 15:42:09.261,9.983973653030198e-05,4.747805575235119,0,NB
2025-06-03 15:42:09.268,0.0001353261101445,2.8397067556875584,0,NB
2025-06-03 15:42:09.276,0.000176290509461,1.096957000962415,0,NB
2025-06-03 15:42:09.284,0.0002210723581663,-0.4856496203948531,0,NB
2025-06-03 15:42:09.292,0.0002679252423034,-1.9166394841261656,0,NB
2025-06-03 15:42:09.300,0.0003150665502158,-3.207346415091984,0,NB
2025-06-03 15:42:09.307,0.0003607259461506,-4.371385050856557,0,NB
2025-06-03 15:42:09.315,0.0004031909327501,-5.424126635837723,0,NB
2025-06-03 15:42:09.323,0.0004408483085589,-6.382191027800932,0,NB
2025-06-03 15:42:09.331,0.0004722208471069,-7.26296602003945,0,NB
2025-06-03 15:42:09.339,0.0004959989608006,-8.084162157585606,0,NB
2025-06-03 15:42:09.347,0.000511067449829,-8.863408203735275,0,NB
2025-06-03 15:42:09.354,0.0005165276685133,-9.617889451021645,0,NB
2025-06-03 15:42:09.362,0.0005117155692977,-10.36402832986129,0,NB
2025-06-03 15:42:09.370,0.0004962161132505,-11.117204405456178,0,NB
2025-06-03 15:42:09.378,0.0004698744754973,-11.891509008056529,0,NB
2025-06-03 15:42:09.386,0.0004328043383833,-12.699528518581536,0,NB
2025-06-03 15:42:09.393,0.0003853933716163,-13.552149791438616,0,NB
2025-06-03 15:42:09.401,0.0003283057668561,-14.458381353354898,0,NB
2025-06-03 15:42:09.409,0.0002624814454597,-15.425184844580862,0,NB
2025-06-03 15:42:09.417,0.0001891313142599,-16.457312605956364,0,NB
2025-06-03 15:42:09.425,0.0001097277322865,-17.55714926909432,0,NB
2025-06-03 15:42:09.432,2.598922350541391e-05,-18.724557553399485,0,NB
2025-06-03 15:42:09.440,-6.014148691906907e-05,-19.95673106156199,0,NB
2025-06-03 15:42:09.448,-0.0001465267706338,-21.24805952204315,0,NB
2025-06-03 15:42:09.456,-0.0002308709748146,-22.590014464553605,0,NB
2025-06-03 15:42:09.464,-0.0003107647276468,-23.971065533968584,0,NB
2025-06-03 15:42:09.472,-0.0003837362108365,-25.3766393507487,0,NB
2025-06-03 15:42:09.479,-0.0004473086919316,-26.78913382862608,0,NB
2025-06-03 15:42:09.487,-0.0004990633567806,-28.18800101215511,0,NB
2025-06-03 15:42:09.495,-0.0005367062019766,-29.54991069267735,0,NB
2025-06-03 15:42:09.503,-0.0005581374461241,-30.849005254321305,0,NB
2025-06-03 15:42:09.511,-0.0005615216137388,-32.05725341269945,0,NB
2025-06-03 15:42:09.518,-0.0005453561561338,-33.14490682878096,0,NB
2025-06-03 15:42:09.526,-0.0005085362217398,-34.081059161600464,0,NB
2025-06-03 15:42:09.534,-0.0004504129974247,-34.8343021660562,0,NB
2025-06-03 15:42:09.542,-0.0003708429364859,-35.37346818016145,0,NB
2025-06-03 15:42:09.550,-0.000270225191402,-35.668443039969475,0,NB
2025-06-03 15:42:09.557,-0.000149524701649,-35.69102839194909,0,NB
2025-06-03 15:42:09.565,-1.027866729142533e-05,-35.41582783747634,0,NB
2025-06-03 15:42:09.573,0.00014541541825,-34.82112763615069,0,NB
2025-06-03 15:42:09.581,0.0003149313893052,-33.889740088270585,0,NB
2025-06-03 15:42:09.589,0.0004951661149457,-32.60977645265605,0,NB
2025-06-03 15:42:09.597,0.0006826108127977,-30.97531652479394,0,NB
2025-06-03 15:42:09.604,0.0008734405312496,-28.98694391789272,0,NB
2025-06-03 15:42:09.612,0.0010636194186519,-26.652119669428547,0,NB
2025-06-03 15:42:09.620,0.0012490184478603,-23.98537193501624,0,NB
2025-06-03 15:42:09.628,0.0014255412611445,-21.008286016146123,0,NB
2025-06-03 15:42:09.636,0.0015892528182555,-17.74928649239115,0,NB
2025-06-03 15:42:09.643,0.0017365047881405,-14.243211413469504,0,NB
2025-06-03 15:42:09.651,0.0018640513811847,-10.53068692105048,0,NB
2025-06-03 15:42:09.659,0.0019691497340194,-6.657318858320134,0,NB
2025-06-03 15:42:09.667,0.0020496400019477,-2.6727254408622514,0,NB
2025-06-03 15:42:09.675,0.0021040017798965,1.3705584978814351,0,NB
2025-06-03 15:42:09.682,0.0021313850754224,5.418270145289191,0,NB
2025-06-03 15:42:09.690,0.0021316155470534,9.41566132339326,0,NB
2025-06-03 15:42:09.698,0.0021051749899947,13.30875460282105,0,NB
2025-06-03 15:42:09.706,0.0020531591298953,17.045572696357745,0,NB
2025-06-03 15:42:09.714,0.0019772157340952,20.57730288431353,0,NB
2025-06-03 15:42:09.722,0.00187946686304,23.859361710869948,0,NB
2025-06-03 15:42:09.729,0.0017624196635301,26.852329918010582,0,NB
2025-06-03 15:42:09.737,0.0016288703092013,29.522733236527294,0,NB
2025-06-03 15:42:09.745,0.0014818054672745,31.84365089790512,0,NB
2025-06-03 15:42:09.753,0.0013243051222064,33.79514023422868,0,NB
2025-06-03 15:42:09.761,0.0011594499077314,35.36447218759249,0,NB
2025-06-03 15:42:09.768,0.0009902354379422,36.546178690433614,0,NB
2025-06-03 15:42:09.776,0.0008194955596414,37.3419184889683,0,NB
2025-06-03 15:42:09.784,0.0006498360064098,37.76017290286413,0,NB
2025-06-03 15:42:09.792,0.0004835796342563,37.815787144654486,0,NB
