Timestamp,GSR_Filtered,PPG_Filtered
2025-05-14 15:59:29.173,4.623964532399295e-06,-15.38800397038915
2025-05-14 15:59:29.181,3.996527595878143e-06,-15.946207811903864
2025-05-14 15:59:29.188,3.3717171759504857e-06,-16.456852894738315
2025-05-14 15:59:29.196,2.751531180003824e-06,-16.90867237940692
2025-05-14 15:59:29.204,2.137296523580192e-06,-17.2918216069735
2025-05-14 15:59:29.212,1.529527596730147e-06,-17.598068454582233
2025-05-14 15:59:29.220,9.278003801543828e-07,-17.82093799248559
2025-05-14 15:59:29.227,3.306493583046696e-07,-17.955810743226536
2025-05-14 15:59:29.235,-2.645056450427549e-07,-17.999974803599414
2025-05-14 15:59:29.243,-8.613958967162189e-07,-17.952632949026718
2025-05-14 15:59:29.251,-1.4648972665393967e-06,-17.81486661365467
2025-05-14 15:59:29.259,-2.080975597367949e-06,-17.58955935025886
2025-05-14 15:59:29.267,-2.716579997435139e-06,-17.281283040020902
2025-05-14 15:59:29.274,-3.3794817291327954e-06,-16.896150747472053
2025-05-14 15:59:29.282,-4.0780582720427474e-06,-16.44164069194066
2025-05-14 15:59:29.290,-4.82102429493764e-06,-15.92639632034914
2025-05-14 15:59:29.298,-5.617113625093169e-06,-15.360007901825483
2025-05-14 15:59:29.306,-6.474718781987881e-06,-14.752781400531903
2025-05-14 15:59:29.313,-7.40149716063055e-06,-14.115500588996106
2025-05-14 15:59:29.321,-8.4039554093442e-06,-13.4591884091471
2025-05-14 15:59:29.329,-9.48702583999968e-06,-12.794873452499283
2025-05-14 15:59:29.337,-1.0653650720930232e-05,-12.133367109299488
2025-05-14 15:59:29.345,-1.1904391916798238e-05,-11.485056433142972
2025-05-14 15:59:29.352,-1.3237084439963048e-05,-10.859717093459214
2025-05-14 15:59:29.360,-1.4646552955546638e-05,-10.266349965041204
2025-05-14 15:59:29.368,-1.6124410040586883e-05,-9.713043966870318
2025-05-14 15:59:29.376,-1.7658953957162036e-05,-9.206866756977892
2025-05-14 15:59:29.384,-1.9235181804025608e-05,-8.753783865041283
2025-05-14 15:59:29.392,-2.0834931133364e-05,-8.358605851162935
2025-05-14 15:59:29.399,-2.2437159464234344e-05,-8.02496217067073
2025-05-14 15:59:29.407,-2.4018366634776188e-05,-7.75529965026371
2025-05-14 15:59:29.415,-2.5553159694469444e-05,-7.550902877941185
2025-05-14 15:59:29.423,-2.7014954170734235e-05,-7.411933397003074
2025-05-14 15:59:29.431,-2.8376799218728023e-05,-7.337484374705482
2025-05-14 15:59:29.438,-2.9612307588130243e-05,-7.325647380439191
2025-05-14 15:59:29.446,-3.069666476282112e-05,-7.373588043848832
2025-05-14 15:59:29.454,-3.160768532831162e-05,-7.477627652784623
2025-05-14 15:59:29.462,-3.232687890296208e-05,-7.633328168663954
2025-05-14 15:59:29.470,-3.284048315453936e-05,-7.835578647858446
2025-05-14 15:59:29.477,-3.314041784145331e-05,-8.07868162184202
2025-05-14 15:59:29.485,-3.32251117893974e-05,-8.35643856430473
2025-05-14 15:59:29.493,-3.310015454000191e-05,-8.662234119258356
2025-05-14 15:59:29.501,-3.277872635427532e-05,-8.989119243536733
2025-05-14 15:59:29.509,-3.2281764535570464e-05,-9.329893802460091
2025-05-14 15:59:29.517,-3.163783080474158e-05,-9.677189431727925
2025-05-14 15:59:29.524,-3.0882653784550335e-05,-10.023553630365726
2025-05-14 15:59:29.532,-3.0058332509055814e-05,-10.361536067478944
2025-05-14 15:59:29.540,-2.921220114089912e-05,-10.683777959401509
2025-05-14 15:59:29.548,-2.839537151744116e-05,-10.983105100785192
2025-05-14 15:59:29.556,-2.766098840130297e-05,-11.252624722805514
2025-05-14 15:59:29.563,-2.7062251910035423e-05,-11.485825824987185
2025-05-14 15:59:29.571,-2.66502819573414e-05,-11.77562871942084
2025-05-14 15:59:29.579,-2.647191996260786e-05,-12.00783768069126
2025-05-14 15:59:29.587,-2.656758279210057e-05,-12.175755347880298
2025-05-14 15:59:29.595,-2.6969302025473803e-05,-12.273245696149376
2025-05-14 15:59:29.602,-2.769909728567896e-05,-12.294923814149536
2025-05-14 15:59:29.610,-2.8767842970997528e-05,-12.236349146899345
2025-05-14 15:59:29.618,-3.0174782676081992e-05,-12.094213677390426
2025-05-14 15:59:29.626,-3.1907803402941584e-05,-11.866515800224224
2025-05-14 15:59:29.634,-3.394449036654873e-05,-11.552710371789049
2025-05-14 15:59:29.642,-3.625386846658954e-05,-11.153825638897104
2025-05-14 15:59:29.649,-3.879864768136766e-05,-10.67253846470569
2025-05-14 15:59:29.657,-4.1537752368290463e-05,-10.113200478973187
2025-05-14 15:59:29.665,-4.442891665667947e-05,-9.481809451880434
2025-05-14 15:59:29.673,-4.743114816764931e-05,-8.785922279267606
2025-05-14 15:59:29.681,-5.050688939016428e-05,-8.034508398426443
2025-05-14 15:59:29.688,-5.362373737923865e-05,-7.237745121957475
2025-05-14 15:59:29.696,-5.675561681492496e-05,-6.406759148469503
2025-05-14 15:59:29.704,-5.988333766143297e-05,-5.55332123454778
2025-05-14 15:59:29.712,-6.299450550997409e-05,-4.689503547389427
2025-05-14 15:59:29.720,-6.608278903697468e-05,-3.8273114305928977
2025-05-14 15:59:29.727,-6.914658378462156e-05,-2.9783030890147986
2025-05-14 15:59:29.735,-7.21871436760306e-05,-2.1532119244757677
2025-05-14 15:59:29.743,-7.520628040867326e-05,-1.3615868375961575
2025-05-14 15:59:29.751,-7.820375532880328e-05,-0.6114656814292069
2025-05-14 15:59:29.759,-8.117450789539935e-05,0.0909038248863639
2025-05-14 15:59:29.767,-8.410587884138094e-05,0.7412830302562002
2025-05-14 15:59:29.774,-8.697499421762972e-05,1.337590738408556
2025-05-14 15:59:29.782,-8.974647839508046e-05,1.879973523878881
2025-05-14 15:59:29.790,-9.23706596933764e-05,2.3707937507239016
2025-05-14 15:59:29.798,-9.478242166014582e-05,2.8145346097607145
2025-05-14 15:59:29.806,-9.690083637707854e-05,3.217625081812665
2025-05-14 15:59:29.813,-9.862969393367168e-05,3.5881911783056637
2025-05-14 15:59:29.821,-9.98590149884186e-05,3.935742922122232
2025-05-14 15:59:29.829,-0.0001004676019179,4.270809152005543
2025-05-14 15:59:29.837,-0.0001003266494068,4.604534240131699
2025-05-14 15:59:29.845,-9.930439859553948e-05,4.948252123891026
2025-05-14 15:59:29.852,-9.727177975425636e-05,5.313053631239434
2025-05-14 15:59:29.860,-9.410893863317668e-05,5.709362926955192
2025-05-14 15:59:29.868,-8.971246208158676e-05,6.146538068120004
2025-05-14 15:59:29.876,-8.400299965456584e-05,6.632509214595034
2025-05-14 15:59:29.884,-7.693284769346737e-05,7.17346611252675
2025-05-14 15:59:29.892,-6.84929722278765e-05,7.773604197093906
2025-05-14 15:59:29.899,-5.871892442633864e-05,8.43493619199396
2025-05-14 15:59:29.907,-4.7695136556120087e-05,9.157173555318588
2025-05-14 15:59:29.915,-3.555715678746776e-05,9.937679653287052
2025-05-14 15:59:29.923,-2.2491477222778888e-05,10.77149423037608
2025-05-14 15:59:29.931,-8.732728105489065e-06,11.651426655659009
2025-05-14 15:59:29.938,5.441850012972617e-06,12.568213600840812
2025-05-14 15:59:29.946,1.97205883654328e-05,13.510735260738947
2025-05-14 15:59:29.954,3.376798921246095e-05,14.466282960750382
2025-05-14 15:59:29.962,4.723732711519786e-05,15.420869997351552
2025-05-14 15:59:29.970,5.978465739620033e-05,16.359576807595026
2025-05-14 15:59:29.977,7.10834728396201e-05,17.266921036290864
2025-05-14 15:59:29.985,8.083913964741728e-05,18.12724274145861
2025-05-14 15:59:29.993,8.880223774497869e-05,18.92509483678328
2025-05-14 15:59:30.001,9.478005100527854e-05,19.645628912571667
2025-05-14 15:59:30.009,9.8645664210738e-05,20.27496680749867
2025-05-14 15:59:30.017,0.0001003443512671,20.80054872633989
2025-05-14 15:59:30.024,9.989712024322058e-05,21.21144931968506
2025-05-14 15:59:30.032,9.740139175534706e-05,21.49865396928209
2025-05-14 15:59:30.040,9.302883682588953e-05,21.65528856550829
2025-05-14 15:59:30.048,8.702042267394487e-05,21.676797320392584
2025-05-14 15:59:30.056,7.967876618194805e-05,21.561064612191085
2025-05-14 15:59:30.063,7.135801372908637e-05,21.30847846801409
2025-05-14 15:59:30.071,6.245162833374396e-05,20.921935004205228
2025-05-14 15:59:30.079,5.337860679002929e-05,20.40678488817288
2025-05-14 15:59:30.087,4.456872837258245e-05,19.77072457295082
2025-05-14 15:59:30.095,3.644744967183134e-05,19.02363659316136
2025-05-14 15:59:30.102,2.9421027250953764e-05,18.177384514374868
2025-05-14 15:59:30.110,2.386239550592838e-05,17.245569137240185
2025-05-14 15:59:30.118,2.009825643690581e-05,16.243253241375914
2025-05-14 15:59:30.126,1.8397739819633256e-05,15.186662505627009
2025-05-14 15:59:30.134,1.896287857174596e-05,14.092870278427238
2025-05-14 15:59:30.142,2.1921054746070377e-05,12.979473633954074
2025-05-14 15:59:30.149,2.7319528720337328e-05,11.86426769005462
2025-05-14 15:59:30.157,3.5122155280066325e-05,10.764924539115947
2025-05-14 15:59:30.165,4.520839968048178e-05,9.698682406656935
2025-05-14 15:59:30.173,5.737479242557078e-05,8.682049856399894
2025-05-14 15:59:30.181,7.133898766043685e-05,7.730529057259448
2025-05-14 15:59:30.188,8.674656677984723e-05,6.858361366963993
2025-05-14 15:59:30.196,0.0001031806097696,6.078297810408787
2025-05-14 15:59:30.204,0.0001201738531432,5.4013964655797135
2025-05-14 15:59:30.212,0.0001372230287114,4.836848326338934
2025-05-14 15:59:30.220,0.0001538047934347,4.391832884749262
2025-05-14 15:59:30.227,0.0001693925436708,4.071404450414271
2025-05-14 15:59:30.235,0.0001834733622366,3.878410079172417
2025-05-14 15:59:30.243,0.000195564375141,3.813439895102649
2025-05-14 15:59:30.251,0.000205227886118,3.8748105340418793
2025-05-14 15:59:30.259,0.0002120847844105,4.058582386605389
2025-05-14 15:59:30.267,0.0002158258588392,4.35861124167825
2025-05-14 15:59:30.274,0.0002162207865256,4.7666347915793486
2025-05-14 15:59:30.282,0.0002131246940353,5.272394224271267
2025-05-14 15:59:30.290,0.0002064823091351,5.863790771464422
2025-05-14 15:59:30.298,0.0001963298223496,6.527076589602396
2025-05-14 15:59:30.306,0.0001827946381491,7.24707871672231
2025-05-14 15:59:30.313,0.0001660932031539,8.00745407400182
2025-05-14 15:59:30.321,0.0001465270685145,8.790972583769921
2025-05-14 15:59:30.329,0.0001244772955429,9.579824494834476
2025-05-14 15:59:30.337,0.0001003972421631,10.355946998760407
2025-05-14 15:59:30.345,7.48036760620365e-05,11.101364250448476
2025-05-14 15:59:30.352,4.826610272161836e-05,11.798534029286625
2025-05-14 15:59:30.360,2.139423505865033e-05,12.43069354133034
2025-05-14 15:59:30.368,-5.176334234656555e-06,12.982196315709636
2025-05-14 15:59:30.376,-3.0800026278811616e-05,13.43883183913678
2025-05-14 15:59:30.384,-5.483835658684305e-05,13.788119544567872
2025-05-14 15:59:30.392,-7.667771493326776e-05,14.019569051078308
2025-05-14 15:59:30.399,-9.574727125714748e-05,14.124899149503154
2025-05-14 15:59:30.407,-0.0001115363628142,14.098208932972748
2025-05-14 15:59:30.415,-0.0001236106774153,13.93609565882931
2025-05-14 15:59:30.423,-0.0001316265632712,13.637715359228778
2025-05-14 15:59:30.431,-0.0001353428701243,13.204783839038964
2025-05-14 15:59:30.438,-0.0001346298371407,12.641517448974152
2025-05-14 15:59:30.446,-0.0001294746678556,11.954514830401724
2025-05-14 15:59:30.454,-0.0001199835617311,11.152582620337007
2025-05-14 15:59:30.462,-0.0001063801043839,10.246509798854454
2025-05-14 15:59:30.470,-8.90000547928445e-05,9.24879687486482
2025-05-14 15:59:30.477,-6.828270824108604e-05,8.173347371936355
2025-05-14 15:59:30.485,-4.475915691530095e-05,7.035130052266063
2025-05-14 15:59:30.493,-1.90379059586798e-05,5.849820993240874
2025-05-14 15:59:30.501,8.211591842230407e-06,4.6334350185574
2025-05-14 15:59:30.509,3.627686892295564e-05,3.401956103808394
2025-05-14 15:59:30.517,6.442124024799524e-05,2.1709762413495373
2025-05-14 15:59:30.524,9.190292112197044e-05,0.955351871853142
2025-05-14 15:59:30.532,0.0001179940039446,-0.2311136218315555
2025-05-14 15:59:30.540,0.0001419989094048,-1.3759536977502893
2025-05-14 15:59:30.548,0.0001632719849255,-2.46828209246887
2025-05-14 15:59:30.556,0.0001812339593525,-3.4989905038422378
2025-05-14 15:59:30.563,0.0001953869684281,-4.460896460028476
2025-05-14 15:59:30.571,0.0002053278297381,-5.348838760617619
2025-05-14 15:59:30.579,0.0002107591845643,-6.159719366796355
2025-05-14 15:59:30.587,0.0002114980794705,-6.892492103986575
2025-05-14 15:59:30.595,0.0002074815696628,-7.548099972569771
2025-05-14 15:59:30.602,0.0001987689955489,-8.12936419573995
2025-05-14 15:59:30.610,0.0001855406935205,-8.640829330474741
2025-05-14 15:59:30.618,0.0001680930306151,-9.088569794670772
2025-05-14 15:59:30.626,0.0001468297916175,-9.479963989077556
2025-05-14 15:59:30.634,0.0001222500953445,-9.823442789024888
2025-05-14 15:59:30.642,9.493317438023748e-05,-10.128219532034176
2025-05-14 15:59:30.649,6.552051714541541e-05,-10.404008736381243
2025-05-14 15:59:30.657,3.4696031672324093e-05,-10.660740673774324
2025-05-14 15:59:30.665,3.1650220428284197e-06,-10.908278617601493
2025-05-14 15:59:30.673,-2.836715496729951e-05,-11.156145131058128
2025-05-14 15:59:30.681,-5.921587421785988e-05,-11.413263183591743
2025-05-14 15:59:30.688,-8.873664172769813e-05,-11.687717228805669
2025-05-14 15:59:30.696,-0.0001163423985291,-11.986538681143728
2025-05-14 15:59:30.704,-0.0001415181811944,-12.315519525450007
2025-05-14 15:59:30.712,-0.0001638327737181,-12.679057106932266
2025-05-14 15:59:30.720,-0.0001829471595016,-13.080032495665208
2025-05-14 15:59:30.727,-0.0001986197345977,-13.519724211885
2025-05-14 15:59:30.735,-0.0002107083703145,-13.997758543901684
2025-05-14 15:59:30.743,-0.0002191695139537,-14.51209718844326
2025-05-14 15:59:30.751,-0.0002240545913757,-15.05906248037129
2025-05-14 15:59:30.759,-0.0002255040258686,-15.63340003214551
2025-05-14 15:59:30.767,-0.0002237392170051,-16.22837814629274
2025-05-14 15:59:30.774,-0.000219052834086,-16.835922870166872
2025-05-14 15:59:30.782,-0.0002117977751608,-17.446787011751297
2025-05-14 15:59:30.790,-0.0002023751285181,-18.05075082304639
2025-05-14 15:59:30.798,-0.0001912214530181,-18.63685139640726
2025-05-14 15:59:30.806,-0.0001787956705923,-19.193637133150013
2025-05-14 15:59:30.813,-0.0001655658421753,-19.709442959025743
2025-05-14 15:59:30.821,-0.0001519960802457,-20.172681302939463
2025-05-14 15:59:30.829,-0.0001385338393406,-20.572143248744336
2025-05-14 15:59:30.837,-0.0001255978219057,-20.897303738165164
2025-05-14 15:59:30.845,-0.000113566741334,-21.13862426182605
2025-05-14 15:59:30.852,-0.0001027691968644,-21.287846131299688
2025-05-14 15:59:30.860,-9.34749351314716e-05,-21.33826717894343
2025-05-14 15:59:30.868,-8.588779713774023e-05,-21.28499458923386
2025-05-14 15:59:30.876,-8.014066505443856e-05,-21.12516654295188
2025-05-14 15:59:30.884,-7.62927068380326e-05,-20.85813548327009
2025-05-14 15:59:30.892,-7.432915184240021e-05,-20.48560612434605
2025-05-14 15:59:30.899,-7.416372865476736e-05,-20.01172185044977
2025-05-14 15:59:30.907,-7.564377302085508e-05,-19.44309392514316
2025-05-14 15:59:30.915,-7.855785939887686e-05,-18.788768967510517
2025-05-14 15:59:30.923,-8.264562421185784e-05,-18.060131465418408
2025-05-14 15:59:30.931,-8.760928385351496e-05,-17.270739674408155
2025-05-14 15:59:30.938,-9.312626841662072e-05,-16.43609506298015
2025-05-14 15:59:30.946,-9.886240217919616e-05,-15.573347458968874
2025-05-14 15:59:30.954,-0.0001044851262994,-14.700940161165429
2025-05-14 15:59:30.962,-0.0001096763336519,-13.838201428091224
2025-05-14 15:59:30.970,-0.0001141444342902,-13.004890856746847
2025-05-14 15:59:30.977,-0.0001176352760997,-12.220711131181783
2025-05-14 15:59:30.985,-0.000119941531856,-11.504797370755064
2025-05-14 15:59:30.993,-0.0001209101781904,-10.875197762587415
2025-05-14 15:59:31.001,-0.0001204477575522,-10.348360246667047
2025-05-14 15:59:31.009,-0.0001185232174394,-9.938640666974278
2025-05-14 15:59:31.017,-0.0001151682389365,-9.657847955587313
2025-05-14 15:59:31.024,-0.0001104750853789,-9.5148415494868
2025-05-14 15:59:31.032,-0.0001045921082439,-9.515195342987855
2025-05-14 15:59:31.040,-9.771711843814364e-05,-9.660941057942347
2025-05-14 15:59:31.048,-9.008885369899326e-05,-9.95040198616504
2025-05-14 15:59:31.056,-8.197677108263518e-05,-10.378125656177122
2025-05-14 15:59:31.063,-7.366941516276043e-05,-10.93492115048105
2025-05-14 15:59:31.071,-6.546168132431869e-05,-11.60800361940088
2025-05-14 15:59:31.079,-5.764139512755981e-05,-12.381245087503022
2025-05-14 15:59:31.087,-5.047573738827228e-05,-13.235527028965745
2025-05-14 15:59:31.095,-4.419813709930033e-05,-14.149186519621358
2025-05-14 15:59:31.102,-3.899630418370373e-05,-15.098544200313354
2025-05-14 15:59:31.110,-3.500206413229456e-05,-16.058498973142214
2025-05-14 15:59:31.118,-3.228359743327572e-05,-17.003171470921696
2025-05-14 15:59:31.126,-3.084059195755025e-05,-17.906576053984
2025-05-14 15:59:31.134,-3.0602666514461064e-05,-18.74329953884863
2025-05-14 15:59:31.142,-3.143119759025309e-05,-19.489164161634907
2025-05-14 15:59:31.149,-3.312441907767355e-05,-20.121852501015823
2025-05-14 15:59:31.157,-3.542545535107946e-05,-20.6214732637483
2025-05-14 15:59:31.165,-3.80328488510205e-05,-20.971048952550376
2025-05-14 15:59:31.173,-4.061313305533394e-05,-21.156909418280797
2025-05-14 15:59:31.181,-4.281500381903435e-05,-21.16897901802786
2025-05-14 15:59:31.188,-4.428458816188665e-05,-21.00094937976909
2025-05-14 15:59:31.196,-4.4681199047887664e-05,-20.650334395808407
2025-05-14 15:59:31.204,-4.369286802249947e-05,-20.1184087939028
2025-05-14 15:59:31.212,-4.105093533593514e-05,-19.410036229818736
2025-05-14 15:59:31.220,-3.654305065355648e-05,-18.533397087348213
2025-05-14 15:59:31.227,-3.0024039912444165e-05,-17.499629866565723
2025-05-14 15:59:31.235,-2.142417782750367e-05,-16.322403025316
2025-05-14 15:59:31.243,-1.07544719021881e-05,-15.01743628799342
2025-05-14 15:59:31.251,1.8913642342118437e-06,-13.601991668198332
2025-05-14 15:59:31.259,1.63384824193886e-05,-12.094354731412476
2025-05-14 15:59:31.267,3.233613691152917e-05,-10.513325959755528
2025-05-14 15:59:31.274,4.9566543736262666e-05,-8.877740528445827
2025-05-14 15:59:31.282,6.765709782200044e-05,-7.206032461450008
2025-05-14 15:59:31.290,8.619543303780617e-05,-5.515856138312621
2025-05-14 15:59:31.298,0.0001047465819419,-3.823774642407207
2025-05-14 15:59:31.306,0.0001228713262761,-2.1450206631728945
2025-05-14 15:59:31.313,0.0001401447420497,-0.493331795657363
2025-05-14 15:59:31.321,0.0001561739368591,1.1191416739067162
2025-05-14 15:59:31.329,0.0001706140519893,2.68186185476562
2025-05-14 15:59:31.337,0.0001831817459376,4.185869542366779
2025-05-14 15:59:31.345,0.0001936655608504,5.623702412528375
2025-05-14 15:59:31.353,0.0002019327713693,6.9892774792177
2025-05-14 15:59:31.360,0.0002079325120181,8.27775105874053
2025-05-14 15:59:31.368,0.0002116951687025,9.485369550251027
2025-05-14 15:59:31.376,0.0002133281984903,10.609323599771177
2025-05-14 15:59:31.384,0.0002130087065289,11.64761671651716
2025-05-14 15:59:31.392,0.0002109732555205,12.598957256727903
2025-05-14 15:59:31.399,0.0002075054997993,13.462680022693233
2025-05-14 15:59:31.407,0.0002029223003571,14.238700719895236
2025-05-14 15:59:31.415,0.0001975589764977,14.927503377317796
2025-05-14 15:59:31.423,0.0001917543093038,15.530157784057828
2025-05-14 15:59:31.431,0.0001858358806254,16.048361244874787
2025-05-14 15:59:31.438,0.0001801063339585,16.484496699273983
2025-05-14 15:59:31.446,0.0001748311661157,16.841697631864083
2025-05-14 15:59:31.454,0.0001702286674082,17.123909322737244
2025-05-14 15:59:31.462,0.0001664625797509,17.335935888337307
2025-05-14 15:59:31.470,0.0001636378916695,17.483463236784104
2025-05-14 15:59:31.478,0.0001617999293139,17.573049449386325
2025-05-14 15:59:31.485,0.0001609365965436,17.612076100795058
2025-05-14 15:59:31.493,0.0001609833656055,17.60865650626837
2025-05-14 15:59:31.501,0.0001618304855885,17.571499670814703
2025-05-14 15:59:31.509,0.0001633318502756,17.509731628837226
2025-05-14 15:59:31.517,0.0001653150052411,17.43267871594249
2025-05-14 15:59:31.524,0.0001675918386491,17.349619928562216
2025-05-14 15:59:31.532,0.0001699695661142,17.26951775018664
2025-05-14 15:59:31.540,0.0001722616592156,17.200738540101064
2025-05-14 15:59:31.548,0.0001742983548704,17.150774713046033
2025-05-14 15:59:31.556,0.0001759363206738,17.125981440793375
2025-05-14 15:59:31.563,0.0001770669746355,17.131340468947677
2025-05-14 15:59:31.571,0.0001776229156007,17.170262893306933
2025-05-14 15:59:31.579,0.0001775819482314,17.2444414416621
2025-05-14 15:59:31.587,0.0001769682856621,17.35376103654331
2025-05-14 15:59:31.595,0.000175850658936,17.49627425266143
2025-05-14 15:59:31.603,0.0001743372285871,17.668245811831603
2025-05-14 15:59:31.610,0.0001725673661773,17.86426756262689
2025-05-14 15:59:31.618,0.0001707005460698,18.077442555298678
2025-05-14 15:59:31.626,0.0001689027556234,18.29963392521151
2025-05-14 15:59:31.634,0.0001673309906931,18.521771424895476
2025-05-14 15:59:31.642,0.0001661165482307,18.73420569658578
2025-05-14 15:59:31.649,0.0001653479544012,18.92709787798008
2025-05-14 15:59:31.657,0.0001650544706692,19.090830026446863
2025-05-14 15:59:31.665,0.0001651911977725,19.21642027500104
2025-05-14 15:59:31.673,0.0001656268431534,19.295925722275868
2025-05-14 15:59:31.681,0.0001661352185454,19.32281589961965
2025-05-14 15:59:31.688,0.0001663914680166,19.2923002980973
2025-05-14 15:59:31.696,0.0001659738784927,19.201594871773445
2025-05-14 15:59:31.704,0.0001643719090459,19.05011460304444
2025-05-14 15:59:31.712,0.0001610008104646,18.839582016609583
2025-05-14 15:59:31.720,0.0001552228773227,18.57404482349992
2025-05-14 15:59:31.728,0.0001463749551531,18.25979950734204
2025-05-14 15:59:31.735,0.000133801330979,17.905221462643993
2025-05-14 15:59:31.743,0.0001168906197806,17.52050608915245
2025-05-14 15:59:31.751,9.511477452160648e-05,17.11732887729847
2025-05-14 15:59:31.759,6.806793717982051e-05,16.708435846665676
2025-05-14 15:59:31.767,3.550257666623796e-05,16.30717860201418
2025-05-14 15:59:31.774,-2.6396824146229363e-06,15.927010645979552
2025-05-14 15:59:31.782,-4.620488425942095e-05,15.580963347681552
2025-05-14 15:59:31.790,-9.481305293465376e-05,15.28112105026598
2025-05-14 15:59:31.798,-0.0001478551788426,15.038115174307558
2025-05-14 15:59:31.806,-0.0002045014091579,14.860656827125498
2025-05-14 15:59:31.813,-0.000263720341311,14.755126365629565
2025-05-14 15:59:31.821,-0.0003243087228887,14.725236605266849
2025-05-14 15:59:31.829,-0.0003849302967773,14.771783967502556
2025-05-14 15:59:31.837,-0.0004441619910254,14.892498888056066
2025-05-14 15:59:31.845,-0.0005005451594062,15.082003366289443
2025-05-14 15:59:31.853,-0.0005526392234686,15.33187973807716
2025-05-14 15:59:31.860,-0.0005990749654067,15.630850727183924
2025-05-14 15:59:31.868,-0.0006386048968524,15.965066708132674
2025-05-14 15:59:31.876,-0.000670148488102,16.318492034995582
2025-05-14 15:59:31.884,-0.0006928304643162,16.673378395338876
2025-05-14 15:59:31.892,-0.0007060107973821,17.0108095786228
2025-05-14 15:59:31.899,-0.0007093054457438,17.311298949106593
2025-05-14 15:59:31.907,-0.0007025973340097,17.55541843249134
2025-05-14 15:59:31.915,-0.0006860375053148,17.7244361065383
2025-05-14 15:59:31.923,-0.0006600367828207,17.80093865466751
2025-05-14 15:59:31.931,-0.0006252486096625,17.76941509031433
2025-05-14 15:59:31.938,-0.0005825439983529,17.616779333046292
2025-05-14 15:59:31.946,-0.0005329797370992,17.332811403191446
2025-05-14 15:59:31.954,-0.0004777611968978,16.910500128410252
2025-05-14 15:59:31.962,-0.0004182012617051,16.346274192537592
2025-05-14 15:59:31.970,-0.0003556770363909,15.64011291997106
2025-05-14 15:59:31.978,-0.0002915860309633,14.795533153652848
2025-05-14 15:59:31.985,-0.000227303456403,13.819453705923438
2025-05-14 15:59:31.993,-0.0001641421251143,12.721943891684449
2025-05-14 15:59:32.001,-0.0001033162709187,11.51586735833085
2025-05-14 15:59:32.009,-4.591040648135957e-05,10.216436598198312
2025-05-14 15:59:32.017,7.145887092848251e-06,8.840696991578481
2025-05-14 15:59:32.024,5.509659600289367e-05,7.406961842302735
2025-05-14 15:59:32.032,9.73709689829992e-05,5.934221528844911
2025-05-14 15:59:32.040,0.0001335882027655,4.441550533049768
2025-05-14 15:59:32.048,0.0001635553511425,2.9475356990003325
2025-05-14 15:59:32.056,0.0001872589715042,1.469747637145188
2025-05-14 15:59:32.063,0.0002048512558771,0.0242747926994663
2025-05-14 15:59:32.071,0.000216631568935,-1.374663544922947
2025-05-14 15:59:32.079,0.0002230244330707,-2.715012950790172
2025-05-14 15:59:32.087,0.0002245550636699,-3.987080388613073
2025-05-14 15:59:32.095,0.0002218235709836,-5.183628363399368
2025-05-14 15:59:32.103,0.0002154789142854,-6.299868265245489
2025-05-14 15:59:32.110,0.0002061936259683,-7.333359009510088
2025-05-14 15:59:32.118,0.0001946402249096,-8.283821192375779
2025-05-14 15:59:32.126,0.0001814701153672,-9.152880470344948
2025-05-14 15:59:32.134,0.0001672956171952,-9.943756571372752
2025-05-14 15:59:32.142,0.000152675581316,-10.660916124611152
2025-05-14 15:59:32.149,0.0001381048060364,-11.309708274828996
2025-05-14 15:59:32.157,0.0001240072166621,-11.89600180460075
2025-05-14 15:59:32.165,0.0001107325573433,-12.42584125968592
2025-05-14 15:59:32.173,9.855619981854272e-05,-12.90513745418949
2025-05-14 15:59:32.181,8.768158952580727e-05,-13.33940486980299
2025-05-14 15:59:32.188,7.824480560847283e-05,-13.733555054775907
2025-05-14 15:59:32.196,7.032069755070573e-05,-14.091751404883972
2025-05-14 15:59:32.204,6.393007446783476e-05,-14.41732691393864
2025-05-14 15:59:32.212,5.9047461020535385e-05,-14.712762850287357
2025-05-14 15:59:32.220,5.560899331324459e-05,-14.979723061477868
2025-05-14 15:59:32.228,5.352010510806458e-05,-15.21913591159697
2025-05-14 15:59:32.235,5.266274488383564e-05,-15.431313847615138
2025-05-14 15:59:32.243,5.290196139592822e-05,-15.616099347138103
2025-05-14 15:59:32.251,5.409178492814141e-05,-15.773025534511309
2025-05-14 15:59:32.259,5.608038794132121e-05,-15.901480025431647
2025-05-14 15:59:32.267,5.8714516458982745e-05,-16.000861487955873
2025-05-14 15:59:32.274,6.184316425804622e-05,-16.070719870645007
2025-05-14 15:59:32.282,6.532046166900303e-05,-16.110873101707288
2025-05-14 15:59:32.290,6.90077920653959e-05,-16.121495149348892
2025-05-14 15:59:32.298,7.277521717887905e-05,-16.10317249944627
2025-05-14 15:59:32.306,7.650236173586665e-05,-16.056928215318617
2025-05-14 15:59:32.313,8.007895636212307e-05,-15.984214683670205
2025-05-14 15:59:32.321,8.340524064352494e-05,-15.886877835974849
2025-05-14 15:59:32.329,8.639237263600956e-05,-15.767097009353035
2025-05-14 15:59:32.337,8.896290204459323e-05,-15.627305647277396
2025-05-14 15:59:32.345,9.105129090406216e-05,-15.470098734346044
2025-05-14 15:59:32.353,9.260443372574816e-05,-15.298133221962203
2025-05-14 15:59:32.360,9.358212722420204e-05,-15.114027749131283
2025-05-14 15:59:32.368,9.395744716878096e-05,-14.920267712000582
2025-05-14 15:59:32.376,9.371699697654366e-05,-14.719121209350128
2025-05-14 15:59:32.384,9.286099795068864e-05,-14.512570619502958
2025-05-14 15:59:32.392,9.140319490846912e-05,-14.302263582776064
2025-05-14 15:59:32.399,8.93705537743958e-05,-14.089486008345729
2025-05-14 15:59:32.407,8.68027300513143e-05,-13.875158432060266
2025-05-14 15:59:32.415,8.375128947416753e-05,-13.65985566712177
2025-05-14 15:59:32.423,8.027866515182126e-05,-13.443848270751388
2025-05-14 15:59:32.431,7.645683963133564e-05,-13.227162968101142
2025-05-14 15:59:32.438,7.236574603022226e-05,-13.009657910700982
2025-05-14 15:59:32.446,6.809139003205264e-05,-12.79110758654364
2025-05-14 15:59:32.454,6.37237043616978e-05,-12.57129142548499
2025-05-14 15:59:32.462,5.935415943486709e-05,-12.35007972594618
2025-05-14 15:59:32.470,5.507316813679523e-05,-12.1275105121214
2025-05-14 15:59:32.478,5.0967338879802375e-05,-11.903851331408635
2025-05-14 15:59:32.485,4.711664879842921e-05,-11.679640805211488
2025-05-14 15:59:32.493,4.359162757542628e-05,-11.455705906507854
2025-05-14 15:59:32.501,4.0450661209033815e-05,-11.23315237968129
2025-05-14 15:59:32.509,3.7737543155271344e-05,-11.013327347239024
2025-05-14 15:59:32.517,3.547941672685013e-05,-10.79775486200914
2025-05-14 15:59:32.524,3.3685266351241295e-05,-10.588046864178189
2025-05-14 15:59:32.532,3.23451235784571e-05,-10.38579360276008
2025-05-14 15:59:32.540,3.143014583523016e-05,-10.19243900295182
2025-05-14 15:59:32.548,3.0893680245946097e-05,-10.009147630007073
2025-05-14 15:59:32.556,3.067332932114091e-05,-9.836670744903888
2025-05-14 15:59:32.563,3.0693915586610406e-05,-9.675219407134826
2025-05-14 15:59:32.571,3.087114766225782e-05,-9.52435261805402
2025-05-14 15:59:32.579,3.1115746606901536e-05,-9.382888101788131
2025-05-14 15:59:32.587,3.1337786601013656e-05,-9.248842497717916
2025-05-14 15:59:32.595,3.145101683614415e-05,-9.119406515561447
2025-05-14 15:59:32.603,3.137695129925528e-05,-8.990959028159724
2025-05-14 15:59:32.610,3.1048537523534335e-05,-8.85912221719928
2025-05-14 15:59:32.618,3.0413243511780752e-05,-8.718857833957362
2025-05-14 15:59:32.626,2.943543314641925e-05,-8.564602501323423
2025-05-14 15:59:32.634,2.809793374588173e-05,-8.390437890609018
2025-05-14 15:59:32.642,2.640273431792466e-05,-8.190289686671672
2025-05-14 15:59:32.649,2.4370788842603413e-05,-7.958147625098871
2025-05-14 15:59:32.657,2.2040934967605872e-05,-7.688297637874854
2025-05-14 15:59:32.665,1.9467974211842e-05,-7.375556342711885
2025-05-14 15:59:32.673,1.6719994551046316e-05,-7.015497795083028
2025-05-14 15:59:32.681,1.387504949645873e-05,-6.604662608309875
2025-05-14 15:59:32.688,1.1017338851418612e-05,-6.140740228274248
2025-05-14 15:59:32.696,8.233064592116126e-06,-5.622716286983273
2025-05-14 15:59:32.704,5.606160089361313e-06,-5.050978483216207
2025-05-14 15:59:32.712,3.214111461518439e-06,-4.427376254418324
2025-05-14 15:59:32.720,1.1241054975346007e-06,-3.755231503097428
2025-05-14 15:59:32.728,-6.102530456875417e-07,-3.0392997072690524
2025-05-14 15:59:32.735,-1.951421289975352e-06,-2.2856827622028164
2025-05-14 15:59:32.743,-2.8794100363724703e-06,-1.5016967656569744
2025-05-14 15:59:32.751,-3.392201373168497e-06,-0.6956995899916152
2025-05-14 15:59:32.759,-3.5051298871628635e-06,0.123115571531072
2025-05-14 15:59:32.767,-3.2493645881731857e-06,0.9449534708940004
2025-05-14 15:59:32.774,-2.6696775530321854e-06,1.7596689759575008
2025-05-14 15:59:32.782,-1.8216956816824932e-06,2.5570298723757285
2025-05-14 15:59:32.790,-7.68825291059625e-07,3.3269819686563262
2025-05-14 15:59:32.798,4.209738278607005e-07,4.059908398482804
2025-05-14 15:59:32.806,1.678405199726361e-06,4.746875474385172
2025-05-14 15:59:32.813,2.9359034084436134e-06,5.379858104184238
2025-05-14 15:59:32.821,4.130434623121782e-06,5.9519385951800965
2025-05-14 15:59:32.829,5.205934503676369e-06,6.457473598154049
2025-05-14 15:59:32.837,6.115311109673583e-06,6.892224943904049
2025-05-14 15:59:32.845,6.821963029964129e-06,7.253451169198049
2025-05-14 15:59:32.853,7.300784533975824e-06,7.539957600388714
2025-05-14 15:59:32.860,7.5386496548878684e-06,7.752103955145976
2025-05-14 15:59:32.868,7.534385400459496e-06,7.891769531957369
2025-05-14 15:59:32.876,7.298260506338087e-06,7.962277176581993
2025-05-14 15:59:32.884,6.851030153378552e-06,7.968278332308489
2025-05-14 15:59:32.892,6.222588802574194e-06,7.915602574793588
2025-05-14 15:59:32.899,5.450292764619474e-06,7.811076066301468
2025-05-14 15:59:32.907,4.57702137393424e-06,7.66231428827339
2025-05-14 15:59:32.915,3.649050773055641e-06,7.477495170582542
2025-05-14 15:59:32.923,2.7138174471132267e-06,7.265119286614016
2025-05-14 15:59:32.931,1.8176499012059733e-06,7.033764104911984
2025-05-14 15:59:32.938,1.0035463635062565e-06,6.791839384492402
2025-05-14 15:59:32.946,3.090742293937869e-07,6.54735069090291
2025-05-14 15:59:32.954,-2.35536774386845e-07,6.307677716113867
2025-05-14 15:59:32.962,-6.090409610686477e-07,6.079373626288554
2025-05-14 15:59:32.970,-8.005025244512889e-07,5.8679910506235125
2025-05-14 15:59:32.978,-8.102488607097486e-07,5.67793957088973
2025-05-14 15:59:32.985,-6.504088206515703e-07,5.512378685882395
2025-05-14 15:59:32.993,-3.450040893839362e-07,5.373149226777856
2025-05-14 15:59:33.001,7.042611942195958e-08,5.260745116487522
2025-05-14 15:59:33.009,5.496737347620135e-07,5.174326230312197
2025-05-14 15:59:33.017,1.0371764143770542e-06,5.111771957452123
2025-05-14 15:59:33.024,1.4697756666096324e-06,5.06977391332341
2025-05-14 15:59:33.032,1.77888066852726e-06,5.043965142051985
2025-05-14 15:59:33.040,1.892984285884523e-06,5.029082106593288
2025-05-14 15:59:33.048,1.7404623635345568e-06,5.019154814103579
2025-05-14 15:59:33.056,1.2525726218471382e-06,5.007719582294111
2025-05-14 15:59:33.063,3.665560188857066e-07,4.988048232781916
2025-05-14 15:59:33.071,-9.712681710158285e-07,4.953386921810128
2025-05-14 15:59:33.079,-2.8025314050090384e-06,4.897197420426639
2025-05-14 15:59:33.087,-5.154092799132265e-06,4.813393474023254
2025-05-14 15:59:33.095,-8.035689757659128e-06,4.696564937961286
2025-05-14 15:59:33.103,-1.1438085733838768e-05,4.542182719931145
2025-05-14 15:59:33.110,-1.533183114842999e-05,4.34677816064106
2025-05-14 15:59:33.118,-1.9666740638086584e-05,4.108091333328067
2025-05-14 15:59:33.126,-2.437217120195637e-05,3.825183799585108
2025-05-14 15:59:33.134,-2.935816134166892e-05,3.498512563918008
2025-05-14 15:59:33.142,-3.451746103709724e-05,3.1299632498503205
2025-05-14 15:59:33.149,-3.972844669547208e-05,2.72284180543292
2025-05-14 15:59:33.157,-4.485887464130546e-05,2.281825277269302
2025-05-14 15:59:33.165,-4.977038213845394e-05,1.812873326852564
2025-05-14 15:59:33.173,-5.4323597489445054e-05,1.3231031734223353
2025-05-14 15:59:33.181,-5.838367184665861e-05,0.8206315202962483
2025-05-14 15:59:33.188,-6.182599665210167e-05,0.3143877546581597
2025-05-14 15:59:33.196,-6.454182397463046e-05,-0.1860966922160978
2025-05-14 15:59:33.204,-6.644346448962663e-05,-0.6709174707281865
2025-05-14 15:59:33.212,-6.746870324646245e-05,-1.130039227305084
2025-05-14 15:59:33.220,-6.758406023163927e-05,-1.5535443790735182
2025-05-14 15:59:33.228,-6.67865635499264e-05,-1.931882695342535
2025-05-14 15:59:33.235,-6.51038316835608e-05,-2.256115613247102
2025-05-14 15:59:33.243,-6.25924644648969e-05,-2.518149310802533
2025-05-14 15:59:33.251,-5.933494547396504e-05,-2.7109507820330454
2025-05-14 15:59:33.259,-5.543538691911778e-05,-2.828741510325388
2025-05-14 15:59:33.267,-5.10144884106574e-05,-2.867163815041039
2025-05-14 15:59:33.274,-4.6204067297903314e-05,-2.8234155470214195
2025-05-14 15:59:33.282,-4.1141482942772624e-05,-2.696349524116924
2025-05-14 15:59:33.290,-3.5964234038394096e-05,-2.4865349157603025
2025-05-14 15:59:33.298,-3.080496070933388e-05,-2.1962786825251075
2025-05-14 15:59:33.306,-2.578703376864074e-05,-1.8296061195052145
2025-05-14 15:59:33.313,-2.1020864098573397e-05,-1.3922005052929562
2025-05-14 15:59:33.321,-1.6601017386838747e-05,-0.891302789377098
2025-05-14 15:59:33.329,-1.2604174852337207e-05,-0.3355731358823813
2025-05-14 15:59:33.337,-9.08794031944887e-06,0.2650830336372078
2025-05-14 15:59:33.345,-6.090458945347856e-06,0.8997210947253896
2025-05-14 15:59:33.353,-3.630783681278438e-06,1.5565912636443422
2025-05-14 15:59:33.360,-1.7099024907829914e-06,2.223395858332544
2025-05-14 15:59:33.368,-3.1232253364540095e-07,2.887564368605545
2025-05-14 15:59:33.376,5.919031982993296e-07,3.5365403149398364
2025-05-14 15:59:33.384,1.0448262891613112e-06,4.158073295417358
2025-05-14 15:59:33.392,1.0980496020429448e-06,4.740509092955962
2025-05-14 15:59:33.399,8.100846990662779e-07,5.273070272512061
2025-05-14 15:59:33.407,2.437257170148846e-07,5.746119392195388
2025-05-14 15:59:33.415,-5.364663158715451e-07,6.151396851299122
2025-05-14 15:59:33.423,-1.4664887559714043e-06,6.482225572022875
2025-05-14 15:59:33.431,-2.484967741730092e-06,6.733675215202767
2025-05-14 15:59:33.438,-3.5349254577126005e-06,6.902679495804006
2025-05-14 15:59:33.446,-4.565212258231606e-06,6.988101400001093
2025-05-14 15:59:33.454,-5.531587310395554e-06,6.990742696397868
2025-05-14 15:59:33.462,-6.397445982859512e-06,6.913296033237827
2025-05-14 15:59:33.470,-7.134205253537777e-06,6.760240040889854
2025-05-14 15:59:33.478,-7.72136962222478e-06,6.537680102805914
2025-05-14 15:59:33.485,-8.14630918133993e-06,6.253139686313818
2025-05-14 15:59:33.493,-8.40378850824215e-06,5.915309198062722
2025-05-14 15:59:33.501,-8.495289876332996e-06,5.533761115130221
2025-05-14 15:59:33.509,-8.42817700245536e-06,5.118641528212591
2025-05-14 15:59:33.517,-8.214746288576595e-06,4.68034913642615
2025-05-14 15:59:33.524,-7.871211467885494e-06,4.229213113784397
2025-05-14 15:59:33.532,-7.416664964928857e-06,3.7751811261632713
2025-05-14 15:59:33.540,-6.872055392569805e-06,3.327528147736508
2025-05-14 15:59:33.548,-6.259215719082111e-06,2.8945956632786207
2025-05-14 15:59:33.556,-5.599971035393226e-06,2.48356941899702
2025-05-14 15:59:33.563,-4.9153488180905055e-06,2.1003021820325323
2025-05-14 15:59:33.571,-4.2249083853423405e-06,1.7491860757086797
2025-05-14 15:59:33.579,-3.546200123692697e-06,1.4330770640352783
2025-05-14 15:59:33.587,-2.894359237170833e-06,1.1532721549883644
2025-05-14 15:59:33.595,-2.281833415359357e-06,0.9095379674544048
2025-05-14 15:59:33.603,-1.718239075970805e-06,0.7001875474311967
2025-05-14 15:59:33.610,-1.2103368139921626e-06,0.5222007997416959
2025-05-14 15:59:33.618,-7.621134498403318e-07,0.3713826775250971
2025-05-14 15:59:33.626,-3.74955643661239e-07,0.2425523751444125
2025-05-14 15:59:33.634,-4.789842938111098e-08,0.1297562099022846
2025-05-14 15:59:33.642,2.220688113260615e-07,0.0264966426456268
2025-05-14 15:59:33.649,4.39656524843481e-07,-0.0740300527927598
2025-05-14 15:59:33.657,6.109063635926044e-07,-0.1786946518761541
2025-05-14 15:59:33.665,7.428157255899508e-07,-0.29420105001517
2025-05-14 15:59:33.673,8.429698676509054e-07,-0.4268635751618486
2025-05-14 15:59:33.681,9.1919410923683e-07,-0.5824008410680418
2025-05-14 15:59:33.688,9.792365084347009e-07,-0.7657506502287582
2025-05-14 15:59:33.696,1.0304891196934836e-06,-0.980909638929094
2025-05-14 15:59:33.704,1.079753632137363e-06,-1.2308005351179054
2025-05-14 15:59:33.712,1.1330549255039146e-06,-1.5171690923091714
2025-05-14 15:59:33.720,1.1955039444012096e-06,-1.8405119894079176
2025-05-14 15:59:33.728,1.2712093439637055e-06,-2.200036268368665
2025-05-14 15:59:33.735,1.3632356505316263e-06,-2.593650236965539
2025-05-14 15:59:33.743,1.4736042449573072e-06,-3.0179852016826088
2025-05-14 15:59:33.751,1.603332334984634e-06,-3.468446912998906
2025-05-14 15:59:33.759,1.7525042452073469e-06,-3.9392951915712673
2025-05-14 15:59:33.767,1.9203688148217257e-06,-4.423749848052256
2025-05-14 15:59:33.774,2.105456440722116e-06,-4.91412070205941
2025-05-14 15:59:33.782,2.30570931363354e-06,-5.401959233994994
2025-05-14 15:59:33.790,2.5186186381484446e-06,-5.878229147281648
2025-05-14 15:59:33.798,2.741363068832045e-06,-6.333492857530527
2025-05-14 15:59:33.806,2.97094319580092e-06,-6.758110646260477
2025-05-14 15:59:33.814,3.204307634651816e-06,-7.14244891746361
2025-05-14 15:59:33.821,3.4384670776933978e-06,-7.477093680344325
2025-05-14 15:59:33.829,3.670593507993869e-06,-7.753065061919219
2025-05-14 15:59:33.837,3.898102629406064e-06,-7.962028350166816
2025-05-14 15:59:33.845,4.1187183927750486e-06,-8.096496817642088
2025-05-14 15:59:33.853,4.330519273715387e-06,-8.150021424475392
2025-05-14 15:59:33.860,4.5319666583399e-06,-8.117362500162656
2025-05-14 15:59:33.868,4.721916302991298e-06,-7.994638701647294
2025-05-14 15:59:33.876,4.899614340464647e-06,-7.779448971347668
2025-05-14 15:59:33.884,5.064679701581214e-06,-7.470963878463981
2025-05-14 15:59:33.892,5.21707510520877e-06,-7.069983595075716
2025-05-14 15:59:33.899,5.357068944146028e-06,-6.578960780736261
2025-05-14 15:59:33.907,5.48519046466413e-06,-6.001987749406255
2025-05-14 15:59:33.915,5.602180612994692e-06,-5.34474838576948
2025-05-14 15:59:33.923,5.708940814168375e-06,-4.61443628474537
2025-05-14 15:59:33.931,5.806481770576372e-06,-3.819641444914697
2025-05-14 15:59:33.939,5.89587413375e-06,-2.970208511226798
2025-05-14 15:59:33.946,5.978202627858181e-06,-2.0770700161263083
2025-05-14 15:59:33.954,6.054524901881236e-06,-1.1520583197320722
2025-05-14 15:59:33.962,6.125836073237813e-06,-0.2077000345486069
2025-05-14 15:59:33.970,6.19303961162928e-06,0.7430033081440374
2025-05-14 15:59:33.978,6.2569249093935e-06,1.6868046767783904
2025-05-14 15:59:33.985,6.318151603408543e-06,2.6104474549858527
2025-05-14 15:59:33.993,6.377240461385492e-06,3.5009043075293738
2025-05-14 15:59:34.001,6.434570428137821e-06,4.345615413105999
2025-05-14 15:59:34.009,6.49038124908591e-06,5.1327223513848494
2025-05-14 15:59:34.017,6.544780950966276e-06,5.8512937231585145
2025-05-14 15:59:34.024,6.597757363858493e-06,6.491538331185033
2025-05-14 15:59:34.032,6.649192813065143e-06,7.045001507919676
2025-05-14 15:59:34.040,6.6988810915968224e-06,7.504740005159865
2025-05-14 15:59:34.048,6.74654584044862e-06,7.865470819310838
2025-05-14 15:59:34.056,6.791859510089708e-06,8.123689464825622
2025-05-14 15:59:34.064,6.834462147621196e-06,8.277753560123553
2025-05-14 15:59:34.071,6.873979344547719e-06,8.327928165622716
2025-05-14 15:59:34.079,6.910038784606473e-06,8.276390101992853
2025-05-14 15:59:34.087,6.942284944257106e-06,8.1271894510338
2025-05-14 15:59:34.095,6.970391615194701e-06,7.886167560317952
2025-05-14 15:59:34.103,6.994072033980376e-06,7.560832080717387
2025-05-14 15:59:34.110,7.013086514518375e-06,7.160190798448991
2025-05-14 15:59:34.118,7.027247581213736e-06,6.69454721975514
2025-05-14 15:59:34.126,7.036422691482128e-06,6.175261986573194
2025-05-14 15:59:34.134,7.040534713827998e-06,5.614485230203168
2025-05-14 15:59:34.142,7.039560390640925e-06,5.024865904990835
2025-05-14 15:59:34.149,7.033527062539981e-06,4.419244979112396
2025-05-14 15:59:34.157,7.0225079635016005e-06,3.810340074806114
2025-05-14 15:59:34.165,7.006616413670356e-06,3.210429715289379
2025-05-14 15:59:34.173,6.985999240678124e-06,2.631045715503563
2025-05-14 15:59:34.181,6.960829751871299e-06,2.082682411791434
2025-05-14 15:59:34.189,6.931300560742476e-06,1.574531323245869
2025-05-14 15:59:34.196,6.8976165429528256e-06,1.1142494430296517
2025-05-14 15:59:34.204,6.859988162590244e-06,0.707768658036996
2025-05-14 15:59:34.212,6.8186253697352985e-06,0.35915279947306
2025-05-14 15:59:34.220,6.773732227949023e-06,0.0705075628252562
2025-05-14 15:59:34.228,6.725502386784966e-06,-0.158052959280724
2025-05-14 15:59:34.235,6.674115471525129e-06,-0.3283810702763226
2025-05-14 15:59:34.243,6.619734421499051e-06,-0.4442113477344047
2025-05-14 15:59:34.251,6.5625037707842e-06,-0.5110192648097551
2025-05-14 15:59:34.259,6.502548831767456e-06,-0.5358261266499706
2025-05-14 15:59:34.267,6.439975713676939e-06,-0.5269557446388903
2025-05-14 15:59:34.274,6.374872085222633e-06,-0.4937499776894178
2025-05-14 15:59:34.282,6.307308573125132e-06,-0.4462517486223974
2025-05-14 15:59:34.290,6.237340676557294e-06,-0.394865325281499
2025-05-14 15:59:34.298,6.165011071173352e-06,-0.3500044921795374
2025-05-14 15:59:34.306,6.090352175091076e-06,-0.3217397000500436
2025-05-14 15:59:34.314,6.013388852431111e-06,-0.3194553500308819
2025-05-14 15:59:34.321,5.934141137212235e-06,-0.3515280386661616
2025-05-14 15:59:34.329,5.852626870895554e-06,-0.4250358697832263
2025-05-14 15:59:34.337,5.768864159973988e-06,-0.545507865038927
2025-05-14 15:59:34.345,5.682873575018474e-06,-0.7167211333163178
2025-05-14 15:59:34.353,5.594680028840324e-06,-0.9405518567235366
2025-05-14 15:59:34.360,5.5043142882699165e-06,-1.2168843860594245
2025-05-14 15:59:34.368,5.411814090900344e-06,-1.543580880953372
2025-05-14 15:59:34.376,5.317224854482452e-06,-1.9165120502209216
2025-05-14 15:59:34.384,5.220599982041687e-06,-2.329647712784778
2025-05-14 15:59:34.392,5.122000779851986e-06,-2.7752041650740558
2025-05-14 15:59:34.399,5.021496017861434e-06,-3.243843752466661
2025-05-14 15:59:34.407,4.919161172808041e-06,-3.724920636915917
2025-05-14 15:59:34.415,4.8150774029519005e-06,-4.206765559647705
2025-05-14 15:59:34.423,4.709330310006012e-06,-4.677001438047896
2025-05-14 15:59:34.431,4.602008548451851e-06,-5.122880924030041
2025-05-14 15:59:34.439,4.493202345003796e-06,-5.531636596084305
2025-05-14 15:59:34.446,4.383001991604009e-06,-5.890834260082401
2025-05-14 15:59:34.454,4.27149637408202e-06,-6.188719884061097
2025-05-14 15:59:34.462,4.158771595620635e-06,-6.414550965881063
2025-05-14 15:59:34.470,4.044909749569367e-06,-6.558903599445152
2025-05-14 15:59:34.478,3.929987890089488e-06,-6.613947139256925
2025-05-14 15:59:34.485,3.8140772417633854e-06,-6.573679151264488
2025-05-14 15:59:34.493,3.697242680827116e-06,-6.434114278728592
2025-05-14 15:59:34.501,3.579542511270799e-06,-6.19342174886199
2025-05-14 15:59:34.509,3.461028548889547e-06,-5.852007501049583
2025-05-14 15:59:34.517,3.3417465156634343e-06,-5.412538325885266
2025-05-14 15:59:34.524,3.221736735818965e-06,-4.8799069498644325
2025-05-14 15:59:34.532,3.101035113813525e-06,-4.261138649670448
2025-05-14 15:59:34.540,2.9796743635436527e-06,-3.565241678032438
2025-05-14 15:59:34.548,2.8576854475814458e-06,-2.803005459345252
2025-05-14 15:59:34.556,2.7350991754823018e-06,-1.986752092998589
2025-05-14 15:59:34.564,2.611947901487408e-06,-1.1300481184349562
2025-05-14 15:59:34.571,2.488267254581668e-06,-0.247384692093916
2025-05-14 15:59:34.579,2.364097828180748e-06,0.6461647422843834
2025-05-14 15:59:34.587,2.2394867530219627e-06,1.5352995717952165
2025-05-14 15:59:34.595,2.114489075417409e-06,2.404849871909544
2025-05-14 15:59:34.603,1.98916886415821e-06,3.2401269268421435
2025-05-14 15:59:34.610,1.863599973254674e-06,4.027256605522918
2025-05-14 15:59:34.618,1.7378663945166494e-06,4.7534863482876215
2025-05-14 15:59:34.626,1.612062143802982e-06,5.407457371668578
2025-05-14 15:59:34.634,1.4862906375885698e-06,5.979434832922935
2025-05-14 15:59:34.642,1.3606635321963672e-06,6.461490094389985
2025-05-14 15:59:34.649,1.235299016386677e-06,6.847630858505989
2025-05-14 15:59:34.657,1.1103195686282605e-06,7.133876755952229
2025-05-14 15:59:34.665,9.85849212805697e-07,7.318279887613805
2025-05-14 15:59:34.673,8.620103297254789e-07,7.400891752786501
2025-05-14 15:59:34.681,7.389201058255982e-07,7.383679841611276
2025-05-14 15:59:34.689,6.166867241135596e-07,7.270398833976929
2025-05-14 15:59:34.696,4.954054246054702e-07,7.066422745972292
2025-05-14 15:59:34.704,3.75154581394662e-07,6.778545429095261
2025-05-14 15:59:34.712,2.559919598849352e-07,6.4147575079237615
2025-05-14 15:59:34.720,1.3795132962319e-07,5.984008116225449
2025-05-14 15:59:34.728,2.1039614542980777e-08,5.495959665708852
2025-05-14 15:59:34.735,-9.476523764329413e-08,4.960743387859289
2025-05-14 15:59:34.743,-2.0951549248060723e-07,4.388722579257843
2025-05-14 15:59:34.751,-3.232938129717234e-07,3.7902694203603033
2025-05-14 15:59:34.759,-4.362122550473333e-07,3.1755600039266625
2025-05-14 15:59:34.767,-5.484099700772254e-07,2.5543908870846828
2025-05-14 15:59:34.774,-6.600495499192108e-07,1.9360191583881112
2025-05-14 15:59:34.782,-7.713119971971255e-07,1.32902677410138
2025-05-14 15:59:34.790,-8.823903571973734e-07,0.7412088456015234
2025-05-14 15:59:34.798,-9.934821066249506e-07,0.1794847185323497
2025-05-14 15:59:34.806,-1.104780456735677e-06,-0.3501698827932085
2025-05-14 15:59:34.814,-1.2164647919753525e-06,-0.84277165532134
2025-05-14 15:59:34.821,-1.3286905278048966e-06,-1.2943614945297026
2025-05-14 15:59:34.829,-1.4415787302088455e-06,-1.7020210950509678
2025-05-14 15:59:34.837,-1.5552058916233951e-06,-2.063875883090632
2025-05-14 15:59:34.845,-1.6695943007373728e-06,-2.379085360980912
2025-05-14 15:59:34.853,-1.784703473888498e-06,-2.647821480844026
2025-05-14 15:59:34.860,-1.9004231308082544e-06,-2.8712352142449693
2025-05-14 15:59:34.868,-2.0165681947396164e-06,-3.051411088986127
2025-05-14 15:59:34.876,-2.1328762743455247e-06,-3.191309157517448
2025-05-14 15:59:34.884,-2.249008040767152e-06,-3.294693674470164
2025-05-14 15:59:34.892,-2.3645508467796028e-06,-3.3660477222226284
2025-05-14 15:59:34.899,-2.4790258461258177e-06,-3.410473159941135
2025-05-14 15:59:34.907,-2.591898760586218e-06,-3.4335756043296315
2025-05-14 15:59:34.915,-2.7025943119446056e-06,-3.441334685880449
2025-05-14 15:59:34.923,-2.81051418855735e-06,-3.439960544120772
2025-05-14 15:59:34.931,-2.9150582555908103e-06,-3.435738380397134
2025-05-14 15:59:34.939,-3.0156485490541472e-06,-3.4348638021149585
2025-05-14 15:59:34.946,-3.111755422368763e-06,-3.443272577997889
2025-05-14 15:59:34.954,-3.2029250470654597e-06,-3.466469189047113
2025-05-14 15:59:34.962,-3.288807313638832e-06,-3.509359126892134
2025-05-14 15:59:34.970,-3.3691830424212066e-06,-3.57609020720545
2025-05-14 15:59:34.978,-3.443989305562676e-06,-3.66990820811855
2025-05-14 15:59:34.985,-3.513341587705534e-06,-3.79303191751744
2025-05-14 15:59:34.993,-3.577551482159499e-06,-3.946552205367553
2025-05-14 15:59:35.001,-3.637138637950224e-06,-4.130359068016297
2025-05-14 15:59:35.009,-3.692835746479672e-06,-4.343099766245816
2025-05-14 15:59:35.017,-3.745585488603741e-06,-4.5821702409469705
2025-05-14 15:59:35.024,-3.7965285556952975e-06,-4.84374097779514
2025-05-14 15:59:35.032,-3.846982111487413e-06,-5.122817441761039
2025-05-14 15:59:35.040,-3.898408372451734e-06,-5.413334154135938
2025-05-14 15:59:35.048,-3.952373347729075e-06,-5.708280484596809
2025-05-14 15:59:35.056,-4.010496186941765e-06,-5.999855324224161
2025-05-14 15:59:35.064,-4.074390024490967e-06,-6.279647028384542
2025-05-14 15:59:35.071,-4.145595668345224e-06,-6.53883438907994
2025-05-14 15:59:35.079,-4.225509943504412e-06,-6.76840391357965
2025-05-14 15:59:35.087,-4.3153109467488505e-06,-6.959378336918737
2025-05-14 15:59:35.095,-4.415882879739514e-06,-7.103051064530961
2025-05-14 15:59:35.103,-4.527743480728129e-06,-7.1912211131903465
2025-05-14 15:59:35.110,-4.650977349428312e-06,-7.216423079044424
2025-05-14 15:59:35.118,-4.785178633850524e-06,-7.172146696655783
2025-05-14 15:59:35.126,-4.929406602396924e-06,-7.05304065119401
2025-05-14 15:59:35.134,-5.082157541935838e-06,-6.8550954601992045
2025-05-14 15:59:35.142,-5.241356189033923e-06,-6.575800448907716
2025-05-14 15:59:35.149,-5.404369507533924e-06,-6.214270107115696
2025-05-14 15:59:35.157,-5.5680450670985e-06,-5.77133545011843
2025-05-14 15:59:35.165,-5.728775556263101e-06,-5.249596440346843
2025-05-14 15:59:35.173,-5.882590088910864e-06,-4.653432100306109
2025-05-14 15:59:35.181,-6.025271951248584e-06,-3.988965703761135
2025-05-14 15:59:35.189,-6.152501311325274e-06,-3.263983405287403
2025-05-14 15:59:35.196,-6.2600202065277295e-06,-2.4878058760779678
2025-05-14 15:59:35.204,-6.343815875245847e-06,-1.671113948125886
2025-05-14 15:59:35.212,-6.400317252587081e-06,-0.8257308875120054
2025-05-14 15:59:35.220,-6.426598257797375e-06,0.0356343559412547
2025-05-14 15:59:35.228,-6.420580418291888e-06,0.8996768423684982
2025-05-14 15:59:35.235,-6.381226459770104e-06,1.7528105720655471
2025-05-14 15:59:35.243,-6.308715802072546e-06,2.581499538805644
2025-05-14 15:59:35.251,-6.20459249261739e-06,3.3725947125668565
2025-05-14 15:59:35.259,-6.071876035380027e-06,4.113666093967185
2025-05-14 15:59:35.267,-5.915125878269636e-06,4.793318798034349
2025-05-14 15:59:35.274,-5.74045104038711e-06,5.40148244693265
2025-05-14 15:59:35.282,-5.555457515474242e-06,5.9296639703075344
2025-05-14 15:59:35.290,-5.3691276863338265e-06,6.371155187088414
2025-05-14 15:59:35.298,-5.191628017365895e-06,6.7211882084447545
2025-05-14 15:59:35.306,-5.034043729918945e-06,6.977033672209253
2025-05-14 15:59:35.314,-4.908041959022746e-06,7.138038992176591
2025-05-14 15:59:35.321,-4.825467970676583e-06,7.205606069743554
2025-05-14 15:59:35.329,-4.797882296185604e-06,7.183110158382104
2025-05-14 15:59:35.337,-4.836050004703063e-06,7.075763687331199
2025-05-14 15:59:35.345,-4.949396660495024e-06,6.890430742457056
2025-05-14 15:59:35.353,-5.145448656573877e-06,6.635399484664998
2025-05-14 15:59:35.360,-5.429278430039915e-06,6.320120995258524
2025-05-14 15:59:35.368,-5.802977390144521e-06,5.954923839372353
2025-05-14 15:59:35.376,-6.265181071542715e-06,5.550714032349385
2025-05-14 15:59:35.384,-6.810671913085979e-06,5.11867010481805
2025-05-14 15:59:35.392,-7.430085021328461e-06,4.669942632234704
2025-05-14 15:59:35.399,-8.109741193388474e-06,4.21536697764864
2025-05-14 15:59:35.407,-8.831629260228989e-06,3.765197152705367
2025-05-14 15:59:35.415,-9.57355641887627e-06,3.328867689284016
2025-05-14 15:59:35.423,-1.030948064306734e-05,2.914789280870803
2025-05-14 15:59:35.431,-1.101003353692968e-05,2.530182735862429
2025-05-14 15:59:35.439,-1.16432352188283e-05,2.1809545126697056
2025-05-14 15:59:35.446,-1.217539514133528e-05,1.871615800036593
2025-05-14 15:59:35.454,-1.2572184373896808e-05,1.6052457807814315
2025-05-14 15:59:35.462,-1.2799856058231246e-05,1.3834983867120598
2025-05-14 15:59:35.470,-1.2826581805840791e-05,1.2066505374818497
2025-05-14 15:59:35.478,-1.2623863101259013e-05,1.0736885923341255
2025-05-14 15:59:35.485,-1.2167968700038889e-05,0.9824285792394216
2025-05-14 15:59:35.493,-1.144134198921226e-05,0.929664750338183
2025-05-14 15:59:35.501,-1.0433916744394544e-05,0.9113401883390496
2025-05-14 15:59:35.509,-9.1442761024032e-06,0.922732592591501
2025-05-14 15:59:35.517,-7.580588280034535e-06,0.9586480419304848
2025-05-14 15:59:35.524,-5.761253976383973e-06,1.013615495846486
2025-05-14 15:59:35.532,-3.715204804727029e-06,1.0820750727955315
2025-05-14 15:59:35.540,-1.4817997364073689e-06,1.158553728294446
2025-05-14 15:59:35.548,8.897224710388279e-07,1.2378228182264173
2025-05-14 15:59:35.556,3.341262538666807e-06,1.3150331305987324
2025-05-14 15:59:35.564,5.807361715273523e-06,1.3858242417589934
2025-05-14 15:59:35.571,8.217174152460215e-06,1.4464064224480353
2025-05-14 15:59:35.579,1.0496877056369407e-05,1.4936146943324613
2025-05-14 15:59:35.587,1.2572460013417628e-05,1.5249359308580188
2025-05-14 15:59:35.595,1.4372808600836288e-05,1.5385110360699732
2025-05-14 15:59:35.603,1.583297074435835e-05,1.5331151713423727
2025-05-14 15:59:35.610,1.689746827097875e-05,1.508119702087065
2025-05-14 15:59:35.618,1.7523491821915247e-05,1.4634399915086689
2025-05-14 15:59:35.626,1.7683795908670482e-05,1.399473379599988
2025-05-14 15:59:35.634,1.7369093617542276e-05,1.3170316675168474
2025-05-14 15:59:35.642,1.6589740117449545e-05,1.2172721989799271
2025-05-14 15:59:35.649,1.537650153094805e-05,1.1016312112162172
2025-05-14 15:59:35.657,1.3780252530634824e-05,0.9717625445173044
2025-05-14 15:59:35.665,1.1870544285507623e-05,0.8294840928752985
2025-05-14 15:59:35.673,9.733108430694206e-06,0.676733604718565
2025-05-14 15:59:35.681,7.466463116915507e-06,0.5155346638393976
2025-05-14 15:59:35.689,5.177838082783862e-06,0.3479729490232937
2025-05-14 15:59:35.696,2.978648839242913e-06,0.1761822235287354
2025-05-14 15:59:35.704,9.797466583653257e-07,0.0023389635638121
2025-05-14 15:59:35.712,-7.133386167138286e-07,-0.1713358941891963
2025-05-14 15:59:35.720,-2.004959713560737e-06,-0.3425699279900554
2025-05-14 15:59:35.728,-2.8135312205518136e-06,-0.5090290033989532
2025-05-14 15:59:35.735,-3.0751618682872136e-06,-0.6683060781431827
2025-05-14 15:59:35.743,-2.74659817119971e-06,-0.8179113775127338
2025-05-14 15:59:35.751,-1.807363922295204e-06,-0.9552663204111552
2025-05-14 15:59:35.759,-2.610085212252605e-07,-1.0777035480098485
2025-05-14 15:59:35.767,1.8645922428130732e-06,-1.1824752946621713
2025-05-14 15:59:35.774,4.517906745587334e-06,-1.2667721269676415
2025-05-14 15:59:35.782,7.625378918185219e-06,-1.3277537412175116
2025-05-14 15:59:35.790,1.1093974265653849e-05,-1.3625930349482147
2025-05-14 15:59:35.798,1.4814557569904912e-05,-1.3685340498951024
2025-05-14 15:59:35.806,1.8665982059536565e-05,-1.342963630046173
2025-05-14 15:59:35.814,2.2519732644883853e-05,-1.2834957695399027
2025-05-14 15:59:35.821,2.624492949307356e-05,-1.1880666725291011
2025-05-14 15:59:35.829,2.9713463678241874e-05,-1.055037559392926
2025-05-14 15:59:35.837,3.2805006581594016e-05,-0.8833012968182655
2025-05-14 15:59:35.845,3.541162002140622e-05,-0.6723880791809659
2025-05-14 15:59:35.853,3.744171667425132e-05,-0.4225647210140514
2025-05-14 15:59:35.860,3.882319276118118e-05,-0.1349217043937356
2025-05-14 15:59:35.868,3.9505652265128304e-05,0.1885579788798803
2025-05-14 15:59:35.876,3.946171561166914e-05,0.5449538946148761
2025-05-14 15:59:35.884,3.8687431105286016e-05,0.930392204496822
2025-05-14 15:59:35.892,3.720179917495356e-05,1.3400627099815663
2025-05-14 15:59:35.899,3.504540998929969e-05,1.7682715658612318
2025-05-14 15:59:35.907,3.2278216662789555e-05,2.208530687479531
2025-05-14 15:59:35.915,2.897653399664372e-05,2.6536830647279626
2025-05-14 15:59:35.923,2.52294421258672e-05,3.0960613238611643
2025-05-14 15:59:35.931,2.113483750730429e-05,3.5276750544823186
2025-05-14 15:59:35.939,1.679538596723971e-05,3.940420747589517
2025-05-14 15:59:35.946,1.2314607200546897e-05,4.326306767003872
2025-05-14 15:59:35.954,7.793279757077147e-06,4.677684688084897
2025-05-14 15:59:35.962,3.3263117526712174e-06,4.98747766239376
2025-05-14 15:59:35.970,-9.99821299314716e-07,5.24939626818396
2025-05-14 15:59:35.978,-5.109012424970726e-06,5.458132621981783
2025-05-14 15:59:35.985,-8.936813121399216e-06,5.609524357417216
2025-05-14 15:59:35.993,-1.243109274060575e-05,5.700681385467175
2025-05-14 15:59:36.001,-1.5552113000754776e-05,5.730070061404152
2025-05-14 15:59:36.009,-1.8272087849696976e-05,5.697551393519989
2025-05-14 15:59:36.017,-2.05743173890307e-05,5.604372105329779
2025-05-14 15:59:36.024,-2.245199683013136e-05,5.453109555384236
2025-05-14 15:59:36.032,-2.390680757332849e-05,5.247573574924543
2025-05-14 15:59:36.040,-2.494739776481298e-05,4.992670072588076
2025-05-14 15:59:36.048,-2.5587854566134745e-05,4.694232682797306
2025-05-14 15:59:36.056,-2.5846260500425497e-05,4.358829747125405
2025-05-14 15:59:36.064,-2.574341237948372e-05,3.993554503155734
2025-05-14 15:59:36.071,-2.530176432744892e-05,3.6058065371396073
2025-05-14 15:59:36.079,-2.454463722906855e-05,3.203072386691377
2025-05-14 15:59:36.087,-2.3495716510227165e-05,2.792712722308021
2025-05-14 15:59:36.095,-2.217883947994493e-05,2.381762852997856
2025-05-14 15:59:36.103,-2.0618053480149598e-05,1.9767524402171504
2025-05-14 15:59:36.110,-1.8837907708129597e-05,1.5835493032540926
2025-05-14 15:59:36.118,-1.6863925629858438e-05,1.2072310953442815
2025-05-14 15:59:36.126,-1.4723192127860228e-05,0.8519874680120456
2025-05-14 15:59:36.134,-1.2444980546320897e-05,0.521054172556965
2025-05-14 15:59:36.142,-1.006134009600109e-05,0.2166794216799215
2025-05-14 15:59:36.149,-7.607564000182499e-06,-0.0598782084123071
2025-05-14 15:59:36.157,-5.122463476985835e-06,-0.3083219854690316
2025-05-14 15:59:36.165,-2.648382169239334e-06,-0.5292617899625391
2025-05-14 15:59:36.173,-2.308997812824892e-07,-0.7241345668266856
2025-05-14 15:59:36.181,2.0818078839356784e-06,-0.8951041272993037
2025-05-14 15:59:36.189,4.239963095624818e-06,-1.0449443989404597
2025-05-14 15:59:36.196,6.193519907938732e-06,-1.1769105449285098
2025-05-14 15:59:36.204,7.893795244471163e-06,-1.29460259168317
2025-05-14 15:59:36.212,9.295326434016308e-06,-1.4018263153841608
2025-05-14 15:59:36.220,1.0357855384449123e-05,-1.5024561330148722
2025-05-14 15:59:36.228,1.1048311741606125e-05,-1.600304599584983
2025-05-14 15:59:36.235,1.1342641849418617e-05,-1.6990027994066603
2025-05-14 15:59:36.243,1.1227310014042528e-05,-1.8018954106008995
2025-05-14 15:59:36.251,1.0700294432315012e-05,-1.9119535151209663
2025-05-14 15:59:36.259,9.77143398857043e-06,-2.031707347911897
2025-05-14 15:59:36.267,8.462066244115057e-06,-2.1632001789321493
2025-05-14 15:59:36.275,6.804005954862952e-06,-2.307963463361361
2025-05-14 15:59:36.282,4.8379982542995175e-06,-2.4670123454969963
2025-05-14 15:59:36.290,2.611815817822909e-06,-2.640859628572076
2025-05-14 15:59:36.298,1.7816711656673916e-07,-2.829545488545356
2025-05-14 15:59:36.306,-2.407434990880823e-06,-3.032679562711144
2025-05-14 15:59:36.314,-5.088717741109535e-06,-3.249491612214217
2025-05-14 15:59:36.321,-7.810504112605041e-06,-3.4788867535738954
2025-05-14 15:59:36.329,-1.0520303304493204e-05,-3.7195012809613273
2025-05-14 15:59:36.337,-1.316958515216008e-05,-3.9697553547758737
2025-05-14 15:59:36.345,-1.5714711938379478e-05,-4.227899301659553
2025-05-14 15:59:36.353,-1.811752350856719e-05,-4.492050934562879
2025-05-14 15:59:36.360,-2.034559146115838e-05,-4.760222125074926
2025-05-14 15:59:36.368,-2.2372174922409384e-05,-5.030333797199509
2025-05-14 15:59:36.376,-2.4175923645556565e-05,-5.300219502516873
2025-05-14 15:59:36.384,-2.5740383667346565e-05,-5.567618714653872
2025-05-14 15:59:36.392,-2.7053366430981024e-05,-5.830161883520643
2025-05-14 15:59:36.400,-2.8106244207273064e-05,-6.085350066095135
2025-05-14 15:59:36.407,-2.88932330120459e-05,-6.330532561121788
2025-05-14 15:59:36.415,-2.941071934423423e-05,-6.562886385879481
2025-05-14 15:59:36.423,-2.9656679377249507e-05,-6.779401613317922
2025-05-14 15:59:36.431,-2.963022923523569e-05,-6.976876514493663
2025-05-14 15:59:36.439,-2.9331333254766045e-05,-7.151926116594438
2025-05-14 15:59:36.446,-2.8760684300685915e-05,-7.301007201222234
2025-05-14 15:59:36.454,-2.7919756932369876e-05,-7.420461957314867
2025-05-14 15:59:36.462,-2.681102117471888e-05,-7.506581507264857
2025-05-14 15:59:36.470,-2.5438292498901564e-05,-7.555689392323622
2025-05-14 15:59:36.478,-2.3807182994766148e-05,-7.564243888265026
2025-05-14 15:59:36.485,-2.19256102061432e-05,-7.528956779369058
2025-05-14 15:59:36.493,-1.980431422238641e-05,-7.446925003206523
2025-05-14 15:59:36.501,-1.7457330812169547e-05,-7.315770448998071
2025-05-14 15:59:36.509,-1.4902368988023312e-05,-7.133782213977152
2025-05-14 15:59:36.517,-1.2161045629122372e-05,-6.900054866641666
2025-05-14 15:59:36.525,-9.258937767707903e-06,-6.614615801211691
2025-05-14 15:59:36.532,-6.22542482945614e-06,-6.278534645471215
2025-05-14 15:59:36.540,-3.0933083373476877e-06,-5.894007931454374
2025-05-14 15:59:36.548,1.0178497521506072e-07,-5.464412860000592
2025-05-14 15:59:36.556,3.322189505381253e-06,-4.994324973964868
2025-05-14 15:59:36.564,6.529126097103567e-06,-4.489495871033346
2025-05-14 15:59:36.571,9.68369109755161e-06,-3.956788683141509
2025-05-14 15:59:36.579,1.274781023179366e-05,-3.404070850561543
2025-05-14 15:59:36.587,1.5685046404468636e-05,-2.840065635547389
2025-05-14 15:59:36.595,1.846117193319795e-05,-2.274165755428536
2025-05-14 15:59:36.603,2.104448276139755e-05,-1.7162143623959445
2025-05-14 15:59:36.610,2.340591966717686e-05,-1.176260246002239
2025-05-14 15:59:36.618,2.5519120630225543e-05,-0.6642954816301696
2025-05-14 15:59:36.626,2.736053446998888e-05,-0.1899847147709265
2025-05-14 15:59:36.634,2.8909691599270715e-05,0.2376041904735002
2025-05-14 15:59:36.642,3.014967590917424e-05,0.61025831786896
2025-05-14 15:59:36.650,3.106778436844866e-05,0.9208572085511456
2025-05-14 15:59:36.657,3.1656301928947416e-05,1.1635810064341836
2025-05-14 15:59:36.665,3.1913262913907365e-05,1.3340816685885843
2025-05-14 15:59:36.673,3.1843028445132487e-05,1.429611115741498
2025-05-14 15:59:36.681,3.145650573030623e-05,1.4491018794438235
2025-05-14 15:59:36.689,3.077088273830989e-05,1.3931976327979692
2025-05-14 15:59:36.696,2.980882840983755e-05,1.2642328748797012
2025-05-14 15:59:36.704,2.8597175843419697e-05,1.0661628774613068
2025-05-14 15:59:36.712,2.7165160151717356e-05,0.8044467105177637
2025-05-14 15:59:36.720,2.5542348316733885e-05,0.4858876772999413
2025-05-14 15:59:36.728,2.375647165552877e-05,0.1184367728712048
2025-05-14 15:59:36.735,2.183141416722777e-05,-0.2890341853070836
2025-05-14 15:59:36.743,1.9785599496568108e-05,-0.726982323416171
2025-05-14 15:59:36.751,1.7630969032666855e-05,-1.1854584063973728
2025-05-14 15:59:36.759,1.5372676825117478e-05,-1.654378194720869
2025-05-14 15:59:36.767,1.3009555754693918e-05,-2.123792123366123
2025-05-14 15:59:36.775,1.0535337909079378e-05,-2.5841451188566875
2025-05-14 15:59:36.782,7.940542888216912e-06,-3.026518759336214
2025-05-14 15:59:36.790,5.214883214243365e-06,-3.442848609864074
2025-05-14 15:59:36.798,2.349978426645629e-06,-3.8261104217352098
2025-05-14 15:59:36.806,-6.578774741465044e-07,-4.170469946843687
2025-05-14 15:59:36.814,-3.8051752589104806e-06,-4.471392352343024
2025-05-14 15:59:36.821,-7.07913666067845e-06,-4.725708588363743
2025-05-14 15:59:36.829,-1.0456331177325668e-05,-4.931637516311096
2025-05-14 15:59:36.837,-1.3902039039476894e-05,-5.088764091978081
2025-05-14 15:59:36.845,-1.737034566271268e-05,-5.197975358492792
2025-05-14 15:59:36.853,-2.080490636173823e-05,-5.261357389368311
2025-05-14 15:59:36.860,-2.414030560630225e-05,-5.282057593324725
2025-05-14 15:59:36.868,-2.730393164838278e-05,-5.264117915928352
2025-05-14 15:59:36.876,-3.0218284971046927e-05,-5.212285410494803
2025-05-14 15:59:36.884,-3.280363590663392e-05,-5.1318073605797965
2025-05-14 15:59:36.892,-3.498094291188023e-05,-5.0282185810886855
2025-05-14 15:59:36.900,-3.667493848008454e-05,-4.907128678642763
2025-05-14 15:59:36.907,-3.78172847688744e-05,-4.774016904004655
2025-05-14 15:59:36.915,-3.834969611681466e-05,-4.634041786721919
2025-05-14 15:59:36.923,-3.822692122568201e-05,-4.491872028245974
2025-05-14 15:59:36.931,-3.741947451141083e-05,-4.351544181208757
2025-05-14 15:59:36.939,-3.591600466201664e-05,-4.216351501226651
2025-05-14 15:59:36.946,-3.372518951047971e-05,-4.088767064893371
2025-05-14 15:59:36.954,-3.087705065963062e-05,-3.970402845395892
2025-05-14 15:59:36.962,-2.742358956672499e-05,-3.8620049737746887
2025-05-14 15:59:36.970,-2.343865960246275e-05,-3.76348394657365
2025-05-14 15:59:36.978,-1.90170064053131e-05,-3.673977131201525
2025-05-14 15:59:36.985,-1.427243194431241e-05,-3.5919396280431464
2025-05-14 15:59:36.993,-9.335066154069437e-06,-3.515258426485786
2025-05-14 15:59:37.001,-4.347763637440986e-06,-3.4413838877614
2025-05-14 15:59:37.009,5.383187085429554e-07,-3.367471943511278
2025-05-14 15:59:37.017,5.168864945020256e-06,-3.2905300543642166
2025-05-14 15:59:37.025,9.39212074230988e-06,-3.2075599601531337
2025-05-14 15:59:37.032,1.3065001068112544e-05,-3.115690589775499
2025-05-14 15:59:37.040,1.6059347679584643e-05,-3.01229517546349
2025-05-14 15:59:37.048,1.8268054175268355e-05,-2.895087595496697
2025-05-14 15:59:37.056,1.961073525760261e-05,-2.762194189588023
2025-05-14 15:59:37.064,2.0038583459221584e-05,-2.612198677108375
2025-05-14 15:59:37.071,1.9538042818303768e-05,-2.444159281776796
2025-05-14 15:59:37.079,1.813295766518429e-05,-2.2575986534458083
2025-05-14 15:59:37.087,1.5884940705402324e-05,-2.052468608763415
2025-05-14 15:59:37.095,1.2891833171185394e-05,-1.829093019475504
2025-05-14 15:59:37.103,9.28427326268873e-06,-1.5880932927559543
2025-05-14 15:59:37.110,5.220533797645323e-06,-1.3303017512860589
2025-05-14 15:59:37.118,8.799222090902554e-07,-1.0566687821193896
2025-05-14 15:59:37.126,-3.544872250617979e-06,-0.7681698463005184
2025-05-14 15:59:37.134,-7.856063332239163e-06,-0.4657183061899404
2025-05-14 15:59:37.142,-1.1859269572005044e-05,-0.1500895400225138
2025-05-14 15:59:37.150,-1.5371843307578505e-05,0.178138987915926
2025-05-14 15:59:37.157,-1.823067120834967e-05,0.5186280792620452
2025-05-14 15:59:37.165,-2.0299130479032252e-05,0.871295162861415
2025-05-14 15:59:37.173,-2.1472929613869847e-05,1.236309548815605
2025-05-14 15:59:37.181,-2.1684611251757463e-05,1.6140647767854726
2025-05-14 15:59:37.189,-2.0906546561941728e-05,2.0051295400425024
2025-05-14 15:59:37.196,-1.9152305043158124e-05,2.410179849716265
2025-05-14 15:59:37.204,-1.6476340097031134e-05,2.8299161349908304
2025-05-14 15:59:37.212,-1.2971988733160383e-05,3.2649698096785467
2025-05-14 15:59:37.220,-8.767842769613137e-06,3.715804438422574
2025-05-14 15:59:37.228,-4.02260834928274e-06,4.182616978476716
2025-05-14 15:59:37.235,1.0813701557376564e-06,4.665244635405611
2025-05-14 15:59:37.243,6.34568752554764e-06,5.163082647610429
2025-05-14 15:59:37.251,1.1564265739135644e-05,5.675017818820237
2025-05-14 15:59:37.259,1.653220888471216e-05,6.199381878235439
2025-05-14 15:59:37.267,2.1054734040788157e-05,6.733927801954377
2025-05-14 15:59:37.275,2.495575746074786e-05,7.275831121120462
2025-05-14 15:59:37.282,2.808572524546429e-05,7.8217170269932765
2025-05-14 15:59:37.290,3.032834017525494e-05,8.367712827185171
2025-05-14 15:59:37.298,3.160592703815113e-05,8.90952408304118
2025-05-14 15:59:37.306,3.18832496481479e-05,9.442531635919355
2025-05-14 15:59:37.314,3.1169619634065045e-05,9.961905771319048
2025-05-14 15:59:37.321,2.9519135193864367e-05,10.462733022969385
2025-05-14 15:59:37.329,2.702889174666128e-05,10.940150617080535
2025-05-14 15:59:37.337,2.3835058201107384e-05,11.389483314066672
2025-05-14 15:59:37.345,2.0106848101219268e-05,11.80637741500611
2025-05-14 15:59:37.353,1.603862106377474e-05,12.186926940151292
2025-05-14 15:59:37.360,1.1840552099031225e-05,12.52778742518644
2025-05-14 15:59:37.368,7.728429930649664e-06,12.826273381886285
2025-05-14 15:59:37.376,3.913176890473994e-06,13.080436192605834
2025-05-14 15:59:37.384,5.906560332927626e-07,13.28912000663012
2025-05-14 15:59:37.392,-2.067721962122311e-06,13.451994035796648
2025-05-14 15:59:37.400,-3.923145495658111e-06,13.56956047044936
2025-05-14 15:59:37.407,-4.875931023784087e-06,13.643138028929238
2025-05-14 15:59:37.415,-4.870145722117443e-06,13.674821898066226
2025-05-14 15:59:37.423,-3.896123632370033e-06,13.667421510985925
2025-05-14 15:59:37.431,-1.990767393710894e-06,13.624378242800576
2025-05-14 15:59:37.439,7.643778287156176e-07,13.549665688103069
2025-05-14 15:59:37.446,4.247196555629669e-06,13.447675712936134
2025-05-14 15:59:37.454,8.301045776935247e-06,13.323093930972073
2025-05-14 15:59:37.462,1.2742501687536155e-05,13.180768613767516
2025-05-14 15:59:37.470,1.7370457332483252e-05,13.025577285856178
2025-05-14 15:59:37.478,2.1976138163624328e-05,12.862295363606956
2025-05-14 15:59:37.485,2.635353094956328e-05,12.695471165440376
2025-05-14 15:59:37.493,3.0309660315218425e-05,12.529311446144291
2025-05-14 15:59:37.501,3.3674100097948644e-05,12.367581286707228
2025-05-14 15:59:37.509,3.630708707959268e-05,12.21352170089568
2025-05-14 15:59:37.517,3.81056464418087e-05,12.069787697833483
2025-05-14 15:59:37.525,3.9007284900906944e-05,11.93840876354146
2025-05-14 15:59:37.532,3.899106609299379e-05,11.820772798967642
2025-05-14 15:59:37.540,3.807618983286657e-05,11.717633503039632
2025-05-14 15:59:37.548,3.6318451286420655e-05,11.629140070703407
2025-05-14 15:59:37.556,3.380509464689113e-05,11.554886965292772
2025-05-14 15:59:37.564,3.064860643700442e-05,11.493980507947974
2025-05-14 15:59:37.571,2.6979960433394e-05,11.445118184403611
2025-05-14 15:59:37.579,2.2941764588306848e-05,11.40667596721517
2025-05-14 15:59:37.587,1.868168499695977e-05,11.3767986357954
2025-05-14 15:59:37.595,1.4346438144684316e-05,11.353488070863738
2025-05-14 15:59:37.603,1.00765539614505e-05,11.334684803418918
2025-05-14 15:59:37.610,6.002022110976317e-06,11.31833868751176
2025-05-14 15:59:37.618,2.2388457615886823e-06,11.302465396907866
2025-05-14 15:59:37.626,-1.1135544938420964e-06,11.285186458280757
2025-05-14 15:59:37.634,-3.974206463528983e-06,11.264751658384553
2025-05-14 15:59:37.642,-6.28186240293393e-06,11.239543827556483
2025-05-14 15:59:37.650,-7.995791222766491e-06,11.208067137846912
2025-05-14 15:59:37.657,-9.096127981440948e-06,11.168921099182098
2025-05-14 15:59:37.665,-9.583775478024046e-06,11.1207633396103
2025-05-14 15:59:37.673,-9.479850289627275e-06,11.062264976925553
2025-05-14 15:59:37.681,-8.824694799267716e-06,10.992062902567428
2025-05-14 15:59:37.689,-7.67651446921957e-06,10.908713588288084
2025-05-14 15:59:37.696,-6.109725556894213e-06,10.81065308186469
2025-05-14 15:59:37.704,-4.213089543233659e-06,10.696167674150749
2025-05-14 15:59:37.712,-2.087654717932477e-06,10.563379291519691
2025-05-14 15:59:37.720,1.555518385586123e-07,10.410248993567704
2025-05-14 15:59:37.728,2.398188156966472e-06,10.234601044426384
2025-05-14 15:59:37.735,4.5177201195311945e-06,10.034168904751793
2025-05-14 15:59:37.743,6.39106254890406e-06,9.806663208827112
2025-05-14 15:59:37.751,7.898737084814055e-06,9.54986041166268
2025-05-14 15:59:37.759,8.929478468753318e-06,9.261709390187145
2025-05-14 15:59:37.767,9.385152368150815e-06,8.940451944908144
2025-05-14 15:59:37.775,9.185780369271602e-06,8.5847519601162
2025-05-14 15:59:37.782,8.27440404626522e-06,8.193827017724175
2025-05-14 15:59:37.790,6.621462928498991e-06,7.767575578385641
2025-05-14 15:59:37.798,4.228315199158679e-06,7.306692482127718
2025-05-14 15:59:37.806,1.1295090965609286e-06,6.812765507526974
2025-05-14 15:59:37.814,-2.6065499455440693e-06,6.288346081622974
2025-05-14 15:59:37.821,-6.878762407631171e-06,5.73698795375388
2025-05-14 15:59:37.829,-1.1556346525138088e-05,5.163248717287736
2025-05-14 15:59:37.837,-1.6483506231857724e-05,4.572650450962173
2025-05-14 15:59:37.845,-2.1485422987558383e-05,3.9715974122792095
2025-05-14 15:59:37.853,-2.63751851411124e-05,3.3672505909921937
2025-05-14 15:59:37.860,-3.096126674392973e-05,2.7673609427437174
2025-05-14 15:59:37.868,-3.50551868278131e-05,2.180065171108624
2025-05-14 15:59:37.876,-3.847900758599122e-05,1.6136498959654615
2025-05-14 15:59:37.884,-4.107236293421263e-05,1.0762918215694532
2025-05-14 15:59:37.892,-4.269874663598315e-05,0.5757829932894087
2025-05-14 15:59:37.900,-4.325083076332512e-05,0.1192513167968307
2025-05-14 15:59:37.907,-4.2654630096716985e-05,-0.2871128644326571
2025-05-14 15:59:37.915,-4.0872375648670696e-05,-0.638313221651311
2025-05-14 15:59:37.923,-3.79040104394373e-05,-0.9307764071939236
2025-05-14 15:59:37.931,-3.378727264888497e-05,-1.1625438919018192
2025-05-14 15:59:37.939,-2.8596385032269264e-05,-1.3334183240256832
2025-05-14 15:59:37.946,-2.243942471436537e-05,-1.445057704009474
2025-05-14 15:59:37.954,-1.54545037880176e-05,-1.50101259029542
2025-05-14 15:59:37.962,-7.80494803829478e-06,-1.5067036685356714
2025-05-14 15:59:37.970,3.262820771963301e-07,-1.4693392456603285
2025-05-14 15:59:37.978,8.742629837021756e-06,-1.3977744865748798
2025-05-14 15:59:37.985,1.724010084925959e-05,-1.3023164102021996
2025-05-14 15:59:37.993,2.5613197100069376e-05,-1.1944807127527732
2025-05-14 15:59:38.001,3.366032591954884e-05,-1.0867082919933158
2025-05-14 15:59:38.009,4.118846400324161e-05,-0.9920508111313576
2025-05-14 15:59:38.017,4.8016956195598384e-05,-0.9238356847548987
2025-05-14 15:59:38.025,5.39804551550417e-05,-0.8953214393376194
2025-05-14 15:59:38.032,5.893116026563673e-05,-0.919354477985076
2025-05-14 15:59:38.040,6.274063995896173e-05,-1.0080378804331684
2025-05-14 15:59:38.048,6.530155841844246e-05,-1.1724220472894218
2025-05-14 15:59:38.056,6.652956682973697e-05,-1.4222258322540324
2025-05-14 15:59:38.064,6.636549838798113e-05,-1.7655953906262618
2025-05-14 15:59:38.071,6.477786176025242e-05,-2.208906398855633
2025-05-14 15:59:38.079,6.176547928390094e-05,-2.7566136535298558
2025-05-14 15:59:38.087,5.735998211442708e-05,-3.41115041757714
2025-05-14 15:59:38.095,5.162778239219502e-05,-4.172878316419459
2025-05-14 15:59:38.103,4.467111186536718e-05,-5.040087151737328
2025-05-14 15:59:38.110,3.6627738640478575e-05,-6.009042728706208
2025-05-14 15:59:38.118,2.7669036666987784e-05,-7.0740796979557965
2025-05-14 15:59:38.126,1.7996206712562593e-05,-8.227735498566666
2025-05-14 15:59:38.134,7.834654372689095e-06,-9.46092075122328
2025-05-14 15:59:38.142,-2.573220315437217e-06,-10.763120886079072
2025-05-14 15:59:38.150,-1.2976365188906144e-05,-12.122623387200852
2025-05-14 15:59:38.157,-2.3123999144245823e-05,-13.526764778087363
2025-05-14 15:59:38.165,-3.2774569153501647e-05,-14.962191343358606
2025-05-14 15:59:38.173,-4.170425210013421e-05,-16.41512756778665
2025-05-14 15:59:38.181,-4.971458959372059e-05,-17.871646368626497
2025-05-14 15:59:38.189,-5.663892624440505e-05,-19.31793539799057
2025-05-14 15:59:38.196,-6.234740536321541e-05,-20.74055400001454
2025-05-14 15:59:38.204,-6.67503586842813e-05,-22.126675827252598
2025-05-14 15:59:38.212,-6.980000681332444e-05,-23.464312654481045
2025-05-14 15:59:38.220,-7.149046336820654e-05,-24.742515568487512
2025-05-14 15:59:38.228,-7.18561071808292e-05,-25.95155043925764
2025-05-14 15:59:38.235,-7.096845273937414e-05,-27.083045361963137
2025-05-14 15:59:38.243,-6.893170875641126e-05,-28.130108566625708
2025-05-14 15:59:38.251,-6.587726801481511e-05,-29.087416084558093
2025-05-14 15:59:38.259,-6.195741824884425e-05,-29.95126919088933
2025-05-14 15:59:38.267,-5.733860360255324e-05,-30.7196222589737
2025-05-14 15:59:38.275,-5.2194597398521055e-05,-31.392082118958218
2025-05-14 15:59:38.282,-4.669995968306243e-05,-31.969880277520783
2025-05-14 15:59:38.290,-4.102412644650604e-05,-32.455819414494705
2025-05-14 15:59:38.298,-3.53264000470597e-05,-32.85419542918902
2025-05-14 15:59:38.306,-2.9752006507811423e-05,-33.17069599380616
2025-05-14 15:59:38.314,-2.442929470339077e-05,-33.41227614530451
2025-05-14 15:59:38.321,-1.9468079799277548e-05,-33.587011005272885
2025-05-14 15:59:38.329,-1.495905491662986e-05,-33.703925373921805
2025-05-14 15:59:38.337,-1.0974114867694207e-05,-33.77279980814757
2025-05-14 15:59:38.345,-7.567390451335202e-06,-33.80395294676672
2025-05-14 15:59:38.353,-4.77679357758261e-06,-33.80800033270351
2025-05-14 15:59:38.360,-2.62588741406905e-06,-33.79559080678276
2025-05-14 15:59:38.368,-1.1258863984670886e-06,-33.77712267676488
2025-05-14 15:59:38.376,-2.7757105495942445e-07,-33.76244322967166
2025-05-14 15:59:38.384,-7.291619343507183e-08,-33.76053666138413
2025-05-14 15:59:38.392,-4.962999940797398e-07,-33.77920703724516
2025-05-14 15:59:38.400,-1.5252679298296786e-06,-33.82476435784745
2025-05-14 15:59:38.407,-3.1309340091916264e-06,-33.90172307202529
2025-05-14 15:59:38.415,-5.2781769189320455e-06,-34.01252334747055
2025-05-14 15:59:38.423,-7.925810724985498e-06,-34.15728598776337
2025-05-14 15:59:38.431,-1.1026888941862888e-05,-34.333612006334675
2025-05-14 15:59:38.439,-1.4529251983299302e-05,-34.53643749198216
2025-05-14 15:59:38.446,-1.8376341289913616e-05,-34.757953511190884
2025-05-14 15:59:38.454,-2.2508178442350203e-05,-34.98759940208443
2025-05-14 15:59:38.462,-2.6862295906120924e-05,-35.21213596783793
2025-05-14 15:59:38.470,-3.137437026380575e-05,-35.41580284610343
2025-05-14 15:59:38.478,-3.5978358172599266e-05,-35.58056180248613
2025-05-14 15:59:38.485,-4.060603367319455e-05,-35.68642495965036
2025-05-14 15:59:38.493,-4.518593816560117e-05,-35.71186411703225
2025-05-14 15:59:38.501,-4.964186570782902e-05,-35.63429443002452
2025-05-14 15:59:38.509,-5.389111049710107e-05,-35.43062289930033
2025-05-14 15:59:38.517,-5.78427965735579e-05,-35.07784947201965
2025-05-14 15:59:38.525,-6.13966867967607e-05,-34.55370617534739
2025-05-14 15:59:38.532,-6.444291460318938e-05,-33.83731768051884
2025-05-14 15:59:38.540,-6.686306349874241e-05,-32.909865118062704
2025-05-14 15:59:38.548,-6.85328922533841e-05,-31.755233910200044
2025-05-14 15:59:38.556,-6.932676161015257e-05,-30.3606259188174
2025-05-14 15:59:38.564,-6.912352543278727e-05,-28.717116366117395
2025-05-14 15:59:38.571,-6.781340788629097e-05,-26.820136781338885
2025-05-14 15:59:38.579,-6.53052631827371e-05,-24.669866648800333
2025-05-14 15:59:38.587,-6.153359942770713e-05,-22.27151844926227
2025-05-14 15:59:38.595,-5.6464800506704855e-05,-19.63550334808605
2025-05-14 15:59:38.603,-5.010206622737408e-05,-16.77746782046634
2025-05-14 15:59:38.610,-4.248869774362916e-05,-13.71819493443951
2025-05-14 15:59:38.618,-3.3709478568589575e-05,-10.48336775096744
2025-05-14 15:59:38.626,-2.3890038389421043e-05,-7.103196259230042
2025-05-14 15:59:38.634,-1.3194232556522665e-05,-3.611913348004714
2025-05-14 15:59:38.642,-1.819711208332932e-06,-0.0471494103670426
2025-05-14 15:59:38.650,1.0008036102235718e-05,3.5508008359861924
2025-05-14 15:59:38.657,2.204280885068852e-05,7.139801993712444
2025-05-14 15:59:38.665,3.40256143886327e-05,10.676771434657253
2025-05-14 15:59:38.673,4.569297486605296e-05,14.118619093756724
2025-05-14 15:59:38.681,5.67852133855747e-05,17.423208041978047
2025-05-14 15:59:38.689,6.705433982557772e-05,20.55030897906577
2025-05-14 15:59:38.696,7.627124025760971e-05,23.462521395573532
2025-05-14 15:59:38.704,8.423200714076164e-05,26.126134710203267
2025-05-14 15:59:38.712,9.076338707387704e-05,28.51190419958188
2025-05-14 15:59:38.720,9.572740431779348e-05,30.59571897254224
2025-05-14 15:59:38.728,9.902521534908012e-05,32.35914252618384
2025-05-14 15:59:38.735,0.0001006001916865,33.78981043504966
2025-05-14 15:59:38.743,0.0001004401500274,34.88167430433661
2025-05-14 15:59:38.751,9.857856502537548e-05,35.63508607332219
2025-05-14 15:59:38.759,9.509452912575009e-05,36.0567218829424
2025-05-14 15:59:38.767,9.011119503996036e-05,36.15934981046669
2025-05-14 15:59:38.775,8.379247420885526e-05,35.96145061017147
2025-05-14 15:59:38.782,7.633787957173539e-05,35.4867049772072
2025-05-14 15:59:38.790,6.797558119700464e-05,34.7633645947199
2025-05-14 15:59:38.798,5.895394988354592e-05,33.82352719339596
2025-05-14 15:59:38.806,4.953204514331157e-05,32.70233795530043
2025-05-14 15:59:38.814,3.996962052167397e-05,31.437140787727863
2025-05-14 15:59:38.821,3.051725638982299e-05,30.06660328948482
2025-05-14 15:59:38.829,2.140718755366332e-05,28.629838695546965
2025-05-14 15:59:38.837,1.2845273922473908e-05,27.165546821849997
2025-05-14 15:59:38.845,5.004392734480849e-06,25.71119417224449
2025-05-14 15:59:38.853,-1.980626579931869e-06,24.302251060770363
2025-05-14 15:59:38.861,-8.016477039619086e-06,22.971500994767084
2025-05-14 15:59:38.868,-1.3053176707952416e-05,21.74843480006487
2025-05-14 15:59:38.876,-1.7084033597488755e-05,20.65873916850911
2025-05-14 15:59:38.884,-2.014356883565819e-05,19.72388655944192
2025-05-14 15:59:38.892,-2.2303260015756816e-05,18.9608307510584
2025-05-14 15:59:38.900,-2.3665125039099037e-05,18.381809855829157
2025-05-14 15:59:38.907,-2.435336945730836e-05,17.994256314647725
2025-05-14 15:59:38.915,-2.4504528825323973e-05,17.80081128315394
2025-05-14 15:59:38.923,-2.425673243807022e-05,17.799438925013046
2025-05-14 15:59:38.931,-2.3738876819597355e-05,17.98363442904428
2025-05-14 15:59:38.939,-2.306058857696012e-05,18.342718071970165
2025-05-14 15:59:38.946,-2.2303828090923035e-05,18.86220636627245
2025-05-14 15:59:38.954,-2.1516817891606965e-05,19.52425027776969
2025-05-14 15:59:38.962,-2.071071260045053e-05,20.308129684847877
2025-05-14 15:59:38.970,-1.9859148518021944e-05,21.19079269415928
2025-05-14 15:59:38.978,-1.8900606332339573e-05,22.14742813340897
2025-05-14 15:59:38.986,-1.774341929989141e-05,23.152059502179704
2025-05-14 15:59:38.993,-1.6273210375183465e-05,24.178148846108638
2025-05-14 15:59:39.001,-1.4362454535900804e-05,25.19919938028024
2025-05-14 15:59:39.009,-1.188168547231665e-05,26.189346171694023
2025-05-14 15:59:39.017,-8.711627641373368e-06,27.1239247505934
2025-05-14 15:59:39.025,-4.755320663565569e-06,27.98000811697623
2025-05-14 15:59:39.032,5.08004033063957e-08,28.736903210503492
2025-05-14 15:59:39.040,5.727859466792515e-06,29.37659849913048
2025-05-14 15:59:39.048,1.2248345518944953e-05,29.884154910759204
2025-05-14 15:59:39.056,1.953333698103062e-05,30.24803289776901
2025-05-14 15:59:39.064,2.7453423362153087e-05,30.460349012307823
2025-05-14 15:59:39.071,3.583329913122824e-05,30.51705600940544
2025-05-14 15:59:39.079,4.445969626955545e-05,30.41804121658113
2025-05-14 15:59:39.087,5.309203020403535e-05,30.167138754147103
2025-05-14 15:59:39.095,6.147490040361584e-05,29.77205221570384
2025-05-14 15:59:39.103,6.935146472885554e-05,29.24418568589472
2025-05-14 15:59:39.111,7.647672201487462e-05,28.59838253606175
2025-05-14 15:59:39.118,8.26298648410814e-05,27.852573328170493
2025-05-14 15:59:39.126,8.762504391627924e-05,27.027336369076384
2025-05-14 15:59:39.134,9.132005716663002e-05,26.14537694686463
2025-05-14 15:59:39.142,9.362261081394754e-05,25.230933966276964
2025-05-14 15:59:39.150,9.449391269728128e-05,24.30912546861256
2025-05-14 15:59:39.157,9.394948351895743e-05,23.40524724101229
2025-05-14 15:59:39.165,9.205720891652148e-05,22.544041248236816
2025-05-14 15:59:39.173,8.893277564552194e-05,21.748952809293097
2025-05-14 15:59:39.181,8.47327367708611e-05,21.041397144734837
2025-05-14 15:59:39.189,7.964555832887727e-05,20.44005700459062
2025-05-14 15:59:39.196,7.388111171620045e-05,19.9602334473279
2025-05-14 15:59:39.204,6.765916388314136e-05,19.6132714109456
2025-05-14 15:59:39.212,6.119747961327125e-05,19.406080468927588
2025-05-14 15:59:39.220,5.470021002743937e-05,19.34076910011575
2025-05-14 15:59:39.228,4.834728602535868e-05,19.414407960001466
2025-05-14 15:59:39.236,4.228550463208568e-05,19.61893409578932
2025-05-14 15:59:39.243,3.662184877743093e-05,19.941203909879185
2025-05-14 15:59:39.251,3.1419346271943626e-05,20.363198088483944
2025-05-14 15:59:39.259,2.669553444027159e-05,20.8623768406934
2025-05-14 15:59:39.267,2.2423427569146188e-05,21.412178824842485
2025-05-14 15:59:39.275,1.853479323587433e-05,21.982652274715
2025-05-14 15:59:39.282,1.492547727738049e-05,22.541202283088992
2025-05-14 15:59:39.290,1.146243919717938e-05,23.05343414715121
2025-05-14 15:59:39.298,7.992097775810762e-06,23.48406929437713
2025-05-14 15:59:39.306,4.3495758825406825e-06,23.7979077171918
2025-05-14 15:59:39.314,3.684571997235331e-07,23.960809139173406
2025-05-14 15:59:39.321,-4.109318054195778e-06,23.940664362735436
2025-05-14 15:59:39.329,-9.223808246449096e-06,23.70832841462924
2025-05-14 15:59:39.337,-1.508810222219233e-05,23.238488179662355
2025-05-14 15:59:39.345,-2.178047633991385e-05,22.51043913339624
2025-05-14 15:59:39.353,-2.9338107715689933e-05,21.508748469932087
2025-05-14 15:59:39.361,-3.775271553497238e-05,20.22378527434419
2025-05-14 15:59:39.368,-4.696840687777134e-05,18.652102295996112
2025-05-14 15:59:39.376,-5.688186900310653e-05,16.79665820471929
2025-05-14 15:59:39.384,-6.73448814531658e-05,14.666873809587964
2025-05-14 15:59:39.392,-7.81689477208427e-05,12.27852043949185
2025-05-14 15:59:39.400,-8.913170503011262e-05,9.653443380169715
2025-05-14 15:59:39.407,-9.998468862167408e-05,6.819127800034688
2025-05-14 15:59:39.415,-0.0001104620137668,3.8081188618217854
2025-05-14 15:59:39.423,-0.0001202895761442,0.6573116129217672
2025-05-14 15:59:39.431,-0.0001291944115915,-2.5928703098831454
2025-05-14 15:59:39.439,-0.00013691386207,-5.899385217523364
2025-05-14 15:59:39.446,-0.0001432041790052,-9.217548912388107
2025-05-14 15:59:39.454,-0.0001478482032586,-12.502049401910124
2025-05-14 15:59:39.462,-0.0001506618164559,-15.707974084891951
2025-05-14 15:59:39.470,-0.0001514989476492,-18.791822616278008
2025-05-14 15:59:39.478,-0.0001502550196335,-21.71247931537731
2025-05-14 15:59:39.486,-0.0001468688192023,-24.43212037006512
2025-05-14 15:59:39.493,-0.0001413228721292,-26.917033160002184
2025-05-14 15:59:39.501,-0.0001336424954887,-29.13832771115822
2025-05-14 15:59:39.509,-0.0001238937860998,-31.07252351382159
2025-05-14 15:59:39.517,-0.0001121808819404,-32.70199857610296
2025-05-14 15:59:39.525,-9.864289131112508e-05,-34.01529151952498
2025-05-14 15:59:39.532,-8.345088973183695e-05,-35.007251621054046
2025-05-14 15:59:39.540,-6.68052948939317e-05,-35.679035833799475
2025-05-14 15:59:39.548,-4.893373765838765e-05,-36.03795584739984
2025-05-14 15:59:39.556,-3.00893066180939e-05,-36.097182061200925
2025-05-14 15:59:39.564,-1.054883575019334e-05,-35.87531483837992
2025-05-14 15:59:39.571,9.389219235922932e-06,-35.395836504177986
2025-05-14 15:59:39.579,2.940779275235501e-05,-34.68646017680988
2025-05-14 15:59:39.587,4.917550379017926e-05,-33.7783936168453
2025-05-14 15:59:39.595,6.835245346957677e-05,-32.705537804675906
2025-05-14 15:59:39.603,8.659752085545452e-05,-31.50364088076697
2025-05-14 15:59:39.611,0.0001035769290786,-30.209428412010592
2025-05-14 15:59:39.618,0.0001189736752551,-28.85973071548376
2025-05-14 15:59:39.626,0.0001324973020151,-27.49062724781025
2025-05-14 15:59:39.634,0.0001438934405527,-26.13662694650479
2025-05-14 15:59:39.642,0.0001529525777827,-24.829901983558184
2025-05-14 15:59:39.650,0.0001595175826263,-23.5995907372309
2025-05-14 15:59:39.657,0.0001634896332833,-22.471183954870163
2025-05-14 15:59:39.665,0.0001648322729669,-21.46600609551207
2025-05-14 15:59:39.673,0.0001635733627588,-20.600801723974016
2025-05-14 15:59:39.681,0.0001598047197477,-19.887434593303805
2025-05-14 15:59:39.689,0.0001536792746597,-19.332704714131207
2025-05-14 15:59:39.696,0.0001454056803624,-18.938286281983903
2025-05-14 15:59:39.704,0.0001352404377815,-18.700786834068538
2025-05-14 15:59:39.712,0.0001234777560692,-18.611925458818817
2025-05-14 15:59:39.720,0.0001104375171062,-18.658825318201934
2025-05-14 15:59:39.728,9.64518660773534e-05,-18.82441321139714
2025-05-14 15:59:39.736,8.18510950647513e-05,-19.087916472282533
2025-05-14 15:59:39.743,6.69496120433738e-05,-19.425445231654
2025-05-14 15:59:39.751,5.203286715312992e-05,-19.81064607552208
2025-05-14 15:59:39.759,3.73461149354076e-05,-20.215411470502435
2025-05-14 15:59:39.767,2.308581536300654e-05,-20.61062805789005
2025-05-14 15:59:39.775,9.394320237774436e-06,-20.96694606315317
2025-05-14 15:59:39.782,-3.641740352816285e-06,-21.25555163021362
2025-05-14 15:59:39.790,-1.5989247391280776e-05,-21.448923857820088
2025-05-14 15:59:39.798,-2.766274970608561e-05,-21.521558663942773
2025-05-14 15:59:39.806,-3.8715486377237176e-05,-21.45064230292806
2025-05-14 15:59:39.814,-4.9228039719177705e-05,-21.21665838466229
2025-05-14 15:59:39.821,-5.929556989932879e-05,-20.80391358684017
2025-05-14 15:59:39.829,-6.90146464935567e-05,-20.20096891963337
2025-05-14 15:59:39.837,-7.847063345614741e-05,-19.40096541335256
2025-05-14 15:59:39.845,-8.772645067037373e-05,-18.40183546233188
2025-05-14 15:59:39.853,-9.681337836921882e-05,-17.2063937576136
2025-05-14 15:59:39.861,-0.0001057244058203,-15.822304732585769
2025-05-14 15:59:39.868,-0.000114410447031,-14.261926654913484
2025-05-14 15:59:39.876,-0.0001227795532069,-12.542035823830783
2025-05-14 15:59:39.884,-0.0001306990586518,-10.683437653582748
2025-05-14 15:59:39.892,-0.0001380004326482,-8.71047461207761
2025-05-14 15:59:39.900,-0.0001444865024679,-6.650443911917369
2025-05-14 15:59:39.907,-0.0001499406634409,-4.532940404512887
2025-05-14 15:59:39.915,-0.0001541376694845,-2.389142213056603
2025-05-14 15:59:39.923,-0.0001568555580932,-0.2510581915114964
2025-05-14 15:59:39.931,-0.0001578881861898,1.8492427177015929
2025-05-14 15:59:39.939,-0.0001570577619465,3.880399738477083
2025-05-14 15:59:39.946,-0.0001542267026631,5.812505778819197
2025-05-14 15:59:39.954,-0.0001493081563219,7.617810537224551
2025-05-14 15:59:39.962,-0.0001422745831123,9.271362712046264
2025-05-14 15:59:39.970,-0.0001331638819802,10.75157450481306
2025-05-14 15:59:39.978,-0.0001220826556892,12.040693739929871
2025-05-14 15:59:39.986,-0.0001092063332762,13.125171470278278
2025-05-14 15:59:39.993,-9.477600964973436e-05,13.995915853185984
2025-05-14 15:59:40.001,-7.909201642812688e-05,14.648426300533076
2025-05-14 15:59:40.009,-6.250440341152849e-05,15.082805346808902
2025-05-14 15:59:40.017,-4.540068319632857e-05,15.30364924046299
2025-05-14 15:59:40.025,-2.8191368610898923e-05,15.319821839365307
2025-05-14 15:59:40.032,-1.129400785962211e-05,15.144119866170325
2025-05-14 15:59:40.040,4.883420799519176e-06,14.79284082958686
2025-05-14 15:59:40.048,1.995879180897828e-05,14.285267811473464
2025-05-14 15:59:40.056,3.359083306971155e-05,13.643087730369505
2025-05-14 15:59:40.064,4.54920151313159e-05,12.889761511528963
2025-05-14 15:59:40.071,5.543871899570756e-05,12.04986574224545
2025-05-14 15:59:40.079,6.327830909751833e-05,11.148425822840675
2025-05-14 15:59:40.087,6.893293888012678e-05,10.210260328562208
2025-05-14 15:59:40.095,7.240008671266707e-05,9.25935530700796
2025-05-14 15:59:40.103,7.374999058125171e-05,8.318285621350421
2025-05-14 15:59:40.111,7.312031790940304e-05,7.407698314622567
2025-05-14 15:59:40.118,7.070853320521959e-05,6.545870432546131
2025-05-14 15:59:40.126,6.676248827275205e-05,5.748350920156481
2025-05-14 15:59:40.134,6.156976948399992e-05,5.027693214638067
2025-05-14 15:59:40.142,5.544630940082945e-05,4.393282105678727
2025-05-14 15:59:40.150,4.872470755109747e-05,3.8512554380125503
2025-05-14 15:59:40.157,4.174262137204539e-05,3.404518395931959
2025-05-14 15:59:40.165,3.4831523561978025e-05,3.052845528935541
2025-05-14 15:59:40.173,2.8306102411253255e-05,2.7930634235554903
2025-05-14 15:59:40.181,2.245458543130202e-05,2.619305048065658
2025-05-14 15:59:40.189,1.7530257696690545e-05,2.523325318158774
2025-05-14 15:59:40.196,1.3744416388037544e-05,2.4948663534170445
2025-05-14 15:59:40.204,1.1260963627830986e-05,2.5220602038329623
2025-05-14 15:59:40.212,1.01927975149307e-05,2.591856509061893
2025-05-14 15:59:40.220,1.0600108118861923e-05,2.690462600433405
2025-05-14 15:59:40.228,1.249060009172123e-05,2.80378395507232
2025-05-14 15:59:40.236,1.5821536330257363e-05,2.917853639424444
2025-05-14 15:59:40.243,2.050336307674571e-05,3.019240395613052
2025-05-14 15:59:40.251,2.6404605702135895e-05,3.095426271282986
2025-05-14 15:59:40.259,3.3357750987975195e-05,3.13514610122068
2025-05-14 15:59:40.267,4.1165909115877946e-05,3.1286826367658005
2025-05-14 15:59:40.275,4.96100923310581e-05,3.068112604679099
2025-05-14 15:59:40.282,5.845692162925107e-05,2.94750038882447
2025-05-14 15:59:40.290,6.74665133660639e-05,2.763037315813957
2025-05-14 15:59:40.298,7.640025945900541e-05,2.5131256662834764
2025-05-14 15:59:40.306,8.502822962055856e-05,2.1984075253561373
2025-05-14 15:59:40.314,9.313599257498569e-05,1.8217394409368053
2025-05-14 15:59:40.321,0.0001005307419117,1.388114596904119
2025-05-14 15:59:40.329,0.0001070466691811,0.9045348592542928
2025-05-14 15:59:40.337,0.0001125495195183,0.3798356545953353
2025-05-14 15:59:40.345,0.0001169401962741,-0.1755327680992496
2025-05-14 15:59:40.353,0.0001201571855343,-0.7497635264704562
2025-05-14 15:59:40.361,0.0001221775094254,-1.3299859192222865
2025-05-14 15:59:40.368,0.0001230159398834,-1.9025873363554016
2025-05-14 15:59:40.376,0.0001227223130211,-2.4535580103108057
2025-05-14 15:59:40.384,0.0001213769402712,-2.968851653703373
2025-05-14 15:59:40.392,0.000119084281137,-3.434754409128564
2025-05-14 15:59:40.400,0.0001159652076536,-3.8382540392995934
2025-05-14 15:59:40.407,0.0001121483463139,-4.16740094031201
2025-05-14 15:59:40.415,0.000107761123152,-4.411652388339194
2025-05-14 15:59:40.423,0.0001029212462767,-4.5621914523454095
2025-05-14 15:59:40.431,9.772940146936489e-05,-4.612212244492309
2025-05-14 15:59:40.439,9.226386367327247e-05,-4.55716365115482
2025-05-14 15:59:40.446,8.657752189912644e-05,-4.394944394226334
2025-05-14 15:59:40.454,8.069751885847565e-05,-4.126043206072269
2025-05-14 15:59:40.462,7.462740667950603e-05,-3.7536190435177694
2025-05-14 15:59:40.470,6.83514936965569e-05,-3.283517588764136
2025-05-14 15:59:40.478,6.184091556486952e-05,-2.724221751787305
2025-05-14 15:59:40.486,5.506085612091252e-05,-2.08673545942804
2025-05-14 15:59:40.493,4.797823719624382e-05,-1.3844016547189912
2025-05-14 15:59:40.501,4.0569131517544655e-05,-0.632657106874532
2025-05-14 15:59:40.509,3.282518832147905e-05,0.1512716807686847
2025-05-14 15:59:40.517,2.4758502876325755e-05,0.9487255197861568
2025-05-14 15:59:40.525,1.6404560042924248e-05,1.7400150221206738
2025-05-14 15:59:40.532,7.82307956669185e-06,2.5048595685950743
2025-05-14 15:59:40.540,-9.032438743844182e-07,3.2228525743531917
2025-05-14 15:59:40.548,-9.671965312132413e-06,3.873941879655173
2025-05-14 15:59:40.556,-1.8365778811731507e-05,4.438913388886802
2025-05-14 15:59:40.564,-2.685861323213784e-05,4.899865670560698
2025-05-14 15:59:40.571,-3.5022373154030487e-05,5.240663117979653
2025-05-14 15:59:40.579,-4.273374203376295e-05,5.447355449464659
2025-05-14 15:59:40.587,-4.98804988903513e-05,5.5085517967013535
2025-05-14 15:59:40.595,-5.6366867664860826e-05,5.415738394969917
2025-05-14 15:59:40.603,-6.211753069598286e-05,5.163529960495663
2025-05-14 15:59:40.611,-6.708010078267123e-05,4.749846230156089
2025-05-14 15:59:40.618,-7.122603045748773e-05,4.176006857223802
2025-05-14 15:59:40.626,-7.455009425408949e-05,3.4467399058863424
2025-05-14 15:59:40.634,-7.706868083602685e-05,2.5701015523271
2025-05-14 15:59:40.642,-7.881718574385019e-05,1.557307238768617
2025-05-14 15:59:40.650,-7.984682424336609e-05,0.4224773610797249
2025-05-14 15:59:40.657,-8.022118743047865e-05,-0.817696513953978
2025-05-14 15:59:40.665,-8.001283289434032e-05,-2.144356052465473
2025-05-14 15:59:40.673,-7.930014570933668e-05,-3.5369396988597783
2025-05-14 15:59:40.681,-7.816465514328707e-05,-4.973691636318845
2025-05-14 15:59:40.689,-7.668895777345806e-05,-6.4322007148206
2025-05-14 15:59:40.696,-7.49553575457782e-05,-7.889952806337082
2025-05-14 15:59:40.704,-7.304525848191732e-05,-9.324879633151072
2025-05-14 15:59:40.712,-7.10392277808044e-05,-10.715887377814935
2025-05-14 15:59:40.720,-6.901751329745187e-05,-12.043349277965609
2025-05-14 15:59:40.728,-6.706070700630434e-05,-13.289547864050746
2025-05-14 15:59:40.736,-6.525023603667487e-05,-14.439054422034896
2025-05-14 15:59:40.743,-6.366841447806254e-05,-15.479035551509696
2025-05-14 15:59:40.751,-6.239785169201702e-05,-16.39947923165209
2025-05-14 15:59:40.759,-6.152007592182518e-05,-17.193335498231562
2025-05-14 15:59:40.767,-6.111332581677106e-05,-17.856569581946516
2025-05-14 15:59:40.775,-6.124959336982392e-05,-18.388128078933907
2025-05-14 15:59:40.782,-6.199112083384296e-05,-18.78982134025669
2025-05-14 15:59:40.790,-6.338660154194641e-05,-19.06612770690528
2025-05-14 15:59:40.798,-6.546730827606874e-05,-19.223927420549213
2025-05-14 15:59:40.806,-6.8243340349907e-05,-19.27217596122599
2025-05-14 15:59:40.814,-7.170020940471318e-05,-19.221528163195597
2025-05-14 15:59:40.821,-7.579607230699606e-05,-19.083925704831344
2025-05-14 15:59:40.829,-8.046000629203979e-05,-18.87216142684864
2025-05-14 15:59:40.837,-8.55917469093614e-05,-18.599434381875074
2025-05-14 15:59:40.845,-9.10632500493371e-05,-18.27890954339428
2025-05-14 15:59:40.853,-9.672229469990116e-05,-17.92329569909135
2025-05-14 15:59:40.861,-0.0001023981189533,-17.54445422902198
2025-05-14 15:59:40.868,-0.000107908806659,-17.153050243556255
2025-05-14 15:59:40.876,-0.0001130698824169,-16.758255967105267
2025-05-14 15:59:40.884,-0.0001177034057984,-16.367514353684868
2025-05-14 15:59:40.892,-0.0001216468202271,-15.98636877330316
2025-05-14 15:59:40.900,-0.0001247608879777,-15.618362287651564
2025-05-14 15:59:40.907,-0.0001269361821394,-15.26500762387752
2025-05-14 15:59:40.915,-0.0001280977704111,-14.925826550325771
2025-05-14 15:59:40.923,-0.0001282078879946,-14.5984550565338
2025-05-14 15:59:40.931,-0.0001272665301517,-14.278808636420484
2025-05-14 15:59:40.939,-0.0001253099828757,-13.961300153001428
2025-05-14 15:59:40.946,-0.0001224073739461,-13.639101294208642
2025-05-14 15:59:40.954,-0.0001186554114983,-13.30443756077288
2025-05-14 15:59:40.962,-0.0001141716045933,-12.948906079357936
2025-05-14 15:59:40.970,-0.0001090864123597,-12.563805297326809
2025-05-14 15:59:40.978,-0.0001035349082056,-12.1404657542546
2025-05-14 15:59:40.986,-9.764862688223906e-05,-11.670571588710631
2025-05-14 15:59:40.993,-9.15482369640995e-05,-11.14646316966106
2025-05-14 15:59:41.001,-8.533753803750504e-05,-10.561412184286842
2025-05-14 15:59:41.009,-7.909907172736309e-05,-9.909861623669372
2025-05-14 15:59:41.017,-7.289143649326615e-05,-9.18762436089252
2025-05-14 15:59:41.025,-6.674825574697865e-05,-8.392035408526612
2025-05-14 15:59:41.032,-6.0678673649876296e-05,-7.522054474414822
2025-05-14 15:59:41.040,-5.466922388426881e-05,-6.578317089321638
2025-05-14 15:59:41.048,-4.868689987758469e-05,-5.563134310526258
2025-05-14 15:59:41.056,-4.268321771610916e-05,-4.480442738892715
2025-05-14 15:59:41.064,-3.659899468882054e-05,-3.335708238591876
2025-05-14 15:59:41.071,-3.0369491944478264e-05,-2.135788234382363
2025-05-14 15:59:41.079,-2.39295437151656e-05,-0.8887587038402249
2025-05-14 15:59:41.087,-1.7218356220930564e-05,0.3962870843630141
2025-05-14 15:59:41.095,-1.018378164129347e-05,1.7094604567345697
2025-05-14 15:59:41.103,-2.785991719444482e-06,3.040312014578692
2025-05-14 15:59:41.111,4.9994516332445e-06,4.37807144226373
2025-05-14 15:59:41.118,1.31791088977993e-05,5.711885276813061
2025-05-14 15:59:41.126,2.173974747698348e-05,7.0310462357256345
2025-05-14 15:59:41.134,3.064700300089424e-05,8.325208645132616
2025-05-14 15:59:41.142,3.98446410502624e-05,9.584585537696974
2025-05-14 15:59:41.150,4.925447620705674e-05,10.800124003017492
2025-05-14 15:59:41.157,5.87770429464315e-05,11.963656297567608
2025-05-14 15:59:41.165,6.829312505074242e-05,13.06802501305081
2025-05-14 15:59:41.173,7.766623582220792e-05,14.107181249692491
2025-05-14 15:59:41.181,8.674612470640666e-05,15.076255257669928
2025-05-14 15:59:41.189,9.537335731165431e-05,15.9715994271913
2025-05-14 15:59:41.196,0.0001033849286705,16.790803868096603
2025-05-14 15:59:41.204,0.0001106207155799,17.53268516620257
2025-05-14 15:59:41.212,0.0001169304173299,18.197249269900944
2025-05-14 15:59:41.220,0.0001221805479287,18.78562986806981
2025-05-14 15:59:41.228,0.0001262610405118,19.3000040788105
2025-05-14 15:59:41.236,0.000129091072617,19.7434877757157
2025-05-14 15:59:41.243,0.0001306237876384,20.12001341742407
2025-05-14 15:59:41.251,0.000130849660371,20.434193784949606
2025-05-14 15:59:41.259,0.0001297983302669,20.691175528642088
2025-05-14 15:59:41.267,0.0001275388036808,20.89648684238923
2025-05-14 15:59:41.275,0.0001241780049254,21.0558838820524
2025-05-14 15:59:41.282,0.0001198577343159,21.17520069612468
2025-05-14 15:59:41.290,0.0001147501685164,21.260207406026417
2025-05-14 15:59:41.298,0.0001090521132842,21.31648112993803
2025-05-14 15:59:41.306,0.0001029782883453,21.349293668267645
2025-05-14 15:59:41.314,9.675397762807234e-05,21.36351926176425
2025-05-14 15:59:41.322,9.06073934221305e-05,21.36356481649424
2025-05-14 15:59:41.329,8.476206747438076e-05,21.35332390374138
2025-05-14 15:59:41.337,7.942952027141237e-05,21.336154649349368
2025-05-14 15:59:41.345,7.480241989090611e-05,21.31488041133685
2025-05-14 15:59:41.353,7.104844634016234e-05,21.29181100598238
2025-05-14 15:59:41.361,6.830510276361956e-05,21.268781276560556
2025-05-14 15:59:41.368,6.667571554007437e-05,21.2472030822388
2025-05-14 15:59:41.376,6.622680742093671e-05,21.228126366685714
2025-05-14 15:59:41.384,6.698691237264968e-05,21.212304863716717
2025-05-14 15:59:41.392,6.894676316709984e-05,21.20026219359173
2025-05-14 15:59:41.400,7.20606722681499e-05,21.192354551326027
2025-05-14 15:59:41.407,7.624887834129861e-05,21.18882682077695
2025-05-14 15:59:41.415,8.140064662145836e-05,21.18985968927148
2025-05-14 15:59:41.423,8.737796483038482e-05,21.1956061095065
2025-05-14 15:59:41.431,9.401973129161934e-05,21.20621618673893
2025-05-14 15:59:41.439,0.0001011463540283,21.221850205088423
2025-05-14 15:59:41.447,0.0001085646523608,21.24268001991868
2025-05-14 15:59:41.454,0.0001160728987874,21.26887943697258
2025-05-14 15:59:41.462,0.0001234658057058,21.30060449877474
2025-05-14 15:59:41.470,0.0001305392724333,21.33796483948403
2025-05-14 15:59:41.478,0.0001370947494151,21.38098748445241
2025-05-14 15:59:41.486,0.0001429431257779,21.429574687539088
2025-05-14 15:59:41.493,0.0001479080921217,21.48345763498993
2025-05-14 15:59:41.501,0.000151828969792,21.54214810134564
2025-05-14 15:59:41.509,0.0001545630300393,21.60489040275991
2025-05-14 15:59:41.517,0.0001559873511279,21.670616219657017
2025-05-14 15:59:41.525,0.0001560002787003,21.737905003850333
2025-05-14 15:59:41.532,0.0001545225650532,21.804952691211
2025-05-14 15:59:41.540,0.0001514982672843,21.86955126374348
2025-05-14 15:59:41.548,0.0001468954837112,21.929081318117756
2025-05-14 15:59:41.556,0.0001407070039077,21.9805192044951
2025-05-14 15:59:41.564,0.0001329509401027,22.020459537803493
2025-05-14 15:59:41.572,0.000123671388446,22.0451530210624
2025-05-14 15:59:41.579,0.0001129391188024,22.050558639066963
2025-05-14 15:59:41.587,0.000100852201608,22.03240846266104
2025-05-14 15:59:41.595,8.753637763078127e-05,21.98628262383439
2025-05-14 15:59:41.603,7.314491217968877e-05,21.90769154399748
2025-05-14 15:59:41.611,5.785767614908372e-05,21.79216226696605
2025-05-14 15:59:41.618,4.1879250701539576e-05,21.635325779838457
2025-05-14 15:59:41.626,2.543593858952712e-05,21.433002480342456
2025-05-14 15:59:41.634,8.771671391797841e-06,21.18128341936941
2025-05-14 15:59:41.642,-7.857077796881026e-06,20.876605541188084
2025-05-14 15:59:41.650,-2.418714738405716e-05,20.515819775978677
2025-05-14 15:59:41.657,-3.9954995129763305e-05,20.0962514186634
2025-05-14 15:59:41.665,-5.4903151701487526e-05,19.615752670036507
2025-05-14 15:59:41.673,-6.878660740032783e-05,19.072747461471437
2025-05-14 15:59:41.681,-8.137905198358799e-05,18.466268715750783
2025-05-14 15:59:41.689,-9.247896001059644e-05,17.79598804341979
2025-05-14 15:59:41.697,-0.0001019154709175,17.062237601404924
2025-05-14 15:59:41.704,-0.0001095538795703,16.26602352935922
2025-05-14 15:59:41.712,-0.0001153004123201,15.409030109375166
2025-05-14 15:59:41.720,-0.0001191059007712,14.493613633750652
2025-05-14 15:59:41.728,-0.0001209680190507,13.52278495866886
2025-05-14 15:59:41.736,-0.0001209318976407,12.50017988544172
2025-05-14 15:59:41.743,-0.0001190891074459,11.430016833142744
2025-05-14 15:59:41.751,-0.0001155751537107,10.317041712442569
2025-05-14 15:59:41.759,-0.0001105656819206,9.166460429700216
2025-05-14 15:59:41.767,-0.0001042715834297,7.98385998037981
2025-05-14 15:59:41.775,-9.693315863209444e-05,6.775119564561817
2025-05-14 15:59:41.782,-8.881349884555016e-05,5.54631351802306
2025-05-14 15:59:41.790,-8.019127339056972e-05,4.303608072060755
2025-05-14 15:59:41.798,-7.135312204564103e-05,3.053154044694284
2025-05-14 15:59:41.806,-6.25858460845919e-05,1.8009775685878748
2025-05-14 15:59:41.814,-5.416856789027615e-05,0.5528709346609167
2025-05-14 15:59:41.822,-4.636498794121418e-05,-0.685714373043141
2025-05-14 15:59:41.829,-3.9415822046433706e-05,-1.9097703228170144
2025-05-14 15:59:41.837,-3.353149670308569e-05,-3.11482841561968
2025-05-14 15:59:41.845,-2.8885250339905485e-05,-4.297046792214482
2025-05-14 15:59:41.853,-2.5606898674763205e-05,-5.453285791601712
2025-05-14 15:59:41.861,-2.3777596596551905e-05,-6.581169265552202
2025-05-14 15:59:41.868,-2.3425930153686025e-05,-7.679128935443122
2025-05-14 15:59:41.876,-2.4525624763974228e-05,-8.746429206956412
2025-05-14 15:59:41.884,-2.6995090545999828e-05,-9.783170172955751
2025-05-14 15:59:41.892,-3.069895132082055e-05,-10.790267058541309
2025-05-14 15:59:41.900,-3.545162428318235e-05,-11.769405095530656
2025-05-14 15:59:41.907,-4.102293504209547e-05,-12.722969725816792
2025-05-14 15:59:41.915,-4.714566538626948e-05,-13.653953063456148
2025-05-14 15:59:41.923,-5.3524840013775306e-05,-14.565838614630913
2025-05-14 15:59:41.931,-5.984845871336693e-05,-15.462467278986592
2025-05-14 15:59:41.939,-6.579926138614923e-05,-16.347888558609203
2025-05-14 15:59:41.947,-7.106699781770135e-05,-17.226201623495257
2025-05-14 15:59:41.954,-7.536062456728687e-05,-18.101391391811937
2025-05-14 15:59:41.962,-7.841990196622463e-05,-18.97716506990592
2025-05-14 15:59:41.970,-8.002596944266093e-05,-19.856794664116183
2025-05-14 15:59:41.978,-8.001055589336877e-05,-20.74297083094205
2025-05-14 15:59:41.986,-7.82635074802561e-05,-21.637673082969048
2025-05-14 15:59:41.993,-7.473833596646903e-05,-22.54206082926295
2025-05-14 15:59:42.001,-6.945555176751052e-05,-23.456389022268173
2025-05-14 15:59:42.009,-6.250363433164199e-05,-24.379951336943503
2025-05-14 15:59:42.017,-5.403757496024216e-05,-25.31105285609896
2025-05-14 15:59:42.025,-4.427500327509245e-05,-26.247013219884444
2025-05-14 15:59:42.032,-3.3490000804925875e-05,-27.18420016643542
2025-05-14 15:59:42.040,-2.200481268153784e-05,-28.11809239788373
2025-05-14 15:59:42.048,-1.0179755355528518e-05,-29.04336979768368
2025-05-14 15:59:42.056,1.598339391939328e-06,-29.95402823097633
2025-05-14 15:59:42.064,1.2928783119108512e-05,-30.84351549005337
2025-05-14 15:59:42.072,2.3410397220905743e-05,-31.704884400474626
2025-05-14 15:59:42.079,3.26551475683425e-05,-32.5309586751693
2025-05-14 15:59:42.087,4.03015857395179e-05,-33.31450678869917
2025-05-14 15:59:42.095,4.602765864910788e-05,-34.04841893559144
2025-05-14 15:59:42.103,4.956249575332825e-05,-34.72588202916455
2025-05-14 15:59:42.111,5.0696808417896506e-05,-35.34054768842418
2025-05-14 15:59:42.118,4.929151930743371e-05,-35.886688255583
2025-05-14 15:59:42.126,4.5284206666135935e-05,-36.35933609837568
2025-05-14 15:59:42.134,3.869294722811097e-05,-36.75440179709495
2025-05-14 15:59:42.142,2.9617208105729577e-05,-37.06876731351942
2025-05-14 15:59:42.150,1.823557500506032e-05,-37.300350898929054
2025-05-14 15:59:42.157,4.800287214310425e-06,-37.4481413185357
2025-05-14 15:59:42.165,-1.0371247029720933e-05,-37.51219992606704
2025-05-14 15:59:42.173,-2.6907573500197708e-05,-37.49363017081956
2025-05-14 15:59:42.181,-4.43963773338064e-05,-37.394515206338376
2025-05-14 15:59:42.189,-6.239901028707841e-05,-37.21782534261836
2025-05-14 15:59:42.197,-8.046559190156792e-05,-36.96729809550045
2025-05-14 15:59:42.204,-9.814997909948114e-05,-36.6472944952996
2025-05-14 15:59:42.212,-0.0001150240237273,-36.262636085277336
2025-05-14 15:59:42.220,-0.0001306906611604,-35.81842764604933
2025-05-14 15:59:42.228,-0.0001447954793082,-35.31987111954958
2025-05-14 15:59:42.236,-0.000157036525718,-34.77207648600867
2025-05-14 15:59:42.243,-0.0001671722084571,-34.17987548524811
2025-05-14 15:59:42.251,-0.000175027185039,-33.54764408444261
2025-05-14 15:59:42.259,-0.0001804961023863,-32.879139493824766
2025-05-14 15:59:42.267,-0.0001835450122058,-32.17735733650302
2025-05-14 15:59:42.275,-0.0001842103114225,-31.444414299718623
2025-05-14 15:59:42.282,-0.0001825951585279,-30.6814612259698
2025-05-14 15:59:42.290,-0.0001788634591198,-29.88863111451633
2025-05-14 15:59:42.298,-0.0001732316628837,-29.065025852090717
2025-05-14 15:59:42.306,-0.0001659587461248,-28.208744627128457
2025-05-14 15:59:42.314,-0.0001573348439293,-27.316955861486008
2025-05-14 15:59:42.322,-0.0001476690303674,-26.386013092648145
2025-05-14 15:59:42.329,-0.0001372767460698,-25.41161356799349
2025-05-14 15:59:42.337,-0.0001264673776517,-24.388996429634187
2025-05-14 15:59:42.345,-0.0001155325040247,-23.31317538004264
2025-05-14 15:59:42.353,-0.000104735305292,-22.17919876143968
2025-05-14 15:59:42.361,-9.430156221077272e-05,-20.98242819967553
2025-05-14 15:59:42.368,-8.441258170008309e-05,-19.718825492226834
2025-05-14 15:59:42.376,-7.520030363461166e-05,-18.38523638031124
2025-05-14 15:59:42.384,-6.674478796995103e-05,-16.97965933409141
2025-05-14 15:59:42.392,-5.907422704358172e-05,-15.501487561526291
2025-05-14 15:59:42.400,-5.216754353348782e-05,-13.951713148692091
2025-05-14 15:59:42.407,-4.595950026081385e-05,-12.333083532034312
2025-05-14 15:59:42.415,-4.0348068672495256e-05,-10.650202328085324
2025-05-14 15:59:42.423,-3.520362251551779e-05,-8.90956879948297
2025-05-14 15:59:42.431,-3.037940569696357e-05,-7.1195527773801
2025-05-14 15:59:42.439,-2.5722684668072104e-05,-5.290304527182896
2025-05-14 15:59:42.447,-2.1085979286833095e-05,-3.4336016737919604
2025-05-14 15:59:42.454,-1.6337716600782016e-05,-1.5626377503566855
2025-05-14 15:59:42.462,-1.1371593773577902e-05,0.3082409107176191
2025-05-14 15:59:42.470,-6.11395163240634e-06,2.16384143907142
2025-05-14 15:59:42.478,-5.286011857636687e-07,3.9884639546007863
2025-05-14 15:59:42.486,5.381215179570448e-06,5.766263511247979
2025-05-14 15:59:42.493,1.1573790941700626e-05,7.481623039180449
2025-05-14 15:59:42.501,1.797271819044635e-05,9.11952568118882
2025-05-14 15:59:42.509,2.4473183474618075e-05,10.665915093932629
2025-05-14 15:59:42.517,3.095040971404774e-05,12.108032809285978
2025-05-14 15:59:42.525,3.72696837145441e-05,13.43472261050538
2025-05-14 15:59:42.532,4.329721487370912e-05,14.6366930467909
2025-05-14 15:59:42.540,4.891094259937765e-05,15.706730652101362
2025-05-14 15:59:42.548,5.401040610288235e-05,16.63985810587582
2025-05-14 15:59:42.556,5.85248995480703e-05,17.433433420803013
2025-05-14 15:59:42.564,6.241931060171115e-05,18.08718819873164
2025-05-14 15:59:42.572,6.569724311673768e-05,18.6032049812886
2025-05-14 15:59:42.579,6.840123733019317e-05,18.985835654513604
2025-05-14 15:59:42.587,7.061011557014505e-05,19.24156467071717
2025-05-14 15:59:42.595,7.24336917256447e-05,19.378822460328173
2025-05-14 15:59:42.603,7.4005282477339e-05,19.407755766550714
2025-05-14 15:59:42.611,7.547263995981456e-05,19.33996270212752
2025-05-14 15:59:42.618,7.698807221054339e-05,19.188201071997707
2025-05-14 15:59:42.626,7.869859233725539e-05,18.966078918625044
2025-05-14 15:59:42.634,8.073689362865912e-05,18.687736334561777
2025-05-14 15:59:42.642,8.321377628750989e-05,18.36752736618144
2025-05-14 15:59:42.650,8.621241368330745e-05,18.019710330663077
2025-05-14 15:59:42.657,8.978463989406027e-05,17.65815412700618
2025-05-14 15:59:42.665,9.394931659614618e-05,17.296067197145934
2025-05-14 15:59:42.673,9.869275718134017e-05,16.945754746920603
2025-05-14 15:59:42.681,0.0001039710728394,16.618408725226292
2025-05-14 15:59:42.689,0.0001097141393121,16.32393392791328
2025-05-14 15:59:42.697,0.0001158307260057,16.07081247287483
2025-05-14 15:59:42.704,0.0001222142526455,15.866007804771291
2025-05-14 15:59:42.712,0.0001287486543722,15.714908342290398
2025-05-14 15:59:42.720,0.0001353139086306,15.621309883552028
2025-05-14 15:59:42.728,0.0001417908722481,15.587434947527791
2025-05-14 15:59:42.736,0.0001480651796005,15.613986374474054
2025-05-14 15:59:42.743,0.0001540300572899,15.700231766953062
2025-05-14 15:59:42.751,0.0001595880137446,15.844114752607606
2025-05-14 15:59:42.759,0.00016465146022,16.042388610292626
2025-05-14 15:59:42.767,0.0001691424098213,16.290767535325255
2025-05-14 15:59:42.775,0.0001729914790885,16.584090731270514
2025-05-14 15:59:42.782,0.0001761364704495,16.91649459363268
2025-05-14 15:59:42.790,0.0001785208210725,17.281588467557658
2025-05-14 15:59:42.798,0.0001800921518054,17.672629780986682
2025-05-14 15:59:42.806,0.0001808010645181,18.08269474259309
2025-05-14 15:59:42.814,0.0001806002667478,18.504841223182503
2025-05-14 15:59:42.822,0.0001794440752097,18.93226088631409
2025-05-14 15:59:42.829,0.000177288353087,19.358418073050533
2025-05-14 15:59:42.837,0.0001740909493561,19.77717335044265
2025-05-14 15:59:42.845,0.0001698127203776,20.18288998436393
2025-05-14 15:59:42.853,0.0001644192132849,20.570521890940203
2025-05-14 15:59:42.861,0.0001578830567677,20.935681870667263
2025-05-14 15:59:42.868,0.0001501870249481,21.27468916172845
2025-05-14 15:59:42.876,0.0001413276309159,21.584595596741178
2025-05-14 15:59:42.884,0.0001313189974668,21.86318994250563
2025-05-14 15:59:42.892,0.0001201966584889,22.10898036886327
2025-05-14 15:59:42.900,0.000108020879647,22.321155438030697
2025-05-14 15:59:42.907,9.487907955723656e-05,22.499524520928865
2025-05-14 15:59:42.915,8.088699711840943e-05,22.64443911338568
2025-05-14 15:59:42.923,6.618837137026779e-05,22.75669712008737
2025-05-14 15:59:42.931,5.095305123822364e-05,22.83743277152853
2025-05-14 15:59:42.939,3.537360997906154e-05,22.88799540666573
2025-05-14 15:59:42.947,1.9660675652488346e-05,22.909820855387693
2025-05-14 15:59:42.954,4.037285913899614e-06,22.904299556926627
2025-05-14 15:59:42.962,-1.1267358439707202e-05,22.87264582613667
2025-05-14 15:59:42.970,-2.602432022353627e-05,22.815772807510204
2025-05-14 15:59:42.978,-4.00111092460429e-05,22.73417762004824
2025-05-14 15:59:42.986,-5.301727394638131e-05,22.62784098703561
2025-05-14 15:59:42.993,-6.484919230000586e-05,22.496145269606977
2025-05-14 15:59:43.001,-7.533399485141728e-05,22.33781430071812
2025-05-14 15:59:43.009,-8.432264702413095e-05,22.150877773013
2025-05-14 15:59:43.017,-9.169226383471805e-05,21.93266219891157
2025-05-14 15:59:43.025,-9.734775026016176e-05,21.679809664172787
2025-05-14 15:59:43.032,-0.0001012228653748,21.38832476962641
2025-05-14 15:59:43.040,-0.0001032808076367,21.0536493341378
2025-05-14 15:59:43.048,-0.0001035144287766,20.67076364763737
2025-05-14 15:59:43.056,-0.0001019461978699,20.234312340970902
2025-05-14 15:59:43.064,-9.862802728716837e-05,19.73875229293556
2025-05-14 15:59:43.072,-9.364103230543156e-05,19.178519425900955
2025-05-14 15:59:43.079,-8.709524246590504e-05,18.54821073989364
2025-05-14 15:59:43.087,-7.912921739658276e-05,17.842777480280787
2025-05-14 15:59:43.095,-6.990943555267917e-05,17.057724901474284
2025-05-14 15:59:43.103,-5.9629237408436105e-05,16.18931366311186
2025-05-14 15:59:43.111,-4.850705577795872e-05,15.234757483255375
2025-05-14 15:59:43.118,-3.678368947723442e-05,14.192411307364948
2025-05-14 15:59:43.126,-2.471847302511053e-05,13.06194397933428
2025-05-14 15:59:43.134,-1.258432962674364e-05,11.844489272204893
2025-05-14 15:59:43.142,-6.618177725788446e-07,10.542769198387948
2025-05-14 15:59:43.150,1.0767642827472746e-05,9.161183811635524
2025-05-14 15:59:43.157,2.142915467872592e-05,7.705862262118269
2025-05-14 15:59:43.165,3.1062117810221785e-05,6.184670681393161
2025-05-14 15:59:43.173,3.9428156916497546e-05,4.607173547651923
2025-05-14 15:59:43.181,4.631891108214944e-05,2.9845464894091065
2025-05-14 15:59:43.189,5.156333647626664e-05,1.3294399897384128
2025-05-14 15:59:43.197,5.503411562436748e-05,-0.3442048986926009
2025-05-14 15:59:43.204,5.665272705393167e-05,-2.02138599138543
2025-05-14 15:59:43.212,5.639274214690449e-05,-3.686309998909828
2025-05-14 15:59:43.220,5.4281020967614246e-05,-5.322696931750827
2025-05-14 15:59:43.228,5.039667076440881e-05,-6.914111183124148
2025-05-14 15:59:43.236,4.486785937829677e-05,-8.444310333476842
2025-05-14 15:59:43.243,3.786678104823058e-05,-9.897601760322225
2025-05-14 15:59:43.251,2.960321292906198e-05,-11.259196520057785
2025-05-14 15:59:43.259,2.031716260156989e-05,-12.51554972102985
2025-05-14 15:59:43.267,1.027108969119408e-05,-13.65467674038145
2025-05-14 15:59:43.275,-2.5790748457996175e-07,-14.666435155266344
2025-05-14 15:59:43.282,-1.098569203708716e-05,-15.542763162150502
2025-05-14 15:59:43.290,-2.162836832264939e-05,-16.27786653650554
2025-05-14 15:59:43.298,-3.190923037738876e-05,-16.868347809327105
2025-05-14 15:59:43.306,-4.1565416320820767e-05,-17.313273250893836
2025-05-14 15:59:43.314,-5.035431802750728e-05,-17.614175377831685
2025-05-14 15:59:43.322,-5.8059759227651466e-05,-17.774990943797174
2025-05-14 15:59:43.329,-6.449786798995022e-05,-17.801936634541583
2025-05-14 15:59:43.337,-6.952247279275532e-05,-17.70332685693746
2025-05-14 15:59:43.345,-7.302978725829403e-05,-17.489339982178752
2025-05-14 15:59:43.353,-7.496211598237251e-05,-17.171741079964708
2025-05-14 15:59:43.361,-7.531030414065416e-05,-16.763570486128593
2025-05-14 15:59:43.368,-7.411468346190348e-05,-16.278808427948544
2025-05-14 15:59:43.376,-7.146434891195104e-05,-15.732026363952537
2025-05-14 15:59:43.384,-6.749471670363638e-05,-15.138035683883713
2025-05-14 15:59:43.392,-6.238343180954777e-05,-14.511543995732472
2025-05-14 15:59:43.400,-5.6344778727774926e-05,-13.86682845985826
2025-05-14 15:59:43.407,-4.962278698685259e-05,-13.21743458620908
2025-05-14 15:59:43.415,-4.248323440185722e-05,-12.575907663266369
2025-05-14 15:59:43.423,-3.5204773457136544e-05,-11.953562610867602
2025-05-14 15:59:43.431,-2.8069441579919076e-05,-11.360296616473848
2025-05-14 15:59:43.439,-2.13528381850216e-05,-10.804447489826517
2025-05-14 15:59:43.447,-1.531426170265294e-05,-10.292699299742356
2025-05-14 15:59:43.454,-1.0187132415091644e-05,-9.830035563857091
2025-05-14 15:59:43.462,-6.170091833157942e-06,-9.419739058880776
2025-05-14 15:59:43.470,-3.419227696754389e-06,-9.063436210937311
2025-05-14 15:59:43.478,-2.041878327658394e-06,-8.761183013937034
2025-05-14 15:59:43.486,-2.0924096605503283e-06,-8.511588504247484
2025-05-14 15:59:43.493,-3.5702529203405757e-06,-8.311970985201238
2025-05-14 15:59:43.501,-6.420357253071001e-06,-8.158541443575592
2025-05-14 15:59:43.509,-1.0536050927615327e-05,-8.046607943520272
2025-05-14 15:59:43.517,-1.5764132226157995e-05,-7.970794248402216
2025-05-14 15:59:43.525,-2.1911875030950087e-05,-7.925265546441037
2025-05-14 15:59:43.532,-2.875557315148715e-05,-7.903953984678676
2025-05-14 15:59:43.540,-3.605023912692301e-05,-7.900776784970457
2025-05-14 15:59:43.548,-4.35400575719782e-05,-7.909840047882796
2025-05-14 15:59:43.556,-5.096914004029505e-05,-7.92562194926359
2025-05-14 15:59:43.564,-5.809206010122536e-05,-7.943129886854914
2025-05-14 15:59:43.572,-6.468360995152863e-05,-7.9580272158246945
2025-05-14 15:59:43.579,-7.0547247409838e-05,-7.966726485607309
2025-05-14 15:59:43.587,-7.552179562939575e-05,-7.9664475017355425
2025-05-14 15:59:43.595,-7.948609186973325e-05,-7.955240011893554
2025-05-14 15:59:43.603,-8.236142957074541e-05,-7.931972269761709
