Timestamp,Lead I (LA-RA),Lead II (LL-LA),Lead III (LL-RA),Vx-RL,FMS,Condition
2025-05-14 16:10:18.897,-0.0912097436086312,-0.0713203894456143,-0.1625301333335973,-0.061143640460042,4,DB
2025-05-14 16:10:18.901,-0.0990695053406596,-0.0817405023876996,-0.1808100079968529,-0.0583607275887431,4,DB
2025-05-14 16:10:18.905,-0.1179461358560895,-0.0723534847761639,-0.1902996208905131,-0.0473316143764224,4,DB
2025-05-14 16:10:18.909,-0.1190718855579841,-0.0651894287431498,-0.1842613145491141,-0.0428074204408026,4,DB
2025-05-14 16:10:18.913,-0.1051716537755296,-0.0776896816242606,-0.1828613356370182,-0.0496281054731184,4,DB
2025-05-14 16:10:18.917,-0.1073357921484446,-0.0915963108011028,-0.198932103176001,-0.0543472857540441,4,DB
2025-05-14 16:10:18.921,-0.1281129038311164,-0.085563511145567,-0.2136764151927692,-0.0472235408725583,4,DB
2025-05-14 16:10:18.925,-0.1355171229975826,-0.0741411141637564,-0.2096582373672321,-0.0392772994645422,4,DB
2025-05-14 16:10:18.929,-0.1206625245944892,-0.0824962457609258,-0.2031587705509352,-0.0448743817777932,4,DB
2025-05-14 16:10:18.932,-0.1126940047741033,-0.1010354874004116,-0.2137294923595372,-0.059234108629802,4,DB
2025-05-14 16:10:18.936,-0.1246554154139612,-0.100243087653586,-0.2248985032421831,-0.0659830447358728,4,DB
2025-05-14 16:10:18.940,-0.1328800498206429,-0.0802035640491348,-0.2130836140342188,-0.0608048257447333,4,DB
2025-05-14 16:10:18.944,-0.1233164397896011,-0.0755724345513805,-0.1988888744953415,-0.055705868941444,4,DB
2025-05-14 16:10:18.948,-0.1051874560961776,-0.1217022744705311,-0.2268897307109475,-0.0521427953723597,4,DB
2025-05-14 16:10:18.952,-0.0617973507977452,-0.2393398151058907,-0.3011371660376191,-0.009975765924574,4,DB
2025-05-14 16:10:18.956,0.0528529831179822,-0.4281599573602248,-0.3753069743660004,0.1322266217546441,4,DB
2025-05-14 16:10:18.960,0.2426614312655801,-0.6353100227771356,-0.3926485916253802,0.3662696123517592,4,DB
2025-05-14 16:10:18.964,0.4393003759007967,-0.7436023870377468,-0.3043020112410225,0.5489057237508932,4,DB
2025-05-14 16:10:18.968,0.5451075621465546,-0.6155743195895921,-0.0704667575371346,0.4861131307395027,4,DB
2025-05-14 16:10:18.971,0.4734416350296738,-0.1430914502853895,0.3303501846603914,0.1058070191856234,4,DB
2025-05-14 16:10:18.975,0.2063452580457933,0.6787903789870633,0.8851356369589108,-0.4808730826730337,4,DB
2025-05-14 16:10:18.979,-0.1400879270638947,1.6163309968823518,1.4762430697540392,-1.0764408449228704,4,DB
2025-05-14 16:10:18.983,-0.4173578686553418,2.2275567768020776,1.810198908091927,-1.5233942542103631,4,DB
2025-05-14 16:10:18.987,-0.6485947124850362,2.2232367398588098,1.5746420273289985,-1.7664227384689353,4,DB
2025-05-14 16:10:18.991,-0.9630361595615224,1.7514393618385389,0.7884032022422671,-1.830213460055782,4,DB
2025-05-14 16:10:18.995,-1.3029412967690843,1.1967353589687362,-0.1062059378256057,-1.7449445119139777,4,DB
2025-05-14 16:10:18.999,-1.4091000325968892,0.7971799508559614,-0.6119200817569436,-1.5147713006527397,4,DB
2025-05-14 16:10:19.003,-1.1479078165878578,0.5520196749054196,-0.5958881416887939,-1.1630750991511576,4,DB
2025-05-14 16:10:19.007,-0.6862503892912111,0.3732884610885962,-0.3129619281989768,-0.7672313425502082,4,DB
2025-05-14 16:10:19.011,-0.3044196247015593,0.2116983516236073,-0.0927212730647439,-0.4258623472811497,4,DB
2025-05-14 16:10:19.014,-0.1423153755459757,0.0799922874920652,-0.062323088031718,-0.2022138237813748,4,DB
2025-05-14 16:10:19.018,-0.14277123765401,0.0092771831723403,-0.1334940544503129,-0.096689519852602,4,DB
2025-05-14 16:10:19.022,-0.1678232629045975,-0.0104923312296208,-0.1783155940931041,-0.0614322303845514,4,DB
2025-05-14 16:10:19.026,-0.1398049386338357,-0.0291435007283639,-0.1689484393114335,-0.0424924437847523,4,DB
2025-05-14 16:10:19.030,-0.0848611760551399,-0.0711316600897382,-0.1559928360852227,-0.0150490461538237,4,DB
2025-05-14 16:10:19.034,-0.058397973244661,-0.1089403248503704,-0.1673382980267007,0.0157334712678243,4,DB
2025-05-14 16:10:19.038,-0.0598896745693528,-0.1170735710284168,-0.1769632455201218,0.0376159446194809,4,DB
2025-05-14 16:10:19.042,-0.0473204775683281,-0.1144464968507775,-0.1617669743318343,0.0484909777622352,4,DB
2025-05-14 16:10:19.046,-0.0118460620323505,-0.1285079321535434,-0.1403539940896869,0.0562123950466226,4,DB
2025-05-14 16:10:19.050,0.0111566937076014,-0.1494316702952771,-0.1382749764831505,0.0684068403923838,4,DB
2025-05-14 16:10:19.054,0.0060646679237212,-0.1522458676591839,-0.1461811996221889,0.084057043080777,4,DB
2025-05-14 16:10:19.057,0.0037584425559269,-0.1428142401812742,-0.1390557975026881,0.0964473670210259,4,DB
2025-05-14 16:10:19.061,0.0277374922904678,-0.1466918474510349,-0.1189543550289102,0.1038026788879854,4,DB
2025-05-14 16:10:19.065,0.055422046316195,-0.1641130860673308,-0.1086910396113519,0.1116385433291783,4,DB
2025-05-14 16:10:19.069,0.060005304158848,-0.1711666735476622,-0.111161369240858,0.124499675325187,4,DB
2025-05-14 16:10:19.073,0.0566541774739793,-0.1622935636457757,-0.105639386014895,0.141122794754354,4,DB
2025-05-14 16:10:19.077,0.0736370313128982,-0.1584246528225315,-0.0847876213437531,0.1564526495916835,4,DB
2025-05-14 16:10:19.081,0.1029076230456,-0.1692914031560858,-0.0663837799365109,0.1653722884173186,4,DB
2025-05-14 16:10:19.085,0.1164734886464883,-0.1777060106786781,-0.0612325218504957,0.1688280648265908,4,DB
2025-05-14 16:10:19.089,0.1158756445900229,-0.1710404907321977,-0.0551648459520947,0.1753603747749705,4,DB
2025-05-14 16:10:19.093,0.1277106611279005,-0.1626148541354164,-0.0349041928086226,0.1904672592446219,4,DB
2025-05-14 16:10:19.096,0.1570215866773317,-0.1669961106171418,-0.0099745237327595,0.2094952875119885,4,DB
2025-05-14 16:10:19.100,0.1810062659793929,-0.1749971898642718,0.006009076329639,0.2259396338591328,4,DB
2025-05-14 16:10:19.104,0.189699793366677,-0.1718615291536132,0.0178382644354094,0.2392547624324364,4,DB
2025-05-14 16:10:19.108,0.2004926154730532,-0.1638270919416009,0.0366655237622889,0.25388753386941,4,DB
2025-05-14 16:10:19.112,0.2260236844505421,-0.1657126980410411,0.0603109866485607,0.2776680057963753,4,DB
2025-05-14 16:10:19.116,0.2556672351818118,-0.1745547885237905,0.0811124469045133,0.3142894163842294,4,DB
2025-05-14 16:10:19.120,0.2780699104073321,-0.1766936199779327,0.1013762906832953,0.3516811065575143,4,DB
2025-05-14 16:10:19.124,0.2988476429554549,-0.1720600128415534,0.1267876303758704,0.371995197152913,4,DB
2025-05-14 16:10:19.128,0.3257281203146983,-0.1718391511334543,0.1538889694514215,0.3775523203178459,4,DB
2025-05-14 16:10:19.132,0.3541585096583856,-0.1777626417391835,0.1763958681969352,0.3896594629439917,4,DB
2025-05-14 16:10:19.136,0.377639636469808,-0.1807627928665477,0.1968768438881862,0.4191918419066816,4,DB
2025-05-14 16:10:19.139,0.3998079254301923,-0.1776237038407053,0.2221842218820543,0.4543958040424986,4,DB
2025-05-14 16:10:19.143,0.4272268618727694,-0.1747871086958194,0.2524397534775709,0.4797574328849914,4,DB
2025-05-14 16:10:19.147,0.4576989722500958,-0.1755292046637944,0.2821697678946429,0.4954550029266479,4,DB
2025-05-14 16:10:19.151,0.483634661031919,-0.175089116747096,0.308545544600377,0.5140771973018505,4,DB
2025-05-14 16:10:19.155,0.5030994120707958,-0.1706733184128366,0.3324260939808424,0.5416310153500472,4,DB
2025-05-14 16:10:19.159,0.5204361819792593,-0.1666706384514858,0.3537655438584535,0.5668355143956368,4,DB
2025-05-14 16:10:19.163,0.537721845155368,-0.1663141966999584,0.3714076487939166,0.5733995997462837,4,DB
2025-05-14 16:10:19.167,0.5518045429182339,-0.1654921425859445,0.386312400678211,0.5607468097092122,4,DB
2025-05-14 16:10:19.171,0.5591196259016513,-0.15901830270723,0.400101323547582,0.5456567648182066,4,DB
2025-05-14 16:10:19.175,0.5586864935057558,-0.1480556528589862,0.4106308410074637,0.5419909396699247,4,DB
2025-05-14 16:10:19.179,0.5506301793296098,-0.1373367813984372,0.4132933982996744,0.5449113736192995,4,DB
2025-05-14 16:10:19.182,0.5349378619235767,-0.1279671535825341,0.4069707087172164,0.5390102478018173,4,DB
2025-05-14 16:10:19.186,0.5123848910172204,-0.1165952823880863,0.3957896090126753,0.517567947845786,4,DB
2025-05-14 16:10:19.190,0.4860347850617252,-0.1007760136802752,0.3852587717723454,0.4874664996759245,4,DB
2025-05-14 16:10:19.194,0.4597870112915446,-0.0823977576641984,0.3773892540259009,0.4561714723335227,4,DB
2025-05-14 16:10:19.198,0.4328888271635766,-0.0654137023682032,0.367475125201778,0.4218626199835911,4,DB
2025-05-14 16:10:19.202,0.398989342770619,-0.051891549382607,0.3470977938020702,0.3801198427684662,4,DB
2025-05-14 16:10:19.206,0.3549812667717427,-0.0410777826912813,0.3139034845019072,0.3330945140455272,4,DB
2025-05-14 16:10:19.210,0.3065162529979752,-0.0315581489532953,0.274958104473642,0.2864731265824083,4,DB
2025-05-14 16:10:19.214,0.2606771497138536,-0.023782695231444,0.2368944549192777,0.2429968057801833,4,DB
2025-05-14 16:10:19.218,0.2180069117548599,-0.0200012582155766,0.1980056539841247,0.2023497356025329,4,DB
2025-05-14 16:10:19.221,0.1749059749384718,-0.0207069884815736,0.1541989869093658,0.1632057789421216,4,DB
2025-05-14 16:10:19.225,0.1308047692143211,-0.0222526017936821,0.1085521678805921,0.1256255969459173,4,DB
2025-05-14 16:10:19.229,0.0905575823817425,-0.0213286211828861,0.0692289616666896,0.0933922564300948,4,DB
2025-05-14 16:10:19.233,0.0591028235511255,-0.0209890635327283,0.0381137604944637,0.0696461265792262,4,DB
2025-05-14 16:10:19.237,0.034919096228556,-0.0265344561007486,0.0083846406118702,0.0501839691942062,4,DB
2025-05-14 16:10:19.241,0.0119102628722612,-0.0355950867713748,-0.0236848234074279,0.0285763407244822,4,DB
2025-05-14 16:10:19.245,-0.012166009238331,-0.0402775600620017,-0.0524435688008122,0.0069643562244496,4,DB
2025-05-14 16:10:19.249,-0.032914814256105,-0.0397427739462291,-0.0726575876944546,-0.0068344231825048,4,DB
2025-05-14 16:10:19.253,-0.0464346290593056,-0.0410890575305922,-0.0875236860736536,-0.0118415041195497,4,DB
2025-05-14 16:10:19.257,-0.0556713461456758,-0.0465412845563936,-0.1022126301779108,-0.0161429441746921,4,DB
2025-05-14 16:10:19.261,-0.0657921863963124,-0.0500164890603446,-0.1158086749246331,-0.0265277858551841,4,DB
2025-05-14 16:10:19.264,-0.0757637266822296,-0.0485142512121496,-0.1242779773539836,-0.0396071702569391,4,DB
2025-05-14 16:10:19.268,-0.080841200970405,-0.0470345445428925,-0.1278757449642743,-0.0449528500822472,4,DB
2025-05-14 16:10:19.272,-0.0826285590602406,-0.048741183208839,-0.1313697417117653,-0.0380465216756301,4,DB
2025-05-14 16:10:19.276,-0.0883916792881886,-0.0491229649045839,-0.1375146436274107,-0.0280711584326301,4,DB
2025-05-14 16:10:19.280,-0.0986522328026455,-0.045018933237992,-0.1436711654669042,-0.0288646138384369,4,DB
2025-05-14 16:10:19.284,-0.1046304808547572,-0.0414960515071821,-0.1461265317794607,-0.0431456283282675,4,DB
2025-05-14 16:10:19.288,-0.102248713423094,-0.042911314637545,-0.1451600274695291,-0.0592536901023109,4,DB
2025-05-14 16:10:19.292,-0.099307963839087,-0.0444651172018325,-0.1437730804414541,-0.0637877120004526,4,DB
2025-05-14 16:10:19.296,-0.1024048381069191,-0.0408855705609811,-0.1432904080599998,-0.0567623165560719,4,DB
2025-05-14 16:10:19.300,-0.1063554889545137,-0.0364698186392781,-0.1428253069771624,-0.0512874111131914,4,DB
2025-05-14 16:10:19.304,-0.1050506687334523,-0.0372532832836616,-0.1423039513916614,-0.0545009918980933,4,DB
2025-05-14 16:10:19.307,-0.102997799085821,-0.0397789151319861,-0.142776713583646,-0.0565867210753615,4,DB
2025-05-14 16:10:19.311,-0.1059295977451227,-0.0373906987676712,-0.1433202958700081,-0.0482346995767612,4,DB
2025-05-14 16:10:19.315,-0.1092619925718787,-0.0321488697270835,-0.1414108616475138,-0.0381072970160201,4,DB
2025-05-14 16:10:19.319,-0.1066337807471759,-0.0309155897949104,-0.1375493698818278,-0.0398523235501224,4,DB
2025-05-14 16:10:19.323,-0.1020431252531912,-0.0334992829761274,-0.135542407560082,-0.0512050981099908,4,DB
2025-05-14 16:10:19.327,-0.1030457742626354,-0.0335817702618468,-0.1366275438463104,-0.0577857298751511,4,DB
2025-05-14 16:10:19.331,-0.1073262053276208,-0.0298939326076885,-0.1372201372484672,-0.0529022801308614,4,DB
2025-05-14 16:10:19.335,-0.1059452897711405,-0.0284910858651723,-0.1344363749408231,-0.0452076421084851,4,DB
2025-05-14 16:10:19.339,-0.0977582885357462,-0.0323620654713389,-0.1301203533025185,-0.0454932372744507,4,DB
2025-05-14 16:10:19.343,-0.0916989959736125,-0.0357308677660692,-0.1274298630258079,-0.0511327648112738,4,DB
2025-05-14 16:10:19.346,-0.0938462865030294,-0.0332300118789314,-0.1270762976592403,-0.049718469022675,4,DB
2025-05-14 16:10:19.350,-0.0994716941257695,-0.0286079783051535,-0.1280796716997456,-0.0371171027003438,4,DB
2025-05-14 16:10:19.354,-0.100990061920146,-0.0277767330997151,-0.1287667942797021,-0.0252950286139596,4,DB
2025-05-14 16:10:19.358,-0.0983447663886871,-0.0290154528181321,-0.1273602184570083,-0.0280826783454896,4,DB
2025-05-14 16:10:19.362,-0.0967033421438276,-0.027802897679901,-0.1245062390646848,-0.042456921037914,4,DB
2025-05-14 16:10:19.366,-0.0973672543781869,-0.0258673421263226,-0.123234595737086,-0.0522119750997786,4,DB
2025-05-14 16:10:19.370,-0.0971172081345126,-0.0270910360097325,-0.1242082433681004,-0.0502108127852845,4,DB
2025-05-14 16:10:19.374,-0.0952619077410448,-0.0292487966497969,-0.1245107036048554,-0.0458566290405914,4,DB
2025-05-14 16:10:19.378,-0.0946909452017738,-0.0282153776041843,-0.1229063220102216,-0.0485980481594942,4,DB
2025-05-14 16:10:19.382,-0.095446182954325,-0.0264217280376259,-0.1218679101877156,-0.0555815724240397,4,DB
2025-05-14 16:10:19.386,-0.0940640187985484,-0.0289493894739738,-0.123013407459918,-0.0581569099655086,4,DB
2025-05-14 16:10:19.389,-0.0907966003567394,-0.0341756619874773,-0.124972261521831,-0.0530697321917102,4,DB
2025-05-14 16:10:19.393,-0.0903588018207286,-0.0359476100224716,-0.1263064110105451,-0.046248719949463,4,DB
2025-05-14 16:10:19.397,-0.09381481748752,-0.0331283617155366,-0.1269431783615452,-0.0467355248206214,4,DB
2025-05-14 16:10:19.401,-0.0968074353229831,-0.0305350020252476,-0.1273424364986585,-0.0555337048614052,4,DB
2025-05-14 16:10:19.405,-0.0968151837042849,-0.0315924093405355,-0.1284075921857847,-0.0643384019462042,4,DB
2025-05-14 16:10:19.409,-0.0957812253090028,-0.0347694816974395,-0.1305507061367621,-0.067355641234128,4,DB
2025-05-14 16:10:19.413,-0.0955798569996665,-0.0366945420266331,-0.1322743981472146,-0.0677193330313382,4,DB
2025-05-14 16:10:19.417,-0.0959568591208908,-0.0359945763264157,-0.1319514345603145,-0.0703849040503247,4,DB
2025-05-14 16:10:19.421,-0.0963664585933612,-0.0341062494440659,-0.1304727071414988,-0.0748817861001377,4,DB
2025-05-14 16:10:19.425,-0.0964900347873394,-0.0336356941662571,-0.1301257280469215,-0.0762915676566132,4,DB
2025-05-14 16:10:19.429,-0.0959883959796539,-0.0360801982548152,-0.1320685933177506,-0.0707608818074493,4,DB
2025-05-14 16:10:19.432,-0.095675775427565,-0.0401726924546008,-0.1358484669574314,-0.060899475700219,4,DB
2025-05-14 16:10:19.436,-0.0969359841891534,-0.0425621630202022,-0.1394981462762738,-0.0550452312324681,4,DB
2025-05-14 16:10:19.440,-0.0987644886485327,-0.0417695406023723,-0.1405340283073159,-0.0580674352025176,4,DB
2025-05-14 16:10:19.444,-0.0988953565678365,-0.040546673110364,-0.1394420287240415,-0.0650173691769448,4,DB
2025-05-14 16:10:19.448,-0.0984540544920367,-0.0415648691424427,-0.1400189226719815,-0.0682790243183906,4,DB
2025-05-14 16:10:19.452,-0.0997873820579523,-0.0429396333156527,-0.14272701440329,-0.0680079713160467,4,DB
2025-05-14 16:10:19.456,-0.1000001063869917,-0.0416422535876429,-0.1416423589943699,-0.0696789287070086,4,DB
2025-05-14 16:10:19.460,-0.0954578871135158,-0.0374919550236229,-0.1329498411460428,-0.07389789449245,4,DB
2025-05-14 16:10:19.464,-0.0917761373858981,-0.029890765518642,-0.1216669019046533,-0.0753554914481769,4,DB
2025-05-14 16:10:19.468,-0.0972256275885835,-0.0171072011520771,-0.1143328277333031,-0.0714963470192565,4,DB
2025-05-14 16:10:19.471,-0.1072703645246223,-0.0033496156625638,-0.110619979170627,-0.0663173462345431,4,DB
2025-05-14 16:10:19.475,-0.1102606539123938,0.0030187330111968,-0.1072419198738841,-0.0642896163245703,4,DB
2025-05-14 16:10:19.479,-0.1064719083458108,0.004903664282802,-0.1015682430264561,-0.0657452052835784,4,DB
2025-05-14 16:10:19.483,-0.1036907083013484,0.0184392208732533,-0.0852514863841808,-0.0693185589365783,4,DB
2025-05-14 16:10:19.487,-0.0961085105929988,0.0491996293680975,-0.0469088801725546,-0.0734671059642532,4,DB
2025-05-14 16:10:19.491,-0.0686429636170796,0.0776659077167227,0.0090229451623473,-0.0761504426944654,4,DB
2025-05-14 16:10:19.495,-0.0232937719979854,0.0826542900020652,0.0593605190763326,-0.0773687332964436,4,DB
2025-05-14 16:10:19.499,0.017114665073662,0.0702841330114921,0.0873987991648639,-0.0774735119479426,4,DB
2025-05-14 16:10:19.503,0.0345431924029925,0.0622454135492881,0.0967886070397835,-0.0711334975602341,4,DB
2025-05-14 16:10:19.507,0.034089040689928,0.0618549695229101,0.0959440113100833,-0.0542483443602598,4,DB
2025-05-14 16:10:19.511,0.0341184259397909,0.0531168865285257,0.0872353135751799,-0.0374362568072682,4,DB
2025-05-14 16:10:19.514,0.0417551096937969,0.0314485624638781,0.073203673272181,-0.0355527144764429,4,DB
2025-05-14 16:10:19.518,0.0422821361958517,0.0115394979793551,0.0538216352970662,-0.0444362756314952,4,DB
2025-05-14 16:10:19.522,0.018493994030426,0.0008837870236756,0.0193777821850054,-0.0487071139367791,4,DB
2025-05-14 16:10:19.526,-0.0232272161180735,-0.0110208818049768,-0.0342480967827206,-0.049368572083417,4,DB
2025-05-14 16:10:19.530,-0.0592905050294335,-0.0286925756303947,-0.087983079511713,-0.0594631857518689,4,DB
2025-05-14 16:10:19.534,-0.0791937791089553,-0.0383831526037714,-0.117576930557509,-0.0758306847717591,4,DB
2025-05-14 16:10:19.538,-0.0909971128684085,-0.0329715263614284,-0.1239686380662174,-0.0809342526248805,4,DB
2025-05-14 16:10:19.542,-0.0974816809588753,-0.029475678909459,-0.1269573586956722,-0.0719852322012394,4,DB
2025-05-14 16:10:19.546,-0.0920479159353439,-0.0438843017382834,-0.135932216493171,-0.064816742259811,4,DB
2025-05-14 16:10:19.550,-0.0817321798634924,-0.0635517543121674,-0.1452839329882401,-0.0674064645773649,4,DB
2025-05-14 16:10:19.554,-0.0851829879970453,-0.0664603243344141,-0.1516433111361444,-0.0702784136762491,4,DB
2025-05-14 16:10:19.557,-0.100326719851641,-0.0578708099012021,-0.1581975285489452,-0.0672709111722896,4,DB
2025-05-14 16:10:19.561,-0.104042145051474,-0.0613088390555876,-0.1653509828955296,-0.0671538840984344,4,DB
2025-05-14 16:10:19.565,-0.0926139097413706,-0.0771585744914549,-0.1697724830144878,-0.0759622096447002,4,DB
2025-05-14 16:10:19.569,-0.0905253168328179,-0.0812661796690519,-0.1717914952760407,-0.0833360144675697,4,DB
2025-05-14 16:10:19.573,-0.1073927887600181,-0.0680394811747251,-0.1754322687007791,-0.0790886101939451,4,DB
2025-05-14 16:10:19.577,-0.119439706971825,-0.0617432522847322,-0.1811829580152393,-0.0708996299926183,4,DB
2025-05-14 16:10:19.581,-0.111110861704399,-0.0746481902945807,-0.1857590507511071,-0.0702860995856931,4,DB
2025-05-14 16:10:19.585,-0.1028160356143373,-0.0863349466589807,-0.189150981018336,-0.0712891073746789,4,DB
2025-05-14 16:10:19.589,-0.1139544484820794,-0.0794997805200759,-0.193454227739448,-0.0607951653824907,4,DB
2025-05-14 16:10:19.593,-0.1286920015367273,-0.0669086291633674,-0.1956006294303666,-0.044141012945387,4,DB
2025-05-14 16:10:19.596,-0.1259390454770039,-0.0686930362774901,-0.194632080478577,-0.043335914205887,4,DB
2025-05-14 16:10:19.600,-0.1118797832381341,-0.0939658252645069,-0.2058456072200724,-0.0646534648176213,4,DB
2025-05-14 16:10:19.604,-0.0885440812354334,-0.1604176883343321,-0.248961768279877,-0.0674626618264597,4,DB
2025-05-14 16:10:19.608,-0.0188624743403538,-0.2983009416818614,-0.3171634147256102,0.0247266591447215,4,DB
2025-05-14 16:10:19.612,0.1359998780323417,-0.5051717226140291,-0.3691718432792761,0.2426662572889726,4,DB
2025-05-14 16:10:19.616,0.3495819799722079,-0.6952516407988882,-0.3456696595181384,0.4766433572933904,4,DB
2025-05-14 16:10:19.620,0.5112802001291319,-0.6873524453510702,-0.1760722439065178,0.5077249970497575,4,DB
2025-05-14 16:10:19.624,0.4829502302729301,-0.2742739982366256,0.2086762333581805,0.1903574746435853,4,DB
2025-05-14 16:10:19.628,0.2237572896497043,0.5771239962515454,0.8008812872286079,-0.3995156101764613,4,DB
2025-05-14 16:10:19.632,-0.1317886819215504,1.5484486231234036,1.4166599425347894,-1.0236905762645954,4,DB
2025-05-14 16:10:19.636,-0.4077822904016931,2.143486628495208,1.7357043394327918,-1.4789772038808993,4,DB
2025-05-14 16:10:19.639,-0.6063203232130921,2.137272743682769,1.5309524218151145,-1.7153089941876658,4,DB
2025-05-14 16:10:19.643,-0.8694104501259006,1.7375996379592196,0.8681891891839766,-1.7830492328319167,4,DB
2025-05-14 16:10:19.647,-1.210300715963364,1.2797710948933618,0.069470380285723,-1.7281719094887429,4,DB
2025-05-14 16:10:19.651,-1.4179701306331285,0.925053260917086,-0.4929168683545862,-1.5611031931662764,4,DB
2025-05-14 16:10:19.655,-1.2816616428998944,0.6636128593729781,-0.6180487821596965,-1.2836778719671966,4,DB
2025-05-14 16:10:19.659,-0.8459787226128608,0.4440136280488533,-0.4019650931918346,-0.9230820930739638,4,DB
2025-05-14 16:10:19.663,-0.3892889303147471,0.2513869091571047,-0.1379020197808465,-0.5542028160339179,4,DB
2025-05-14 16:10:19.667,-0.1528999997077106,0.1147270283710221,-0.0381729699547634,-0.272806990628534,4,DB
2025-05-14 16:10:19.671,-0.1366677990676715,0.0530980103257988,-0.0835697873546729,-0.1234202343681301,4,DB
2025-05-14 16:10:19.675,-0.1772328255492104,0.0307609749034614,-0.1464718492539487,-0.0709605979930421,4,DB
2025-05-14 16:10:19.679,-0.1613625883785871,-0.0036701248301103,-0.165032711812716,-0.0518132050649488,4,DB
2025-05-14 16:10:19.682,-0.1062228270544763,-0.0526432860979443,-0.1588661117518867,-0.0294186133797998,4,DB
2025-05-14 16:10:19.686,-0.0719340261428344,-0.0829642674595732,-0.1548982921971264,0.0003645259677894,4,DB
2025-05-14 16:10:19.690,-0.0682230207913827,-0.08899926555327,-0.1572222849351965,0.0294855382717,4,DB
2025-05-14 16:10:19.694,-0.0606562267146538,-0.0992335830708957,-0.1598898083723884,0.0521858562567376,4,DB
2025-05-14 16:10:19.698,-0.0316337678585033,-0.1233788400553603,-0.1550126064967346,0.0699107679277035,4,DB
2025-05-14 16:10:19.702,-0.0016635246731022,-0.1372526343628322,-0.1389161576146235,0.0873735652565407,4,DB
2025-05-14 16:10:19.706,0.008652871289765,-0.1293275037543736,-0.1206746310396124,0.1041160226815054,4,DB
2025-05-14 16:10:19.710,0.0107202064259762,-0.1234700982888385,-0.1127498904346824,0.1140105195490679,4,DB
2025-05-14 16:10:19.714,0.0262377515518073,-0.1383910969478318,-0.1121533439644758,0.1150271200711771,4,DB
2025-05-14 16:10:19.718,0.0508850577207316,-0.1565195971687551,-0.1056345380128752,0.1152652729587853,4,DB
2025-05-14 16:10:19.721,0.063403499644486,-0.1553056216922631,-0.0919021206094734,0.1247692717221352,4,DB
2025-05-14 16:10:19.725,0.0628239747422472,-0.1445352342635917,-0.0817112580804235,0.141970661336081,4,DB
2025-05-14 16:10:19.729,0.0702898932846764,-0.1471692614964146,-0.0768793667680806,0.1548679449405414,4,DB
2025-05-14 16:10:19.733,0.0932513268818447,-0.1606898647489413,-0.0674385364204453,0.1600103395179777,4,DB
2025-05-14 16:10:19.737,0.1134739613924556,-0.1645420767787177,-0.0510681139370081,0.1710507291263623,4,DB
2025-05-14 16:10:19.741,0.1189057146040197,-0.1561575762251354,-0.0372518601698427,0.1972420439505341,4,DB
2025-05-14 16:10:19.745,0.1245000332609717,-0.1529024396274021,-0.0284024049131002,0.2239640649141115,4,DB
2025-05-14 16:10:19.749,0.1465658965266005,-0.1608993922638104,-0.01433349428155,0.232519806420228,4,DB
2025-05-14 16:10:19.753,0.1755500096539696,-0.1665988789809682,0.0089511321306622,0.2299446582874209,4,DB
2025-05-14 16:10:19.757,0.1936496627953073,-0.1623619856973254,0.0312876785570302,0.2385836126924358,4,DB
2025-05-14 16:10:19.761,0.204519114659541,-0.1587514518668389,0.0457676642530865,0.2642056487606288,4,DB
2025-05-14 16:10:19.764,0.2240403718946592,-0.1645037009524417,0.0595366724042056,0.2934973802723694,4,DB
2025-05-14 16:10:19.768,0.2525578288649827,-0.1721293820977476,0.0804284482305686,0.3159027956712217,4,DB
2025-05-14 16:10:19.772,0.2779009683703395,-0.1721150653869926,0.1057859044474164,0.3338564560586939,4,DB
2025-05-14 16:10:19.776,0.2989961302729369,-0.1679870220097851,0.1310091097278293,0.3568607822611422,4,DB
2025-05-14 16:10:19.780,0.3258482216946997,-0.1687253975289712,0.1571228256312524,0.3912402189431737,4,DB
2025-05-14 16:10:19.784,0.3587501525291262,-0.1752431111420554,0.1835070428532303,0.4316161543054412,4,DB
2025-05-14 16:10:19.788,0.3865461108883115,-0.181355258590215,0.2051908537642935,0.4643041403049992,4,DB
2025-05-14 16:10:19.792,0.4072122227513219,-0.1827540737692745,0.2244581504480904,0.4823955834879455,4,DB
2025-05-14 16:10:19.796,0.4326578064343942,-0.180098347638383,0.2525594602620982,0.4926815893964162,4,DB
2025-05-14 16:10:19.800,0.4675976694006765,-0.1761837631787298,0.2914139076878939,0.5063433939294382,4,DB
2025-05-14 16:10:19.804,0.499717334921143,-0.1731633113503369,0.3265540250360271,0.526973869347384,4,DB
2025-05-14 16:10:19.807,0.5188312186457412,-0.1711752597210313,0.3476559603889693,0.5480781233607663,4,DB
2025-05-14 16:10:19.811,0.5315820411791707,-0.1684412379255397,0.3631408047171009,0.5624469951390909,4,DB
2025-05-14 16:10:19.815,0.5481944634021332,-0.1634529483934111,0.3847415164712464,0.573495004067118,4,DB
2025-05-14 16:10:19.819,0.5663341040005476,-0.1567372936670767,0.4095968117944698,0.5895194713884571,4,DB
2025-05-14 16:10:19.823,0.5769156677340963,-0.1494846058771153,0.4274310633161758,0.6058055418456583,4,DB
2025-05-14 16:10:19.827,0.5777382247815672,-0.1413030338957786,0.4364351923433464,0.6067074779473003,4,DB
2025-05-14 16:10:19.831,0.5736912280969539,-0.1306067855940174,0.4430844439587522,0.5888123321466768,4,DB
2025-05-14 16:10:19.835,0.5676323130441322,-0.1166236009663605,0.4510087135312641,0.5666079477888462,4,DB
2025-05-14 16:10:19.839,0.556713955686293,-0.0998759401899379,0.4568380169471795,0.5514619860052403,4,DB
2025-05-14 16:10:19.843,0.5372620934020347,-0.0813053575248494,0.4559567373255135,0.5376931594654981,4,DB
2025-05-14 16:10:19.846,0.5098395082828229,-0.0622975675345033,0.4475419421941421,0.5127251889107207,4,DB
2025-05-14 16:10:19.850,0.4774757565199337,-0.0448378931710343,0.4326378647916543,0.4737542707279658,4,DB
2025-05-14 16:10:19.854,0.4408180473337417,-0.0297140031673166,0.4111040456056689,0.4315952092249157,4,DB
2025-05-14 16:10:19.858,0.3978320311908758,-0.0154770043614339,0.3823550282653201,0.3977922499700693,4,DB
2025-05-14 16:10:19.862,0.3475530606702401,-0.0018491129815445,0.3457039491213161,0.3679983627269826,4,DB
2025-05-14 16:10:19.866,0.2928275740840349,0.0073668861626066,0.3001944616754989,0.3249467941351261,4,DB
2025-05-14 16:10:19.870,0.2397109216090575,0.0091006947982716,0.2488116178318694,0.2632285368614384,4,DB
2025-05-14 16:10:19.874,0.1932427257435395,0.0072306477828187,0.2004733749466538,0.2021101860520773,4,DB
2025-05-14 16:10:19.878,0.1534257030159248,0.0080207976445746,0.1614465020767694,0.1637816619156334,4,DB
2025-05-14 16:10:19.882,0.1175618489456019,0.0103399237682011,0.1279017741256502,0.1461643824532064,4,DB
2025-05-14 16:10:19.886,0.0853829518924502,0.007617340404915,0.0930002937041522,0.1292897785014012,4,DB
2025-05-14 16:10:19.889,0.057477251592107,-0.0007278248320189,0.0567494281617665,0.10419300763548,4,DB
2025-05-14 16:10:19.893,0.0312807546247006,-0.0078841931001987,0.0233965629213547,0.0813336137404679,4,DB
2025-05-14 16:10:19.897,0.0051763919700247,-0.0106207771807029,-0.0054443838189031,0.0696401921990254,4,DB
2025-05-14 16:10:19.901,-0.0167274846710993,-0.0134770502334672,-0.0302045335185231,0.0619965104486649,4,DB
2025-05-14 16:10:19.905,-0.0308658500963559,-0.0196166097846397,-0.0504824585008646,0.0479634688705644,4,DB
2025-05-14 16:10:19.909,-0.0411388510790983,-0.0251756793868868,-0.0663145290914866,0.0292322677114747,4,DB
2025-05-14 16:10:19.913,-0.0530919460894923,-0.0264432430879652,-0.0795351878087025,0.0149436367488095,4,DB
2025-05-14 16:10:19.917,-0.0656558196672092,-0.0261338049117421,-0.0917896232165394,0.0094743914749303,4,DB
2025-05-14 16:10:19.921,-0.0743730158125192,-0.0280617045822222,-0.1024347190389608,0.0086460789080204,4,DB
2025-05-14 16:10:19.925,-0.0790808258316487,-0.030459110488325,-0.1095399349706217,0.00395126610742,4,DB
2025-05-14 16:10:19.929,-0.0836653272764356,-0.0290685948840388,-0.1127339208175869,-0.006498967031795,4,DB
2025-05-14 16:10:19.932,-0.0898817740508871,-0.0242178031796747,-0.1140995758946447,-0.0118192272239909,4,DB
2025-05-14 16:10:19.936,-0.0948198713438086,-0.0211518280402403,-0.1159716980554322,-0.0041788575337272,4,DB
2025-05-14 16:10:19.940,-0.0956592767674432,-0.0236858392066541,-0.1193451146526926,0.0047306936714251,4,DB
2025-05-14 16:10:19.944,-0.0948667890425046,-0.0295641355611987,-0.1244309232895705,0.0002617154156353,4,DB
2025-05-14 16:10:19.948,-0.0969086034580566,-0.0329982440198158,-0.1299068461714292,-0.011396210081511,4,DB
2025-05-14 16:10:19.952,-0.1010565724660536,-0.0312215003400435,-0.1322780715076109,-0.0148387288083225,4,DB
2025-05-14 16:10:19.956,-0.1029285588644877,-0.0272113352116267,-0.1301398927855623,-0.00999512531386,4,DB
2025-05-14 16:10:19.960,-0.102341744527635,-0.025352453698138,-0.1276941969433312,-0.0081199368205278,4,DB
2025-05-14 16:10:19.964,-0.1031529108623377,-0.0260624803824335,-0.1292153899708615,-0.0125139435491119,4,DB
2025-05-14 16:10:19.968,-0.1052284169593247,-0.0267418976158821,-0.1319703133099732,-0.0160379895894447,4,DB
2025-05-14 16:10:19.971,-0.1035572846571495,-0.0264793610516029,-0.1300366444521173,-0.0126359554385342,4,DB
2025-05-14 16:10:19.975,-0.0972601537976238,-0.0264137743054258,-0.1236739268553274,-0.0045511261056041,4,DB
2025-05-14 16:10:19.979,-0.0928912415022638,-0.0263191563945335,-0.1192103966585453,0.0001027728340936,4,DB
2025-05-14 16:10:19.983,-0.0947652098720379,-0.0248455626467378,-0.1196107712900236,-0.0041231110872574,4,DB
2025-05-14 16:10:19.987,-0.0975383709270269,-0.0230361139745131,-0.1205744836819955,-0.0135633724938504,4,DB
2025-05-14 16:10:19.991,-0.0945344634730142,-0.0235605337857418,-0.1180949960487884,-0.0190320036731194,4,DB
2025-05-14 16:10:19.995,-0.0891738785619831,-0.0259505269631216,-0.1151244043255419,-0.0157756393791647,4,DB
2025-05-14 16:10:19.999,-0.0896090648718536,-0.026571148557727,-0.1161802122404661,-0.0091615512082172,4,DB
2025-05-14 16:10:20.003,-0.0945146741799934,-0.0245424392203142,-0.1190571122210215,-0.0093763663248421,4,DB
2025-05-14 16:10:20.007,-0.0946484941717362,-0.0237149261985035,-0.1183634192010289,-0.0173261095165204,4,DB
2025-05-14 16:10:20.011,-0.0882313460767127,-0.0264026055915251,-0.1146339505102728,-0.0195500589875541,4,DB
2025-05-14 16:10:20.014,-0.0837345551838478,-0.029031118797383,-0.1127656728347939,-0.0066049090842874,4,DB
2025-05-14 16:10:20.018,-0.085445168354208,-0.0278811958506086,-0.1133263630689576,0.0082610290409116,4,DB
2025-05-14 16:10:20.022,-0.0867906597037714,-0.025623471561944,-0.112414130140311,0.003716440758681,4,DB
2025-05-14 16:10:20.026,-0.0824723251984315,-0.0267756576809907,-0.1092479817659046,-0.0190588256261849,4,DB
2025-05-14 16:10:20.030,-0.0782741703202168,-0.0296038004444901,-0.1078779696638281,-0.0366652019082291,4,DB
2025-05-14 16:10:20.034,-0.0815250834683857,-0.0292375639549835,-0.1107626463339929,-0.0344729385228558,4,DB
2025-05-14 16:10:20.038,-0.0880327921693082,-0.02686597433093,-0.1148987654216527,-0.0227070537997937,4,DB
2025-05-14 16:10:20.042,-0.0879532578175309,-0.0280569164709043,-0.1160101732221108,-0.0192515717261299,4,DB
2025-05-14 16:10:20.046,-0.0815449578484312,-0.0325231283168099,-0.1140680851125671,-0.0277974816988824,4,DB
2025-05-14 16:10:20.050,-0.0787451724575507,-0.0340138690911408,-0.1127590405086328,-0.0367203762898442,4,DB
2025-05-14 16:10:20.054,-0.0834907513268618,-0.031342721592897,-0.1148334718909286,-0.0336259195617376,4,DB
2025-05-14 16:10:20.057,-0.0886003456642637,-0.0307973172296118,-0.1193976618774729,-0.0200072752687205,4,DB
2025-05-14 16:10:20.061,-0.0881586897773148,-0.0347798022117072,-0.1229384909871099,-0.0125278976549707,4,DB
2025-05-14 16:10:20.065,-0.086025707221471,-0.036409942586425,-0.1224356488199099,-0.0241363217587692,4,DB
2025-05-14 16:10:20.069,-0.0880176872766677,-0.0307797545054744,-0.1187974408061054,-0.0450539679077115,4,DB
2025-05-14 16:10:20.073,-0.0922642435946188,-0.0249414958084931,-0.1172057384395966,-0.0552475374328783,4,DB
2025-05-14 16:10:20.077,-0.0929695992307768,-0.0286324371929919,-0.1216020354753268,-0.0536689169036575,4,DB
2025-05-14 16:10:20.081,-0.090194888750905,-0.0388264558267608,-0.1290213436445206,-0.0560162102764202,4,DB
2025-05-14 16:10:20.085,-0.0892770564651414,-0.0434753808916544,-0.1327524364366497,-0.0645037266155672,4,DB
2025-05-14 16:10:20.089,-0.0916057435628139,-0.0394833782560379,-0.1310891209113787,-0.0625917685590271,4,DB
2025-05-14 16:10:20.093,-0.093378595723202,-0.0359104919586694,-0.1292890867897472,-0.0439348604394883,4,DB
2025-05-14 16:10:20.096,-0.0935463589728572,-0.0383487035293724,-0.1318950616266384,-0.0267091965651205,4,DB
2025-05-14 16:10:20.100,-0.0952142546251077,-0.0411808063328624,-0.1363950600967073,-0.0296999956535911,4,DB
2025-05-14 16:10:20.104,-0.0990034998497881,-0.0384726359849363,-0.1374761349864818,-0.0475086596659574,4,DB
2025-05-14 16:10:20.108,-0.1016341665840663,-0.0336359565048911,-0.1352701222560617,-0.0606105599663521,4,DB
2025-05-14 16:10:20.112,-0.1007610644287612,-0.0336241064684323,-0.1343851700817266,-0.0614097874178607,4,DB
2025-05-14 16:10:20.116,-0.097535789007458,-0.0384986037435048,-0.1360343919512623,-0.0593796708795431,4,DB
2025-05-14 16:10:20.120,-0.0956651490628838,-0.0412569203903672,-0.1369220686672001,-0.06433944247546,4,DB
2025-05-14 16:10:20.124,-0.0980978799169619,-0.0370522505128922,-0.1351501296590079,-0.0729984699729048,4,DB
2025-05-14 16:10:20.128,-0.1022976783349593,-0.0299770390947872,-0.1322747166767842,-0.073880923579728,4,DB
2025-05-14 16:10:20.132,-0.1020973938329081,-0.028479155131586,-0.1305765482286402,-0.0636080020993857,4,DB
2025-05-14 16:10:20.136,-0.0979904592891246,-0.0330658525255669,-0.131056311093414,-0.0532825028647371,4,DB
2025-05-14 16:10:20.139,-0.0988723973421809,-0.0328444957699737,-0.1317168924059976,-0.0546256712110665,4,DB
2025-05-14 16:10:20.143,-0.1074315013124624,-0.0202302176453112,-0.1276617182695613,-0.0645378942034319,4,DB
2025-05-14 16:10:20.147,-0.1133779323676044,-0.0041249759821803,-0.1175029076797555,-0.0703857050541993,4,DB
2025-05-14 16:10:20.151,-0.1100817547607111,0.0031443290528681,-0.1069374250535465,-0.0683806776287916,4,DB
2025-05-14 16:10:20.155,-0.1053791552190592,0.0081471777773129,-0.0972319768027261,-0.0684929518944185,4,DB
2025-05-14 16:10:20.159,-0.1030151757296424,0.0284559686357932,-0.0745592064725788,-0.0781061721206072,4,DB
2025-05-14 16:10:20.163,-0.088241118501368,0.0622679222720427,-0.0259731956269106,-0.0884262375701817,4,DB
2025-05-14 16:10:20.167,-0.0502944337583971,0.0856818553845922,0.0353874222116668,-0.0855655531987442,4,DB
2025-05-14 16:10:20.171,-0.0062425629621223,0.0854761577314248,0.0792335953390168,-0.0705899045237626,4,DB
2025-05-14 16:10:20.175,0.0180342207030227,0.0754723163050447,0.0935065375602783,-0.0583648722397539,4,DB
2025-05-14 16:10:20.179,0.0214580860576062,0.0711435285336098,0.0926016151243178,-0.05784258276271,4,DB
2025-05-14 16:10:20.182,0.0239196335210969,0.0661333114677535,0.0900529455039421,-0.0631794008101726,4,DB
2025-05-14 16:10:20.186,0.0345593591194613,0.0487497176260751,0.0833090772440911,-0.0654940231848322,4,DB
2025-05-14 16:10:20.190,0.0404440702839386,0.0267492173669698,0.0671932881320624,-0.064675927504083,4,DB
2025-05-14 16:10:20.194,0.0272823588603435,0.0152022199847462,0.0424845793072243,-0.0662968941761955,4,DB
2025-05-14 16:10:20.198,-0.0018839118772491,0.0093464484431362,0.0074625370092811,-0.0725333204466589,4,DB
2025-05-14 16:10:20.202,-0.0350391356146517,-0.0064709875206988,-0.0415101227094045,-0.07910493649591,4,DB
2025-05-14 16:10:20.206,-0.067689187886259,-0.0277528848778424,-0.0954420723556983,-0.0798099555233028,4,DB
2025-05-14 16:10:20.210,-0.0978580565823643,-0.0349057585502046,-0.1327638147429009,-0.0744956952322807,4,DB
2025-05-14 16:10:20.214,-0.1120676364339325,-0.029200943891552,-0.1412685799548506,-0.0717810894650124,4,DB
2025-05-14 16:10:20.218,-0.0987686754667652,-0.0338987695041939,-0.1326674446186095,-0.0802193286345173,4,DB
2025-05-14 16:10:20.221,-0.0760761417630566,-0.0538217804244728,-0.1298979218531356,-0.0965494588040639,4,DB
2025-05-14 16:10:20.225,-0.0775210279361192,-0.0646709016530817,-0.1421919292732857,-0.1073098085765973,4,DB
2025-05-14 16:10:20.229,-0.1023577090812838,-0.0548715358482991,-0.1572292446326305,-0.1051904543120095,4,DB
2025-05-14 16:10:20.233,-0.1132542297161778,-0.0476337316424427,-0.1608879610805564,-0.099671175684866,4,DB
2025-05-14 16:10:20.237,-0.0970704194081308,-0.0612447747096124,-0.1583151938582349,-0.1035765985795034,4,DB
2025-05-14 16:10:20.241,-0.0884128595049464,-0.0757537962481347,-0.1641666555119674,-0.1109653376153144,4,DB
2025-05-14 16:10:20.245,-0.109626782383722,-0.067650442947697,-0.1772772251089508,-0.1025075949472357,4,DB
2025-05-14 16:10:20.249,-0.1297538399394833,-0.0529845846790235,-0.1827384244151665,-0.0775649996719813,4,DB
2025-05-14 16:10:20.253,-0.1181627018064733,-0.0603213325359004,-0.1784840341581834,-0.0631558237499347,4,DB
2025-05-14 16:10:20.257,-0.099730986159162,-0.0803445002952872,-0.1800754862887759,-0.0775782805109663,4,DB
2025-05-14 16:10:20.261,-0.1109469759814705,-0.0819376893181428,-0.1928846651521907,-0.1020316040683721,4,DB
2025-05-14 16:10:20.264,-0.1338942877570516,-0.0645561850786484,-0.1984504727072874,-0.107357551991468,4,DB
2025-05-14 16:10:20.268,-0.1287490755684437,-0.0560457496737088,-0.184794825133325,-0.095607508473171,4,DB
2025-05-14 16:10:20.272,-0.1051978593641128,-0.07155786482863,-0.1767557241027247,-0.0931326936890577,4,DB
2025-05-14 16:10:20.276,-0.0949924363432628,-0.1158883565594246,-0.2108807928306,-0.1004107591350594,4,DB
2025-05-14 16:10:20.280,-0.0688760302868073,-0.2151906486413792,-0.2840666788747183,-0.0597834456139676,4,DB
2025-05-14 16:10:20.284,0.0458227630289242,-0.3954481498316608,-0.3496253867690018,0.0980819503988548,4,DB
2025-05-14 16:10:20.288,0.2574868734090447,-0.6135982710729111,-0.3561113976492769,0.3415254631279801,4,DB
2025-05-14 16:10:20.292,0.4628333750198301,-0.7212123911784123,-0.2583790161617569,0.4893420253318637,4,DB
2025-05-14 16:10:20.296,0.5104630163941133,-0.5040497134808987,0.0064133028919427,0.3355590066822715,4,DB
2025-05-14 16:10:20.300,0.3227955252059177,0.1723114833340252,0.4951070084990985,-0.1538551368404983,4,DB
2025-05-14 16:10:20.304,-0.0064009595052398,1.1482344617725715,1.141833502207073,-0.7920486189645929,4,DB
2025-05-14 16:10:20.307,-0.2889565279233927,1.9550597864246464,1.6661032584232112,-1.3296702002788952,4,DB
2025-05-14 16:10:20.311,-0.4870286407507229,2.1886556851462986,1.7016270442999326,-1.6454821394359298,4,DB
2025-05-14 16:10:20.315,-0.7667887319943302,1.888934982459576,1.1221462503504462,-1.7760861787487374,4,DB
2025-05-14 16:10:20.319,-1.1889965911182692,1.4183022644587928,0.2293056732062069,-1.7958473372848829,4,DB
2025-05-14 16:10:20.323,-1.4968355037258485,1.0385031888208889,-0.4583323150571913,-1.7143579781353562,4,DB
2025-05-14 16:10:20.327,-1.3931572765092404,0.7605023609409185,-0.6326549157377319,-1.4952067361784758,4,DB
2025-05-14 16:10:20.331,-0.9274695196270556,0.5198987945585206,-0.4075707252564711,-1.1435745117219305,4,DB
2025-05-14 16:10:20.335,-0.4402567316074356,0.3107917889090039,-0.1294649429057106,-0.7467867290409789,4,DB
2025-05-14 16:10:20.339,-0.1875316939310906,0.1583032785191608,-0.0292284156372185,-0.4204747412440778,4,DB
2025-05-14 16:10:20.343,-0.1534951878145889,0.0726199739194055,-0.0808752141372991,-0.2243011633433416,4,DB
2025-05-14 16:10:20.346,-0.1818902327795439,0.0372976628200622,-0.144592570219337,-0.1369231034938253,4,DB
2025-05-14 16:10:20.350,-0.1665835615169957,0.0117047542085523,-0.1548788075871318,-0.1009590944306351,4,DB
2025-05-14 16:10:20.354,-0.1124753542906528,-0.0309821529676067,-0.143457507554884,-0.0759573421678971,4,DB
2025-05-14 16:10:20.358,-0.0762096719407945,-0.0696302682549794,-0.1458399405089295,-0.0497996958180694,4,DB
2025-05-14 16:10:20.362,-0.0751512915024936,-0.0767186418020443,-0.1518699336346053,-0.0213640713115189,4,DB
2025-05-14 16:10:20.366,-0.0680878422408201,-0.0727705297441098,-0.1408583723330348,0.006819983999793,4,DB
2025-05-14 16:10:20.370,-0.027806722073968,-0.0925644405743075,-0.1203711630139859,0.0249597474685678,4,DB
2025-05-14 16:10:20.374,0.0114682103275715,-0.1237561329410539,-0.1122879229954257,0.0269805380075314,4,DB
2025-05-14 16:10:20.378,0.0127198008484415,-0.1310499731429612,-0.1183301726925976,0.025725390486788,4,DB
2025-05-14 16:10:20.382,0.0007073912905829,-0.1200352625900092,-0.1193278717145717,0.0397239241111438,4,DB
2025-05-14 16:10:20.386,0.0194192994059425,-0.1251835955235208,-0.1057642965497143,0.0664670660146112,4,DB
2025-05-14 16:10:20.389,0.0573862590038359,-0.1478557978370873,-0.0904695392812286,0.085981571108102,4,DB
2025-05-14 16:10:20.393,0.0712885780318157,-0.1560464203025052,-0.0847578427340922,0.0884985814214645,4,DB
2025-05-14 16:10:20.397,0.0623283461719072,-0.1419176636897464,-0.0795893179972662,0.0838614587866171,4,DB
2025-05-14 16:10:20.401,0.0703221020389978,-0.133918999734859,-0.0635968981913912,0.0863725736503326,4,DB
2025-05-14 16:10:20.405,0.1019154599450769,-0.1460978484576962,-0.0441823890234076,0.1002212994905318,4,DB
2025-05-14 16:10:20.409,0.1223073714949008,-0.1558253658499707,-0.0335179948806046,0.1181370839412832,4,DB
2025-05-14 16:10:20.413,0.1194912233084006,-0.1460291460186434,-0.026537923250779,0.1320687971051177,4,DB
2025-05-14 16:10:20.417,0.1236112994172402,-0.1351797778257777,-0.0115684789641015,0.1442443942582476,4,DB
2025-05-14 16:10:20.421,0.151780644245529,-0.1444485611555817,0.0073320825199375,0.1611423861571413,4,DB
2025-05-14 16:10:20.425,0.180187524641663,-0.1622649483200629,0.0179225757375539,0.1796876411886387,4,DB
2025-05-14 16:10:20.429,0.1888848416292361,-0.1658442130943803,0.0230406279367524,0.1918784624343799,4,DB
2025-05-14 16:10:20.432,0.1954591650210291,-0.1574099502728103,0.0380492141362421,0.1996325688693925,4,DB
2025-05-14 16:10:20.436,0.2214726178420679,-0.154070170914025,0.0674024463026734,0.2136801688464444,4,DB
2025-05-14 16:10:20.440,0.2556829879635812,-0.1575074807897017,0.0981755065353301,0.2409152926365252,4,DB
2025-05-14 16:10:20.444,0.2759466233259098,-0.1584560105634284,0.1174906121107868,0.2775671330566758,4,DB
2025-05-14 16:10:20.448,0.2865375090936016,-0.1595192405194253,0.1270182679097642,0.3120200492485194,4,DB
2025-05-14 16:10:20.452,0.3082310625177655,-0.1697929010035996,0.1384381608375992,0.3365671286620387,4,DB
2025-05-14 16:10:20.456,0.3442623632890748,-0.1838038560122107,0.1604585065881884,0.3568549785883126,4,DB
2025-05-14 16:10:20.460,0.3796900361106559,-0.186339869628756,0.1933501657810292,0.382472369124315,4,DB
2025-05-14 16:10:20.464,0.4076390583091517,-0.1755511155106706,0.2320879420859844,0.4109855531060383,4,DB
2025-05-14 16:10:20.468,0.4355068424111266,-0.1652800006773737,0.2702268410104019,0.431992552632597,4,DB
2025-05-14 16:10:20.471,0.4674811991747531,-0.1647219010643086,0.3027592973762644,0.4448910694344343,4,DB
2025-05-14 16:10:20.475,0.4972947813197794,-0.1687247045037335,0.328570076070765,0.4619532420026928,4,DB
2025-05-14 16:10:20.479,0.5194120080238832,-0.1698234811223517,0.3495885261456943,0.4914014775718763,4,DB
2025-05-14 16:10:20.483,0.5366766355441477,-0.1683835283594179,0.3682931064193123,0.5239249253328351,4,DB
2025-05-14 16:10:20.487,0.553952845776829,-0.1666472699509636,0.3873055750510242,0.5418769333551261,4,DB
2025-05-14 16:10:20.491,0.570265292721137,-0.161737424808845,0.4085278671276285,0.5405913256764875,4,DB
2025-05-14 16:10:20.495,0.5813011963677868,-0.150273048553481,0.4310281470202095,0.5335515584214547,4,DB
2025-05-14 16:10:20.499,0.5859649277659931,-0.1344156432876082,0.451549283675915,0.5340912267821513,4,DB
2025-05-14 16:10:20.503,0.5856375200272721,-0.118676327946805,0.466961191269976,0.5398130726454989,4,DB
2025-05-14 16:10:20.507,0.5800201149453804,-0.1044752093849407,0.475544904741531,0.5396434188871402,4,DB
2025-05-14 16:10:20.511,0.5681583341570398,-0.0909594469322229,0.4771988863976913,0.5285669322199418,4,DB
2025-05-14 16:10:20.514,0.5507439417692104,-0.0775543688446886,0.4731895720901667,0.5102879333503187,4,DB
2025-05-14 16:10:20.518,0.5285310393985122,-0.0634473487067896,0.4650836898506464,0.4900854959355976,4,DB
2025-05-14 16:10:20.522,0.5006066001185779,-0.0479989354490868,0.452607663821419,0.4679171762770807,4,DB
2025-05-14 16:10:20.526,0.4651285356327008,-0.0322025936361418,0.4329259411415846,0.437983726098991,4,DB
2025-05-14 16:10:20.530,0.4207763523502378,-0.0162104626868103,0.4045658888023906,0.396583956411795,4,DB
2025-05-14 16:10:20.534,0.3685300584354489,0.0019662182588445,0.3704962758277569,0.349676270717136,4,DB
2025-05-14 16:10:20.538,0.3128685750509037,0.0203298084995897,0.3331983826783388,0.3075420535327531,4,DB
2025-05-14 16:10:20.542,0.2595486458376763,0.0305804177231871,0.2901290626831944,0.2709269149521752,4,DB
2025-05-14 16:10:20.546,0.2115157059924953,0.0284713210392593,0.2399870261492845,0.2303393810983468,4,DB
2025-05-14 16:10:20.550,0.1686203240844266,0.0209647797020607,0.189585102899727,0.1831549730711753,4,DB
2025-05-14 16:10:20.554,0.1309060500322303,0.0167405981053067,0.1476466472464504,0.1413065412104674,4,DB
2025-05-14 16:10:20.557,0.0992859721511299,0.0153354514359925,0.1146214226918879,0.1153083244606211,4,DB
2025-05-14 16:10:20.561,0.0727680883089567,0.0118263245502154,0.0845944119604676,0.1000639870056745,4,DB
2025-05-14 16:10:20.565,0.0475898662164497,0.0061584058789003,0.0537482711935987,0.0823550136988851,4,DB
2025-05-14 16:10:20.569,0.0209037987598947,0.000295700963509,0.0211994988185444,0.0557923008266114,4,DB
2025-05-14 16:10:20.573,-0.0048932019850557,-0.0081676700231396,-0.0130608729159203,0.0256380734218859,4,DB
2025-05-14 16:10:20.577,-0.024589956714249,-0.0201757514882609,-0.0447657091123591,0.0029743077817417,4,DB
2025-05-14 16:10:20.581,-0.038406056667805,-0.0283614949818671,-0.0667675525612613,-0.0049204446277266,4,DB
2025-05-14 16:10:20.585,-0.0521054045323559,-0.0269538609823438,-0.0790592664281965,-0.0010709212820737,4,DB
2025-05-14 16:10:20.589,-0.0662227770747587,-0.0233953490141627,-0.0896181270040961,0.0034355313884081,4,DB
2025-05-14 16:10:20.593,-0.0742386106555001,-0.0283817727395328,-0.1026203843110206,0.0001024376260368,4,DB
2025-05-14 16:10:20.596,-0.0755003868345318,-0.0384139141214114,-0.1139143018722876,-0.0089341060341652,4,DB
2025-05-14 16:10:20.600,-0.0787339310584942,-0.0395033704272712,-0.1182373024027465,-0.0167385163131593,4,DB
2025-05-14 16:10:20.604,-0.0874548874234464,-0.0272006791800287,-0.1146555675209796,-0.0229498051485223,4,DB
2025-05-14 16:10:20.608,-0.0938558709025495,-0.0144997617084355,-0.1083556335280497,-0.0323196901348203,4,DB
2025-05-14 16:10:20.612,-0.0933273226644508,-0.0170202113812464,-0.1103475349617002,-0.0438158512661207,4,DB
2025-05-14 16:10:20.616,-0.0928989783381883,-0.0339372256090612,-0.1268362048625289,-0.0493674548870932,4,DB
2025-05-14 16:10:20.620,-0.098204292481264,-0.0488350761007707,-0.1470393694966668,-0.0431755253923031,4,DB
2025-05-14 16:10:20.624,-0.1035504851120882,-0.0500006056137593,-0.153551091638845,-0.0280565009875003,4,DB
2025-05-14 16:10:20.628,-0.1026935843296096,-0.0428752662330486,-0.1455688514731846,-0.0138084011989802,4,DB
2025-05-14 16:10:20.632,-0.0999881781416477,-0.0388468050686708,-0.1388349841186842,-0.0085523709448164,4,DB
2025-05-14 16:10:20.636,-0.1026759314242385,-0.0399294377194618,-0.1426053700501968,-0.0096511749489643,4,DB
2025-05-14 16:10:20.639,-0.1084809116271579,-0.0408362149630854,-0.1493171274939562,-0.0083529856091349,4,DB
2025-05-14 16:10:20.643,-0.1094094361782031,-0.0391830874083227,-0.148592524486411,-0.003934111652761,4,DB
2025-05-14 16:10:20.647,-0.1047936819180202,-0.0361518135504877,-0.1409454963647587,-0.0036705793833737,4,DB
2025-05-14 16:10:20.651,-0.1015190938107913,-0.0315656716871197,-0.133084766391003,-0.0092061394040514,4,DB
2025-05-14 16:10:20.655,-0.1019836433109496,-0.025512245633222,-0.1274958898333355,-0.0132602471202643,4,DB
2025-05-14 16:10:20.659,-0.1016774035433024,-0.0222903106765631,-0.1239677151038916,-0.0092999496301546,4,DB
2025-05-14 16:10:20.663,-0.0993001946645376,-0.0261083047949093,-0.1254085003383526,0.000785437206948,4,DB
2025-05-14 16:10:20.667,-0.0986053491402321,-0.0339671069929124,-0.1325724570075464,0.0065917002987726,4,DB
2025-05-14 16:10:20.671,-0.0990645021735674,-0.0383536648258684,-0.1374181678687699,-0.0010916729136147,4,DB
2025-05-14 16:10:20.675,-0.0955156413947217,-0.0363260971986746,-0.1318417394563566,-0.0170209147228377,4,DB
2025-05-14 16:10:20.679,-0.088400275019906,-0.0313680836105865,-0.1197683594868994,-0.0260889626460049,4,DB
2025-05-14 16:10:20.682,-0.0844862495293092,-0.0277334904365138,-0.1122197408163903,-0.0234400403399209,4,DB
2025-05-14 16:10:20.686,-0.0862456192600603,-0.0278565399773007,-0.1141021600817637,-0.0182639565916603,4,DB
2025-05-14 16:10:20.690,-0.0887445332844008,-0.0331560073153951,-0.121900541436685,-0.0178289634301225,4,DB
2025-05-14 16:10:20.694,-0.087936947320652,-0.0417807240371,-0.1297176721867309,-0.0203133126429736,4,DB
2025-05-14 16:10:20.698,-0.0855591305540928,-0.047809345046055,-0.133368476421986,-0.0227598702908537,4,DB
2025-05-14 16:10:20.702,-0.0846846747233057,-0.0477301576379479,-0.1324148331758924,-0.0268803775233411,4,DB
2025-05-14 16:10:20.706,-0.0846549775808488,-0.0446486190086319,-0.1293035973955808,-0.0359090375820473,4,DB
2025-05-14 16:10:20.710,-0.0824533601403476,-0.0422302770733737,-0.1246836380106501,-0.047868889336138,4,DB
2025-05-14 16:10:20.714,-0.0779721955290409,-0.0397321001397573,-0.1177042964573343,-0.0539960054247015,4,DB
2025-05-14 16:10:20.718,-0.0754536070532919,-0.0369494362446149,-0.1124030440782853,-0.0486538155783556,4,DB
2025-05-14 16:10:20.721,-0.0782614876411853,-0.0375721491232131,-0.1158336375353476,-0.0395840569786841,4,DB
2025-05-14 16:10:20.725,-0.0841679675694288,-0.0433797102255702,-0.1275476785556304,-0.0400147619302545,4,DB
2025-05-14 16:10:20.729,-0.0879883079333483,-0.0506398259584385,-0.1386281346428267,-0.0511088949094174,4,DB
2025-05-14 16:10:20.733,-0.0875334794707688,-0.0550273212727505,-0.1425608014855197,-0.0613134992338408,4,DB
2025-05-14 16:10:20.737,-0.0851711862286643,-0.05596345014725,-0.1411346371077451,-0.0630287768225845,4,DB
2025-05-14 16:10:20.741,-0.0843632795481341,-0.055329293117878,-0.1396925733865016,-0.0614296973705689,4,DB
2025-05-14 16:10:20.745,-0.0862220514210665,-0.0546817228664737,-0.1409037749972619,-0.06474520633287,4,DB
2025-05-14 16:10:20.749,-0.0897602020344023,-0.0536976288947161,-0.1434578316289544,-0.070291614018896,4,DB
2025-05-14 16:10:20.753,-0.0939770563643371,-0.0515861641602031,-0.1455632212136307,-0.0654878072448542,4,DB
2025-05-14 16:10:20.757,-0.0975957400601703,-0.0511093841769397,-0.1487051249140233,-0.0470912538232441,4,DB
2025-05-14 16:10:20.761,-0.0981409452736459,-0.0567751504419449,-0.1549160963806093,-0.032774709987608,4,DB
2025-05-14 16:10:20.764,-0.0949578424615939,-0.0656460953737964,-0.160603938489668,-0.0403424966840725,4,DB
2025-05-14 16:10:20.768,-0.0920494155905012,-0.0675996800275896,-0.159649096261177,-0.0614691252878849,4,DB
2025-05-14 16:10:20.772,-0.0938240827862314,-0.0602196305943156,-0.1540437140108451,-0.0732622650946452,4,DB
2025-05-14 16:10:20.776,-0.0990234453939193,-0.0542823458414845,-0.1533057918527726,-0.070202982185085,4,DB
2025-05-14 16:10:20.780,-0.1021867468839856,-0.0581541339240148,-0.1603408814137207,-0.0670984279430051,4,DB
2025-05-14 16:10:20.784,-0.1001480259932182,-0.0660015685987661,-0.1661495951861122,-0.0740221312078261,4,DB
2025-05-14 16:10:20.788,-0.0954945188954054,-0.0680325668664699,-0.1635270863428223,-0.0834308240234842,4,DB
2025-05-14 16:10:20.792,-0.0940138996591729,-0.0642960438132499,-0.1583099440395529,-0.0830392621638056,4,DB
2025-05-14 16:10:20.796,-0.0975075558228457,-0.0614164714888385,-0.1589240278661861,-0.0730663162421106,4,DB
2025-05-14 16:10:20.800,-0.1001396014010002,-0.0617401612631753,-0.1618797632066119,-0.0673456574728415,4,DB
2025-05-14 16:10:20.804,-0.0968121811721421,-0.0626782549222111,-0.1594904366233607,-0.0773144336494517,4,DB
2025-05-14 16:10:20.807,-0.0924549754208401,-0.0630050829169878,-0.1554600588523226,-0.0965486241526555,4,DB
2025-05-14 16:10:20.811,-0.0945534050956036,-0.0638995457486599,-0.1584529513451204,-0.1072135270575643,4,DB
2025-05-14 16:10:20.815,-0.1004035061444458,-0.0653921926974519,-0.1657956993300779,-0.1029114714776099,4,DB
2025-05-14 16:10:20.819,-0.1028349755659299,-0.0647711772190407,-0.1676061532595434,-0.0954953524556982,4,DB
2025-05-14 16:10:20.823,-0.1040277537476707,-0.0580057247651187,-0.162033478972406,-0.0955280870210624,4,DB
2025-05-14 16:10:20.827,-0.1102657518296975,-0.043999191217503,-0.1542649434922758,-0.0973124536933964,4,DB
2025-05-14 16:10:20.831,-0.1169286340660618,-0.0288137992703044,-0.145742433768043,-0.0916678597030439,4,DB
2025-05-14 16:10:20.835,-0.1145710726094877,-0.0206684860746405,-0.1352395591019992,-0.0848393127761167,4,DB
2025-05-14 16:10:20.839,-0.1075804544366922,-0.0169094777872834,-0.1244899326266683,-0.0911869382315308,4,DB
2025-05-14 16:10:20.843,-0.1073981801614034,-0.0038190341032549,-0.1112172146520963,-0.1101127459857413,4,DB
2025-05-14 16:10:20.846,-0.1069764445112309,0.0231080376960118,-0.0838684071884648,-0.1258543482883605,4,DB
2025-05-14 16:10:20.850,-0.0858961075971583,0.0482056193706391,-0.0376904885856356,-0.1299297348778796,4,DB
2025-05-14 16:10:20.854,-0.0446432752149935,0.0564140071471164,0.0117707315882859,-0.1278657023870288,4,DB
2025-05-14 16:10:20.858,-0.0083637485442225,0.0548860289651802,0.0465222800928327,-0.1240172886831578,4,DB
2025-05-14 16:10:20.862,0.007531193594154,0.0579760382125781,0.0655072314935253,-0.1151218188097751,4,DB
2025-05-14 16:10:20.866,0.0118883147058216,0.0600368769467522,0.0719251913539255,-0.0998273324675258,4,DB
2025-05-14 16:10:20.870,0.0171236129613254,0.044322398538952,0.061446011216973,-0.0828771728229414,4,DB
2025-05-14 16:10:20.874,0.0236091566328995,0.0137662664213953,0.037375422786904,-0.0683729948211046,4,DB
2025-05-14 16:10:20.878,0.0233229619491774,-0.0109376091868008,0.0123853525104423,-0.0572207523366926,4,DB
2025-05-14 16:10:20.882,0.0071018599287064,-0.0231097190479123,-0.0160078593561083,-0.0525416983222303,4,DB
2025-05-14 16:10:20.886,-0.0270894048032221,-0.0351285681398461,-0.0622179731645189,-0.0603120874134475,4,DB
2025-05-14 16:10:20.889,-0.0670308082384202,-0.0495827484607935,-0.1166135569047407,-0.0810125417996524,4,DB
2025-05-14 16:10:20.893,-0.0942190967061798,-0.0530375890845328,-0.147256685980522,-0.1042226911376539,4,DB
2025-05-14 16:10:20.897,-0.1017121056990466,-0.0461486194761337,-0.1478607253495725,-0.1159687144056573,4,DB
2025-05-14 16:10:20.901,-0.0977435242091834,-0.0507851871231035,-0.1485287114910704,-0.1124002965774077,4,DB
2025-05-14 16:10:20.905,-0.0935282553077322,-0.0733046640734763,-0.1668329195241546,-0.1034351236093051,4,DB
2025-05-14 16:10:20.909,-0.0946490598705856,-0.0889938809283443,-0.1836429409261757,-0.1007299182773149,4,DB
2025-05-14 16:10:20.913,-0.1003497242499928,-0.0817651594142895,-0.1821148837759137,-0.1053714129311553,4,DB
2025-05-14 16:10:20.917,-0.1049394971144365,-0.0726563858662837,-0.1775958830765465,-0.1111415384316214,4,DB
2025-05-14 16:10:20.921,-0.1041231330579299,-0.085157861976666,-0.1892809951146183,-0.1155661044788994,4,DB
2025-05-14 16:10:20.925,-0.1022575546049027,-0.1056312922110494,-0.207888846880442,-0.1204531707065609,4,DB
2025-05-14 16:10:20.929,-0.1070363405628532,-0.1070029327354477,-0.2140392733472024,-0.1227956628232885,4,DB
2025-05-14 16:10:20.932,-0.1164354491208517,-0.094028858287628,-0.210464307441418,-0.1146261327997409,4,DB
2025-05-14 16:10:20.936,-0.1195753774030183,-0.0923234130494072,-0.2118987904694875,-0.0970504307059391,4,DB
2025-05-14 16:10:20.940,-0.1131355732205185,-0.1034032024867412,-0.2165387757089819,-0.0845096454688016,4,DB
2025-05-14 16:10:20.944,-0.1074960299008349,-0.1053460987365966,-0.2128421286238104,-0.0826841484161466,4,DB
2025-05-14 16:10:20.948,-0.1109352016495345,-0.0936921559527893,-0.2046273575727388,-0.0735879118242155,4,DB
2025-05-14 16:10:20.952,-0.117676784139118,-0.0884344967143599,-0.2061112808078808,-0.044085127307885,4,DB
2025-05-14 16:10:20.956,-0.1186269954002868,-0.1031477857404062,-0.2217747810798681,-0.0168177400681034,4,DB
2025-05-14 16:10:20.960,-0.1088262674192061,-0.1419335929720593,-0.2507598603154837,-0.0170754340107881,4,DB
2025-05-14 16:10:20.964,-0.0708489546646427,-0.2264763948505999,-0.297325349423736,-0.0076427258807921,4,DB
2025-05-14 16:10:20.968,0.0315239098576224,-0.3846663015351061,-0.353142391569873,0.0998543744666345,4,DB
2025-05-14 16:10:20.971,0.2155476021180261,-0.589847358727194,-0.3742997564863056,0.3308787721244531,4,DB
2025-05-14 16:10:20.975,0.4278940889752729,-0.7164825121870173,-0.2885884230742968,0.5540267630207489,4,DB
2025-05-14 16:10:20.979,0.5425776952518271,-0.5619816458651039,-0.0194039504605388,0.5441694798397788,4,DB
2025-05-14 16:10:20.983,0.447287613719014,0.0328428748393858,0.4801304887271975,0.1747961440904167,4,DB
2025-05-14 16:10:20.987,0.1665607158272932,0.9763152740696296,1.142875990081101,-0.449346086119162,4,DB
2025-05-14 16:10:20.991,-0.143116169708476,1.849881355316397,1.7067651858064514,-1.068818341011952,4,DB
2025-05-14 16:10:20.995,-0.3794623224293817,2.2048931338236697,1.82543081160759,-1.484137973515349,4,DB
2025-05-14 16:10:20.999,-0.609944932240769,1.9761407875043595,1.3661958554927265,-1.679054561351448,4,DB
2025-05-14 16:10:21.003,-0.9228320718362508,1.4779606134042915,0.5551285418126878,-1.7385422144066227,4,DB
2025-05-14 16:10:21.007,-1.2410972217396012,1.026050829655022,-0.2150463918256702,-1.7022768653156142,4,DB
2025-05-14 16:10:21.011,-1.3690604986311867,0.7150372655026527,-0.6540232328553481,-1.5415321661746255,4,DB
2025-05-14 16:10:21.014,-1.1847657505046052,0.5010537665077719,-0.6837119837081959,-1.245268452453086,4,DB
2025-05-14 16:10:21.018,-0.7660019207921921,0.3282021727786944,-0.4377997477093445,-0.8706670176658181,4,DB
2025-05-14 16:10:21.022,-0.3498344162457903,0.1785959481927684,-0.1712384677346526,-0.5090897584266505,4,DB
2025-05-14 16:10:21.026,-0.136412245397696,0.0737584999428261,-0.0626537451226672,-0.2312360900487883,4,DB
2025-05-14 16:10:21.030,-0.1201168160488808,0.0269744984748549,-0.0931423172268625,-0.059146326175628,4,DB
2025-05-14 16:10:21.034,-0.1519823925819917,0.0057664704719541,-0.1462159217474989,0.0288393349610118,4,DB
2025-05-14 16:10:21.038,-0.1347439943519855,-0.0276293634661793,-0.1623733574414612,0.0695967084340754,4,DB
2025-05-14 16:10:21.042,-0.0880284741270817,-0.0671997702853164,-0.1552282440222618,0.0949315141114776,4,DB
2025-05-14 16:10:21.046,-0.0577992111217633,-0.0894718829466283,-0.1472710936638813,0.131774242614017,4,DB
2025-05-14 16:10:21.050,-0.0459300058049951,-0.0994676069743299,-0.1453976123597599,0.1926070701035094,4,DB
2025-05-14 16:10:21.054,-0.0318207410902753,-0.1162798416368449,-0.1481005822935169,0.25831034234893,4,DB
2025-05-14 16:10:21.057,-0.0108743656371041,-0.1359446798454516,-0.1468190450358978,0.2964451651723444,4,DB
2025-05-14 16:10:21.061,0.0073937369830098,-0.141277926160939,-0.1338841887175318,0.3030122634803989,4,DB
2025-05-14 16:10:21.065,0.019418918665008,-0.1354767855803001,-0.1160578664403055,0.3056590312053107,4,DB
2025-05-14 16:10:21.069,0.0309923318309167,-0.1376762183094214,-0.1066838859897005,0.3234407648830092,4,DB
2025-05-14 16:10:21.073,0.0461392357897567,-0.1498595254366122,-0.1037202891453667,0.3444923654780915,4,DB
2025-05-14 16:10:21.077,0.0619032362665284,-0.1533074477302378,-0.0914042109491364,0.3500800526941856,4,DB
2025-05-14 16:10:21.081,0.0745305696241186,-0.1415109765685026,-0.0669804064158103,0.3421858657647743,4,DB
2025-05-14 16:10:21.085,0.0853473824622275,-0.1337584797959359,-0.0484110967916526,0.3358786753676426,4,DB
2025-05-14 16:10:21.089,0.0973205916853075,-0.1441627303956643,-0.046842138155998,0.3375843222344133,4,DB
2025-05-14 16:10:21.093,0.1092667428514116,-0.157444326214957,-0.0481775827967514,0.34195690205411,4,DB
2025-05-14 16:10:21.096,0.1191000702734131,-0.1542233797055425,-0.0351233088520042,0.343389722229805,4,DB
2025-05-14 16:10:21.100,0.1304078540248487,-0.1429813680750471,-0.0125735134570334,0.344498686934835,4,DB
2025-05-14 16:10:21.104,0.1483188292034913,-0.1435465550521662,0.0047722747563895,0.3532147292592436,4,DB
2025-05-14 16:10:21.108,0.1702455664431832,-0.1532228064769782,0.0170227605830772,0.370544259368045,4,DB
2025-05-14 16:10:21.112,0.1882134393308414,-0.1547746664788989,0.0334387734814203,0.3866060477507282,4,DB
2025-05-14 16:10:21.116,0.1998956061865458,-0.1475995510849974,0.0522960557434985,0.3944549349706776,4,DB
2025-05-14 16:10:21.120,0.2114971804480929,-0.1464825041310187,0.065014676970443,0.3990934938535022,4,DB
2025-05-14 16:10:21.124,0.229492918226673,-0.1551438051714415,0.0743491137197722,0.4076816645460299,4,DB
2025-05-14 16:10:21.128,0.2535209290597009,-0.1620282941850271,0.0914926355510486,0.4217875557019912,4,DB
2025-05-14 16:10:21.132,0.2789024330972587,-0.1607613312952622,0.118141102490147,0.4408462676461444,4,DB
2025-05-14 16:10:21.136,0.3038295577729528,-0.1576532681413024,0.1461762903306113,0.4633473121020798,4,DB
2025-05-14 16:10:21.139,0.3305545622600099,-0.1574796756003013,0.1730748873691501,0.4878865796827394,4,DB
2025-05-14 16:10:21.143,0.3594345697125988,-0.1563839944479115,0.2030505759851607,0.5173432418343151,4,DB
2025-05-14 16:10:21.147,0.3864406118585425,-0.1528060281807366,0.2336345844092733,0.5522093320737109,4,DB
2025-05-14 16:10:21.151,0.4091159315320034,-0.1526833824059793,0.256432549867572,0.5815240425836089,4,DB
2025-05-14 16:10:21.155,0.430965757642908,-0.1581552697899798,0.2728104886041859,0.5950033711309592,4,DB
2025-05-14 16:10:21.159,0.4561885729160927,-0.1617581599279647,0.2944304137495892,0.5990331796491761,4,DB
2025-05-14 16:10:21.163,0.4831786006587274,-0.1573180187324216,0.3258605826979482,0.6073607149050666,4,DB
2025-05-14 16:10:21.167,0.5069034909642142,-0.1477625178753557,0.359140973869789,0.623233668831123,4,DB
2025-05-14 16:10:21.171,0.5249652314907393,-0.1381456995533621,0.3868195327271913,0.6391638636588863,4,DB
2025-05-14 16:10:21.175,0.538413469580358,-0.1289658186515769,0.4094476517279501,0.6473454557743841,4,DB
2025-05-14 16:10:21.179,0.5488386166683442,-0.1197639042689694,0.4290747132078945,0.6472350011830463,4,DB
2025-05-14 16:10:21.182,0.556353265496329,-0.112442030164933,0.4439112361483608,0.6461677900303764,4,DB
2025-05-14 16:10:21.186,0.5591875800514896,-0.107166287559638,0.4520212933168133,0.6501545908417086,4,DB
2025-05-14 16:10:21.190,0.5551687047576117,-0.0995098580575385,0.4556588475335165,0.6538530887432512,4,DB
2025-05-14 16:10:21.194,0.5441089412495171,-0.0853057517460229,0.4588031903454627,0.6447436762584898,4,DB
2025-05-14 16:10:21.198,0.527635960452584,-0.0658029976470658,0.4618329636550752,0.6168824385688478,4,DB
2025-05-14 16:10:21.202,0.5065299376187251,-0.0454477479838599,0.4610821904914898,0.5764057941384363,4,DB
2025-05-14 16:10:21.206,0.4800078048410473,-0.0268731999467255,0.4531346057585336,0.5330422366194468,4,DB
2025-05-14 16:10:21.210,0.4475356205316886,-0.0103012701708194,0.437234351232816,0.4891326281644069,4,DB
2025-05-14 16:10:21.214,0.4094503127165482,0.0046223871081184,0.4140727007033927,0.4411394868571154,4,DB
2025-05-14 16:10:21.218,0.3664357497007255,0.0182120326765494,0.3846477832621342,0.3907978343655978,4,DB
2025-05-14 16:10:21.221,0.3202004000774807,0.0290215633739984,0.3492219643429974,0.3456541958970649,4,DB
2025-05-14 16:10:21.225,0.2736792024904282,0.0328278240287329,0.3065070274176499,0.3070010196851349,4,DB
2025-05-14 16:10:21.229,0.2294973091187555,0.028502228541881,0.2579995385651811,0.2680260890570384,4,DB
2025-05-14 16:10:21.233,0.1892519097639446,0.0230562871106139,0.2123081977843452,0.2247974591849676,4,DB
2025-05-14 16:10:21.237,0.153684157397385,0.0230740580733011,0.1767582163861798,0.1794224168658769,4,DB
2025-05-14 16:10:21.241,0.1220751582804504,0.0240919807059954,0.1461671399081623,0.1356637099143047,4,DB
2025-05-14 16:10:21.245,0.0927147377447673,0.0175767175906431,0.110291456262568,0.0981506050419198,4,DB
2025-05-14 16:10:21.249,0.0648394882992579,0.004685977784842,0.0695254670157025,0.0685360540542304,4,DB
2025-05-14 16:10:21.253,0.0389909514487626,-0.0061871251312826,0.0328038272538271,0.0416111457810105,4,DB
2025-05-14 16:10:21.257,0.0161755703972699,-0.0119952270630347,0.0041803442760296,0.0153559108433712,4,DB
2025-05-14 16:10:21.261,-0.0022327503171151,-0.016679915730208,-0.0189126651006219,-0.001855393586824,4,DB
2025-05-14 16:10:21.264,-0.015781491697245,-0.0227981430171365,-0.0385796337638931,-0.0063118030621811,4,DB
2025-05-14 16:10:21.268,-0.0267417727828464,-0.0286844910805244,-0.0554262629090507,-0.0098778480095666,4,DB
2025-05-14 16:10:21.272,-0.0375499044793002,-0.0327404230651527,-0.0702903265854942,-0.0239520508470763,4,DB
2025-05-14 16:10:21.276,-0.0470035039916686,-0.0352890824938146,-0.0822925855221062,-0.0440309097084333,4,DB
2025-05-14 16:10:21.280,-0.0529150469076063,-0.0367557095442356,-0.0896707554851706,-0.0584559792526149,4,DB
2025-05-14 16:10:21.284,-0.0567577941274174,-0.037251308633586,-0.0940091017912884,-0.0631523708337776,4,DB
2025-05-14 16:10:21.288,-0.061699301236208,-0.0376107919612377,-0.099310092223904,-0.0631385447386125,4,DB
2025-05-14 16:10:21.292,-0.0683071609974979,-0.0392083846851402,-0.1075155447051535,-0.0649002082698475,4,DB
2025-05-14 16:10:21.296,-0.0749674994750017,-0.0422475944396745,-0.1172150929342276,-0.0695661722742798,4,DB
2025-05-14 16:10:21.300,-0.0802246396352755,-0.0443995726346689,-0.1246242112870446,-0.0725579316532524,4,DB
2025-05-14 16:10:21.304,-0.0832643556288405,-0.0428632533136597,-0.1261276079565316,-0.0700154561651638,4,DB
2025-05-14 16:10:21.307,-0.0841405325449732,-0.0388768634525522,-0.1230173950081083,-0.0646086782412836,4,DB
2025-05-14 16:10:21.311,-0.0843863721542524,-0.0374727934027494,-0.1218591645648459,-0.0629406613171751,4,DB
2025-05-14 16:10:21.315,-0.0857299391065648,-0.0407501271103,-0.1264800652226412,-0.0676718421336834,4,DB
2025-05-14 16:10:21.319,-0.0874055895660669,-0.0445217532869274,-0.1319273418563646,-0.0748425803377359,4,DB
2025-05-14 16:10:21.323,-0.0865163402862418,-0.0441880927703524,-0.1307044320570751,-0.0794363683918481,4,DB
2025-05-14 16:10:21.327,-0.0823295167270799,-0.0407518603809131,-0.123081376105968,-0.0815407620303723,4,DB
2025-05-14 16:10:21.331,-0.0782786149264797,-0.0379295362602587,-0.1162081501828606,-0.0850720336756803,4,DB
2025-05-14 16:10:21.335,-0.0778366537161873,-0.0363924029146558,-0.1142290556250622,-0.0892576830783372,4,DB
2025-05-14 16:10:21.339,-0.0798114470275647,-0.0347935207064353,-0.1146049667259148,-0.0853391761553379,4,DB
2025-05-14 16:10:21.343,-0.0797931198763129,-0.0338878364117509,-0.1136809552777757,-0.0699827035743693,4,DB
2025-05-14 16:10:21.346,-0.0760382188496986,-0.035011714223765,-0.1110499320614241,-0.0577076129447278,4,DB
2025-05-14 16:10:21.350,-0.0716696813243031,-0.0364802974231081,-0.1081499777337527,-0.064993849905149,4,DB
2025-05-14 16:10:21.354,-0.0696661976754778,-0.0362692376205126,-0.1059354342805515,-0.0855849901521775,4,DB
2025-05-14 16:10:21.358,-0.0685869024696641,-0.0362814466871225,-0.1048683481395469,-0.098514055580236,4,DB
2025-05-14 16:10:21.362,-0.0664174717127186,-0.0389435418322716,-0.1053610125260825,-0.0960475246019347,4,DB
2025-05-14 16:10:21.366,-0.0649570627571432,-0.0418555633945106,-0.1068126251311862,-0.0880257844597433,4,DB
2025-05-14 16:10:21.370,-0.0658421318180113,-0.0413326399052458,-0.1071747707013651,-0.0844616357601583,4,DB
2025-05-14 16:10:21.374,-0.0663460574155394,-0.0388071347102795,-0.1051531911026001,-0.0869138958740856,4,DB
2025-05-14 16:10:21.378,-0.0642572135481177,-0.0378967446489611,-0.1021539571723735,-0.0918457009108964,4,DB
2025-05-14 16:10:21.382,-0.0625922329274302,-0.0378799012061259,-0.1004721331072174,-0.0939171521810848,4,DB
2025-05-14 16:10:21.386,-0.0640489869622642,-0.0361613318868959,-0.10021031782154,-0.0904872189710111,4,DB
2025-05-14 16:10:21.389,-0.0648890651625757,-0.0345578327261622,-0.099446896860291,-0.0869652882786608,4,DB
2025-05-14 16:10:21.393,-0.0605070289910047,-0.0368207959748129,-0.0973278239362716,-0.0920993155701947,4,DB
2025-05-14 16:10:21.397,-0.0541187930767906,-0.041215679608598,-0.0953344716541634,-0.1054500614774317,4,DB
2025-05-14 16:10:21.401,-0.0526384885251012,-0.0420671866596417,-0.094705674152174,-0.1163111896312517,4,DB
2025-05-14 16:10:21.405,-0.0557460657409648,-0.0396061298091481,-0.095352194517139,-0.1176484154748457,4,DB
2025-05-14 16:10:21.409,-0.057754283527833,-0.0408200428381674,-0.0985743253325321,-0.1134373322331914,4,DB
2025-05-14 16:10:21.413,-0.0585211580457231,-0.0471550847012759,-0.1056762417119869,-0.1093224735295405,4,DB
2025-05-14 16:10:21.417,-0.0618904423165218,-0.0505675629337224,-0.1124580042136876,-0.10530636638291,4,DB
2025-05-14 16:10:21.421,-0.0654985551203488,-0.0470837951737509,-0.1125823492573634,-0.1025740452544059,4,DB
2025-05-14 16:10:21.425,-0.0641562911828635,-0.0437005164458453,-0.1078568065922095,-0.1075294965774514,4,DB
2025-05-14 16:10:21.429,-0.061247526566166,-0.0458204774141127,-0.1070680029426565,-0.1209369659591574,4,DB
2025-05-14 16:10:21.432,-0.0646445012322549,-0.0489044692572899,-0.1135489694501611,-0.1316804246923326,4,DB
2025-05-14 16:10:21.436,-0.0728519653446884,-0.0486027614495511,-0.1214547257546199,-0.130703681103833,4,DB
2025-05-14 16:10:21.440,-0.0766873300748593,-0.0486958972774819,-0.1253832263136487,-0.1240636721382533,4,DB
2025-05-14 16:10:21.444,-0.0741162027595347,-0.0528461080899372,-0.1269623098103902,-0.123474152236514,4,DB
2025-05-14 16:10:21.448,-0.0727461650484475,-0.0571815624234344,-0.1299277264309899,-0.1299606063617686,4,DB
2025-05-14 16:10:21.452,-0.0769575318999112,-0.0569479978368272,-0.1339055286953093,-0.1350149746405337,4,DB
2025-05-14 16:10:21.456,-0.0821768348868423,-0.0538804056303268,-0.136057239477141,-0.134668484681168,4,DB
2025-05-14 16:10:21.460,-0.0837116881490934,-0.0523266324002709,-0.1360383195099029,-0.1350763765265397,4,DB
2025-05-14 16:10:21.464,-0.0830881251141135,-0.0532894770283405,-0.1363776011014478,-0.1426952636943178,4,DB
2025-05-14 16:10:21.468,-0.0831077599267993,-0.0552341859036896,-0.1383419447885228,-0.1539252351394649,4,DB
2025-05-14 16:10:21.471,-0.0831094790709828,-0.0565647784668305,-0.1396742564973716,-0.1593612269915037,4,DB
2025-05-14 16:10:21.475,-0.0819472424709346,-0.0562507641021588,-0.1381980055341979,-0.155484289935951,4,DB
2025-05-14 16:10:21.479,-0.0810488805637761,-0.0552373482835941,-0.1362862278075489,-0.1472300145893484,4,DB
2025-05-14 16:10:21.483,-0.0820161776184088,-0.0560726148261914,-0.1380887914034431,-0.1424895797839083,4,DB
2025-05-14 16:10:21.487,-0.0843292633694045,-0.0584400637489859,-0.1427693260784857,-0.1468100627981127,4,DB
2025-05-14 16:10:21.491,-0.0867285297736627,-0.0583020821886489,-0.145030610924718,-0.1569946287055648,4,DB
2025-05-14 16:10:21.495,-0.0877259166540051,-0.0543108412939516,-0.1420367569103446,-0.1603746170360944,4,DB
2025-05-14 16:10:21.499,-0.085435419059457,-0.0503783190207559,-0.1358137370411386,-0.1499505816650733,4,DB
2025-05-14 16:10:21.503,-0.0818925081401281,-0.048045812743833,-0.1299383198456015,-0.1363006052509836,4,DB
2025-05-14 16:10:21.507,-0.0844074360517847,-0.0417380488572012,-0.1261454838733373,-0.1335768514359664,4,DB
2025-05-14 16:10:21.511,-0.0944497879812256,-0.0278952257669189,-0.1223450127135212,-0.1406434109121061,4,DB
2025-05-14 16:10:21.514,-0.1007709916885154,-0.0140028948395925,-0.1147738854922769,-0.1471430347615689,4,DB
2025-05-14 16:10:21.518,-0.0956879909389988,-0.0089320497862969,-0.1046200396895837,-0.1499961368798838,4,DB
2025-05-14 16:10:21.522,-0.0900841305267768,-0.0064912829643091,-0.0965754124580527,-0.1529750281499063,4,DB
2025-05-14 16:10:21.526,-0.0943169930726907,0.009324185621134,-0.0849928064204849,-0.1575167367625553,4,DB
2025-05-14 16:10:21.530,-0.0936521775042431,0.0405293549140749,-0.0531228215584876,-0.1641774760201854,4,DB
2025-05-14 16:10:21.534,-0.0679835606946247,0.0689623353953982,0.0009787757328005,-0.1759417655758347,4,DB
2025-05-14 16:10:21.538,-0.0281877420528554,0.0797874429745439,0.0515997019514631,-0.1895133709751199,4,DB
2025-05-14 16:10:21.542,-0.0031477202761916,0.0785311401409161,0.0753834208919351,-0.1911050607194179,4,DB
2025-05-14 16:10:21.546,0.0030661596018633,0.0756199708642471,0.0786861314931251,-0.1743226709059585,4,DB
2025-05-14 16:10:21.550,0.0104443258530171,0.0680990277863936,0.0785433546669322,-0.1549515126274606,4,DB
2025-05-14 16:10:21.554,0.0249859939088685,0.0504448294569352,0.0754308243916904,-0.1511914778624738,4,DB
2025-05-14 16:10:21.557,0.0309030159171257,0.0302483765107296,0.0611513934509958,-0.1565190853977127,4,DB
2025-05-14 16:10:21.561,0.0189430610515793,0.0161466798643954,0.0350897419381014,-0.153064438481357,4,DB
2025-05-14 16:10:21.565,-0.0026325585690245,0.0015858126537217,-0.0010467448928814,-0.1440139131199075,4,DB
2025-05-14 16:10:21.569,-0.0271939790377185,-0.0207259978971557,-0.0479199759135331,-0.1467083676972405,4,DB
2025-05-14 16:10:21.573,-0.0581838206331243,-0.0390957339487531,-0.0972795535630939,-0.1594475496036033,4,DB
2025-05-14 16:10:21.577,-0.0911713576032296,-0.0394505298053599,-0.1306218863914436,-0.1631316016090222,4,DB
2025-05-14 16:10:21.581,-0.1063199032436616,-0.0329417116423207,-0.1392616138690339,-0.1539736235030372,4,DB
2025-05-14 16:10:21.585,-0.0942280824613925,-0.0421530148254758,-0.1363810962706926,-0.1495737442664798,4,DB
2025-05-14 16:10:21.589,-0.0768633442455867,-0.0640926978616889,-0.1409560410932459,-0.1604095972496753,4,DB
2025-05-14 16:10:21.593,-0.0814853386753796,-0.0734123354764098,-0.154897673139684,-0.1739256008763118,4,DB
2025-05-14 16:10:21.596,-0.1003649752677932,-0.0639947952214329,-0.164359769477883,-0.1727466479288724,4,DB
2025-05-14 16:10:21.600,-0.103382325693154,-0.0595800362909509,-0.1629623609735333,-0.1582276827011985,4,DB
2025-05-14 16:10:21.604,-0.0888661525471613,-0.0737117348570408,-0.1625778863953581,-0.1474207566403719,4,DB
2025-05-14 16:10:21.608,-0.0870517295627648,-0.0866579541441986,-0.1737096827000085,-0.1494203470667118,4,DB
2025-05-14 16:10:21.612,-0.106492690368866,-0.0798464700286488,-0.1863391593917608,-0.1544763434237547,4,DB
2025-05-14 16:10:21.616,-0.1170943778258755,-0.0683455730409334,-0.1854399498620548,-0.1509771889197609,4,DB
2025-05-14 16:10:21.620,-0.1029849257502275,-0.0745844663498165,-0.177569391096758,-0.1451928850939187,4,DB
2025-05-14 16:10:21.624,-0.0919291230015903,-0.0898721054240346,-0.1818012274239973,-0.1519404916569183,4,DB
2025-05-14 16:10:21.628,-0.1072256782132822,-0.0900829355871049,-0.1973086128001557,-0.1662660387467706,4,DB
2025-05-14 16:10:21.632,-0.1278474719299535,-0.0753427091229534,-0.2031901800539698,-0.1632328636255974,4,DB
2025-05-14 16:10:21.636,-0.1264938571334519,-0.0684186967489611,-0.1949125528848924,-0.1381818260491416,4,DB
2025-05-14 16:10:21.639,-0.1113463058785756,-0.0876901542992971,-0.1990364591817479,-0.1235386439276855,4,DB
2025-05-14 16:10:21.643,-0.0929206338032772,-0.1474340683628841,-0.2403547011713741,-0.1283951136295032,4,DB
2025-05-14 16:10:21.647,-0.0383336064947142,-0.2702312452013837,-0.3085648507027788,-0.0757366498523865,4,DB
2025-05-14 16:10:21.651,0.1007315088029019,-0.4628005164921726,-0.3620690066974477,0.1281561821265113,4,DB
2025-05-14 16:10:21.655,0.3192458569394463,-0.6623954795159737,-0.3431496215859414,0.4268336574590274,4,DB
2025-05-14 16:10:21.659,0.521504823257704,-0.7042775753081604,-0.1827727510610148,0.5765243839183751,4,DB
2025-05-14 16:10:21.663,0.5498473742428439,-0.3701795204570112,0.179667854773834,0.3461132703610661,4,DB
2025-05-14 16:10:21.667,0.3144017924436573,0.4329123001398803,0.7473140935699736,-0.2499078285344152,4,DB
2025-05-14 16:10:21.671,-0.0629263341390241,1.468607401484464,1.4056810683306713,-0.9484719735815668,4,DB
2025-05-14 16:10:21.675,-0.347103562081847,2.2357476948681776,1.8886441337706172,-1.4641946305687037,4,DB
2025-05-14 16:10:21.679,-0.5004876991306706,2.371787143728604,1.8712994455810048,-1.7048029282012502,4,DB
2025-05-14 16:10:21.682,-0.7247751553001551,1.9671765394990453,1.2424013851804885,-1.7666176143520345,4,DB
2025-05-14 16:10:21.686,-1.1034983873666957,1.4077746917835463,0.3042763053972763,-1.7516808489419364,4,DB
2025-05-14 16:10:21.690,-1.4080837261256816,0.9785631044848097,-0.4295206206612157,-1.647070075709168,4,DB
2025-05-14 16:10:21.694,-1.3737336856337308,0.7065286668037539,-0.6672050178512148,-1.3960895918128182,4,DB
2025-05-14 16:10:21.698,-1.0084596139865103,0.5025418177831757,-0.5059177952257815,-1.0216944472815346,4,DB
2025-05-14 16:10:21.702,-0.5530965087059012,0.3183296528340394,-0.2347668548953625,-0.6313354523532613,4,DB
2025-05-14 16:10:21.706,-0.2443275283558628,0.1684151215001571,-0.0759124058798495,-0.3292552432557642,4,DB
2025-05-14 16:10:21.710,-0.149397372862409,0.0791984281423789,-0.0701989437447855,-0.1516167015995462,4,DB
2025-05-14 16:10:21.714,-0.1674329140885995,0.0423903753482909,-0.1250425377659254,-0.0678966172999167,4,DB
2025-05-14 16:10:21.718,-0.168051955811862,0.0159242760893657,-0.1521276787489509,-0.0261397359952223,4,DB
2025-05-14 16:10:21.721,-0.1231263523132257,-0.0251305039046474,-0.1482568552448772,0.0042058991903997,4,DB
2025-05-14 16:10:21.725,-0.0867448418196432,-0.0610599070849191,-0.1478047479320043,0.0304449428123395,4,DB
2025-05-14 16:10:21.729,-0.0824434786772346,-0.0707335630871575,-0.1531770407923741,0.0589617797177177,4,DB
2025-05-14 16:10:21.733,-0.0746663524348908,-0.072067075884903,-0.1467334273483242,0.0952004524201869,4,DB
2025-05-14 16:10:21.737,-0.0429633612738205,-0.0902876158822744,-0.1332509761850603,0.1279848030411763,4,DB
2025-05-14 16:10:21.741,-0.0163148701615428,-0.1140684061370447,-0.1303832753279271,0.1407364928381435,4,DB
2025-05-14 16:10:21.745,-0.0159875355548053,-0.1179709285810007,-0.133958463165481,0.1379410087745409,4,DB
2025-05-14 16:10:21.749,-0.0167117716724578,-0.1081512148440158,-0.1248629855464065,0.1400703136348868,4,DB
2025-05-14 16:10:21.753,0.0069958412305364,-0.1102243185896531,-0.103228476389328,0.1556500262063284,4,DB
2025-05-14 16:10:21.757,0.0358338356689058,-0.1247027297153837,-0.0888688930770658,0.1768718790289585,4,DB
2025-05-14 16:10:21.761,0.040535642382843,-0.1293951583663475,-0.0888595150143678,0.1989373932536356,4,DB
2025-05-14 16:10:21.764,0.0321932235405828,-0.1202478848209763,-0.0880546603112863,0.2249586775692387,4,DB
2025-05-14 16:10:21.768,0.0417497417740176,-0.1167947491021097,-0.0750450063590628,0.2518099351077026,4,DB
2025-05-14 16:10:21.772,0.0685612838728293,-0.1260592388369003,-0.0574979539954298,0.2691378065916796,4,DB
2025-05-14 16:10:21.776,0.0856344420970789,-0.1310110008089633,-0.045376557743601,0.2763813859596582,4,DB
2025-05-14 16:10:21.780,0.0865740013867879,-0.1219147417045755,-0.0353407393494423,0.2851881675115402,4,DB
2025-05-14 16:10:21.784,0.0928671553761983,-0.1130829010905326,-0.02021574474587,0.3006214344262342,4,DB
2025-05-14 16:10:21.788,0.1150885796495811,-0.1167796784336988,-0.0016910978160215,0.314721301355205,4,DB
2025-05-14 16:10:21.792,0.1377715240467672,-0.1225787063312766,0.0151928186830562,0.3226944901420956,4,DB
2025-05-14 16:10:21.796,0.1493210983072824,-0.1178460742968856,0.0314750249779539,0.3316317698390674,4,DB
2025-05-14 16:10:21.800,0.1606446217604593,-0.1105954413332022,0.0500491813950699,0.3494329582130872,4,DB
2025-05-14 16:10:21.804,0.1829385897111552,-0.1143713716705122,0.0685672190081476,0.3767031869834503,4,DB
2025-05-14 16:10:21.807,0.2087360538118066,-0.124242226200581,0.0844938285779909,0.4107579776527026,4,DB
2025-05-14 16:10:21.811,0.2285814562545059,-0.1261537276937032,0.1024277295273259,0.4458918448863155,4,DB
2025-05-14 16:10:21.815,0.2487996412097169,-0.1204869333369255,0.1283127088395772,0.471365851586185,4,DB
2025-05-14 16:10:21.819,0.2782758332974702,-0.1189288992324576,0.159346935031547,0.4831218156231547,4,DB
2025-05-14 16:10:21.823,0.3111653737384161,-0.1242013662690774,0.1869640084349099,0.4945693367525208,4,DB
2025-05-14 16:10:21.827,0.3363795482616559,-0.1283746072864674,0.2080049419401312,0.5210410069925968,4,DB
2025-05-14 16:10:21.831,0.3552725524246514,-0.1275853067044925,0.2276872466851979,0.557688685233731,4,DB
2025-05-14 16:10:21.835,0.3783945913751959,-0.1255365256213625,0.2528580667186568,0.5868354134775955,4,DB
2025-05-14 16:10:21.839,0.4090421276278063,-0.1244786668913204,0.2845634617001833,0.602254017632012,4,DB
2025-05-14 16:10:21.843,0.4395677343527949,-0.122585674585317,0.3169820607301066,0.6135914624220089,4,DB
2025-05-14 16:10:21.846,0.4638259265373012,-0.1190643593082401,0.3447615681914656,0.6305246053246872,4,DB
2025-05-14 16:10:21.850,0.4844762394311543,-0.1150342987033843,0.369441941689928,0.6513248179971375,4,DB
2025-05-14 16:10:21.854,0.5047188111078027,-0.1102674423423881,0.3944513697263317,0.6661299496255262,4,DB
2025-05-14 16:10:21.858,0.5213093019462156,-0.1036167822829054,0.4176925206226973,0.668488638007346,4,DB
2025-05-14 16:10:21.862,0.5309507003175238,-0.0957753026996117,0.4351753985765867,0.6620471623905764,4,DB
2025-05-14 16:10:21.866,0.5360758173994992,-0.0882326877047959,0.4478431306529576,0.6546089249751679,4,DB
2025-05-14 16:10:21.870,0.5389709818240774,-0.0803697044063153,0.4586012783746758,0.6488947413464086,4,DB
2025-05-14 16:10:21.874,0.5361277269267204,-0.070221725032176,0.4659060028494977,0.6414946020210224,4,DB
2025-05-14 16:10:21.878,0.5228891012097692,-0.0570519987419885,0.465837103421404,0.6275242317520084,4,DB
2025-05-14 16:10:21.882,0.4997749049143489,-0.0414243457456964,0.4583505601214911,0.6051241290763818,4,DB
2025-05-14 16:10:21.886,0.471303628323268,-0.0245765958038631,0.4467270334707516,0.5763488534384165,4,DB
2025-05-14 16:10:21.889,0.4407282275790902,-0.0087880938904562,0.4319401346376348,0.5414908273111092,4,DB
2025-05-14 16:10:21.893,0.4074796344581708,0.0041792041539289,0.4116588395590873,0.4957069756694887,4,DB
2025-05-14 16:10:21.897,0.3690344220464726,0.0153039617932426,0.3843383847853616,0.4391184096191172,4,DB
2025-05-14 16:10:21.901,0.3244526045143423,0.0259726050142595,0.350425210472482,0.3839360040453269,4,DB
2025-05-14 16:10:21.905,0.2761101504971852,0.0341892051789381,0.3102993566172797,0.3394011116721189,4,DB
2025-05-14 16:10:21.909,0.2287829712905587,0.0366389870309421,0.2654219592599156,0.2987607661898573,4,DB
2025-05-14 16:10:21.913,0.1864857691154645,0.0332642401912002,0.2197500102429833,0.2538204117489249,4,DB
2025-05-14 16:10:21.917,0.1488657116745377,0.0265499757386222,0.1754156883472541,0.2102124904354429,4,DB
2025-05-14 16:10:21.921,0.1125472233923933,0.0180034837871913,0.1305507081105588,0.1773474365420818,4,DB
2025-05-14 16:10:21.925,0.077115132126544,0.0081423465103829,0.0852574795644557,0.1551232138256056,4,DB
2025-05-14 16:10:21.929,0.0458313910563647,-0.0017805940135671,0.0440507979673529,0.1368974188843696,4,DB
2025-05-14 16:10:21.932,0.0200598995551029,-0.0104746208063695,0.0095852796703999,0.1165561378545495,4,DB
2025-05-14 16:10:21.936,-0.0015956455667601,-0.0181367329264784,-0.0197323775751777,0.091792022173654,4,DB
2025-05-14 16:10:21.940,-0.0193198358117948,-0.0258438006250367,-0.045163635522897,0.066912963965393,4,DB
2025-05-14 16:10:21.944,-0.0331553755717727,-0.0336065682350956,-0.0667619428968415,0.0499785681201647,4,DB
2025-05-14 16:10:21.948,-0.0461828657339506,-0.0397310004131426,-0.0859138652408065,0.042537496079135,4,DB
2025-05-14 16:10:21.952,-0.0605005520484338,-0.0429813697816714,-0.1034819209280513,0.0362316345208987,4,DB
2025-05-14 16:10:21.956,-0.0722488658092282,-0.0454107676738196,-0.1176596325857969,0.0239624949581753,4,DB
2025-05-14 16:10:21.960,-0.0768840708010035,-0.0507922936579763,-0.1276763635665628,0.0107710369906655,4,DB
2025-05-14 16:10:21.964,-0.0775511321032167,-0.0590851654322598,-0.1366362966477765,0.0077201637212005,4,DB
2025-05-14 16:10:21.968,-0.0817875781773547,-0.0656551865581454,-0.147442763852826,0.0152113203367132,4,DB
2025-05-14 16:10:21.971,-0.0907455531433713,-0.0679455114329129,-0.1586910636991388,0.0197158335244802,4,DB
2025-05-14 16:10:21.975,-0.0981207267052769,-0.0688873281915637,-0.1670080540254253,0.0110566785216539,4,DB
2025-05-14 16:10:21.979,-0.1003535284462959,-0.0709644186024647,-0.1713179461830898,-0.0048341726484437,4,DB
2025-05-14 16:10:21.983,-0.1017698773924159,-0.0716508148006279,-0.1734206913333367,-0.0154492026796476,4,DB
2025-05-14 16:10:21.987,-0.1069245777134098,-0.068899764350021,-0.1758243412100664,-0.0161272992329308,4,DB
2025-05-14 16:10:21.991,-0.1126500501742718,-0.0666197277653314,-0.1792697770928356,-0.0122611223216992,4,DB
2025-05-14 16:10:21.995,-0.1128191091007464,-0.0690255689396955,-0.181844677200417,-0.0132773501391616,4,DB
2025-05-14 16:10:21.999,-0.1086320877295473,-0.0731029986395764,-0.1817350855360658,-0.0220696602470014,4,DB
2025-05-14 16:10:22.003,-0.1072058514016808,-0.0733020656662348,-0.1805079162421004,-0.0282211290225576,4,DB
2025-05-14 16:10:22.007,-0.1100211473252463,-0.0710666209815849,-0.1810877674884747,-0.0211068715128986,4,DB
2025-05-14 16:10:22.011,-0.1112265189121636,-0.0722714681649625,-0.183497986266447,-0.0083326263142287,4,DB
2025-05-14 16:10:22.014,-0.1088651730040043,-0.0765591264880214,-0.1854242986893117,-0.0059935963545532,4,DB
2025-05-14 16:10:22.018,-0.1078808599142322,-0.0769651180826696,-0.184845977202398,-0.0140833735430138,4,DB
2025-05-14 16:10:22.022,-0.1095223101604461,-0.0709426289612071,-0.1804649383355082,-0.0186795278797469,4,DB
2025-05-14 16:10:22.026,-0.1085354012029645,-0.0652566301005897,-0.1737920305259775,-0.0140967332308687,4,DB
2025-05-14 16:10:22.030,-0.1037205225155726,-0.0670265208307752,-0.1707470425776797,-0.0075445986212787,4,DB
2025-05-14 16:10:22.034,-0.100549164225263,-0.0740207379005606,-0.1745699013663441,-0.0056698548792771,4,DB
2025-05-14 16:10:22.038,-0.1006549350786347,-0.0778507195314664,-0.1785056538599203,-0.0069881352353103,4,DB
2025-05-14 16:10:22.042,-0.0989003239766133,-0.0749584877046429,-0.1738588109405158,-0.0057224531528676,4,DB
2025-05-14 16:10:22.046,-0.0934797390288958,-0.0701153694228808,-0.1635951077208139,0.0007515069321611,4,DB
2025-05-14 16:10:22.050,-0.0894368350189991,-0.0689903054223216,-0.1584271397204831,0.0074197404817978,4,DB
2025-05-14 16:10:22.054,-0.0890570227836828,-0.0713647610433818,-0.1604217831164869,0.0057048328210074,4,DB
2025-05-14 16:10:22.057,-0.0876865760829556,-0.0732908704560099,-0.1609774458387121,-0.0065914766588408,4,DB
2025-05-14 16:10:22.061,-0.082622674657505,-0.0724292777488091,-0.1550519517166532,-0.021561344379499,4,DB
2025-05-14 16:10:22.065,-0.0777224854123535,-0.069007826265718,-0.1467303109994056,-0.0288314021106417,4,DB
2025-05-14 16:10:22.069,-0.0759123228745973,-0.0646656988514319,-0.140578021058586,-0.025587489915734,4,DB
2025-05-14 16:10:22.073,-0.0749110306275132,-0.062062147877636,-0.1369731778489572,-0.0183005079469099,4,DB
2025-05-14 16:10:22.077,-0.0729164676238406,-0.0622831079182883,-0.1351995748973378,-0.0156136792005647,4,DB
2025-05-14 16:10:22.081,-0.0718069454038334,-0.0622990047701255,-0.1341059495409706,-0.0201956660631001,4,DB
2025-05-14 16:10:22.085,-0.0726966686724679,-0.0591989295422885,-0.1318955975939265,-0.0269754285306072,4,DB
2025-05-14 16:10:22.089,-0.0732934835621294,-0.0561378212724778,-0.1294313042259961,-0.0290493492005859,4,DB
2025-05-14 16:10:22.093,-0.071599438948601,-0.0584273006006522,-0.1300267389528683,-0.0260264794950001,4,DB
2025-05-14 16:10:22.096,-0.0696817804538292,-0.0642204858082976,-0.1339022656782845,-0.0254271135421072,4,DB
2025-05-14 16:10:22.100,-0.0712662538122974,-0.0658731114512712,-0.1371393646927469,-0.0330630301424894,4,DB
2025-05-14 16:10:22.104,-0.0752330634511019,-0.061503420535348,-0.1367364834288257,-0.0447410227706686,4,DB
2025-05-14 16:10:22.108,-0.075553196017161,-0.0580736403580102,-0.1336268358306341,-0.0525884467663534,4,DB
2025-05-14 16:10:22.112,-0.0711720106298275,-0.0604875135377643,-0.13165952363628,-0.0553320554781944,4,DB
2025-05-14 16:10:22.116,-0.0698063080620006,-0.0645244226112727,-0.134330730155724,-0.0561218851772807,4,DB
2025-05-14 16:10:22.120,-0.0756671402837799,-0.0645299758067373,-0.1401971155870952,-0.0555002575940793,4,DB
2025-05-14 16:10:22.124,-0.0812740748561853,-0.0620680290776363,-0.1433421034443821,-0.0530697846524867,4,DB
2025-05-14 16:10:22.128,-0.0795713609476359,-0.0618130637849692,-0.1413844242570537,-0.051684988362971,4,DB
2025-05-14 16:10:22.132,-0.0755153881246312,-0.0633767736590605,-0.1388921613225151,-0.0544760765984442,4,DB
2025-05-14 16:10:22.136,-0.076636116561973,-0.0629150201469731,-0.1395511362627142,-0.0604690478963814,4,DB
2025-05-14 16:10:22.139,-0.0805614900433747,-0.0602791097391752,-0.1408405993511933,-0.0663239015012599,4,DB
2025-05-14 16:10:22.143,-0.0809718337704462,-0.0593129147954127,-0.1402847481490517,-0.0702569999571251,4,DB
2025-05-14 16:10:22.147,-0.0786491302938497,-0.0617839352773648,-0.1404330651692752,-0.0725284237361999,4,DB
2025-05-14 16:10:22.151,-0.0784253192137261,-0.0649363686468805,-0.1433616874742845,-0.0735267704300303,4,DB
2025-05-14 16:10:22.155,-0.0806834634031008,-0.0656004205205527,-0.146283883553082,-0.0728571510064232,4,DB
2025-05-14 16:10:22.159,-0.0824379351149837,-0.0641294949592256,-0.146567429718901,-0.0709391547414856,4,DB
2025-05-14 16:10:22.163,-0.0830069745301299,-0.0627373088785704,-0.1457442830687011,-0.070640845408217,4,DB
2025-05-14 16:10:22.167,-0.0837261628014358,-0.0618335175211753,-0.1455596799987608,-0.0742242617624645,4,DB
2025-05-14 16:10:22.171,-0.0844398887847408,-0.0606558551123029,-0.1450957435897685,-0.0787702310411271,4,DB
2025-05-14 16:10:22.175,-0.0840146777778954,-0.0599584325035413,-0.1439731099902022,-0.0794545703934164,4,DB
2025-05-14 16:10:22.179,-0.0831817112390202,-0.0604490794208592,-0.1436307903843849,-0.0767087383447676,4,DB
2025-05-14 16:10:22.182,-0.083755278856373,-0.0600264275247679,-0.1437817061221631,-0.074913851916627,4,DB
2025-05-14 16:10:22.186,-0.0855550594704775,-0.0568496623244399,-0.142404721553197,-0.0765946037380086,4,DB
2025-05-14 16:10:22.190,-0.0871530247277359,-0.0534874156496313,-0.1406404401524733,-0.0812520553217643,4,DB
2025-05-14 16:10:22.194,-0.0887174830180192,-0.0532953801834342,-0.1420128629927422,-0.084762267131488,4,DB
2025-05-14 16:10:22.198,-0.0903975570742694,-0.0550537530810745,-0.1454513099633603,-0.0811209640166322,4,DB
2025-05-14 16:10:22.202,-0.0900407888337818,-0.0560302736121825,-0.1460710622717065,-0.0723237677086773,4,DB
2025-05-14 16:10:22.206,-0.0872746932556108,-0.056836707645278,-0.1441114007441824,-0.0691381787828958,4,DB
2025-05-14 16:10:22.210,-0.0859035826057479,-0.0589873019545692,-0.1448908844202607,-0.0739272982826329,4,DB
2025-05-14 16:10:22.214,-0.0867899867033629,-0.0615462442962801,-0.1483362308763995,-0.0765674471226665,4,DB
2025-05-14 16:10:22.218,-0.0853902484183191,-0.0618453516772871,-0.1472355999902999,-0.0740838520701509,4,DB
2025-05-14 16:10:22.221,-0.0826517936806397,-0.0556782370274907,-0.1383300306209681,-0.0754455255990204,4,DB
2025-05-14 16:10:22.225,-0.087169616125945,-0.039822803396026,-0.1269924194519654,-0.0819217920446741,4,DB
2025-05-14 16:10:22.229,-0.0985272987371861,-0.0199110909996012,-0.118438389683635,-0.0828223042369242,4,DB
2025-05-14 16:10:22.233,-0.1035561904459068,-0.0089469978941314,-0.1125031883047902,-0.074761259955915,4,DB
2025-05-14 16:10:22.237,-0.0986393055342087,-0.0090985811141982,-0.1077378866316874,-0.0685268852014003,4,DB
2025-05-14 16:10:22.241,-0.0960674580642272,-0.0032914553501628,-0.0993589134153404,-0.0742936144355012,4,DB
2025-05-14 16:10:22.245,-0.0964913387163749,0.0220199533579118,-0.0744713853763284,-0.0903260590730833,4,DB
2025-05-14 16:10:22.249,-0.0794591868074967,0.0534347867982757,-0.0260244000447587,-0.106342990695207,4,DB
2025-05-14 16:10:22.253,-0.037360308755956,0.0668952532089447,0.0295349443988123,-0.1131464643388927,4,DB
2025-05-14 16:10:22.257,0.0056102480289811,0.0612660624292923,0.0668763103859904,-0.1090812486615969,4,DB
2025-05-14 16:10:22.261,0.0256702322109916,0.0553810194956187,0.0810512516173155,-0.0986372456613036,4,DB
2025-05-14 16:10:22.264,0.0292760304063003,0.0554716787580728,0.0847477090577969,-0.0884517025552894,4,DB
2025-05-14 16:10:22.268,0.0348265517825568,0.0490368241628612,0.0838633758204263,-0.0848035415218305,4,DB
2025-05-14 16:10:22.272,0.0422375340436633,0.0320214781970852,0.07425901209739,-0.0872491755520072,4,DB
2025-05-14 16:10:22.276,0.0377327444482034,0.0173085697033316,0.0550413139910141,-0.0863558935026064,4,DB
2025-05-14 16:10:22.280,0.0187308947191969,0.009115322076933,0.0278462166187505,-0.0780697123151168,4,DB
2025-05-14 16:10:22.284,-0.0038227730859223,-0.0065260255436255,-0.010348798824846,-0.0740456468911134,4,DB
2025-05-14 16:10:22.288,-0.0255781259834216,-0.0328445532923948,-0.0584226794895108,-0.0846434706447448,4,DB
2025-05-14 16:10:22.292,-0.0525293273833201,-0.0483353664643122,-0.1008646940786806,-0.1003675622060581,4,DB
2025-05-14 16:10:22.296,-0.080098302622237,-0.0404898217727829,-0.1205881246425811,-0.1048253584485795,4,DB
2025-05-14 16:10:22.300,-0.0890747157571691,-0.030613761642151,-0.1196884776641223,-0.098860652410615,4,DB
2025-05-14 16:10:22.304,-0.0751592725356694,-0.0415083753824956,-0.1166676482011161,-0.097815621135838,4,DB
2025-05-14 16:10:22.307,-0.063007955449015,-0.0603676508010972,-0.1233756065505718,-0.1078585834818209,4,DB
2025-05-14 16:10:22.311,-0.0723520012584376,-0.0614678868073138,-0.1338198883824986,-0.1167606050781577,4,DB
2025-05-14 16:10:22.315,-0.087970824066225,-0.0503385518898731,-0.1383093762893256,-0.1115628889563435,4,DB
2025-05-14 16:10:22.319,-0.0867063361149274,-0.0531626945084479,-0.1398690309742148,-0.0981079684554314,4,DB
2025-05-14 16:10:22.323,-0.078103723093758,-0.0702390428629035,-0.1483427663250318,-0.0934479169931068,4,DB
2025-05-14 16:10:22.327,-0.0871807484707585,-0.0750989022561244,-0.1622796511114301,-0.1010147834218539,4,DB
2025-05-14 16:10:22.331,-0.1073469108282542,-0.0610812161599439,-0.1684281273884825,-0.1071738279567165,4,DB
2025-05-14 16:10:22.335,-0.1088860346735057,-0.0535710430461628,-0.1624570781367729,-0.1043242264337662,4,DB
2025-05-14 16:10:22.339,-0.0923372691130166,-0.0660588679882704,-0.1583961375357201,-0.1015135495352201,4,DB
2025-05-14 16:10:22.343,-0.0902383604032078,-0.0771802596078387,-0.1674186204616047,-0.1061840015025378,4,DB
2025-05-14 16:10:22.346,-0.1098484033611197,-0.0677304227625416,-0.1775788265893138,-0.1095481788701073,4,DB
2025-05-14 16:10:22.350,-0.1198512455108785,-0.0521941367025957,-0.1720453826949835,-0.101005417043937,4,DB
2025-05-14 16:10:22.354,-0.104374121396005,-0.0584976926737309,-0.1628718145680923,-0.0894422484538029,4,DB
2025-05-14 16:10:22.358,-0.0816719561510095,-0.1026054811817286,-0.1842774378471317,-0.0909144205641316,4,DB
2025-05-14 16:10:22.362,-0.0529108218095149,-0.1938142063023181,-0.2467250286408057,-0.0828835678602343,4,DB
2025-05-14 16:10:22.366,0.0230926867665509,-0.3397917224205659,-0.3166990361978009,0.0082729699878274,4,DB
2025-05-14 16:10:22.370,0.180641970411362,-0.5280884877190282,-0.3474465178675207,0.2230577256306554,4,DB
2025-05-14 16:10:22.374,0.3891110945941329,-0.6903562841277062,-0.3012451901092375,0.4544601152855529,4,DB
2025-05-14 16:10:22.378,0.5419655997045673,-0.6667615897399871,-0.1247959906252743,0.4735045250275433,4,DB
2025-05-14 16:10:22.382,0.5097408142425213,-0.2512025398450235,0.2585382737938243,0.1290612058209895,4,DB
2025-05-14 16:10:22.386,0.2621898519150291,0.602148021452796,0.8643378727490942,-0.4878064310950847,4,DB
2025-05-14 16:10:22.389,-0.0634113420701378,1.582411973069628,1.519000630365405,-1.1141809370791969,4,DB
2025-05-14 16:10:22.393,-0.3190168664162914,2.18225236675921,1.8632354996949672,-1.5408374372999438,4,DB
2025-05-14 16:10:22.397,-0.5534806192145447,2.153164397585053,1.5996837777095998,-1.7401050614182745,4,DB
2025-05-14 16:10:22.401,-0.89788023299117,1.7006316671129431,0.8027514334469715,-1.7870116717430569,4,DB
2025-05-14 16:10:22.405,-1.264372838066226,1.1933100026093315,-0.0710628361463042,-1.7180663411057489,4,DB
2025-05-14 16:10:22.409,-1.3727999786207334,0.823070379599137,-0.5497295997245022,-1.5087168481062148,4,DB
2025-05-14 16:10:22.413,-1.0991381204644028,0.5768864053986771,-0.5222517157808668,-1.159522058711297,4,DB
2025-05-14 16:10:22.417,-0.6328004338500101,0.3842562762157839,-0.2485441583620218,-0.7527049910003536,4,DB
2025-05-14 16:10:22.421,-0.2649628393961504,0.2165177795191994,-0.0484450606182786,-0.4110732780874215,4,DB
2025-05-14 16:10:22.425,-0.1259493458878626,0.0957075337285849,-0.0302418129135509,-0.2102040656977854,4,DB
2025-05-14 16:10:22.429,-0.1403211870395928,0.0419770533636073,-0.0983441344418998,-0.1326329032805288,4,DB
2025-05-14 16:10:22.432,-0.1633505010078718,0.0247763031396193,-0.1385741986456694,-0.1060208306501714,4,DB
2025-05-14 16:10:22.436,-0.1267128227504975,-0.0077468301249188,-0.1344596536650726,-0.0779636173677142,4,DB
2025-05-14 16:10:22.440,-0.067012127140259,-0.0608537956811634,-0.1278659236232084,-0.0434644953063781,4,DB
2025-05-14 16:10:22.444,-0.0393104647243916,-0.0968036874178665,-0.1361141529551225,-0.0128055918491685,4,DB
2025-05-14 16:10:22.452,-0.0376027746294364,-0.102242892992382,-0.1398456684452275,0.0156428001535242,4,DB
2025-05-14 16:10:22.456,-0.0207853371016969,-0.1059647481026167,-0.1267500860386376,0.0440623006511149,4,DB
2025-05-14 16:10:22.460,0.013864798988213,-0.1249245157975472,-0.1110597176547153,0.0634634086720013,4,DB
2025-05-14 16:10:22.464,0.0317892415287933,-0.1382618766166682,-0.1064726359436657,0.068722597465904,4,DB
2025-05-14 16:10:22.468,0.0268330560932904,-0.1305582773215875,-0.1037252220938375,0.0696740187407474,4,DB
2025-05-14 16:10:22.471,0.0331278664494907,-0.121652589871891,-0.0885247242976335,0.0770087155563904,4,DB
2025-05-14 16:10:22.475,0.0638619107600475,-0.1312294428839606,-0.0673675330089494,0.0909786042373866,4,DB
2025-05-14 16:10:22.479,0.0876550974828688,-0.1453646680351014,-0.057709571446795,0.1090342727268052,4,DB
2025-05-14 16:10:22.483,0.0846149858293075,-0.1435059139756896,-0.0588909290499528,0.1293971341309907,4,DB
2025-05-14 16:10:22.487,0.081664312891514,-0.134263373488908,-0.0525990615096181,0.1449561056097462,4,DB
2025-05-14 16:10:22.491,0.1054133596370762,-0.1377549283957377,-0.0323415696794052,0.149198848829853,4,DB
2025-05-14 16:10:22.495,0.1372740034103587,-0.149682570367049,-0.0124085678858508,0.1492818627270052,4,DB
2025-05-14 16:10:22.499,0.1472156153117418,-0.1502052018005732,-0.0029895874261761,0.1596056109236353,4,DB
2025-05-14 16:10:22.503,0.1434835602714817,-0.1390291376581632,0.0044544216681939,0.1824441354475847,4,DB
2025-05-14 16:10:22.507,0.1546219523972096,-0.1352509053837154,0.0193710460610018,0.2062629762506272,4,DB
2025-05-14 16:10:22.511,0.1813772042581651,-0.1445933864850311,0.0367838168134314,0.2222229855730552,4,DB
2025-05-14 16:10:22.514,0.2017094302037278,-0.1516416803432947,0.0500677488934998,0.2333752066509006,4,DB
2025-05-14 16:10:22.518,0.2129845443513564,-0.1482137770109692,0.0647707663664614,0.2483104245544881,4,DB
2025-05-14 16:10:22.522,0.2335321649588688,-0.1462356820304201,0.0872964819481098,0.2708072716153343,4,DB
2025-05-14 16:10:22.526,0.2657743985293423,-0.1541544500162989,0.1116199475266667,0.2963661590240149,4,DB
2025-05-14 16:10:22.530,0.2916422553840235,-0.1614104062488154,0.130231848142676,0.3194291195472773,4,DB
2025-05-14 16:10:22.534,0.3059422532055562,-0.1579742032075052,0.1479680489993189,0.3421302815236199,4,DB
2025-05-14 16:10:22.538,0.325235804523071,-0.152104370532125,0.1731314329865455,0.3699431540199348,4,DB
2025-05-14 16:10:22.542,0.3593429337538439,-0.1555906402756787,0.2037522924687005,0.4001269406136305,4,DB
2025-05-14 16:10:22.546,0.3968632754588475,-0.1645173400813207,0.232345934362981,0.4241074177511621,4,DB
2025-05-14 16:10:22.550,0.4255559159190597,-0.1676436464161045,0.2579122684830623,0.4427912321895295,4,DB
2025-05-14 16:10:22.554,0.4500044478550092,-0.1642740082723852,0.285730438557707,0.4685349039781218,4,DB
2025-05-14 16:10:22.557,0.480220756131235,-0.1618662568944292,0.3183544982075855,0.5055879739681904,4,DB
2025-05-14 16:10:22.561,0.5143779339359063,-0.1622880590904387,0.3520898738121469,0.5393012149553141,4,DB
2025-05-14 16:10:22.565,0.5425552718147505,-0.1608392636488456,0.3817160071281582,0.5552572142902185,4,DB
2025-05-14 16:10:22.569,0.5614508551903667,-0.1555961623576527,0.4058546917906097,0.5584019533071979,4,DB
2025-05-14 16:10:22.573,0.5768838877504396,-0.1492937217266533,0.4275901649779981,0.5612992580379974,4,DB
2025-05-14 16:10:22.577,0.5930102120355742,-0.1429739079872047,0.4500363029993144,0.5657305617050374,4,DB
2025-05-14 16:10:22.581,0.6056364317152754,-0.1341037698501731,0.4715326608125509,0.5676608619573353,4,DB
2025-05-14 16:10:22.585,0.6086721000623339,-0.1209969963935949,0.4876751026125721,0.567758193483203,4,DB
2025-05-14 16:10:22.589,0.6027640374168598,-0.1052067985574323,0.4975572378001647,0.5674044334154247,4,DB
2025-05-14 16:10:22.593,0.5935766067029664,-0.0900011415440226,0.5035754640971236,0.5644180857732478,4,DB
2025-05-14 16:10:22.596,0.5838305039727677,-0.0778213368943221,0.5060091660140075,0.5562956177957863,4,DB
2025-05-14 16:10:22.600,0.570070412370432,-0.0669995343564856,0.5030708769467007,0.5392721854857052,4,DB
2025-05-14 16:10:22.604,0.5469269715118206,-0.0513223669137625,0.4956046035283382,0.507405375240195,4,DB
2025-05-14 16:10:22.608,0.5135507602113134,-0.0274026933653789,0.4861480657742767,0.4618920953728223,4,DB
2025-05-14 16:10:22.612,0.4740963277461464,-0.0018435097075711,0.4722528169650785,0.4151678886567678,4,DB
2025-05-14 16:10:22.616,0.4308799523077859,0.0151912482570645,0.4460711994893653,0.3762643020110733,4,DB
2025-05-14 16:10:22.620,0.3811935057504489,0.0229268480748143,0.4041203527479841,0.3389439192077159,4,DB
2025-05-14 16:10:22.624,0.3243235337084862,0.0289047141048104,0.3532282467346733,0.2941092125690761,4,DB
2025-05-14 16:10:22.628,0.2671319686111076,0.035567527891554,0.3026994954228821,0.247237938278729,4,DB
2025-05-14 16:10:22.632,0.2177480769003831,0.0372824915209594,0.25503056734036,0.210984187613419,4,DB
2025-05-14 16:10:22.636,0.1767546931535538,0.0318857694267758,0.2086404614982921,0.1843814411812913,4,DB
2025-05-14 16:10:22.639,0.1390112783336475,0.0254300239022552,0.1644413011531465,0.1545174868736722,4,DB
2025-05-14 16:10:22.643,0.1024018012430701,0.0219915144747368,0.1243933146345139,0.1178711290119521,4,DB
2025-05-14 16:10:22.647,0.0703705417641643,0.0176121147795296,0.0879826554599113,0.0839941939891012,4,DB
2025-05-14 16:10:22.651,0.0451724117202583,0.0093233019472043,0.054495712583368,0.0586735585328488,4,DB
2025-05-14 16:10:22.655,0.0231514628087453,0.0019770744371025,0.0251285361616921,0.0386809332701988,4,DB
2025-05-14 16:10:22.659,0.0011155940383852,-0.0001842410559398,0.0009313518983462,0.0215264681290422,4,DB
2025-05-14 16:10:22.663,-0.0167143872030454,-0.0014291535520579,-0.0181435418390516,0.0082037323206978,4,DB
2025-05-14 16:10:22.667,-0.0261253728886423,-0.0070402919814535,-0.0331656659536478,-0.0004140650267032,4,DB
2025-05-14 16:10:22.671,-0.0331782311663691,-0.0138776448857281,-0.0470558771350313,-0.002045742416276,4,DB
2025-05-14 16:10:22.675,-0.0459933640199537,-0.0153196552878435,-0.0613130203900839,0.0048380321189218,4,DB
2025-05-14 16:10:22.679,-0.0605867452384179,-0.0118377970355099,-0.0724245433554899,0.0115153095114681,4,DB
2025-05-14 16:10:22.682,-0.0675466063736116,-0.0106250507211362,-0.0781716581752668,0.0042896975495283,4,DB
2025-05-14 16:10:22.686,-0.067623264804386,-0.0155914459473447,-0.0832147118309432,-0.0145207098630979,4,DB
2025-05-14 16:10:22.690,-0.0676234398646931,-0.0222084801822251,-0.0898319211248622,-0.0267610377519697,4,DB
2025-05-14 16:10:22.694,-0.0676772605161712,-0.0241255440982218,-0.0918028056910712,-0.0242473503737275,4,DB
2025-05-14 16:10:22.698,-0.0661265136163133,-0.0216389666338471,-0.0877654813252222,-0.0172480604272941,4,DB
2025-05-14 16:10:22.702,-0.0692825721354185,-0.0194147423397901,-0.0886973155483012,-0.0152153009969608,4,DB
2025-05-14 16:10:22.706,-0.0824550440502375,-0.0185988286387648,-0.1010538737601788,-0.0150843903010101,4,DB
2025-05-14 16:10:22.710,-0.0979652614126939,-0.0172477554966646,-0.1152130179787381,-0.0106308697704083,4,DB
2025-05-14 16:10:22.714,-0.1042170759668197,-0.015878712244042,-0.1200957892781269,-0.0030958523799535,4,DB
2025-05-14 16:10:22.718,-0.1011096952736979,-0.0157552621945474,-0.1168649585329372,0.0001675548536888,4,DB
2025-05-14 16:10:22.721,-0.0971170452702251,-0.0148224728793696,-0.1119395192117063,-0.0048634930266382,4,DB
2025-05-14 16:10:22.725,-0.0964668776291773,-0.011751906922233,-0.1082187856111681,-0.0130681634322406,4,DB
2025-05-14 16:10:22.729,-0.0968056946219899,-0.0097677013815985,-0.1065733970607802,-0.0168476588865329,4,DB
2025-05-14 16:10:22.733,-0.0957767405478107,-0.0110359102665146,-0.1068126518684151,-0.016224151329416,4,DB
2025-05-14 16:10:22.737,-0.0945434503598472,-0.0124958062132173,-0.1070392576239167,-0.0161898604068516,4,DB
2025-05-14 16:10:22.741,-0.0954842151857392,-0.0115344883963355,-0.1070187046299647,-0.0172100188647052,4,DB
2025-05-14 16:10:22.745,-0.0977507820051745,-0.0103074128408149,-0.1080581958908565,-0.0162700846296492,4,DB
2025-05-14 16:10:22.749,-0.0969869975734455,-0.0109426195629116,-0.1079296181776539,-0.0136185011679201,4,DB
2025-05-14 16:10:22.753,-0.0921098664270473,-0.0113618789193766,-0.1034717463838477,-0.0106154115240423,4,DB
2025-05-14 16:10:22.757,-0.088586753891738,-0.0094708350577983,-0.0980575899833182,-0.0059442887247879,4,DB
2025-05-14 16:10:22.761,-0.0897411354533971,-0.0077349455638332,-0.0974760820474625,-0.0006455777460002,4,DB
2025-05-14 16:10:22.764,-0.0905483465277451,-0.009147041421389,-0.0996953889753521,-6.207255597690995e-05,4,DB
2025-05-14 16:10:22.768,-0.0864740853144723,-0.0116748711764104,-0.0981489575126418,-0.0054153120670841,4,DB
2025-05-14 16:10:22.772,-0.0811564312283303,-0.0123274260041417,-0.0934838582498673,-0.0105259166767258,4,DB
2025-05-14 16:10:22.776,-0.0791667753853861,-0.0133972176411713,-0.0925639940397764,-0.0102000530635027,4,DB
2025-05-14 16:10:22.780,-0.0789213584146524,-0.0177945682955173,-0.0967159277189032,-0.006045736713258,4,DB
2025-05-14 16:10:22.784,-0.0774339394935701,-0.0220838477821798,-0.099517788279486,-0.0029508057720022,4,DB
2025-05-14 16:10:22.788,-0.0751302460159308,-0.0214651195718279,-0.0965953665863997,-0.0037329730296432,4,DB
2025-05-14 16:10:22.792,-0.0732521781132237,-0.0177872546210975,-0.0910394337280569,-0.0071451204756034,4,DB
2025-05-14 16:10:22.796,-0.0718479842341197,-0.0163189026727765,-0.0881668878956096,-0.0096413836418845,4,DB
2025-05-14 16:10:22.800,-0.0710841066462893,-0.018253363918947,-0.0893374715484632,-0.0096092157246904,4,DB
2025-05-14 16:10:22.804,-0.0707343290401613,-0.0211668385448226,-0.0919011685624359,-0.0097831569053672,4,DB
2025-05-14 16:10:22.807,-0.0694216136226103,-0.0232420272257617,-0.0926636418201351,-0.0144828270598967,4,DB
2025-05-14 16:10:22.811,-0.0671478327984614,-0.0235683146374168,-0.090716148402009,-0.023738457869544,4,DB
2025-05-14 16:10:22.815,-0.0660980978921132,-0.0220410497541315,-0.0881391486064411,-0.0313008536851966,4,DB
2025-05-14 16:10:22.819,-0.066980299716506,-0.0209861799165919,-0.0879664805869369,-0.0311915319639895,4,DB
2025-05-14 16:10:22.823,-0.0679757974671019,-0.0226421169324448,-0.0906179153469059,-0.0253568217216232,4,DB
2025-05-14 16:10:22.827,-0.0686871568782789,-0.0248337126287887,-0.0935208704480887,-0.0205799216495126,4,DB
2025-05-14 16:10:22.831,-0.0711447476038444,-0.0242409139046652,-0.0953856624431321,-0.0191295275046445,4,DB
2025-05-14 16:10:22.835,-0.0751773342109352,-0.0228127185124333,-0.097990053651142,-0.0190547577211483,4,DB
2025-05-14 16:10:22.839,-0.0771359007147888,-0.0251112075799485,-0.1022471092152758,-0.0217163317856966,4,DB
2025-05-14 16:10:22.843,-0.0764145604730165,-0.0302767412595016,-0.1066913026459203,-0.0292840170744339,4,DB
2025-05-14 16:10:22.846,-0.0782729348879587,-0.032495784139564,-0.1107687199339938,-0.03692714344968,4,DB
2025-05-14 16:10:22.850,-0.0847815537226872,-0.0301049781179691,-0.1148865327398649,-0.0384042595539525,4,DB
2025-05-14 16:10:22.854,-0.0891253102155953,-0.0287637674742727,-0.1178890785811913,-0.036346277816768,4,DB
2025-05-14 16:10:22.858,-0.0867578404858291,-0.0324256986514594,-0.1191835400206556,-0.0367648385768574,4,DB
2025-05-14 16:10:22.862,-0.0845512542080574,-0.0360404647001515,-0.1205917197840497,-0.037680922592699,4,DB
2025-05-14 16:10:22.866,-0.0886729235343737,-0.0332159923746857,-0.1218889167773,-0.0333127802141449,4,DB
2025-05-14 16:10:22.870,-0.0921278866239413,-0.027807842542778,-0.1199357300265901,-0.0265722505655893,4,DB
2025-05-14 16:10:22.874,-0.0866652648941152,-0.0295198009140741,-0.116185066659339,-0.0274437341353332,4,DB
2025-05-14 16:10:22.878,-0.0788461049564767,-0.0383854729684341,-0.1172315787678839,-0.0380718650979087,4,DB
2025-05-14 16:10:22.882,-0.0806182420230408,-0.0434212096001712,-0.1240394524582858,-0.0474880162957851,4,DB
2025-05-14 16:10:22.886,-0.0897118642832113,-0.0396465324044581,-0.1293583975140637,-0.0454128426904712,4,DB
2025-05-14 16:10:22.889,-0.0932093515773874,-0.0357205402339022,-0.1289298926283026,-0.0367789624612454,4,DB
2025-05-14 16:10:22.893,-0.0880468907947173,-0.0387341662896946,-0.1267810578925322,-0.0366178218031229,4,DB
2025-05-14 16:10:22.897,-0.084506066132497,-0.0426860702274335,-0.1271921371598016,-0.0502887774741647,4,DB
2025-05-14 16:10:22.901,-0.0883071298840081,-0.0403926612637125,-0.128699791938711,-0.0642802760833273,4,DB
2025-05-14 16:10:22.905,-0.092007082931523,-0.036160626970092,-0.1281677106826725,-0.0620497396805568,4,DB
2025-05-14 16:10:22.909,-0.0889934440611975,-0.0370027271733458,-0.1259961720059158,-0.0461182742550587,4,DB
2025-05-14 16:10:22.913,-0.0849542342589622,-0.0401827900351343,-0.1251370250567325,-0.0352542516527558,4,DB
2025-05-14 16:10:22.917,-0.0875217999317616,-0.0393004482193262,-0.1268222489046664,-0.0397645955681087,4,DB
2025-05-14 16:10:22.921,-0.0931439086007523,-0.0360088227188163,-0.1291527320627761,-0.0507386340796492,4,DB
2025-05-14 16:10:22.925,-0.0940926871883912,-0.0360382170156197,-0.1301309049367012,-0.0551789476789548,4,DB
2025-05-14 16:10:22.929,-0.0920004229777588,-0.0381872009307227,-0.1301876246317796,-0.0506981569947578,4,DB
2025-05-14 16:10:22.932,-0.0934146286760725,-0.0368658681134646,-0.1302804975035648,-0.0437674822281597,4,DB
2025-05-14 16:10:22.936,-0.0970569438174067,-0.0328776594944094,-0.1299346040151695,-0.0411273330299298,4,DB
2025-05-14 16:10:22.940,-0.0970384471808237,-0.0321906977067988,-0.1292291455796712,-0.0430435039841408,4,DB
2025-05-14 16:10:22.944,-0.094271850174117,-0.035345959565264,-0.1296178104212285,-0.0433166886706483,4,DB
2025-05-14 16:10:22.948,-0.0936896772203971,-0.0370551784752095,-0.1307448563678634,-0.0386183637090231,4,DB
2025-05-14 16:10:22.952,-0.0946168563107584,-0.0355824863047556,-0.1301993432769035,-0.0346625345006251,4,DB
2025-05-14 16:10:22.956,-0.0934944520272584,-0.034707942243942,-0.1282023949206162,-0.0383310730423391,4,DB
2025-05-14 16:10:22.960,-0.0913946516922471,-0.0369420868446801,-0.1283367391752284,-0.048285161471221,4,DB
2025-05-14 16:10:22.964,-0.0913224427673648,-0.0403935736245438,-0.1317160170201241,-0.0569538625311552,4,DB
2025-05-14 16:10:22.968,-0.0930292988869668,-0.0414990720133974,-0.1345283715175542,-0.0579248332509694,4,DB
2025-05-14 16:10:22.971,-0.0951141821302282,-0.0382823842447861,-0.1333965669797235,-0.0516947926768716,4,DB
2025-05-14 16:10:22.975,-0.0966422652632662,-0.0327011437124718,-0.1293434095684042,-0.0460212258102612,4,DB
2025-05-14 16:10:22.979,-0.0952055881942431,-0.0294406668331597,-0.1246462556093016,-0.0464294680397866,4,DB
2025-05-14 16:10:22.983,-0.0904982349376602,-0.0290225604353525,-0.1195207959436751,-0.0484315725940484,4,DB
2025-05-14 16:10:22.987,-0.0891525494579055,-0.0245447260907669,-0.1136972761065151,-0.0460465850176284,4,DB
2025-05-14 16:10:22.991,-0.0966827426625893,-0.0115824395230625,-0.1082651827306381,-0.0418557662596134,4,DB
2025-05-14 16:10:22.995,-0.1058132411440691,0.0013886428303139,-0.1044245988471923,-0.0415503756937272,4,DB
2025-05-14 16:10:22.999,-0.1051731602458929,0.0033614042200508,-0.1018117565477401,-0.0469956502846135,4,DB
2025-05-14 16:10:23.003,-0.0983040859585983,0.0014590833123285,-0.0968450031551424,-0.0578311469047359,4,DB
2025-05-14 16:10:23.007,-0.0959835489029612,0.0156244459155966,-0.0803591034827686,-0.0701544873962929,4,DB
2025-05-14 16:10:23.011,-0.0901168037405218,0.0476252669517825,-0.0424915372718277,-0.0765088774364602,4,DB
2025-05-14 16:10:23.014,-0.0609816702686456,0.073065909845789,0.012084239105997,-0.0761933355414083,4,DB
2025-05-14 16:10:23.018,-0.0133361282918552,0.0740891819568946,0.0607530532070835,-0.0751655832396775,4,DB
2025-05-14 16:10:23.022,0.0235665914491248,0.0625093677952997,0.086075958800357,-0.0695799601533746,4,DB
2025-05-14 16:10:23.026,0.0359926010976051,0.0571201168858058,0.093112717552315,-0.0494081195537559,4,DB
2025-05-14 16:10:23.030,0.0380956963203135,0.0544833723711484,0.092579068272763,-0.023944260862683,4,DB
2025-05-14 16:10:23.034,0.0420268285440519,0.0406184490692774,0.0826452772080147,-0.0175889292750753,4,DB
2025-05-14 16:10:23.038,0.0419373077814995,0.0196717087077676,0.0616090160981342,-0.033953540982815,4,DB
2025-05-14 16:10:23.042,0.0321184489895974,0.0077757170970155,0.0398941657089458,-0.050564891006283,4,DB
2025-05-14 16:10:23.046,0.0188137104284139,0.0036739644184391,0.0224876744820003,-0.0543942463463522,4,DB
2025-05-14 16:10:23.050,0.0048175749650358,-0.0088515446172839,-0.0040339700034781,-0.0565282867542405,4,DB
2025-05-14 16:10:23.054,-0.0204225327414874,-0.0292320320682143,-0.0496545651464819,-0.0655987237341019,4,DB
2025-05-14 16:10:23.057,-0.0599991822524833,-0.0382408797420567,-0.0982400623174795,-0.0717226054932334,4,DB
2025-05-14 16:10:23.061,-0.0914750675043545,-0.0323836891739629,-0.1238587569881238,-0.0668590493418619,4,DB
2025-05-14 16:10:23.065,-0.0919051430723626,-0.0321170599171796,-0.1240222032854961,-0.0612921302436429,4,DB
2025-05-14 16:10:23.069,-0.0740024345106225,-0.0466890579322585,-0.120691492724107,-0.0676207777870012,4,DB
2025-05-14 16:10:23.073,-0.0707718776224391,-0.0578797895256279,-0.1286516674151578,-0.080990766338472,4,DB
2025-05-14 16:10:23.077,-0.0868464650166618,-0.0526908691379126,-0.1395373344083694,-0.0865828014185157,4,DB
2025-05-14 16:10:23.081,-0.0955072540735064,-0.0472829713095369,-0.1427902256228589,-0.0807611298049373,4,DB
2025-05-14 16:10:23.085,-0.0863862266684703,-0.0586923430506424,-0.1450785699439033,-0.0755489290727069,4,DB
2025-05-14 16:10:23.089,-0.0822782401906162,-0.0737815796534474,-0.156059820054387,-0.0813427992973724,4,DB
2025-05-14 16:10:23.093,-0.0971383122725233,-0.071633441240383,-0.1687717537098578,-0.0911116834702164,4,DB
2025-05-14 16:10:23.096,-0.1101614522249824,-0.0607073374938331,-0.1708687899018241,-0.0892035832255846,4,DB
2025-05-14 16:10:23.100,-0.102718987012228,-0.0638346428826882,-0.1665536300626526,-0.0751497099475756,4,DB
2025-05-14 16:10:23.104,-0.0928653716457864,-0.077619734056403,-0.1704851058550337,-0.0665671936196096,4,DB
2025-05-14 16:10:23.108,-0.1036292186879551,-0.0796698004776237,-0.1832990193049546,-0.0729329706035589,4,DB
2025-05-14 16:10:23.112,-0.1197386044479832,-0.0686338048994283,-0.1883724094730589,-0.0812335977930397,4,DB
2025-05-14 16:10:23.116,-0.1133378624260863,-0.0642590507985657,-0.1775969133349595,-0.0802738904760496,4,DB
2025-05-14 16:10:23.120,-0.0942240489919966,-0.076724207149484,-0.1709482562364368,-0.0822369108903601,4,DB
2025-05-14 16:10:23.124,-0.0857054777399131,-0.1126090414054762,-0.19831451922668,-0.0918584564712537,4,DB
2025-05-14 16:10:23.128,-0.0591170515282531,-0.2029111245779007,-0.2620281761740591,-0.0603235202293497,4,DB
2025-05-14 16:10:23.132,0.0529870943389961,-0.3796943369672161,-0.3267072426810139,0.0838655661879751,4,DB
2025-05-14 16:10:23.136,0.2665101648951587,-0.6081069138730273,-0.3415967490149704,0.323344130681268,4,DB
2025-05-14 16:10:23.139,0.4924293373331014,-0.7473111284436909,-0.2548817911337162,0.4929723853659047,4,DB
2025-05-14 16:10:23.143,0.5767147079155874,-0.5817946361681142,-0.0050799282626201,0.3860320670661737,4,DB
2025-05-14 16:10:23.147,0.4176628328854958,0.044593175714062,0.4622560086040482,-0.0547880257258883,4,DB
2025-05-14 16:10:23.151,0.0864826365961988,1.0136189383870515,1.1001015750035044,-0.6682853433752716,4,DB
2025-05-14 16:10:23.155,-0.2236021741784536,1.881792133832991,1.6581899596891172,-1.213617875829714,4,DB
2025-05-14 16:10:23.159,-0.4420621104454376,2.2117557427050785,1.7696936323070145,-1.561850374109592,4,DB
2025-05-14 16:10:23.163,-0.7071299106284556,1.97081671552336,1.2636868049561445,-1.7285217836006777,4,DB
2025-05-14 16:10:23.167,-1.0916384320109844,1.482468386223514,0.3908299542892254,-1.7550948973048353,4,DB
2025-05-14 16:10:23.171,-1.3877260178070685,1.0423111110129375,-0.3454149067029057,-1.6326348210570756,4,DB
2025-05-14 16:10:23.175,-1.330059267973355,0.7246707820504208,-0.6053884858190236,-1.3502965688739137,4,DB
2025-05-14 16:10:23.179,-0.9324265388574232,0.4870531859645288,-0.4453733527758259,-0.961951803156508,4,DB
2025-05-14 16:10:23.182,-0.4693519257920382,0.2958680651942995,-0.1734838604658086,-0.579101521999066,4,DB
2025-05-14 16:10:23.186,-0.1886897812007935,0.150933455582785,-0.0377563254715634,-0.3064589406783563,4,DB
2025-05-14 16:10:23.190,-0.1256294283495907,0.063608584473151,-0.062020843717295,-0.1749349589911391,4,DB
2025-05-14 16:10:23.194,-0.1539329808156952,0.0246131317188515,-0.1293198489250777,-0.1318428543563846,4,DB
2025-05-14 16:10:23.198,-0.1504742865745443,-0.0034090687314378,-0.1538833551200644,-0.105731167773295,4,DB
2025-05-14 16:10:23.202,-0.1003282097471723,-0.0450067546389004,-0.1453349641858868,-0.0698549303818844,4,DB
2025-05-14 16:10:23.206,-0.0620775843918475,-0.0822254488890288,-0.1443030330679682,-0.0351375900996971,4,DB
2025-05-14 16:10:23.210,-0.0623698963522917,-0.091794614961806,-0.1541645110889045,-0.0109126410365143,4,DB
2025-05-14 16:10:23.214,-0.0622916357576118,-0.089999107675147,-0.1522907431940789,0.0060482610991652,4,DB
2025-05-14 16:10:23.218,-0.0288812040830668,-0.1073245843332796,-0.136205788163825,0.0211710060550436,4,DB
2025-05-14 16:10:23.221,0.0108782499777168,-0.1373379169932542,-0.1264596667503817,0.0375245885309986,4,DB
2025-05-14 16:10:23.225,0.0189391468370626,-0.1493821931187703,-0.1304430460044895,0.0565629966661787,4,DB
2025-05-14 16:10:23.229,0.0097154254326326,-0.1413381843010675,-0.1316227585782786,0.0763561780178346,4,DB
2025-05-14 16:10:23.233,0.0217516314911942,-0.1409330936938243,-0.1191814618991516,0.089990153596883,4,DB
2025-05-14 16:10:23.237,0.052905309868995,-0.1570500677670873,-0.1041447575822329,0.0923405748430651,4,DB
2025-05-14 16:10:23.241,0.0705194501954852,-0.1671376098571673,-0.0966181593339824,0.0912139948200704,4,DB
2025-05-14 16:10:23.245,0.0705158901647986,-0.1591659473586543,-0.0886500568536477,0.1003689532784219,4,DB
2025-05-14 16:10:23.249,0.0795833833139798,-0.1518261670279698,-0.0722427833609729,0.1169635655726862,4,DB
2025-05-14 16:10:23.253,0.1040528589282451,-0.1598683669584735,-0.05581550766523,0.1250881484799544,4,DB
2025-05-14 16:10:23.257,0.1206854513147144,-0.169286493143805,-0.0486010414525775,0.1262889327386772,4,DB
2025-05-14 16:10:23.261,0.1214679688144363,-0.1648787467469336,-0.0434107775438534,0.140010731115852,4,DB
