Timestamp,GSR_Filtered,PPG_Filtered,FMS,Condition
2025-05-14 16:10:18.900,-6.228244433234318e-07,-1.1163332693265704,4,DB
2025-05-14 16:10:18.908,-4.25384911320012e-06,-1.5505362743887638,4,DB
2025-05-14 16:10:18.915,-7.92439591070635e-06,-1.9425638537992485,4,DB
2025-05-14 16:10:18.923,-1.1565145776301856e-05,-2.296536407858852,4,DB
2025-05-14 16:10:18.931,-1.5108286450055836e-05,-2.61717315288422,4,DB
2025-05-14 16:10:18.939,-1.8488714519856005e-05,-2.9095675498109053,4,DB
2025-05-14 16:10:18.947,-2.1645030850307047e-05,-3.178963998424736,4,DB
2025-05-14 16:10:18.955,-2.45203339362627e-05,-3.430542780366182,4,DB
2025-05-14 16:10:18.962,-2.7062830853082968e-05,-3.6692193893171496,4,DB
2025-05-14 16:10:18.970,-2.922629630149332e-05,-3.899463367512837,4,DB
2025-05-14 16:10:18.978,-3.09704166404513e-05,-4.125140658751969,4,DB
2025-05-14 16:10:18.986,-3.2261057846550576e-05,-4.349382372710923,4,DB
2025-05-14 16:10:18.994,-3.3070494309246774e-05,-4.574481803974985,4,DB
2025-05-14 16:10:19.001,-3.337762972265546e-05,-4.801820614716018,4,DB
2025-05-14 16:10:19.009,-3.3168232678866515e-05,-5.031824306418906,4,DB
2025-05-14 16:10:19.017,-3.243519864716476e-05,-5.263946486692784,4,DB
2025-05-14 16:10:19.025,-3.117883768124268e-05,-5.496680973464192,4,DB
2025-05-14 16:10:19.033,-2.9407174343038844e-05,-5.727600443574561,4,DB
2025-05-14 16:10:19.040,-2.713623391052353e-05,-5.953420087267427,4,DB
2025-05-14 16:10:19.048,-2.439027788743718e-05,-6.170084532073203,4,DB
2025-05-14 16:10:19.056,-2.1201943055627946e-05,-6.37287611063496,4,DB
2025-05-14 16:10:19.064,-1.7612232629383655e-05,-6.556542338310042,4,DB
2025-05-14 16:10:19.072,-1.367030619989874e-05,-6.715440222517668,4,DB
2025-05-14 16:10:19.080,-9.433017668317477e-06,-6.843694742882343,4,DB
2025-05-14 16:10:19.087,-4.964157658121598e-06,-6.935368521436302,4,DB
2025-05-14 16:10:19.095,-3.333691768333601e-07,-6.984639350492325,4,DB
2025-05-14 16:10:19.103,4.385277447109273e-06,-6.985981872640751,4,DB
2025-05-14 16:10:19.111,9.115042332611929e-06,-6.934349334463106,4,DB
2025-05-14 16:10:19.119,1.377857224192071e-05,-6.825350998862296,4,DB
2025-05-14 16:10:19.126,1.8300191114341425e-05,-6.655420545139278,4,DB
2025-05-14 16:10:19.134,2.2608328415691497e-05,-6.42197065493839,4,DB
2025-05-14 16:10:19.142,2.6637954876007416e-05,-6.123529010730003,4,DB
2025-05-14 16:10:19.150,3.033286276560557e-05,-5.759851143507123,4,DB
2025-05-14 16:10:19.158,3.364760808891166e-05,-5.33200596593742,4,DB
2025-05-14 16:10:19.165,3.654894715383998e-05,-4.842430410919406,4,DB
2025-05-14 16:10:19.173,3.901666273896073e-05,-4.2949503455157005,4,DB
2025-05-14 16:10:19.181,4.104376084812697e-05,-3.694765818164683,4,DB
2025-05-14 16:10:19.189,4.263607955702737e-05,-3.0483996865980965,4,DB
2025-05-14 16:10:19.197,4.381136389846274e-05,-2.3636097245587897,4,DB
2025-05-14 16:10:19.205,4.459784809112938e-05,-1.6492653767663574,4,DB
2025-05-14 16:10:19.212,4.503239216466368e-05,-0.9151913865770112,4,DB
2025-05-14 16:10:19.220,4.515826737445855e-05,-0.1719815274128766,4,DB
2025-05-14 16:10:19.228,4.502275133946968e-05,0.5692134004189362,4,DB
2025-05-14 16:10:19.236,4.467473194975341e-05,1.2969183170071614,4,DB
2025-05-14 16:10:19.244,4.416250491933084e-05,1.9995816610538333,4,DB
2025-05-14 16:10:19.251,4.353189724595682e-05,2.665831991118651,4,DB
2025-05-14 16:10:19.259,4.2824781146872753e-05,3.2847367498253317,4,DB
2025-05-14 16:10:19.267,4.207797436990232e-05,3.8460563274386574,4,DB
2025-05-14 16:10:19.275,4.13224671950644e-05,4.340486508018964,4,DB
2025-05-14 16:10:19.283,4.0582897195655855e-05,4.759882502334148,4,DB
2025-05-14 16:10:19.290,3.987722358642771e-05,5.097458073968128,4,DB
2025-05-14 16:10:19.298,3.9216609670748055e-05,5.347953754996454,4,DB
2025-05-14 16:10:19.306,3.860555663924635e-05,5.50776882936633,4,DB
2025-05-14 16:10:19.314,3.8042320510280696e-05,5.575052639750509,4,DB
2025-05-14 16:10:19.322,3.751959965058049e-05,5.549751849051784,4,DB
2025-05-14 16:10:19.330,3.7025427432745975e-05,5.433611550362254,4,DB
2025-05-14 16:10:19.337,3.654416463235035e-05,5.230129533712256,4,DB
2025-05-14 16:10:19.345,3.605748336800062e-05,4.944464521253517,4,DB
2025-05-14 16:10:19.353,3.554528179090644e-05,4.583300694356947,4,DB
2025-05-14 16:10:19.361,3.498654168442494e-05,4.154672276377236,4,DB
2025-05-14 16:10:19.369,3.4360191254409455e-05,3.667753236296517,4,DB
2025-05-14 16:10:19.376,3.3646037969209085e-05,3.132618289947195,4,DB
2025-05-14 16:10:19.384,3.282580427692452e-05,2.559982259040515,4,DB
2025-05-14 16:10:19.392,3.1884254813858004e-05,1.960925475604137,4,DB
2025-05-14 16:10:19.400,3.081035885780417e-05,1.3466132718772057,4,DB
2025-05-14 16:10:19.408,2.959838973016279e-05,0.7280176659293148,4,DB
2025-05-14 16:10:19.415,2.8248827004503e-05,0.1156491472642362,4,DB
2025-05-14 16:10:19.423,2.6768909078234608e-05,-0.4806939957817925,4,DB
2025-05-14 16:10:19.431,2.517270501231377e-05,-1.0521520516426826,4,DB
2025-05-14 16:10:19.439,2.348064802247182e-05,-1.591000080246629,4,DB
2025-05-14 16:10:19.447,2.171857332518998e-05,-2.090809060912656,4,DB
2025-05-14 16:10:19.455,1.991638111146899e-05,-2.546568259141508,4,DB
2025-05-14 16:10:19.462,1.81064757597556e-05,-2.954766290789182,4,DB
2025-05-14 16:10:19.470,1.6322127107262545e-05,-3.3134296158059566,4,DB
2025-05-14 16:10:19.478,1.459588022269824e-05,-3.6221184394186,4,DB
2025-05-14 16:10:19.486,1.2958117284763216e-05,-3.8818811849998496,4,DB
2025-05-14 16:10:19.494,1.1435851398200696e-05,-4.095169783538351,4,DB
2025-05-14 16:10:19.501,1.0051808320386802e-05,-4.2657189617029765,4,DB
2025-05-14 16:10:19.509,8.823828900319948e-06,-4.398393476828313,4,DB
2025-05-14 16:10:19.517,7.764603234548944e-06,-4.499007831846186,4,DB
2025-05-14 16:10:19.525,6.881727709194793e-06,-4.574123417502104,4,DB
2025-05-14 16:10:19.533,6.178058707289605e-06,-4.630828304352998,4,DB
2025-05-14 16:10:19.540,5.652322191792712e-06,-4.676505082771116,4,DB
2025-05-14 16:10:19.548,5.29992689421922e-06,-4.71859226072703,4,DB
2025-05-14 16:10:19.556,5.113920608127323e-06,-4.764344799222016,4,DB
2025-05-14 16:10:19.564,5.086024165219422e-06,-4.820599401285686,4,DB
2025-05-14 16:10:19.572,5.207676023002658e-06,-4.893550164978044,4,DB
2025-05-14 16:10:19.580,5.471021891400293e-06,-4.988540144164936,4,DB
2025-05-14 16:10:19.587,5.86978826498554e-06,-5.109874205929372,4,DB
2025-05-14 16:10:19.595,6.399985828680666e-06,-5.260658302699889,4,DB
2025-05-14 16:10:19.603,7.0603981251718935e-06,-5.442669868868209,4,DB
2025-05-14 16:10:19.611,7.852822214579472e-06,-5.6562634925903295,4,DB
2025-05-14 16:10:19.619,8.782040878183039e-06,-5.900315296207047,4,DB
2025-05-14 16:10:19.626,9.855519739059715e-06,-6.172208580315839,4,DB
2025-05-14 16:10:19.634,1.1082836987392948e-05,-6.467862254096151,4,DB
2025-05-14 16:10:19.642,1.2474867684008547e-05,-6.781802413116715,4,DB
2025-05-14 16:10:19.650,1.4042758342654537e-05,-7.107276179038823,4,DB
2025-05-14 16:10:19.658,1.5796740133865704e-05,-7.436405637781867,4,DB
2025-05-14 16:10:19.666,1.774484010043667e-05,-7.760378461225777,4,DB
2025-05-14 16:10:19.673,1.9891558743368623e-05,-8.069670627595956,4,DB
2025-05-14 16:10:19.681,2.2236588784429884e-05,-8.354295615173582,4,DB
2025-05-14 16:10:19.689,2.477365344714149e-05,-8.60407356845495,4,DB
2025-05-14 16:10:19.697,2.748954289879422e-05,-8.808913247834704,4,DB
2025-05-14 16:10:19.705,3.036342431916061e-05,-8.959099087159402,4,DB
2025-05-14 16:10:19.712,3.336649425776115e-05,-9.04557540918576,4,DB
2025-05-14 16:10:19.720,3.6462031468014925e-05,-9.060219798171293,4,DB
2025-05-14 16:10:19.728,3.960589433790373e-05,-8.996097810514021,4,DB
2025-05-14 16:10:19.736,4.274748957401738e-05,-8.847691620582468,4,DB
2025-05-14 16:10:19.744,4.583121827317125e-05,-8.611095841254045,4,DB
2025-05-14 16:10:19.751,4.879838240348021e-05,-8.284174609028218,4,DB
2025-05-14 16:10:19.759,5.158950962035274e-05,-7.86667505706171,4,DB
2025-05-14 16:10:19.767,5.414702799755863e-05,-7.360293486231672,4,DB
2025-05-14 16:10:19.775,5.641819551362664e-05,-6.76869184860583,4,DB
2025-05-14 16:10:19.783,5.835816295665572e-05,-6.097463537175276,4,DB
2025-05-14 16:10:19.791,5.9933024334816806e-05,-5.3540488830551975,4,DB
2025-05-14 16:10:19.798,6.112268699814152e-05,-4.547602146586351,4,DB
2025-05-14 16:10:19.806,6.192337560408421e-05,-3.688813101569616,4,DB
2025-05-14 16:10:19.814,6.234957089389063e-05,-2.7896875065543485,4,DB
2025-05-14 16:10:19.822,6.243517703195796e-05,-1.863291801075909,4,DB
2025-05-14 16:10:19.830,6.223371256451451e-05,-0.9234682444217506,4,DB
2025-05-14 16:10:19.837,6.181734036025522e-05,0.0154725682926314,4,DB
2025-05-14 16:10:19.845,6.127461241457197e-05,0.939074316881929,4,DB
2025-05-14 16:10:19.853,6.070691768499781e-05,1.8330647897112309,4,DB
2025-05-14 16:10:19.861,6.022375893204547e-05,2.68368478069479,4,DB
2025-05-14 16:10:19.869,5.993709779373694e-05,3.4780077874107977,4,DB
2025-05-14 16:10:19.876,5.995506954525571e-05,4.204242301359253,4,DB
2025-05-14 16:10:19.884,6.0375391290757815e-05,4.852008702397511,4,DB
2025-05-14 16:10:19.892,6.12787902698684e-05,5.4125831777840645,4,DB
2025-05-14 16:10:19.900,6.272277222291193e-05,5.879101703608913,4,DB
2025-05-14 16:10:19.908,6.473603501282394e-05,6.246717970862059,4,DB
2025-05-14 16:10:19.916,6.731381004141326e-05,6.512710221737034,4,DB
2025-05-14 16:10:19.923,7.041438358923966e-05,6.6765332833415005,4,DB
2025-05-14 16:10:19.931,7.395701231747772e-05,6.739813623922611,4,DB
2025-05-14 16:10:19.939,7.78214021936304e-05,6.7062869639161,4,DB
2025-05-14 16:10:19.947,8.184886860318011e-05,6.581679783970057,4,DB
2025-05-14 16:10:19.955,8.584523814830713e-05,6.373537908828509,4,DB
2025-05-14 16:10:19.962,8.958549060601639e-05,6.091007130815319,4,DB
2025-05-14 16:10:19.970,9.282007397188084e-05,5.7445724879282265,4,DB
2025-05-14 16:10:19.978,9.528275797699555e-05,5.345764245810308,4,DB
2025-05-14 16:10:19.986,9.669982373973764e-05,4.906839773046479,4,DB
2025-05-14 16:10:19.994,9.680032137781667e-05,4.44045128622501,4,DB
2025-05-14 16:10:20.001,9.53270657853255e-05,3.959309840349359,4,DB
2025-05-14 16:10:20.009,9.204798590625814e-05,3.475855939281827,4,DB
2025-05-14 16:10:20.017,8.67673973895674e-05,3.0019467457724307,4,DB
2025-05-14 16:10:20.025,7.933673523997956e-05,2.548569104482191,4,DB
2025-05-14 16:10:20.033,6.966426470659235e-05,2.125586495310497,4,DB
2025-05-14 16:10:20.041,5.772328776509109e-05,1.74152666307395,4,DB
2025-05-14 16:10:20.048,4.355838147811448e-05,1.4034150846597426,4,DB
2025-05-14 16:10:20.056,2.7289245201014968e-05,1.1166577013205217,4,DB
2025-05-14 16:10:20.064,9.11179745105113e-06,0.8849745335955914,4,DB
2025-05-14 16:10:20.072,-1.0703748967985908e-05,0.7103839910424367,4,DB
2025-05-14 16:10:20.080,-3.1817993326953485e-05,0.5932359748278043,4,DB
2025-05-14 16:10:20.087,-5.383065992859181e-05,0.5322903258272386,4,DB
2025-05-14 16:10:20.095,-7.62919870949001e-05,0.5248358515827739,4,DB
2025-05-14 16:10:20.103,-9.871688787256584e-05,0.5668441075522868,4,DB
2025-05-14 16:10:20.111,-0.000120601390392,0.6531513299733089,4,DB
2025-05-14 16:10:20.119,-0.0001414406708297,0.7776614273287994,4,DB
2025-05-14 16:10:20.126,-0.0001607478071926,0.9335627360511476,4,DB
2025-05-14 16:10:20.134,-0.000178072246705,1.1135513277413398,4,DB
2025-05-14 16:10:20.142,-0.000193016944427,1.3100540039455577,4,DB
2025-05-14 16:10:20.150,-0.0002052532211352,1.5154447024120066,4,DB
2025-05-14 16:10:20.158,-0.0002145325801891,1.722248824386052,4,DB
2025-05-14 16:10:20.166,-0.0002206949659712,1.9233309220021797,4,DB
2025-05-14 16:10:20.173,-0.0002236732021357,2.1120621964720794,4,DB
2025-05-14 16:10:20.181,-0.0002234935975291,2.282465289706934,4,DB
2025-05-14 16:10:20.189,-0.0002202729346686,2.429334849093217,4,DB
2025-05-14 16:10:20.197,-0.0002142122331876,2.5483332618024206,4,DB
2025-05-14 16:10:20.205,-0.0002055877836732,2.636061754764075,4,DB
2025-05-14 16:10:20.212,-0.0001947399763312,2.6901077109660667,4,DB
2025-05-14 16:10:20.220,-0.0001820604297258,2.7090695436094374,4,DB
2025-05-14 16:10:20.228,-0.0001679778863573,2.6925607915000898,4,DB
2025-05-14 16:10:20.236,-0.0001529433066892,2.6411952608962643,4,DB
2025-05-14 16:10:20.244,-0.0001374145801155,2.556555062276883,4,DB
2025-05-14 16:10:20.251,-0.0001218412844779,2.441143305796868,4,DB
2025-05-14 16:10:20.259,-0.0001066499514211,2.2983230619039348,4,DB
2025-05-14 16:10:20.267,-9.223032153543672e-05,2.132243997161593,4,DB
2025-05-14 16:10:20.275,-7.892309186358841e-05,1.947757885387646,4,DB
2025-05-14 16:10:20.283,-6.700964497147255e-05,1.750323988027713,4,DB
2025-05-14 16:10:20.291,-5.6704186544078224e-05,1.5459051094974674,4,DB
2025-05-14 16:10:20.298,-4.814862275248085e-05,1.3408549813268291,4,DB
2025-05-14 16:10:20.306,-4.141039398958636e-05,1.1417975386284964,4,DB
2025-05-14 16:10:20.314,-3.648333524230623e-05,0.9554986522792348,4,DB
2025-05-14 16:10:20.322,-3.329144843835098e-05,0.7887309949962351,4,DB
2025-05-14 16:10:20.330,-3.1695278801603387e-05,0.6481329647052466,4,DB
2025-05-14 16:10:20.337,-3.1500442143502644e-05,0.5400629667367466,4,DB
2025-05-14 16:10:20.345,-3.2467799801774945e-05,0.4704508529855943,4,DB
2025-05-14 16:10:20.353,-3.432481381264715e-05,0.4446488976527405,4,DB
2025-05-14 16:10:20.361,-3.677766488907659e-05,0.4672853061561636,4,DB
2025-05-14 16:10:20.369,-3.9523709392820766e-05,0.5421238488328716,4,DB
2025-05-14 16:10:20.376,-4.226378922039069e-05,0.6719337257076334,4,DB
2025-05-14 16:10:20.384,-4.471385696734418e-05,0.8583741463381975,4,DB
2025-05-14 16:10:20.392,-4.661540621332749e-05,1.101898295841724,4,DB
2025-05-14 16:10:20.400,-4.774431373689821e-05,1.401681306290424,4,DB
2025-05-14 16:10:20.408,-4.7917857447307176e-05,1.7555765247603514,4,DB
2025-05-14 16:10:20.416,-4.699981206277258e-05,2.1601037482291208,4,DB
2025-05-14 16:10:20.423,-4.490361730650455e-05,2.61047219067085,4,DB
2025-05-14 16:10:20.431,-4.159366844164408e-05,3.100639797715026,4,DB
2025-05-14 16:10:20.439,-3.708481880037059e-05,3.623409195019024,4,DB
2025-05-14 16:10:20.447,-3.1440220370702e-05,4.17055913398777,4,DB
2025-05-14 16:10:20.455,-2.476766205146245e-05,4.733008875073676,4,DB
2025-05-14 16:10:20.462,-1.7214606249881536e-05,5.301011607460564,4,DB
2025-05-14 16:10:20.470,-8.962186289665427e-06,5.864371807909119,4,DB
2025-05-14 16:10:20.478,-2.1849744363035278e-07,6.412680435497109,4,DB
2025-05-14 16:10:20.486,8.78844384532535e-06,6.935561074605547,4,DB
2025-05-14 16:10:20.494,1.7817716288123056e-05,7.422919599335532,4,DB
2025-05-14 16:10:20.501,2.6622207855553665e-05,7.865189656303952,4,DB
2025-05-14 16:10:20.509,3.49548623642551e-05,8.253566262382728,4,DB
2025-05-14 16:10:20.517,4.257441239584115e-05,8.58022009748401,4,DB
2025-05-14 16:10:20.525,4.925066239341826e-05,8.838485641231095,4,DB
2025-05-14 16:10:20.533,5.476947134166502e-05,9.023017147238242,4,DB
2025-05-14 16:10:20.541,5.893762006896329e-05,9.129907547220714,4,DB
2025-05-14 16:10:20.548,6.158771052025651e-05,9.156766692532514,4,DB
2025-05-14 16:10:20.556,6.258313734008696e-05,9.102756823612642,4,DB
2025-05-14 16:10:20.564,6.182303352436537e-05,8.968584747348967,4,DB
2025-05-14 16:10:20.572,5.9246973892766665e-05,8.756451824803337,4,DB
2025-05-14 16:10:20.580,5.4839161208269954e-05,8.469964439655369,4,DB
2025-05-14 16:10:20.587,4.863182379069168e-05,8.114009036203232,4,DB
2025-05-14 16:10:20.595,4.070758951181169e-05,7.694596997321247,4,DB
2025-05-14 16:10:20.603,3.12006257442443e-05,7.218685514082019,4,DB
2025-05-14 16:10:20.611,2.0296326528787848e-05,6.693981149707236,4,DB
2025-05-14 16:10:20.619,8.229310599454432e-06,6.128733022605951,4,DB
2025-05-14 16:10:20.626,-4.720484545691636e-06,5.531522451834507,4,DB
2025-05-14 16:10:20.634,-1.8233742417290317e-05,4.91105556416196,4,DB
2025-05-14 16:10:20.642,-3.19597368700312e-05,4.275964803131579,4,DB
2025-05-14 16:10:20.650,-4.5526167649614607e-05,3.634624554239132,4,DB
2025-05-14 16:10:20.658,-5.855053066579254e-05,2.9949852483428714,4,DB
2025-05-14 16:10:20.666,-7.065253249720308e-05,2.364429367269804,4,DB
2025-05-14 16:10:20.673,-8.146694494480994e-05,1.7496517959007567,4,DB
2025-05-14 16:10:20.681,-9.065626693669103e-05,1.1565659941758737,4,DB
2025-05-14 16:10:20.689,-9.792261910984454e-05,0.5902365474514751,4,DB
2025-05-14 16:10:20.697,-0.0001030183924092,0.0548378287419527,4,DB
2025-05-14 16:10:20.705,-0.0001057552501323,-0.4463622072308273,4,DB
2025-05-14 16:10:20.712,-0.0001060111208886,-0.9109946690483848,4,DB
2025-05-14 16:10:20.720,-0.0001037348401835,-1.3375608513323862,4,DB
2025-05-14 16:10:20.728,-9.894815503514466e-05,-1.7253842336694234,4,DB
2025-05-14 16:10:20.736,-9.174493772730554e-05,-2.0745460318454354,4,DB
2025-05-14 16:10:20.744,-8.2287637161694e-05,-2.3858071966117,4,DB
2025-05-14 16:10:20.751,-7.080116728908241e-05,-2.6605199254044294,4,DB
2025-05-14 16:10:20.759,-5.7564557844058686e-05,-2.900531867782728,4,DB
2025-05-14 16:10:20.767,-4.290078137025639e-05,-3.108086250697844,4,DB
2025-05-14 16:10:20.775,-2.7165235020853583e-05,-3.285721108500401,4,DB
2025-05-14 16:10:20.783,-1.0733392844186232e-05,-3.4361706621736543,4,DB
2025-05-14 16:10:20.791,6.011844966057194e-06,-3.5622716475546503,4,DB
2025-05-14 16:10:20.798,2.269258076661253e-05,-3.666877048861446,4,DB
2025-05-14 16:10:20.806,3.894761340141695e-05,-3.752779268703872,4,DB
2025-05-14 16:10:20.814,5.444292983148924e-05,-3.822644283347036,4,DB
2025-05-14 16:10:20.822,6.888061618115093e-05,-3.878957817096006,4,DB
2025-05-14 16:10:20.830,8.200592584915304e-05,-3.923984042951462,4,DB
2025-05-14 16:10:20.837,9.361236041187958e-05,-3.959736796506976,4,DB
2025-05-14 16:10:20.845,0.0001035447265051,-3.987962797269216,4,DB
2025-05-14 16:10:20.853,0.00011170022483,-4.010135930686468,4,DB
2025-05-14 16:10:20.861,0.0001180277044497,-4.027461278727632,4,DB
2025-05-14 16:10:20.869,0.0001225252759763,-4.040887313921802,4,DB
2025-05-14 16:10:20.876,0.0001252365211512,-4.051124500469272,4,DB
2025-05-14 16:10:20.884,0.0001262455643997,-4.058668478855072,4,DB
2025-05-14 16:10:20.892,0.0001256712854379,-4.063826042924398,4,DB
2025-05-14 16:10:20.900,0.0001236609525859,-4.066742238257625,4,DB
2025-05-14 16:10:20.908,0.0001203835461071,-4.067427099700768,4,DB
2025-05-14 16:10:20.916,0.0001160230218324,-4.065780784809721,4,DB
2025-05-14 16:10:20.923,0.0001107717398447,-4.061616131525007,4,DB
2025-05-14 16:10:20.931,0.000104824253376,-4.054677956780186,4,DB
2025-05-14 16:10:20.939,9.83716214896296e-05,-4.044658702570803,4,DB
2025-05-14 16:10:20.947,9.15963775765859e-05,-4.031210314229569,4,DB
2025-05-14 16:10:20.955,8.466825593539909e-05,-4.013952493454227,4,DB
2025-05-14 16:10:20.962,7.774075214459625e-05,-3.992477699138427,4,DB
2025-05-14 16:10:20.970,7.094857067293061e-05,-3.966353464035768,4,DB
2025-05-14 16:10:20.978,6.440599590195273e-05,-3.935122747333775,4,DB
2025-05-14 16:10:20.986,5.820620917252712e-05,-3.898303151290529,4,DB
2025-05-14 16:10:20.994,5.242155488691222e-05,-3.855385899720941,4,DB
2025-05-14 16:10:21.001,4.710471211540193e-05,-3.8058355127929286,4,DB
2025-05-14 16:10:21.009,4.229064269594786e-05,-3.749091115921784,4,DB
2025-05-14 16:10:21.017,3.799908786294026e-05,-3.684570284569169,4,DB
2025-05-14 16:10:21.025,3.4237321692028624e-05,-3.611676244384408,4,DB
2025-05-14 16:10:21.033,3.100286571866908e-05,-3.5298091126697124,4,DB
2025-05-14 16:10:21.041,2.828591158086239e-05,-3.4383816796794338,4,DB
2025-05-14 16:10:21.048,2.6071264219393328e-05,-3.3368399833621503,4,DB
2025-05-14 16:10:21.056,2.43396943979616e-05,-3.224688626275986,4,DB
2025-05-14 16:10:21.064,2.3068671252290036e-05,-3.1015204225057675,4,DB
2025-05-14 16:10:21.072,2.223252988054672e-05,-2.967049560746932,4,DB
2025-05-14 16:10:21.080,2.180221221617324e-05,-2.821147054345697,4,DB
2025-05-14 16:10:21.087,2.174479653993528e-05,-2.6638768567575584,4,DB
2025-05-14 16:10:21.095,2.2023087372362088e-05,-2.495530695214937,4,DB
2025-05-14 16:10:21.103,2.2595539736559543e-05,-2.3166594612730607,4,DB
2025-05-14 16:10:21.111,2.341670527140032e-05,-2.128098930535088,4,DB
2025-05-14 16:10:21.119,2.4438225090085025e-05,-1.9309876826067296,4,DB
2025-05-14 16:10:21.126,2.56102297835274e-05,-1.7267753527976837,4,DB
2025-05-14 16:10:21.134,2.6882914823184763e-05,-1.517219753145957,4,DB
2025-05-14 16:10:21.142,2.8208052794649107e-05,-1.304371931620827,4,DB
2025-05-14 16:10:21.150,2.954024823611992e-05,-1.090548870025182,4,DB
2025-05-14 16:10:21.158,3.083780359364227e-05,-0.8782942174953813,4,DB
2025-05-14 16:10:21.166,3.20631320959589e-05,-0.6703281679230053,4,DB
2025-05-14 16:10:21.173,3.318272105054779e-05,-0.4694882565303691,4,DB
2025-05-14 16:10:21.181,3.4166714715302415e-05,-0.2786634117076277,4,DB
2025-05-14 16:10:21.189,3.498824554668121e-05,-0.1007239981601645,4,DB
2025-05-14 16:10:21.197,3.562268441062515e-05,0.0615492133153863,4,DB
2025-05-14 16:10:21.205,3.604698170579023e-05,0.2055342327849545,4,DB
2025-05-14 16:10:21.212,3.623921940257721e-05,0.3288325061973006,4,DB
2025-05-14 16:10:21.220,3.617841367522098e-05,0.4293267545761922,4,DB
2025-05-14 16:10:21.228,3.584454786853121e-05,0.5052302451187287,4,DB
2025-05-14 16:10:21.236,3.521880118965293e-05,0.5551263407209606,4,DB
2025-05-14 16:10:21.244,3.4283957385631314e-05,0.5779977781899109,4,DB
2025-05-14 16:10:21.251,3.302500634674822e-05,0.5732456772447421,4,DB
2025-05-14 16:10:21.259,3.1429969532193414e-05,0.5406987394749432,4,DB
2025-05-14 16:10:21.267,2.9490964007820077e-05,0.4806134353575854,4,DB
2025-05-14 16:10:21.275,2.7205457493944947e-05,0.3936661921053861,4,DB
2025-05-14 16:10:21.283,2.457758354307455e-05,0.2809386890486097,4,DB
2025-05-14 16:10:21.291,2.1619330833826582e-05,0.1438973508764156,4,DB
2025-05-14 16:10:21.298,1.835141881194503e-05,-0.0156319752304755,4,DB
2025-05-14 16:10:21.306,1.4803710981445666e-05,-0.1954933275431538,4,DB
2025-05-14 16:10:21.314,1.1015074840745496e-05,-0.3932332537395037,4,DB
2025-05-14 16:10:21.322,7.032662270433314e-06,-0.6061362156127937,4,DB
2025-05-14 16:10:21.330,2.9106524895070448e-06,-0.8312623289993177,4,DB
2025-05-14 16:10:21.337,-1.291430641916692e-06,-1.0654870425175225,4,DB
2025-05-14 16:10:21.345,-5.510648072214852e-06,-1.305542382795412,4,DB
2025-05-14 16:10:21.353,-9.682591925032047e-06,-1.5480594115958846,4,DB
2025-05-14 16:10:21.361,-1.3743116864781257e-05,-1.789611565620227,4,DB
2025-05-14 16:10:21.369,-1.76297054491029e-05,-2.0267585855386336,4,DB
2025-05-14 16:10:21.376,-2.128246746999619e-05,-2.256090776589618,4,DB
2025-05-14 16:10:21.384,-2.4644920343122557e-05,-2.4742733617556247,4,DB
2025-05-14 16:10:21.392,-2.7664766855828487e-05,-2.678090677010527,4,DB
2025-05-14 16:10:21.400,-3.0294865772962574e-05,-2.864489914913978,4,DB
2025-05-14 16:10:21.408,-3.2494515087053845e-05,-3.030624058163769,4,DB
2025-05-14 16:10:21.416,-3.423107112994948e-05,-3.173893575256672,4,DB
2025-05-14 16:10:21.423,-3.5481824683840465e-05,-3.291986391439416,4,DB
2025-05-14 16:10:21.431,-3.6235953480557896e-05,-3.382915607688413,4,DB
2025-05-14 16:10:21.439,-3.649627496855367e-05,-3.4450544185777323,4,DB
2025-05-14 16:10:21.447,-3.628044950924309e-05,-3.4771676724966265,4,DB
2025-05-14 16:10:21.455,-3.562126823570761e-05,-3.478439520873551,4,DB
2025-05-14 16:10:21.462,-3.456574694490304e-05,-3.4484966148264125,4,DB
2025-05-14 16:10:21.470,-3.3172946453938856e-05,-3.3874263274187006,4,DB
2025-05-14 16:10:21.478,-3.151068871178722e-05,-3.295789507580181,4,DB
2025-05-14 16:10:21.486,-2.9651536767311888e-05,-3.1746273076091853,4,DB
2025-05-14 16:10:21.494,-2.7668493225727103e-05,-3.025461667837277,4,DB
2025-05-14 16:10:21.501,-2.56308547254516e-05,-2.8502890839103467,4,DB
2025-05-14 16:10:21.509,-2.360058421905781e-05,-2.651567316785598,4,DB
2025-05-14 16:10:21.517,-2.1629464080683505e-05,-2.4321947284432768,4,DB
2025-05-14 16:10:21.525,-1.975718643442596e-05,-2.1954819408657342,4,DB
2025-05-14 16:10:21.533,-1.8010429717781004e-05,-1.9451155354849976,4,DB
2025-05-14 16:10:21.541,-1.6402875855588614e-05,-1.685113556613682,4,DB
2025-05-14 16:10:21.548,-1.493606480565315e-05,-1.4197726794275545,4,DB
2025-05-14 16:10:21.556,-1.3600977306965456e-05,-1.1536070693910851,4,DB
2025-05-14 16:10:21.564,-1.2380259281690732e-05,-0.8912792016022852,4,DB
2025-05-14 16:10:21.572,-1.1251005532390306e-05,-0.6375232166343813,4,DB
2025-05-14 16:10:21.580,-1.018798269902224e-05,-0.3970617424649612,4,DB
2025-05-14 16:10:21.587,-9.167105952664782e-06,-0.1745174783293137,4,DB
2025-05-14 16:10:21.595,-8.168913993048433e-06,0.0256788220456644,4,DB
2025-05-14 16:10:21.603,-7.181726532697089e-06,0.1993820502672754,4,DB
2025-05-14 16:10:21.611,-6.20413295858249e-06,0.3428260168599486,4,DB
2025-05-14 16:10:21.619,-5.246482717091206e-06,0.4527140964531621,4,DB
2025-05-14 16:10:21.626,-4.331160796481076e-06,0.5263050423074122,4,DB
2025-05-14 16:10:21.634,-3.491621779827022e-06,0.5614918420681893,4,DB
2025-05-14 16:10:21.642,-2.770348126146865e-06,0.5568716105465381,4,DB
2025-05-14 16:10:21.650,-2.21601734573053e-06,0.5118046639728651,4,DB
2025-05-14 16:10:21.658,-1.8801946332829024e-06,0.4264610716863314,4,DB
2025-05-14 16:10:21.666,-1.8138455557471596e-06,0.3018531199256741,4,DB
2025-05-14 16:10:21.673,-2.063919493766085e-06,0.1398522430379712,4,DB
2025-05-14 16:10:21.681,-2.67020179752188e-06,-0.056810911394371,4,DB
2025-05-14 16:10:21.689,-3.662574536862659e-06,-0.2845644940932081,4,DB
2025-05-14 16:10:21.697,-5.058765852207256e-06,-0.5390325893748944,4,DB
2025-05-14 16:10:21.705,-6.862617873144051e-06,-0.8150922855556914,4,DB
2025-05-14 16:10:21.712,-9.062885494128787e-06,-1.1069511542559944,4,DB
2025-05-14 16:10:21.720,-1.1632606041496746e-05,-1.4082451518034518,4,DB
2025-05-14 16:10:21.728,-1.4529128493493018e-05,-1.7121563659590244,4,DB
2025-05-14 16:10:21.736,-1.7694912268249207e-05,-2.0115493229429595,4,DB
2025-05-14 16:10:21.744,-2.1059175322432227e-05,-2.2991237713727206,4,DB
2025-05-14 16:10:21.751,-2.4540402840575577e-05,-2.567581014287084,4,DB
2025-05-14 16:10:21.759,-2.804964422622147e-05,-2.809800021438205,4,DB
2025-05-14 16:10:21.767,-3.149443978760814e-05,-3.0190187781141047,4,DB
2025-05-14 16:10:21.775,-3.47831338868056e-05,-3.1890156660783417,4,DB
2025-05-14 16:10:21.783,-3.782925293389411e-05,-3.314285170606293,4,DB
2025-05-14 16:10:21.791,-4.055556872508032e-05,-3.39020190127262,4,DB
2025-05-14 16:10:21.798,-4.289746346765333e-05,-3.4131668352367,4,DB
2025-05-14 16:10:21.806,-4.480529702692297e-05,-3.38072987114452,4,DB
2025-05-14 16:10:21.814,-4.624563696774972e-05,-3.291683246595148,4,DB
2025-05-14 16:10:21.822,-4.720137566204325e-05,-3.146121136693468,4,DB
2025-05-14 16:10:21.830,-4.767086202974147e-05,-2.945461806381084,4,DB
2025-05-14 16:10:21.837,-4.766622664870666e-05,-2.6924299995140064,4,DB
2025-05-14 16:10:21.845,-4.721112408260656e-05,-2.3909987579200536,4,DB
2025-05-14 16:10:21.853,-4.633816255237503e-05,-2.0462915070097965,4,DB
2025-05-14 16:10:21.861,-4.508630329365478e-05,-1.6644469428875184,4,DB
2025-05-14 16:10:21.869,-4.349846906862954e-05,-1.25245091656259,4,DB
2025-05-14 16:10:21.876,-4.161951845446399e-05,-0.8179410288161516,4,DB
2025-05-14 16:10:21.884,-3.949464601693503e-05,-0.3689909199136098,4,DB
2025-05-14 16:10:21.892,-3.716818177445868e-05,0.0861178267014112,4,DB
2025-05-14 16:10:21.900,-3.4682712726131305e-05,0.5391277098214534,4,DB
2025-05-14 16:10:21.908,-3.2078449696870284e-05,0.9820326987113844,4,DB
2025-05-14 16:10:21.916,-2.9392791585495936e-05,1.4072927385553362,4,DB
2025-05-14 16:10:21.923,-2.6660051276770098e-05,1.8080278516984865,4,DB
2025-05-14 16:10:21.931,-2.3911289531067492e-05,2.1781853883555584,4,DB
2025-05-14 16:10:21.939,-2.117418996291864e-05,2.5126753323519155,4,DB
2025-05-14 16:10:21.947,-1.8472934441807103e-05,2.807470107812648,4,DB
2025-05-14 16:10:21.955,-1.5828089872090826e-05,3.059666966718209,4,DB
2025-05-14 16:10:21.962,-1.32565484086467e-05,3.2675126703945163,4,DB
2025-05-14 16:10:21.970,-1.0771549737155168e-05,3.4303917215245736,4,DB
2025-05-14 16:10:21.978,-8.382771213009507e-06,3.5487807790761416,4,DB
2025-05-14 16:10:21.986,-6.0964319312363295e-06,3.624173033784152,4,DB
2025-05-14 16:10:21.994,-3.9153525798244255e-06,3.658977191846325,4,DB
2025-05-14 16:10:22.001,-1.838958936930352e-06,3.656396284710181,4,DB
2025-05-14 16:10:22.009,1.3671154060652365e-07,3.6202917920104367,4,DB
2025-05-14 16:10:22.017,2.018891855609437e-06,3.5550385581022823,4,DB
2025-05-14 16:10:22.025,3.817747074449049e-06,3.46537574821587,4,DB
2025-05-14 16:10:22.033,5.545739911548723e-06,3.3562586855515644,4,DB
2025-05-14 16:10:22.041,7.216671181570213e-06,3.2327158876639364,4,DB
2025-05-14 16:10:22.048,8.844413627153033e-06,3.0997150188687352,4,DB
2025-05-14 16:10:22.056,1.044140324272438e-05,2.9620408254260906,4,DB
2025-05-14 16:10:22.064,1.2016994250707204e-05,2.8241874484605445,4,DB
2025-05-14 16:10:22.072,1.3575820872214725e-05,2.690266839185382,4,DB
2025-05-14 16:10:22.080,1.5116339623672844e-05,2.563934347703534,4,DB
2025-05-14 16:10:22.087,1.662974724987894e-05,2.448331927535265,4,DB
2025-05-14 16:10:22.095,1.809947088682474e-05,2.346048797786953,4,DB
2025-05-14 16:10:22.103,1.950138724707953e-05,2.2590988448162763,4,DB
2025-05-14 16:10:22.111,2.0804834815478365e-05,2.188913546783118,4,DB
2025-05-14 16:10:22.119,2.197436330708581e-05,2.1363487950689897,4,DB
2025-05-14 16:10:22.127,2.2972067854538574e-05,2.1017036923691457,4,DB
2025-05-14 16:10:22.134,2.376030781649007e-05,2.0847492468167514,4,DB
2025-05-14 16:10:22.142,2.4304600375487816e-05,2.084764860641409,4,DB
2025-05-14 16:10:22.150,2.457648636599392e-05,2.1005806200898247,4,DB
2025-05-14 16:10:22.158,2.455618003638581e-05,2.1306236048170315,4,DB
2025-05-14 16:10:22.166,2.423483369747615e-05,2.1729667165843454,4,DB
2025-05-14 16:10:22.173,2.361627200763133e-05,2.225378848043609,4,DB
2025-05-14 16:10:22.181,2.2718078497514903e-05,2.2853755479287816,4,DB
2025-05-14 16:10:22.189,2.1571948293275387e-05,2.3502696691344536,4,DB
2025-05-14 16:10:22.197,2.0223255239983265e-05,2.41722179434183,4,DB
2025-05-14 16:10:22.205,1.87298180738706e-05,2.483290506877548,4,DB
2025-05-14 16:10:22.212,1.71598881868759e-05,2.5454828009039123,4,DB
2025-05-14 16:10:22.220,1.558942003949973e-05,2.600805090963399,4,DB
2025-05-14 16:10:22.228,1.4098723501900376e-05,2.64631536798462,4,DB
2025-05-14 16:10:22.236,1.2768634360116848e-05,2.6791770384840445,4,DB
2025-05-14 16:10:22.244,1.167637387149548e-05,2.6967148652008213,4,DB
2025-05-14 16:10:22.252,1.0891299496802876e-05,2.696473202918986,4,DB
2025-05-14 16:10:22.259,1.047077565001339e-05,2.6762764050115404,4,DB
2025-05-14 16:10:22.267,1.0456414357334756e-05,2.6342908810154597,4,DB
2025-05-14 16:10:22.275,1.0870948370977392e-05,2.569087833179469,4,DB
2025-05-14 16:10:22.283,1.1715992808868674e-05,2.4797052169234406,4,DB
2025-05-14 16:10:22.291,1.2970904244038689e-05,2.3657069925372167,4,DB
2025-05-14 16:10:22.298,1.4592846374942176e-05,2.227237306895705,4,DB
2025-05-14 16:10:22.306,1.6518044725042944e-05,2.0650669102968666,4,DB
2025-05-14 16:10:22.314,1.8664108768241856e-05,1.8806289165759404,4,DB
2025-05-14 16:10:22.322,2.0933244344683742e-05,1.6760409865026171,4,DB
2025-05-14 16:10:22.330,2.3216160513247373e-05,1.4541111731289942,4,DB
2025-05-14 16:10:22.337,2.5396471931358476e-05,1.2183250164928583,4,DB
2025-05-14 16:10:22.345,2.7355400243034738e-05,0.972812005666834,4,DB
2025-05-14 16:10:22.353,2.8976583685975263e-05,0.7222902218644321,4,DB
2025-05-14 16:10:22.361,3.0150812793339622e-05,0.4719888096217778,4,DB
2025-05-14 16:10:22.369,3.078052135441543e-05,0.227548849571388,4,DB
2025-05-14 16:10:22.377,3.078387550079288e-05,-0.0050958351042283,4,DB
2025-05-14 16:10:22.384,3.0098319791110234e-05,-0.219855481930899,4,DB
2025-05-14 16:10:22.392,2.8683457457717343e-05,-0.4106355110169663,4,DB
2025-05-14 16:10:22.400,2.6523162603440237e-05,-0.5714979688109189,4,DB
2025-05-14 16:10:22.408,2.3626845191524343e-05,-0.6968287440017868,4,DB
2025-05-14 16:10:22.416,2.0029815265027485e-05,-0.7815056182349375,4,DB
2025-05-14 16:10:22.423,1.5792721048088543e-05,-0.8210619959624463,4,DB
2025-05-14 16:10:22.431,1.100006644311634e-05,-0.8118411052338973,4,DB
2025-05-14 16:10:22.439,5.757846866600649e-06,-0.7511355673958174,4,DB
2025-05-14 16:10:22.447,1.903781458800575e-07,-0.6373074911566818,4,DB
2025-05-14 16:10:22.455,-5.563569056386703e-06,-0.4698846487050398,4,DB
2025-05-14 16:10:22.462,-1.1355177696587122e-05,-0.2496288309288279,4,DB
2025-05-14 16:10:22.470,-1.7030346002462458e-05,0.0214268546460855,4,DB
2025-05-14 16:10:22.478,-2.243458629675394e-05,0.3399741962065088,4,DB
2025-05-14 16:10:22.486,-2.7417852198193837e-05,0.7014611612252168,4,DB
2025-05-14 16:10:22.494,-3.1839138829981905e-05,1.1001588185031823,4,DB
2025-05-14 16:10:22.502,-3.557077553610333e-05,1.5292633828199431,4,DB
2025-05-14 16:10:22.509,-3.850237878228935e-05,1.9810317165396036,4,DB
2025-05-14 16:10:22.517,-4.05444302578356e-05,2.446947439991908,4,DB
2025-05-14 16:10:22.525,-4.163140548654612e-05,2.917913630832594,4,DB
2025-05-14 16:10:22.533,-4.1724326657140765e-05,3.38446698597496,4,DB
2025-05-14 16:10:22.541,-4.0812572417017786e-05,3.83700734382612,4,DB
2025-05-14 16:10:22.548,-3.8914772531384594e-05,4.266035690817461,4,DB
2025-05-14 16:10:22.556,-3.607866103594166e-05,4.662393266489066,4,DB
2025-05-14 16:10:22.564,-3.237983622453935e-05,5.017494174407031,4,DB
2025-05-14 16:10:22.572,-2.7919442228032803e-05,5.323544014969966,4,DB
2025-05-14 16:10:22.580,-2.282084225050571e-05,5.57373747403683,4,DB
2025-05-14 16:10:22.587,-1.722542295370884e-05,5.762428507845312,4,DB
2025-05-14 16:10:22.595,-1.1287749939444284e-05,5.885267727070726,4,DB
2025-05-14 16:10:22.603,-5.1703479507723085e-06,5.939302755185909,4,DB
2025-05-14 16:10:22.611,9.616160604264263e-07,5.923038661602832,4,DB
2025-05-14 16:10:22.619,6.945500007790748e-06,5.836456986792741,4,DB
2025-05-14 16:10:22.627,1.2626001009062636e-05,5.680993324866464,4,DB
2025-05-14 16:10:22.634,1.7859459601280478e-05,5.459474853826968,4,DB
2025-05-14 16:10:22.642,2.251754006192301e-05,5.176020554572995,4,DB
2025-05-14 16:10:22.650,2.649021349344528e-05,4.835908090269608,4,DB
2025-05-14 16:10:22.658,2.968800657929393e-05,4.445412383847612,4,DB
2025-05-14 16:10:22.666,3.204351033608437e-05,4.011621790644813,4,DB
2025-05-14 16:10:22.673,3.3512169435852474e-05,3.542238375680406,4,DB
2025-05-14 16:10:22.681,3.4072393723189795e-05,3.04536913787069,4,DB
2025-05-14 16:10:22.689,3.37250496443996e-05,2.5293150587912505,4,DB
2025-05-14 16:10:22.697,3.2492400909581974e-05,2.0023645962429706,4,DB
2025-05-14 16:10:22.705,3.0416575476670093e-05,1.472597721251948,4,DB
2025-05-14 16:10:22.712,2.755764066256512e-05,0.9477058559232872,4,DB
2025-05-14 16:10:22.720,2.399137071036478e-05,0.4348321615491342,4,DB
2025-05-14 16:10:22.728,1.980679235379654e-05,-0.0595643917797907,4,DB
2025-05-14 16:10:22.736,1.510359466808526e-05,-0.5298188132846802,4,DB
2025-05-14 16:10:22.744,9.98949054535084e-06,-0.9711424446564224,4,DB
2025-05-14 16:10:22.752,4.577619118989829e-06,-1.379677602220122,4,DB
2025-05-14 16:10:22.759,-1.0159181442461751e-06,-1.7525251526422951,4,DB
2025-05-14 16:10:22.767,-6.6742915148912025e-06,-2.0877464513718467,4,DB
2025-05-14 16:10:22.775,-1.2281857185429807e-05,-2.384341692318489,4,DB
2025-05-14 16:10:22.783,-1.7725697986943685e-05,-2.6422071596306984,4,DB
2025-05-14 16:10:22.791,-2.289681544778222e-05,-2.8620741464482005,4,DB
2025-05-14 16:10:22.798,-2.769109259199419e-05,-3.0454324361764438,4,DB
2025-05-14 16:10:22.806,-3.2010208606346945e-05,-3.194441263464088,4,DB
2025-05-14 16:10:22.814,-3.576269042107892e-05,-3.311830620473513,4,DB
2025-05-14 16:10:22.822,-3.886524545094157e-05,-3.4007956802631467,4,DB
2025-05-14 16:10:22.830,-4.124445722644293e-05,-3.464886996173052,4,DB
2025-05-14 16:10:22.837,-4.283885389653625e-05,-3.5078990177206304,4,DB
2025-05-14 16:10:22.845,-4.3601283358392026e-05,-3.5337593432881675,4,DB
2025-05-14 16:10:22.853,-4.350145143903222e-05,-3.546421002320864,4,DB
2025-05-14 16:10:22.861,-4.2528404636162e-05,-3.54975991319608,4,DB
2025-05-14 16:10:22.869,-4.06926716109214e-05,-3.5474794820489928,4,DB
2025-05-14 16:10:22.877,-3.80277327264052e-05,-3.5430240764567067,4,DB
2025-05-14 16:10:22.884,-3.45904980606721e-05,-3.539502815983231,4,DB
2025-05-14 16:10:22.892,-3.0460576319996164e-05,-3.5396247745403437,4,DB
2025-05-14 16:10:22.900,-2.5738297419819943e-05,-3.5456463109224536,4,DB
2025-05-14 16:10:22.908,-2.0541636119431895e-05,-3.559330867805705,4,DB
2025-05-14 16:10:22.916,-1.5002298727929822e-05,-3.581921237637747,4,DB
2025-05-14 16:10:22.923,-9.261266443765007e-06,-3.61412400738966,4,DB
2025-05-14 16:10:22.931,-3.4640712255252084e-06,-3.6561056749786127,4,DB
2025-05-14 16:10:22.939,2.243954455093964e-06,-3.707499785469687,4,DB
2025-05-14 16:10:22.947,7.722250833660422e-06,-3.7674243671261967,4,DB
2025-05-14 16:10:22.955,1.2839262419588536e-05,-3.8345089479857455,4,DB
2025-05-14 16:10:22.962,1.7476200622463734e-05,-3.906930482154512,4,DB
2025-05-14 16:10:22.970,2.153024509842646e-05,-3.982457582946,4,DB
2025-05-14 16:10:22.978,2.491712310360108e-05,-4.058502519700834,4,DB
2025-05-14 16:10:22.986,2.7573033820267413e-05,-4.132180465500828,4,DB
2025-05-14 16:10:22.994,2.9455908017638823e-05,-4.200375469703595,4,DB
2025-05-14 16:10:23.002,3.054601246455e-05,-4.259812561542858,4,DB
2025-05-14 16:10:23.009,3.084592341709521e-05,-4.307135259831882,4,DB
2025-05-14 16:10:23.017,3.0379904664540415e-05,-4.338987564499221,4,DB
2025-05-14 16:10:23.025,2.91927336061895e-05,-4.352099244802959,4,DB
2025-05-14 16:10:23.033,2.734802434718865e-05,-4.343372938250352,4,DB
2025-05-14 16:10:23.041,2.4926100610839577e-05,-4.309971267400809,4,DB
2025-05-14 16:10:23.048,2.2021474156920756e-05,-4.249401906898629,4,DB
2025-05-14 16:10:23.056,1.873998712699724e-05,-4.1595983234493925,4,DB
2025-05-14 16:10:23.064,1.5195679987644416e-05,-4.038993789463914,4,DB
2025-05-14 16:10:23.072,1.1507451068984976e-05,-3.886586248609735,4,DB
2025-05-14 16:10:23.080,7.795579500127085e-06,-3.7019916947262455,4,DB
2025-05-14 16:10:23.087,4.178190841133496e-06,-3.485483918534109,4,DB
2025-05-14 16:10:23.095,7.677539149236911e-07,-3.2380187793027138,4,DB
2025-05-14 16:10:23.103,-2.3322919498501445e-06,-2.9612415628043323,4,DB
2025-05-14 16:10:23.111,-5.030668257314386e-06,-2.657476475134473,4,DB
2025-05-14 16:10:23.119,-7.251023988049449e-06,-2.32969787181447,4,DB
2025-05-14 16:10:23.127,-8.934202329186907e-06,-1.981483409228807,4,DB
2025-05-14 16:10:23.134,-1.00398632293787e-05,-1.6169499061776054,4,DB
2025-05-14 16:10:23.142,-1.0547322118213616e-05,-1.2406732898637671,4,DB
2025-05-14 16:10:23.150,-1.0455505100000536e-05,-0.8575945437477421,4,DB
2025-05-14 16:10:23.158,-9.782008584074377e-06,-0.4729140483660445,4,DB
2025-05-14 16:10:23.166,-8.561361385318905e-06,-0.0919770939637251,4,DB
2025-05-14 16:10:23.173,-6.842670929252632e-06,0.2798463600042762,4,DB
2025-05-14 16:10:23.181,-4.686867194752196e-06,0.6372843989400775,4,DB
2025-05-14 16:10:23.189,-2.1637509979192768e-06,0.9752849494932992,4,DB
2025-05-14 16:10:23.197,6.509707259917623e-07,1.289133252438556,4,DB
2025-05-14 16:10:23.205,3.678509600719932e-06,1.5745616942715437,4,DB
2025-05-14 16:10:23.212,6.8395595016876985e-06,1.8278488748296613,4,DB
2025-05-14 16:10:23.220,1.0056511386344588e-05,2.0459050910735543,4,DB
2025-05-14 16:10:23.228,1.3255264015506786e-05,2.2263418217612507,4,DB
2025-05-14 16:10:23.236,1.636660623693727e-05,2.3675232888544437,4,DB
2025-05-14 16:10:23.244,1.932717460234395e-05,2.468598726226205,4,DB
2025-05-14 16:10:23.252,2.208001445779004e-05,2.529514579889952,4,DB
2025-05-14 16:10:23.259,2.4574792581418067e-05,2.551006474411912,4,DB
2025-05-14 16:10:23.267,2.6767724456632497e-05,2.534571386830462,4,DB
2025-05-14 16:10:23.275,2.8621289100587595e-05,2.4824210508104376,4,DB
2025-05-14 16:10:23.283,3.010380897242893e-05,2.3974181492323057,4,DB
2025-05-14 16:10:23.291,3.118897202760965e-05,2.2829973271532515,4,DB
2025-05-14 16:10:23.298,3.185536782242375e-05,2.143073458222964,4,DB
2025-05-14 16:10:23.306,3.2086100240447525e-05,1.981939915587831,4,DB
2025-05-14 16:10:23.314,3.186852659560257e-05,1.8041598197013524,4,DB
2025-05-14 16:10:23.322,3.119415737635529e-05,1.6144533472941311,4,DB
2025-05-14 16:10:23.330,3.0058733639963666e-05,1.417584181412901,4,DB
2025-05-14 16:10:23.337,2.8462481017940448e-05,1.2182480638724635,4,DB
2025-05-14 16:10:23.345,2.6410521460273497e-05,1.020966187201657,4,DB
2025-05-14 16:10:23.353,2.3913407232395317e-05,0.829985847784516,4,DB
2025-05-14 16:10:23.361,2.098772725762145e-05,0.6491903988186845,4,DB
2025-05-14 16:10:23.369,1.7656724574130653e-05,0.4820201234628712,4,DB
2025-05-14 16:10:23.377,1.395085625597411e-05,0.3314052304151076,4,DB
2025-05-14 16:10:23.384,9.90822430920632e-06,0.1997117850414188,4,DB
2025-05-14 16:10:23.392,5.574808316790461e-06,0.0887010466511344,4,DB
2025-05-14 16:10:23.400,1.0044383068305231e-06,-0.0004976045864468,4,DB
2025-05-14 16:10:23.408,-3.741540408338412e-06,-0.0674001933288627,4,DB
2025-05-14 16:10:23.416,-8.594939916287394e-06,-0.1121683295433234,4,DB
2025-05-14 16:10:23.423,-1.3481745480830844e-05,-0.1355963431330151,4,DB
2025-05-14 16:10:23.431,-1.8323451444068052e-05,-0.1390857235543697,4,DB
2025-05-14 16:10:23.439,-2.3038661935109883e-05,-0.1246072519141034,4,DB
2025-05-14 16:10:23.447,-2.7544867544248512e-05,-0.0946512709746506,4,DB
2025-05-14 16:10:23.455,-3.1760285349445774e-05,-0.0521666478643154,4,DB
2025-05-14 16:10:23.462,-3.560565768688713e-05,-0.0004891594679779,4,DB
2025-05-14 16:10:23.470,-3.900595759918636e-05,0.056739733885153,4,DB
2025-05-14 16:10:23.478,-4.189202132238145e-05,0.1156624859723746,4,DB
2025-05-14 16:10:23.486,-4.420217238316607e-05,0.1723019064711425,4,DB
2025-05-14 16:10:23.494,-4.588389370820805e-05,0.2226626453353908,4,DB
2025-05-14 16:10:23.502,-4.6895557318370304e-05,0.2628356698793852,4,DB
2025-05-14 16:10:23.509,-4.720815911696098e-05,0.2891034716026406,4,DB
2025-05-14 16:10:23.517,-4.680694331508433e-05,0.2980435715424473,4,DB
2025-05-14 16:10:23.525,-4.569275161241664e-05,0.2866277831149583,4,DB
2025-05-14 16:10:23.533,-4.388292012212944e-05,0.2523146536994092,4,DB
2025-05-14 16:10:23.541,-4.14115864461898e-05,0.1931325492724364,4,DB
2025-05-14 16:10:23.548,-3.832933681852268e-05,0.1077509716082908,4,DB
2025-05-14 16:10:23.556,-3.470217321420122e-05,-0.0044621001272496,4,DB
2025-05-14 16:10:23.564,-3.060979876279644e-05,-0.1433987813056205,4,DB
2025-05-14 16:10:23.572,-2.614324107691587e-05,-0.3081873773115814,4,DB
2025-05-14 16:10:23.580,-2.14018914320852e-05,-0.4971872351078115,4,DB
2025-05-14 16:10:23.587,-1.6490118643500006e-05,-0.7080031590543863,4,DB
2025-05-14 16:10:23.595,-1.1513673608760696e-05,-0.9375197258205056,4,DB
2025-05-14 16:10:23.603,-6.576109362117048e-06,-1.1819553101085656,4,DB
2025-05-14 16:10:23.611,-1.775415131581046e-06,-1.4369350673966454,4,DB
2025-05-14 16:10:23.619,2.7989763599156957e-06,-1.6975815300842845,4,DB
2025-05-14 16:10:23.627,7.068689987862184e-06,-1.9586208861555905,4,DB
2025-05-14 16:10:23.634,1.0968338841471295e-05,-2.214502457635659,4,DB
2025-05-14 16:10:23.642,1.444684240339127e-05,-2.459528416507215,4,DB
2025-05-14 16:10:23.650,1.7468123721672687e-05,-2.687990405671602,4,DB
2025-05-14 16:10:23.658,2.001120613559205e-05,-2.8943095025116223,4,DB
2025-05-14 16:10:23.666,2.2069754508119545e-05,-3.0731758864523893,4,DB
2025-05-14 16:10:23.673,2.365112529672996e-05,-3.2196846401821904,4,DB
2025-05-14 16:10:23.681,2.477500409605637e-05,-3.329464296446476,4,DB
2025-05-14 16:10:23.689,2.54717186291132e-05,-3.3987949971887503,4,DB
2025-05-14 16:10:23.697,2.5780319825028112e-05,-3.4247134194676163,4,DB
2025-05-14 16:10:23.705,2.5746524007092407e-05,-3.40510191482555,4,DB
2025-05-14 16:10:23.712,2.542060583305941e-05,-3.338759594437015,4,DB
2025-05-14 16:10:23.720,2.4855325059175965e-05,-3.225453377104683,4,DB
2025-05-14 16:10:23.728,2.4103961062808684e-05,-3.0659473180611,4,DB
2025-05-14 16:10:23.736,2.321851799472847e-05,-2.862008874692184,4,DB
2025-05-14 16:10:23.744,2.2248151072739555e-05,-2.6163911609771797,4,DB
2025-05-14 16:10:23.752,2.1237851476649896e-05,-2.332790711976396,4,DB
2025-05-14 16:10:23.759,2.022741411807957e-05,-2.01578083132554,4,DB
2025-05-14 16:10:23.767,1.925069973528288e-05,-1.6707212236549227,4,DB
2025-05-14 16:10:23.775,1.8335190731491388e-05,-1.3036453012137503,4,DB
2025-05-14 16:10:23.783,1.7501829287858243e-05,-0.9211272718149636,4,DB
2025-05-14 16:10:23.791,1.6765116812653313e-05,-0.530131834481372,4,DB
2025-05-14 16:10:23.798,1.613344593199524e-05,-0.1378500033533735,4,DB
2025-05-14 16:10:23.806,1.5609630103334326e-05,0.2484747777080669,4,DB
2025-05-14 16:10:23.814,1.519159158957957e-05,0.6217255111862333,4,DB
2025-05-14 16:10:23.822,1.4873165953728832e-05,0.975090363616114,4,DB
2025-05-14 16:10:23.830,1.4644980349829444e-05,1.3022358121100326,4,DB
2025-05-14 16:10:23.837,1.449536357786709e-05,1.5974687428203682,4,DB
2025-05-14 16:10:23.845,1.441124798188713e-05,1.855882180997999,4,DB
2025-05-14 16:10:23.853,1.4379026617970509e-05,2.07347971780222,4,DB
2025-05-14 16:10:23.861,1.4385333497655404e-05,2.2472743101495816,4,DB
2025-05-14 16:10:23.869,1.4417719907584793e-05,2.3753579508818,4,DB
2025-05-14 16:10:23.877,1.446520559797195e-05,2.456939708234222,4,DB
2025-05-14 16:10:23.884,1.4518689803461432e-05,2.492350773914222,4,DB
2025-05-14 16:10:23.892,1.4571213400071262e-05,2.483016383763761,4,DB
2025-05-14 16:10:23.900,1.4618069812677252e-05,2.4313957186348567,4,DB
2025-05-14 16:10:23.908,1.4656768385264163e-05,2.340892083913748,4,DB
2025-05-14 16:10:23.916,1.468685964430148e-05,2.2157367345969963,4,DB
2025-05-14 16:10:23.923,1.4709637076044104e-05,2.060850601189768,4,DB
2025-05-14 16:10:23.931,1.4727734572697352e-05,1.881688840237386,4,DB
2025-05-14 16:10:23.939,1.474464247149135e-05,1.684073563460889,4,DB
2025-05-14 16:10:23.947,1.4764168026089923e-05,1.4740202945525545,4,DB
2025-05-14 16:10:23.955,1.4789868142787493e-05,1.2575636853912722,4,DB
2025-05-14 16:10:23.962,1.4824483236100338e-05,1.0405878293702708,4,DB
2025-05-14 16:10:23.970,1.4869401081361922e-05,0.8286661772246885,4,DB
2025-05-14 16:10:23.978,1.4924178558085316e-05,0.6269156212108887,4,DB
2025-05-14 16:10:23.986,1.498614720056489e-05,0.439868784761464,4,DB
2025-05-14 16:10:23.994,1.5050125536679217e-05,0.2713679450024737,4,DB
2025-05-14 16:10:24.002,1.51082573600181e-05,0.1244833317560801,4,DB
2025-05-14 16:10:24.009,1.5149990425714245e-05,0.0014578004886441,4,DB
2025-05-14 16:10:24.017,1.5162204692437531e-05,-0.0963209180295854,4,DB
2025-05-14 16:10:24.025,1.5129493282422717e-05,-0.1683200219798308,4,DB
2025-05-14 16:10:24.033,1.5034592953496754e-05,-0.2148339942441867,4,DB
2025-05-14 16:10:24.041,1.485895425143222e-05,-0.2369308995636172,4,DB
2025-05-14 16:10:24.048,1.458343483997096e-05,-0.2363749111189227,4,DB
2025-05-14 16:10:24.056,1.4189093012324096e-05,-0.2155282260101156,4,DB
2025-05-14 16:10:24.064,1.3658052311489493e-05,-0.1772363325979541,4,DB
2025-05-14 16:10:24.072,1.297440277902566e-05,-0.1247012809298928,4,DB
2025-05-14 16:10:24.080,1.2125099870671993e-05,-0.061348128764477,4,DB
2025-05-14 16:10:24.087,1.1100818778777995e-05,0.0093099623213844,4,DB
2025-05-14 16:10:24.095,9.896720032450131e-06,0.0838024676201907,4,DB
2025-05-14 16:10:24.103,8.513082033865582e-06,0.15882281234071,4,DB
2025-05-14 16:10:24.111,6.9557578309416e-06,0.231335524822439,4,DB
2025-05-14 16:10:24.119,5.236417079717577e-06,0.2986652827970387,4,DB
2025-05-14 16:10:24.127,3.372539920425744e-06,0.3585648923022415,4,DB
2025-05-14 16:10:24.134,1.3871374236292967e-06,0.4092603625040958,4,DB
2025-05-14 16:10:24.142,-6.918166699885399e-07,0.4494724287229422,4,DB
2025-05-14 16:10:24.150,-2.832246097148615e-06,0.4784150600176312,4,DB
2025-05-14 16:10:24.158,-4.999113356559566e-06,0.4957726040406616,4,DB
2025-05-14 16:10:24.166,-7.155815895667599e-06,0.5016582174992945,4,DB
2025-05-14 16:10:24.173,-9.265794299851165e-06,0.4965570608939608,4,DB
2025-05-14 16:10:24.181,-1.1294292201162244e-05,0.4812583634782456,4,DB
2025-05-14 16:10:24.189,-1.321019006670033e-05,0.4567808570111648,4,DB
2025-05-14 16:10:24.197,-1.498781791325559e-05,0.4242962108286601,4,DB
2025-05-14 16:10:24.205,-1.6608636001587398e-05,0.385054963621474,4,DB
2025-05-14 16:10:24.212,-1.806265840894468e-05,0.3403190451639312,4,DB
2025-05-14 16:10:24.220,-1.9349482801237148e-05,0.29130434542685,4,DB
2025-05-14 16:10:24.228,-2.0478783087265117e-05,0.2391359753380888,4,DB
2025-05-14 16:10:24.236,-2.147013032619505e-05,0.1848179431687311,4,DB
2025-05-14 16:10:24.244,-2.2352052523046668e-05,0.1292180116980066,4,DB
2025-05-14 16:10:24.252,-2.31603375190858e-05,0.0730675617099384,4,DB
2025-05-14 16:10:24.259,-2.3935699149782343e-05,0.0169754140678799,4,DB
2025-05-14 16:10:24.267,-2.4721015617165506e-05,-0.0385462050821991,4,DB
2025-05-14 16:10:24.275,-2.555838477036531e-05,-0.0930460015585208,4,DB
2025-05-14 16:10:24.283,-2.6486235601996137e-05,-0.1460911687255442,4,DB
2025-05-14 16:10:24.291,-2.7536710240675485e-05,-0.1972213780320819,4,DB
2025-05-14 16:10:24.298,-2.8733496774825592e-05,-0.2459025557132043,4,DB
2025-05-14 16:10:24.306,-3.0090253168624365e-05,-0.2914837787454354,4,DB
2025-05-14 16:10:24.314,-3.160971759374647e-05,-0.3331604697680411,4,DB
2025-05-14 16:10:24.322,-3.328355204893875e-05,-0.3699467973902158,4,DB
2025-05-14 16:10:24.330,-3.509291558554129e-05,-0.4006598041951996,4,DB
2025-05-14 16:10:24.337,-3.700971225808514e-05,-0.4239172921220763,4,DB
2025-05-14 16:10:24.345,-3.899840855956902e-05,-0.4381508946219734,4,DB
2025-05-14 16:10:24.353,-4.101826707415268e-05,-0.4416350666224963,4,DB
2025-05-14 16:10:24.361,-4.302580049305064e-05,-0.4325319521628791,4,DB
2025-05-14 16:10:24.369,-4.497722412622197e-05,-0.4089512831762634,4,DB
2025-05-14 16:10:24.377,-4.6830697596659946e-05,-0.3690236601886156,4,DB
2025-05-14 16:10:24.384,-4.854821001134579e-05,-0.310984798472847,4,DB
2025-05-14 16:10:24.392,-5.009705240562923e-05,-0.233267616437503,4,DB
2025-05-14 16:10:24.400,-5.145088782971349e-05,-0.13459842002252,4,DB
2025-05-14 16:10:24.408,-5.259044800399466e-05,-0.0140929225027054,4,DB
2025-05-14 16:10:24.416,-5.350386864146807e-05,0.128652539564005,4,DB
2025-05-14 16:10:24.423,-5.418664713273784e-05,0.293479446701865,4,DB
2025-05-14 16:10:24.431,-5.464118735512708e-05,0.4796000606775707,4,DB
2025-05-14 16:10:24.439,-5.4875910838556446e-05,0.685549563910427,4,DB
2025-05-14 16:10:24.447,-5.490397426817634e-05,0.9091615513813882,4,DB
2025-05-14 16:10:24.455,-5.474171559860151e-05,1.147570304520911,4,DB
2025-05-14 16:10:24.462,-5.44070065229849e-05,1.397242256171426,4,DB
2025-05-14 16:10:24.470,-5.391769305759284e-05,1.6540377844273602,4,DB
2025-05-14 16:10:24.478,-5.329027164855253e-05,1.9133029980280287,4,DB
2025-05-14 16:10:24.486,-5.253889810735191e-05,2.169989572286523,4,DB
2025-05-14 16:10:24.494,-5.167477261372503e-05,2.418799064188738,4,DB
2025-05-14 16:10:24.502,-5.070588972662604e-05,2.6543465981475665,4,DB
2025-05-14 16:10:24.509,-4.96370898991661e-05,2.8713374917411705,4,DB
2025-05-14 16:10:24.517,-4.847030203357113e-05,3.064749390415339,4,DB
2025-05-14 16:10:24.525,-4.720483670817203e-05,3.230011883134712,4,DB
2025-05-14 16:10:24.533,-4.583759918519017e-05,3.3631754290150924,4,DB
2025-05-14 16:10:24.541,-4.4363152864798695e-05,3.4610617553586622,4,DB
2025-05-14 16:10:24.548,-4.27736524189458e-05,3.5213886690674,4,DB
2025-05-14 16:10:24.556,-4.105873255495191e-05,3.542863398428713,4,DB
2025-05-14 16:10:24.564,-3.920545798357843e-05,3.525240065520834,4,DB
2025-05-14 16:10:24.572,-3.719842505830016e-05,3.469338578509182,4,DB
2025-05-14 16:10:24.580,-3.5020077535424966e-05,3.377024016404257,4,DB
2025-05-14 16:10:24.588,-3.2651268896356587e-05,3.251147345425265,4,DB
2025-05-14 16:10:24.595,-3.0072074514773545e-05,3.0954499584173605,4,DB
2025-05-14 16:10:24.603,-2.7262829813796898e-05,2.914435993772394,4,DB
2025-05-14 16:10:24.611,-2.4205346540763776e-05,2.7132176217033064,4,DB
2025-05-14 16:10:24.619,-2.0884239392338345e-05,2.497339457407453,4,DB
2025-05-14 16:10:24.627,-1.7288280331192397e-05,2.272588958059606,4,DB
2025-05-14 16:10:24.634,-1.3411688783591965e-05,2.044800075899223,4,DB
2025-05-14 16:10:24.642,-9.25526306510342e-06,1.819657571565656,4,DB
2025-05-14 16:10:24.650,-4.827262233930634e-06,1.6025092461749468,4,DB
2025-05-14 16:10:24.658,-1.4395830017884738e-07,1.3981929397103707,4,DB
2025-05-14 16:10:24.666,4.770203710059383e-06,1.2108844849326827,4,DB
2025-05-14 16:10:24.673,9.882876186567356e-06,1.0439719252433683,4,DB
2025-05-14 16:10:24.681,1.5154517979601364e-05,0.8999602362022128,4,DB
2025-05-14 16:10:24.689,2.05395145883112e-05,0.7804095763515947,4,DB
2025-05-14 16:10:24.697,2.5987642050998305e-05,0.6859087805392028,4,DB
2025-05-14 16:10:24.705,3.144576554700079e-05,0.6160844465731322,4,DB
2025-05-14 16:10:24.713,3.685963167475582e-05,0.5696446037469219,4,DB
2025-05-14 16:10:24.720,4.217561300631399e-05,0.5444546403137953,4,DB
2025-05-14 16:10:24.728,4.734230774149503e-05,0.5376419550231241,4,DB
2025-05-14 16:10:24.736,5.231196158577786e-05,0.5457247292916767,4,DB
2025-05-14 16:10:24.744,5.704171539207288e-05,0.5647593311823249,4,DB
2025-05-14 16:10:24.752,6.149466824059756e-05,0.5905001967667561,4,DB
2025-05-14 16:10:24.759,6.5640705030931e-05,0.6185656195018726,4,DB
2025-05-14 16:10:24.767,6.945701449908215e-05,0.6446027331273534,4,DB
2025-05-14 16:10:24.775,7.292824188746583e-05,0.6644451030416141,4,DB
2025-05-14 16:10:24.783,7.604626047915516e-05,0.6742567387221184,4,DB
2025-05-14 16:10:24.791,7.880957098997847e-05,0.6706569930817807,4,DB
2025-05-14 16:10:24.798,8.122234529392255e-05,0.6508217067619729,4,DB
2025-05-14 16:10:24.806,8.329314737402961e-05,0.6125570619432839,4,DB
2025-05-14 16:10:24.814,8.503338961819663e-05,0.5543438949166392,4,DB
2025-05-14 16:10:24.822,8.64555901228855e-05,0.475351627067094,4,DB
2025-05-14 16:10:24.830,8.757148833757629e-05,0.3754224415564692,4,DB
2025-05-14 16:10:24.838,8.8390088711376e-05,0.2550277781411267,4,DB
2025-05-14 16:10:24.845,8.891575439893514e-05,0.1152005583734419,4,DB
2025-05-14 16:10:24.853,8.91465410367069e-05,-0.0425522905712219,4,DB
2025-05-14 16:10:24.861,8.907299776643788e-05,-0.2163515416749168,4,DB
2025-05-14 16:10:24.869,8.867763520622007e-05,-0.4040555362333237,4,DB
2025-05-14 16:10:24.877,8.793516905891893e-05,-0.6033718994647846,4,DB
2025-05-14 16:10:24.884,8.681352955184287e-05,-0.8119649070083693,4,DB
2025-05-14 16:10:24.892,8.52755310168973e-05,-1.0275527797362125,4,DB
2025-05-14 16:10:24.900,8.328105885102767e-05,-1.2479899720041547,4,DB
2025-05-14 16:10:24.908,8.07896542583112e-05,-1.4713305529267595,4,DB
2025-05-14 16:10:24.916,7.776342716593242e-05,-1.695869983018525,4,DB
2025-05-14 16:10:24.923,7.417025714340496e-05,-1.9201638820515197,4,DB
2025-05-14 16:10:24.931,6.998721755496008e-05,-2.1430236969284,4,DB
2025-05-14 16:10:24.939,6.520407916329996e-05,-2.363490446248442,4,DB
2025-05-14 16:10:24.947,5.98266438637036e-05,-2.5807888855551613,4,DB
2025-05-14 16:10:24.955,5.3879565976798906e-05,-2.7942654610363475,4,DB
2025-05-14 16:10:24.963,4.7408282557288e-05,-3.0033142680150307,4,DB
2025-05-14 16:10:24.970,4.047973350975129e-05,-3.207295877347313,4,DB
2025-05-14 16:10:24.978,3.318169747715972e-05,-3.4054543124671053,4,DB
2025-05-14 16:10:24.986,2.5620737359390643e-05,-3.5968376303163216,4,DB
2025-05-14 16:10:24.994,1.7918887333554283e-05,-3.7802274673752656,4,DB
2025-05-14 16:10:25.002,1.020932031800894e-05,-3.954082556595151,4,DB
2025-05-14 16:10:25.009,2.631319095252625e-06,-4.116500614645711,4,DB
2025-05-14 16:10:25.017,-4.675081389713366e-06,-4.2652021654811065,4,DB
2025-05-14 16:10:25.025,-1.1574421330895592e-05,-4.3975388399427855,4,DB
2025-05-14 16:10:25.033,-1.7940799468318337e-05,-4.510527516347693,4,DB
2025-05-14 16:10:25.041,-2.3662259453308323e-05,-4.600910396884532,4,DB
2025-05-14 16:10:25.048,-2.864438926748088e-05,-4.665239806461867,4,DB
2025-05-14 16:10:25.056,-3.281300648781991e-05,-4.699985211633958,4,DB
2025-05-14 16:10:25.064,-3.611586277052563e-05,-4.701658743400252,4,DB
2025-05-14 16:10:25.072,-3.852335807564182e-05,-4.66695442391174,4,DB
2025-05-14 16:10:25.080,-4.002830781543817e-05,-4.592895395165716,4,DB
2025-05-14 16:10:25.088,-4.064485347158628e-05,-4.476982773566794,4,DB
2025-05-14 16:10:25.095,-4.040664870741296e-05,-4.317339348527225,4,DB
2025-05-14 16:10:25.103,-3.936448822384376e-05,-4.112841243797546,4,DB
2025-05-14 16:10:25.111,-3.758357536744512e-05,-3.863230898346135,4,DB
2025-05-14 16:10:25.119,-3.514064511028674e-05,-3.5692053142445768,4,DB
2025-05-14 16:10:25.127,-3.2121161849518474e-05,-3.2324744499440805,4,DB
2025-05-14 16:10:25.134,-2.861677604822046e-05,-2.855785863921042,4,DB
2025-05-14 16:10:25.142,-2.47231390633413e-05,-2.4429131613526978,4,DB
2025-05-14 16:10:25.150,-2.0538068145154035e-05,-1.9986073718118,4,DB
2025-05-14 16:10:25.158,-1.6159973642988342e-05,-1.5285119938365046,4,DB
2025-05-14 16:10:25.166,-1.1686434086631786e-05,-1.0390440011752182,4,DB
2025-05-14 16:10:25.173,-7.212820270802085e-06,-0.5372445532549958,4,DB
2025-05-14 16:10:25.181,-2.830905171356449e-06,-0.0306044417112404,4,DB
2025-05-14 16:10:25.189,1.3725585727735557e-06,0.4731296045892906,4,DB
2025-05-14 16:10:25.197,5.317262719467399e-06,0.9661607812774504,4,DB
2025-05-14 16:10:25.205,8.930696412201702e-06,1.440852688266782,4,DB
2025-05-14 16:10:25.213,1.2149344066267065e-05,1.88993661866766,4,DB
2025-05-14 16:10:25.220,1.4919676641058504e-05,2.306707923741321,4,DB
2025-05-14 16:10:25.228,1.7198937482316254e-05,2.68520413729195,4,DB
2025-05-14 16:10:25.236,1.895575118176609e-05,3.0203582868654357,4,DB
2025-05-14 16:10:25.244,2.017057208273818e-05,3.308121860084867,4,DB
2025-05-14 16:10:25.252,2.083597323854676e-05,3.545553183305369,4,DB
2025-05-14 16:10:25.259,2.095679207191931e-05,3.73086844027806,4,DB
2025-05-14 16:10:25.267,2.055018259251231e-05,3.8634541347077103,4,DB
2025-05-14 16:10:25.275,1.9645631105337843e-05,3.94384140561782,4,DB
2025-05-14 16:10:25.283,1.8284950354074075e-05,3.973644164905197,4,DB
2025-05-14 16:10:25.291,1.6522191147161113e-05,3.955464472799499,4,DB
2025-05-14 16:10:25.298,1.4423326963929304e-05,3.892769833988711,4,DB
2025-05-14 16:10:25.306,1.2065499160582389e-05,3.789748126533016,4,DB
2025-05-14 16:10:25.314,9.535585822684078e-06,3.651146618540366,4,DB
2025-05-14 16:10:25.322,6.927900395784232e-06,3.482101947149601,4,DB
2025-05-14 16:10:25.330,4.3409343202470365e-06,3.28796800909042,4,DB
2025-05-14 16:10:25.338,1.8731965451656275e-06,3.07414844063141,4,DB
2025-05-14 16:10:25.345,-3.816685726953404e-07,2.845939771396006,4,DB
2025-05-14 16:10:25.353,-2.3402007622696644e-06,2.608390472881064,4,DB
2025-05-14 16:10:25.361,-3.934511989787657e-06,2.366180062183732,4,DB
2025-05-14 16:10:25.369,-5.117311416638701e-06,2.1235212485989763,4,DB
2025-05-14 16:10:25.377,-5.86611897019254e-06,1.8840869064371475,4,DB
2025-05-14 16:10:25.384,-6.186263855851409e-06,1.650962489574276,4,DB
2025-05-14 16:10:25.392,-6.11235406786969e-06,1.4266234227679937,4,DB
2025-05-14 16:10:25.400,-5.7080142089063965e-06,1.2129360454623836,4,DB
2025-05-14 16:10:25.408,-5.063808744598889e-06,1.0111798648998371,4,DB
2025-05-14 16:10:25.416,-4.293391146266607e-06,0.8220882068063748,4,DB
2025-05-14 16:10:25.423,-3.5280426692565324e-06,0.6459038409513878,4,DB
2025-05-14 16:10:25.431,-2.9098841604913706e-06,0.4824458141933067,4,DB
2025-05-14 16:10:25.439,-2.584156643586232e-06,0.331183554802779,4,DB
2025-05-14 16:10:25.447,-2.691066250927121e-06,0.1913143251670978,4,DB
2025-05-14 16:10:25.455,-3.3577631428877e-06,0.0618402939989757,4,DB
2025-05-14 16:10:25.463,-4.6910467705522025e-06,-0.0583581372511337,4,DB
2025-05-14 16:10:25.470,-6.7713371914035136e-06,-0.170455607832725,4,DB
2025-05-14 16:10:25.478,-9.64832543337288e-06,-0.2756239000442358,4,DB
2025-05-14 16:10:25.486,-1.3338541713950088e-05,-0.3749844058249116,4,DB
2025-05-14 16:10:25.494,-1.7824888446426743e-05,-0.4695717807876815,4,DB
2025-05-14 16:10:25.502,-2.305800082044973e-05,-0.560308925887458,4,DB
2025-05-14 16:10:25.509,-2.8959151243351883e-05,-0.6479928222352427,4,DB
2025-05-14 16:10:25.517,-3.5424331922569926e-05,-0.7332902276984916,4,DB
2025-05-14 16:10:25.525,-4.232913405591372e-05,-0.8167418448498629,4,DB
2025-05-14 16:10:25.533,-4.9534069030280194e-05,-0.8987732982624747,4,DB
2025-05-14 16:10:25.541,-5.6890021850814736e-05,-0.9797111132982356,4,DB
2025-05-14 16:10:25.548,-6.424357746226482e-05,-1.0598018552633852,4,DB
2025-05-14 16:10:25.556,-7.144201261016827e-05,-1.139232646114528,4,DB
2025-05-14 16:10:25.564,-7.833779718928489e-05,-1.2181514031560683,4,DB
2025-05-14 16:10:25.572,-8.4792497686566e-05,-1.2966853215856011,4,DB
2025-05-14 16:10:25.580,-9.06800197199799e-05,-1.3749563371257685,4,DB
2025-05-14 16:10:25.588,-9.588916553870548e-05,-1.4530925474886542,4,DB
2025-05-14 16:10:25.595,-0.0001003255148017,-1.5312348354067178,4,DB
2025-05-14 16:10:25.603,-0.0001039126624936,-1.609538214602631,4,DB
2025-05-14 16:10:25.611,-0.000106592866346,-1.6881677047013062,4,DB
2025-05-14 16:10:25.619,-0.0001083271678452,-1.7672888223466203,4,DB
2025-05-14 16:10:25.627,-0.000109095056368,-1.847053047267467,4,DB
2025-05-14 16:10:25.634,-0.0001088937460338,-1.9275788824217244,4,DB
2025-05-14 16:10:25.642,-0.000107737130535,-2.0089293767500336,4,DB
2025-05-14 16:10:25.650,-0.000105654473738,-2.0910872113382446,4,DB
2025-05-14 16:10:25.658,-0.0001026888845584,-2.1739286488288507,4,DB
2025-05-14 16:10:25.666,-9.889561486718892e-05,-2.257197790980217,4,DB
2025-05-14 16:10:25.673,-9.434021034953604e-05,-2.340482664005588,4,DB
2025-05-14 16:10:25.681,-8.909653756011953e-05,-2.4231946493303416,4,DB
2025-05-14 16:10:25.689,-8.324470705268867e-05,-2.504552703149171,4,DB
2025-05-14 16:10:25.697,-7.68689133357586e-05,-2.58357367532692,4,DB
2025-05-14 16:10:25.705,-7.005521823651186e-05,-2.659069865351751,4,DB
2025-05-14 16:10:25.713,-6.288931547803912e-05,-2.7296547566383653,4,DB
2025-05-14 16:10:25.720,-5.545433103170421e-05,-2.793757657967362,4,DB
2025-05-14 16:10:25.728,-4.782873592228552e-05,-2.849647748167496,4,DB
2025-05-14 16:10:25.736,-4.008447351753165e-05,-2.895467754609578,4,DB
2025-05-14 16:10:25.744,-3.2285421428806355e-05,-2.929277183151959,4,DB
2025-05-14 16:10:25.752,-2.4486297271436185e-05,-2.9491046475081677,4,DB
2025-05-14 16:10:25.759,-1.6732065119232918e-05,-2.9530084193037203,4,DB
2025-05-14 16:10:25.767,-9.057830269239331e-06,-2.939143845679135,4,DB
2025-05-14 16:10:25.775,-1.489171977465883e-06,-2.905835777611176,4,DB
2025-05-14 16:10:25.783,5.957120477281783e-06,-2.8516536463111937,4,DB
2025-05-14 16:10:25.791,1.327189735981153e-05,-2.7754863525888163,4,DB
2025-05-14 16:10:25.798,2.045204297395884e-05,-2.676613737956669,4,DB
2025-05-14 16:10:25.806,2.7498394779198684e-05,-2.554771135227873,4,DB
2025-05-14 16:10:25.814,3.441323682364893e-05,-2.4102034008785944,4,DB
2025-05-14 16:10:25.822,4.119750188602977e-05,-2.24370495598573,4,DB
2025-05-14 16:10:25.830,4.784786920968339e-05,-2.0566427341808704,4,DB
2025-05-14 16:10:25.838,5.435394044499385e-05,-1.850959553636554,4,DB
2025-05-14 16:10:25.845,6.06956368991024e-05,-1.629156267387946,4,DB
2025-05-14 16:10:25.853,6.684093524756795e-05,-1.3942520536275975,4,DB
2025-05-14 16:10:25.861,7.274407843947501e-05,-1.1497233232215998,4,DB
2025-05-14 16:10:25.869,7.834446117792138e-05,-0.8994228718535163,4,DB
2025-05-14 16:10:25.877,8.356646158050908e-05,-0.6474820020929125,4,DB
2025-05-14 16:10:25.884,8.832051405906339e-05,-0.3981992918496304,4,DB
2025-05-14 16:10:25.892,9.250564470321396e-05,-0.1559204031785166,4,DB
2025-05-14 16:10:25.900,9.60135236400032e-05,0.0750862524642378,4,DB
2025-05-14 16:10:25.908,9.873388065061658e-05,0.2907530746734599,4,DB
2025-05-14 16:10:25.916,0.0001005609422631,0.4873313461295085,4,DB
2025-05-14 16:10:25.923,0.0001014004236013,0.6614995598625876,4,DB
2025-05-14 16:10:25.931,0.0001011765611977,0.8104583808597421,4,DB
2025-05-14 16:10:25.939,9.9838694636011e-05,0.9320093527877936,4,DB
2025-05-14 16:10:25.947,9.73669642571994e-05,1.0246152226573526,4,DB
2025-05-14 16:10:25.955,9.377674410292436e-05,1.0874405073618585,4,DB
2025-05-14 16:10:25.963,8.912145850504657e-05,1.1203716421135348,4,DB
2025-05-14 16:10:25.970,8.349348168984095e-05,1.1240167129256255,4,DB
2025-05-14 16:10:25.978,7.702294110052816e-05,1.0996853653766416,4,DB
2025-05-14 16:10:25.986,6.987441946564747e-05,1.049349987548877,4,DB
2025-05-14 16:10:25.994,6.22417162387765e-05,0.9755896851362328,4,DB
2025-05-14 16:10:26.002,5.434095046918904e-05,0.8815189104122709,4,DB
2025-05-14 16:10:26.009,4.640237119106084e-05,0.7707028870777195,4,DB
2025-05-14 16:10:26.017,3.866129924355558e-05,0.6470622014086557,4,DB
2025-05-14 16:10:26.025,3.134865167529766e-05,0.5147691146704567,4,DB
2025-05-14 16:10:26.033,2.4681496204439015e-05,0.3781382968546802,4,DB
2025-05-14 16:10:26.041,1.8854062036971933e-05,0.241514787598783,4,DB
2025-05-14 16:10:26.048,1.4029596988824436e-05,0.1091620528609109,4,DB
2025-05-14 16:10:26.056,1.0333397146145804e-05,-0.0148469802515985,4,DB
2025-05-14 16:10:26.064,7.84725550569085e-06,-0.1267330688129805,4,DB
2025-05-14 16:10:26.072,6.605519353212341e-06,-0.2231052383178908,4,DB
2025-05-14 16:10:26.080,6.59293266270397e-06,-0.3010442309056761,4,DB
2025-05-14 16:10:26.088,7.744445422696793e-06,-0.358172482872915,4,DB
2025-05-14 16:10:26.095,9.947150335558128e-06,-0.3927086190339113,4,DB
2025-05-14 16:10:26.103,1.3044424934821538e-05,-0.4035048603561626,4,DB
2025-05-14 16:10:26.111,1.6842214834968773e-05,-0.3900662339763412,4,DB
2025-05-14 16:10:26.119,2.111722749629661e-05,-0.3525510382873631,4,DB
2025-05-14 16:10:26.127,2.5626663952379856e-05,-0.2917526261380287,4,DB
2025-05-14 16:10:26.134,3.011902496249508e-05,-0.2090631926127061,4,DB
2025-05-14 16:10:26.142,3.434547064853888e-05,-0.1064208533262379,4,DB
2025-05-14 16:10:26.150,3.807115435005834e-05,0.0137581569248263,4,DB
2025-05-14 16:10:26.158,4.108589398479714e-05,0.1486598677249971,4,DB
2025-05-14 16:10:26.166,4.321352734434434e-05,0.2951628613606478,4,DB
2025-05-14 16:10:26.173,4.431935203285401e-05,0.4499355032588479,4,DB
2025-05-14 16:10:26.181,4.431517520095015e-05,0.6095369689718038,4,DB
2025-05-14 16:10:26.189,4.316167008448636e-05,0.7705188483187151,4,DB
2025-05-14 16:10:26.197,4.0867928158198696e-05,0.9295241460112678,4,DB
2025-05-14 16:10:26.205,3.748829898558837e-05,1.083380647989295,4,DB
2025-05-14 16:10:26.213,3.311683042275928e-05,1.2291858770541235,4,DB
2025-05-14 16:10:26.220,2.787983395146249e-05,1.3643812065791503,4,DB
2025-05-14 16:10:26.228,2.1927238948948463e-05,1.4868131175618016,4,DB
2025-05-14 16:10:26.236,1.5423427972695546e-05,1.5947800524310365,4,DB
2025-05-14 16:10:26.244,8.538197194719928e-06,1.6870638241361968,4,DB
2025-05-14 16:10:26.252,1.438421797269551e-06,1.7629450697555151,4,DB
2025-05-14 16:10:26.259,-5.719061718947001e-06,1.822202781392472,4,DB
2025-05-14 16:10:26.267,-1.2792947151346674e-05,1.865098488071496,4,DB
2025-05-14 16:10:26.275,-1.966107013193076e-05,1.8923461852765504,4,DB
2025-05-14 16:10:26.283,-2.6222074701225563e-05,1.9050695996049112,4,DB
2025-05-14 16:10:26.291,-3.239526551047484e-05,1.9047488191547897,4,DB
2025-05-14 16:10:26.298,-3.811896009934845e-05,1.8931586940553045,4,DB
2025-05-14 16:10:26.306,-4.334780882636014e-05,1.872301687468636,4,DB
2025-05-14 16:10:26.314,-4.804963494282372e-05,1.844338007292396,4,DB
2025-05-14 16:10:26.322,-5.220231765430405e-05,1.811515856549524,4,DB
2025-05-14 16:10:26.330,-5.5791087285882015e-05,1.7761045079563955,4,DB
2025-05-14 16:10:26.338,-5.880638568051608e-05,1.7403326502086012,4,DB
2025-05-14 16:10:26.345,-6.124226659603245e-05,1.7063340883843572,4,DB
2025-05-14 16:10:26.353,-6.309523267002535e-05,1.6761024262279494,4,DB
2025-05-14 16:10:26.361,-6.436341940850088e-05,1.651455833672789,4,DB
2025-05-14 16:10:26.369,-6.504609678189966e-05,1.6340124330811554,4,DB
2025-05-14 16:10:26.377,-6.514352099543397e-05,1.6251762492521504,4,DB
2025-05-14 16:10:26.384,-6.46571981589415e-05,1.6261330886326897,4,DB
2025-05-14 16:10:26.392,-6.3590602420199e-05,1.6378551722594523,4,DB
2025-05-14 16:10:26.400,-6.19503458130804e-05,1.661112880226399,4,DB
2025-05-14 16:10:26.408,-5.97477634268431e-05,1.6964916114100823,4,DB
2025-05-14 16:10:26.416,-5.700085711837338e-05,1.7444115547532886,4,DB
2025-05-14 16:10:26.423,-5.373649918711068e-05,1.805148129648984,4,DB
2025-05-14 16:10:26.431,-4.999271667246548e-05,1.8788509876716477,4,DB
2025-05-14 16:10:26.439,-4.582078354527516e-05,1.9655597598465968,4,DB
2025-05-14 16:10:26.447,-4.128679010633847e-05,2.0652151458483066,4,DB
2025-05-14 16:10:26.455,-3.647237177614972e-05,2.1776644236042264,4,DB
2025-05-14 16:10:26.463,-3.147436337670381e-05,2.3026609591957152,4,DB
2025-05-14 16:10:26.470,-2.6403264974355345e-05,2.439857779979655,4,DB
2025-05-14 16:10:26.478,-2.138051364092147e-05,2.5887957186681496,4,DB
2025-05-14 16:10:26.486,-1.653462596926112e-05,2.7488870346083747,4,DB
2025-05-14 16:10:26.494,-1.1996326421420763e-05,2.9193957638562,4,DB
2025-05-14 16:10:26.502,-7.892841100931002e-06,3.0994163319473502,4,DB
2025-05-14 16:10:26.509,-4.34161496438496e-06,3.287852172638245,4,DB
2025-05-14 16:10:26.517,-1.4437724333633766e-06,3.483396224146814,4,DB
2025-05-14 16:10:26.525,7.22323651527916e-07,3.684515212014674,4,DB
2025-05-14 16:10:26.533,2.107038726571069e-06,3.889439562649722,4,DB
2025-05-14 16:10:26.541,2.6945688924458856e-06,4.096160615306678,4,DB
2025-05-14 16:10:26.548,2.5067754293546603e-06,4.302436514567785,4,DB
2025-05-14 16:10:26.556,1.6053232630969786e-06,4.505807783175327,4,DB
2025-05-14 16:10:26.564,9.16814741131715e-08,4.703623115469786,4,DB
2025-05-14 16:10:26.572,-1.8953965470814492e-06,4.893075417222598,4,DB
2025-05-14 16:10:26.580,-4.185119516978263e-06,5.071247575863919,4,DB
2025-05-14 16:10:26.588,-6.582564208473938e-06,5.235166909445695,4,DB
2025-05-14 16:10:26.595,-8.878867622691777e-06,5.381866748457067,4,DB
2025-05-14 16:10:26.603,-1.0863066466830957e-05,5.508453182922153,4,DB
2025-05-14 16:10:26.611,-1.2334776226531723e-05,5.612174681777284,4,DB
2025-05-14 16:10:26.619,-1.3116839057924095e-05,5.69049207904009,4,DB
2025-05-14 16:10:26.627,-1.3067078720340051e-05,5.741146332779163,4,DB
2025-05-14 16:10:26.634,-1.2088358961064447e-05,5.762221503916672,4,DB
2025-05-14 16:10:26.642,-1.0136259125388956e-05,5.75220057065252,4,DB
2025-05-14 16:10:26.650,-7.223855783532178e-06,5.710011978128263,4,DB
2025-05-14 16:10:26.658,-3.4232911672134207e-06,5.635065195459939,4,DB
2025-05-14 16:10:26.666,1.136021144171825e-06,5.527273975374016,4,DB
2025-05-14 16:10:26.673,6.27254663043696e-06,5.387066444578739,4,DB
2025-05-14 16:10:26.681,1.1760948087211152e-05,5.215381564365604,4,DB
2025-05-14 16:10:26.689,1.7343168072266286e-05,5.013651878050495,4,DB
2025-05-14 16:10:26.697,2.274166450906942e-05,4.783772812295984,4,DB
2025-05-14 16:10:26.705,2.767403915954682e-05,4.528059144110426,4,DB
2025-05-14 16:10:26.713,3.186822170373481e-05,4.249189606950751,4,DB
2025-05-14 16:10:26.720,3.5077350149035387e-05,3.9501410005458064,4,DB
2025-05-14 16:10:26.728,3.709350894060097e-05,3.634113585596748,4,DB
2025-05-14 16:10:26.736,3.775956057560954e-05,3.3044499645592067,4,DB
2025-05-14 16:10:26.744,3.697844442455162e-05,2.9645500384296986,4,DB
2025-05-14 16:10:26.752,3.471949312785838e-05,2.6177849458810245,4,DB
2025-05-14 16:10:26.759,3.102149202413087e-05,2.2674130954569933,4,DB
2025-05-14 16:10:26.767,2.5992374822197885e-05,1.916501462841848,4,DB
2025-05-14 16:10:26.775,1.980562993456e-05,1.567855226945839,4,DB
2025-05-14 16:10:26.783,1.2693672740147966e-05,1.2239585594625964,4,DB
2025-05-14 16:10:26.791,4.938568288675672e-06,0.8869289733857313,4,DB
2025-05-14 16:10:26.798,-3.139448699690986e-06,0.5584870969535619,4,DB
2025-05-14 16:10:26.806,-1.119516710398386e-05,0.2399431008014719,4,DB
2025-05-14 16:10:26.814,-1.8872757586930595e-05,-0.067799693298906,4,DB
2025-05-14 16:10:26.822,-2.582069892703594e-05,-0.3642242133990488,4,DB
2025-05-14 16:10:26.830,-3.1706672966038694e-05,-0.6491629474716754,4,DB
2025-05-14 16:10:26.838,-3.623185671658772e-05,-0.9227467400278108,4,DB
2025-05-14 16:10:26.845,-3.914406582128093e-05,-1.1853412900723286,4,DB
2025-05-14 16:10:26.853,-4.024922672564234e-05,-1.437474152359067,4,DB
2025-05-14 16:10:26.861,-3.942070065378837e-05,-1.679755565740627,4,DB
2025-05-14 16:10:26.869,-3.6606060808433255e-05,-1.912796864524596,4,DB
2025-05-14 16:10:26.877,-3.1831021634414475e-05,-2.1371305341793643,4,DB
2025-05-14 16:10:26.884,-2.520032321662816e-05,-2.353136104399426,4,DB
2025-05-14 16:10:26.892,-1.6895475917296054e-05,-2.560975984985695,4,DB
2025-05-14 16:10:26.900,-7.169348432665434e-06,-2.7605450161868754,4,DB
2025-05-14 16:10:26.908,3.662367940037043e-06,-2.95143692835744,4,DB
2025-05-14 16:10:26.916,1.5232716315878857e-05,-3.132930119397891,4,DB
2025-05-14 16:10:26.923,2.713780120400524e-05,-3.3039942155075663,4,DB
2025-05-14 16:10:26.931,3.895340273623134e-05,-3.46331784213457,4,DB
2025-05-14 16:10:26.939,5.025313361630422e-05,-3.609356958853717,4,DB
2025-05-14 16:10:26.947,6.0627173971419526e-05,-3.740402061320632,4,DB
2025-05-14 16:10:26.955,6.970050502629873e-05,-3.854661575104396,4,DB
2025-05-14 16:10:26.963,7.714958297429648e-05,-3.950357902080169,4,DB
2025-05-14 16:10:26.970,8.271652673303379e-05,-4.025831867171148,4,DB
2025-05-14 16:10:26.978,8.622008831891627e-05,-4.079650786196528,4,DB
2025-05-14 16:10:26.986,8.756289458364276e-05,-4.110715066878021,4,DB
2025-05-14 16:10:26.994,8.673467709219132e-05,-4.118358191906541,4,DB
2025-05-14 16:10:27.002,8.381143438027859e-05,-4.102435131286028,4,DB
2025-05-14 16:10:27.009,7.895068294956147e-05,-4.063394689196368,4,DB
2025-05-14 16:10:27.017,7.238312473643048e-05,-4.0023319857673965,4,DB
2025-05-14 16:10:27.025,6.440117370024784e-05,-3.921018163409441,4,DB
2025-05-14 16:10:27.033,5.534486465876878e-05,-3.821905430254024,4,DB
2025-05-14 16:10:27.041,4.558575933114283e-05,-3.708106639985357,4,DB
2025-05-14 16:10:27.048,3.55095897954053e-05,-3.5833496923257115,4,DB
2025-05-14 16:10:27.056,2.5498520952298097e-05,-3.4519080717461823,4,DB
2025-05-14 16:10:27.064,1.591403457510432e-05,-3.318509789213421,4,DB
2025-05-14 16:10:27.072,7.0814918030053066e-06,-3.188227823602712,4,DB
2025-05-14 16:10:27.080,-7.226309337481592e-07,-3.0663558415508017,4,DB
2025-05-14 16:10:27.088,-7.280036935567401e-06,-2.9582734686562597,4,DB
2025-05-14 16:10:27.095,-1.2435947670609314e-05,-2.8693056606820697,4,DB
2025-05-14 16:10:27.103,-1.6100358764772466e-05,-2.80458077190105,4,DB
2025-05-14 16:10:27.111,-1.8245457535013293e-05,-2.7688917558449737,4,DB
2025-05-14 16:10:27.119,-1.88997899998124e-05,-2.7665645973461075,4,DB
2025-05-14 16:10:27.127,-1.8140038882301776e-05,-2.801337607495717,4,DB
2025-05-14 16:10:27.134,-1.608142405194217e-05,-2.87625465658856,4,DB
2025-05-14 16:10:27.142,-1.2867737053828168e-05,-2.9935748082323284,4,DB
2025-05-14 16:10:27.150,-8.661896650148941e-06,-3.154700176465015,4,DB
2025-05-14 16:10:27.158,-3.6377145317673617e-06,-3.3601231781996628,4,DB
2025-05-14 16:10:27.166,2.0266692733869296e-06,-3.6093937160727,4,DB
2025-05-14 16:10:27.174,8.153462478218192e-06,-3.9011062236664578,4,DB
2025-05-14 16:10:27.181,1.4568028383642072e-05,-4.232905960218286,4,DB
2025-05-14 16:10:27.189,2.1100062793661832e-05,-4.601513481777266,4,DB
2025-05-14 16:10:27.197,2.7583533271303397e-05,-5.002765867678025,4,DB
2025-05-14 16:10:27.205,3.385582918774909e-05,-5.431673068933706,4,DB
2025-05-14 16:10:27.213,3.97565334817111e-05,-5.882487681033361,4,DB
2025-05-14 16:10:27.220,4.512616534829548e-05,-6.348786520629501,4,DB
2025-05-14 16:10:27.228,4.9805218496733776e-05,-6.823562575335916,4,DB
2025-05-14 16:10:27.236,5.363382197857925e-05,-7.299326154213547,4,DB
2025-05-14 16:10:27.244,5.645233118606344e-05,-7.768214341613974,4,DB
2025-05-14 16:10:27.252,5.810309843135144e-05,-8.222108094779626,4,DB
2025-05-14 16:10:27.259,5.843358927546817e-05,-8.652756474350186,4,DB
2025-05-14 16:10:27.267,5.730090420279139e-05,-9.051907515134127,4,DB
2025-05-14 16:10:27.275,5.457762664852631e-05,-9.411445110159706,4,DB
2025-05-14 16:10:27.283,5.015875510481784e-05,-9.723530996398708,4,DB
2025-05-14 16:10:27.291,4.396931054711693e-05,-9.98075051737322,4,DB
2025-05-14 16:10:27.299,3.597206587291707e-05,-10.17626032691418,4,DB
2025-05-14 16:10:27.306,2.6174752539789392e-05,-10.303935623287067,4,DB
2025-05-14 16:10:27.314,1.4636088903220816e-05,-10.358513901717377,4,DB
2025-05-14 16:10:27.322,1.470047112934076e-06,-10.33573163181357,4,DB
2025-05-14 16:10:27.330,-1.3152094233550762e-05,-10.232449758054754,4,DB
2025-05-14 16:10:27.338,-2.9002211332479963e-05,-10.04676354486656,4,DB
2025-05-14 16:10:27.345,-4.579846824345379e-05,-9.778092101894924,4,DB
2025-05-14 16:10:27.353,-6.321116686788121e-05,-9.427242982481278,4,DB
2025-05-14 16:10:27.361,-8.087125387748129e-05,-8.996447585947811,4,DB
2025-05-14 16:10:27.369,-9.838128345047122e-05,-8.489363726189598,4,DB
2025-05-14 16:10:27.377,-0.0001153284394965,-7.911042645146467,4,DB
2025-05-14 16:10:27.384,-0.0001312990021131,-7.267858919181361,4,DB
2025-05-14 16:10:27.392,-0.0001458934613124,-6.567403081675074,4,DB
2025-05-14 16:10:27.400,-0.000158741398423,-5.818338303244286,4,DB
2025-05-14 16:10:27.408,-0.0001695152981902,-5.0302240527243125,4,DB
2025-05-14 16:10:27.416,-0.0001779425892358,-4.213311214000297,4,DB
2025-05-14 16:10:27.424,-0.0001838153669915,-3.3783145554378438,4,DB
2025-05-14 16:10:27.431,-0.0001869973822671,-2.5361696414841086,4,DB
2025-05-14 16:10:27.439,-0.0001874279896327,-1.697782150397378,4,DB
2025-05-14 16:10:27.447,-0.0001851228858736,-0.8737780451711835,4,DB
2025-05-14 16:10:27.455,-0.0001801716512379,-0.074263092011033,4,DB
2025-05-14 16:10:27.463,-0.0001727323173223,0.6914001732897108,4,DB
2025-05-14 16:10:27.470,-0.0001630233901554,1.414790731412641,4,DB
2025-05-14 16:10:27.478,-0.0001513139187384,2.088596461108996,4,DB
2025-05-14 16:10:27.486,-0.0001379122892827,2.7067458622089755,4,DB
2025-05-14 16:10:27.494,-0.0001231544335713,3.264500935657839,4,DB
2025-05-14 16:10:27.502,-0.0001073920686418,3.758509671638584,4,DB
2025-05-14 16:10:27.509,-9.09814408920724e-05,4.186818196954624,4,DB
2025-05-14 16:10:27.517,-7.427285910181533e-05,4.548844110540258,4,DB
2025-05-14 16:10:27.525,-5.760113307169826e-05,4.845313828353948,4,DB
2025-05-14 16:10:27.533,-4.1276961389988834e-05,5.078167828836887,4,DB
2025-05-14 16:10:27.541,-2.5579357357780568e-05,5.250438521814621,4,DB
2025-05-14 16:10:27.549,-1.074931058703376e-05,5.366106056203548,4,DB
2025-05-14 16:10:27.556,3.0150427476776934e-06,5.4299377419859285,4,DB
2025-05-14 16:10:27.564,1.556148485852306e-05,5.447316899235613,4,DB
2025-05-14 16:10:27.572,2.678485882597421e-05,5.424066872593309,4,DB
2025-05-14 16:10:27.580,3.6626264973409416e-05,5.366275677896783,4,DB
2025-05-14 16:10:27.588,4.507042120635685e-05,5.280126299989661,4,DB
2025-05-14 16:10:27.595,5.21414161992896e-05,5.1717370689668485,4,DB
2025-05-14 16:10:27.603,5.789718402665448e-05,5.047015848851886,4,DB
2025-05-14 16:10:27.611,6.242310594049324e-05,4.911531025696649,4,DB
2025-05-14 16:10:27.619,6.582518858830398e-05,4.77040152609249,4,DB
2025-05-14 16:10:27.627,6.822325684836841e-05,4.628207367807391,4,DB
2025-05-14 16:10:27.634,6.974452245539979e-05,4.488921566430978,4,DB
2025-05-14 16:10:27.642,7.051777359068087e-05,4.355863609275731,4,DB
2025-05-14 16:10:27.650,7.066832653182944e-05,4.231674162895671,4,DB
2025-05-14 16:10:27.658,7.031381573945659e-05,4.118310195632741,4,DB
2025-05-14 16:10:27.666,6.956086332201581e-05,4.01705925872618,4,DB
2025-05-14 16:10:27.674,6.85026431363693e-05,3.92857126965587,4,DB
2025-05-14 16:10:27.681,6.72173301818538e-05,3.85290578043055,4,DB
2025-05-14 16:10:27.689,6.576740174355147e-05,3.789592401699052,4,DB
2025-05-14 16:10:27.697,6.419973378096901e-05,3.7377018058051408,4,DB
2025-05-14 16:10:27.705,6.254641508183488e-05,3.695924563749661,4,DB
2025-05-14 16:10:27.713,6.082618333748016e-05,3.6626549954243166,4,DB
2025-05-14 16:10:27.720,5.904637206476606e-05,3.6360772362621088,4,DB
2025-05-14 16:10:27.728,5.720524560813967e-05,3.614250843920875,4,DB
2025-05-14 16:10:27.736,5.529459160622677e-05,3.5951934739181093,4,DB
2025-05-14 16:10:27.744,5.33024365012813e-05,3.5769584276455912,4,DB
2025-05-14 16:10:27.752,5.121575001198114e-05,3.5577052056453846,4,DB
2025-05-14 16:10:27.759,4.90230089952271e-05,3.535761570100892,4,DB
2025-05-14 16:10:27.767,4.6716499719563565e-05,3.5096760175988755,4,DB
2025-05-14 16:10:27.775,4.429425010788504e-05,3.47825996778259,4,DB
2025-05-14 16:10:27.783,4.176149974623853e-05,3.440619365579433,4,DB
2025-05-14 16:10:27.791,3.913163508566009e-05,3.396175753697155,4,DB
2025-05-14 16:10:27.799,3.642653989315567e-05,3.3446771770494923,4,DB
2025-05-14 16:10:27.806,3.367633616532268e-05,3.286199512133659,4,DB
2025-05-14 16:10:27.814,3.091851785411296e-05,3.221138958666108,4,DB
2025-05-14 16:10:27.822,2.819650824149009e-05,3.1501964869526016,4,DB
2025-05-14 16:10:27.830,2.55577009356629e-05,3.074355017747584,4,DB
2025-05-14 16:10:27.838,2.305107347329907e-05,2.994850049964508,4,DB
2025-05-14 16:10:27.845,2.072449056430224e-05,2.91313437793936,4,DB
2025-05-14 16:10:27.853,1.8621840221987296e-05,2.830837482219502,4,DB
2025-05-14 16:10:27.861,1.678016945972119e-05,2.749720154538346,4,DB
2025-05-14 16:10:27.869,1.5227005967012835e-05,2.671624934446701,4,DB
2025-05-14 16:10:27.877,1.3978067272737556e-05,2.598422986413829,4,DB
2025-05-14 16:10:27.884,1.303556683969156e-05,2.5319581226269885,4,DB
2025-05-14 16:10:27.892,1.238731679880844e-05,2.47398877223559,4,DB
2025-05-14 16:10:27.900,1.200677829235147e-05,2.4261288099744927,4,DB
2025-05-14 16:10:27.908,1.1854110882356836e-05,2.389788281114541,4,DB
2025-05-14 16:10:27.916,1.1878148124298745e-05,2.366115183383977,4,DB
2025-05-14 16:10:27.924,1.2019126866893004e-05,2.3559395714968483,4,DB
2025-05-14 16:10:27.931,1.2211949093759152e-05,2.3597213177192358,4,DB
2025-05-14 16:10:27.939,1.2389745489426198e-05,2.377502879477101,4,DB
2025-05-14 16:10:27.947,1.248751818682546e-05,2.4088683857359503,4,DB
2025-05-14 16:10:27.955,1.2445655978424527e-05,2.4529102567040244,4,DB
2025-05-14 16:10:27.963,1.2213136304139536e-05,2.5082044236111964,4,DB
2025-05-14 16:10:27.970,1.1750253820026194e-05,2.5727950375297035,4,DB
2025-05-14 16:10:27.978,1.1030744544121114e-05,2.6441893814538444,4,DB
2025-05-14 16:10:27.986,1.0043206708729311e-05,2.719363563021849,4,DB
2025-05-14 16:10:27.994,8.791753763716756e-06,2.794779490606456,4,DB
2025-05-14 16:10:28.002,7.29587071899523e-06,2.86641363133806,4,DB
2025-05-14 16:10:28.009,5.589481435141683e-06,2.9297981090155383,4,DB
2025-05-14 16:10:28.017,3.719270816964573e-06,2.9800748003801143,4,DB
2025-05-14 16:10:28.025,1.7423413786690751e-06,3.012063190343176,4,DB
2025-05-14 16:10:28.033,-2.766824352252089e-07,3.0203427967760423,4,DB
2025-05-14 16:10:28.041,-2.268957249865193e-06,2.999350915284219,4,DB
2025-05-14 16:10:28.049,-4.164957784228495e-06,2.943496213913562,4,DB
2025-05-14 16:10:28.056,-5.898050192644383e-06,2.847288294623912,4,DB
2025-05-14 16:10:28.064,-7.407884367430765e-06,2.705482721654477,4,DB
2025-05-14 16:10:28.072,-8.643375367485342e-06,2.513240205114198,4,DB
2025-05-14 16:10:28.080,-9.565049267820135e-06,2.266297645988447,4,DB
2025-05-14 16:10:28.088,-1.014657276612006e-05,1.961147635807082,4,DB
2025-05-14 16:10:28.095,-1.0375380631437596e-05,1.5952218151103972,4,DB
2025-05-14 16:10:28.103,-1.025243469267287e-05,1.1670723002279348,4,DB
2025-05-14 16:10:28.111,-9.79124302810328e-06,0.6765442753889193,4,DB
2025-05-14 16:10:28.119,-9.01631256296525e-06,0.1249319197767926,4,DB
2025-05-14 16:10:28.127,-7.961214353020533e-06,-0.4848907934193086,4,DB
2025-05-14 16:10:28.134,-6.666429937094476e-06,-1.1483731245466715,4,DB
2025-05-14 16:10:28.142,-5.177129973486626e-06,-1.8592328770334836,4,DB
2025-05-14 16:10:28.150,-3.5410156272964286e-06,-2.609451665832008,4,DB
2025-05-14 16:10:28.158,-1.8063299378115205e-06,-3.389326480200205,4,DB
2025-05-14 16:10:28.166,-2.012174272960548e-08,-4.187581982356373,4,DB
2025-05-14 16:10:28.174,1.7731803014519148e-06,-4.991545596515575,4,DB
2025-05-14 16:10:28.181,3.532850530597347e-06,-5.787384671400072,4,DB
2025-05-14 16:10:28.189,5.2225958818636775e-06,-6.560401989350408,4,DB
2025-05-14 16:10:28.197,6.81094313421347e-06,-7.295382814324451,4,DB
2025-05-14 16:10:28.205,8.271312698227098e-06,-7.976983700244733,4,DB
2025-05-14 16:10:28.213,9.58182269902434e-06,-8.590150610036495,4,DB
2025-05-14 16:10:28.220,1.072487833359351e-05,-9.120551712445984,4,DB
2025-05-14 16:10:28.228,1.168660894584305e-05,-9.555008695856417,4,DB
2025-05-14 16:10:28.236,1.245621890320896e-05,-9.88190969268462,4,DB
2025-05-14 16:10:28.244,1.3025318266150925e-05,-10.09158701727012,4,DB
2025-05-14 16:10:28.252,1.3387295630192736e-05,-10.176643898000933,4,DB
2025-05-14 16:10:28.259,1.3536788716987556e-05,-10.132216188019592,4,DB
2025-05-14 16:10:28.267,1.3469298724219171e-05,-9.956157577686271,4,DB
2025-05-14 16:10:28.275,1.318098262717812e-05,-9.649139976762896,4,DB
2025-05-14 16:10:28.283,1.2668644139516031e-05,-9.214664323261196,4,DB
2025-05-14 16:10:28.291,1.1929929520203995e-05,-8.658980919719651,4,DB
2025-05-14 16:10:28.299,1.0963719524358213e-05,-7.990922285678707,4,DB
2025-05-14 16:10:28.306,9.770694217837522e-06,-7.22165522550876,4,DB
2025-05-14 16:10:28.314,8.354033784923149e-06,-6.36436212881845,4,DB
2025-05-14 16:10:28.322,6.720206506292698e-06,-5.433864265200345,4,DB
2025-05-14 16:10:28.330,4.87978537877558e-06,-4.4462018813630975,4,DB
2025-05-14 16:10:28.338,2.848227934556742e-06,-3.418187195025159,4,DB
2025-05-14 16:10:28.345,6.465501604972779e-07,-2.366946897941917,4,DB
2025-05-14 16:10:28.353,-1.6981746149353564e-06,-1.3094705619413287,4,DB
2025-05-14 16:10:28.361,-4.152557155844401e-06,-0.2621804499619569,4,DB
2025-05-14 16:10:28.369,-6.676931516994273e-06,0.7594632437451783,4,DB
2025-05-14 16:10:28.377,-9.22573761525386e-06,1.7413096602472018,4,DB
2025-05-14 16:10:28.384,-1.1748277126489191e-05,2.670807315863531,4,DB
2025-05-14 16:10:28.392,-1.4189853496598337e-05,3.537229767550088,4,DB
2025-05-14 16:10:28.400,-1.6493284659969268e-05,4.331832482333087,4,DB
2025-05-14 16:10:28.408,-1.860075245869112e-05,5.047939247269542,4,DB
2025-05-14 16:10:28.416,-2.045592652466616e-05,5.680959145143618,4,DB
2025-05-14 16:10:28.424,-2.200627343071437e-05,6.228337649214319,4,DB
2025-05-14 16:10:28.431,-2.3205435257068396e-05,6.6894476731817,4,DB
2025-05-14 16:10:28.439,-2.401553646881769e-05,7.065428371657903,4,DB
2025-05-14 16:10:28.447,-2.44092553327649e-05,7.358981052857098,4,DB
2025-05-14 16:10:28.455,-2.4371478847257908e-05,7.574132685622931,4,DB
2025-05-14 16:10:28.463,-2.3900359193703896e-05,7.715978125284595,4,DB
2025-05-14 16:10:28.470,-2.300762678603031e-05,7.790412339359445,4,DB
2025-05-14 16:10:28.478,-2.1718102315489354e-05,7.803863600558792,4,DB
2025-05-14 16:10:28.486,-2.0068462310944032e-05,7.763037867183598,4,DB
2025-05-14 16:10:28.494,-1.8105400494714063e-05,7.674683442221315,4,DB
2025-05-14 16:10:28.502,-1.588336513584728e-05,7.545383554941842,4,DB
2025-05-14 16:10:28.509,-1.346205286152537e-05,7.381382809974748,4,DB
2025-05-14 16:10:28.517,-1.0903823658712956e-05,7.188451569879988,4,DB
2025-05-14 16:10:28.525,-8.27118087458222e-06,6.971790356613635,4,DB
2025-05-14 16:10:28.533,-5.624436633392665e-06,6.735974363905972,4,DB
2025-05-14 16:10:28.541,-3.0196582919309816e-06,6.484936263052987,4,DB
2025-05-14 16:10:28.549,-5.069663482532825e-07,6.221983755736679,4,DB
2025-05-14 16:10:28.556,1.8707705014184144e-06,5.949846867877932,4,DB
2025-05-14 16:10:28.564,4.078820908090053e-06,5.670748862695866,4,DB
2025-05-14 16:10:28.572,6.091056276685695e-06,5.386493933906311,4,DB
2025-05-14 16:10:28.580,7.890014335111005e-06,5.098564549230155,4,DB
2025-05-14 16:10:28.588,9.46659534732098e-06,4.808221445335916,4,DB
2025-05-14 16:10:28.595,1.081943850855928e-05,4.516599791834792,4,DB
2025-05-14 16:10:28.603,1.1954035857365237e-05,4.224795884612292,4,DB
2025-05-14 16:10:28.611,1.2881647556250256e-05,3.9339398247821618,4,DB
2025-05-14 16:10:28.619,1.361808571736168e-05,3.6452509095188974,4,DB
2025-05-14 16:10:28.627,1.4182434258873494e-05,3.3600738224444706,4,DB
2025-05-14 16:10:28.634,1.4595769827159296e-05,3.079895080082831,4,DB
2025-05-14 16:10:28.642,1.4879943925797318e-05,2.8063404851376585,4,DB
2025-05-14 16:10:28.650,1.5056479418818468e-05,2.5411554839593227,4,DB
2025-05-14 16:10:28.658,1.5145625918516603e-05,2.2861712669805336,4,DB
2025-05-14 16:10:28.666,1.5165608642793811e-05,2.043260146622863,4,DB
2025-05-14 16:10:28.674,1.5132094555348218e-05,1.814284172714423,4,DB
2025-05-14 16:10:28.681,1.5057888401776735e-05,1.6010410934509407,4,DB
2025-05-14 16:10:28.689,1.4952860029913071e-05,1.405211652448316,4,DB
2025-05-14 16:10:28.697,1.4824093515704834e-05,1.228311859883467,4,DB
2025-05-14 16:10:28.705,1.4676238460316768e-05,1.0716533318162578,4,DB
2025-05-14 16:10:28.713,1.4512034699405802e-05,0.9363141074145612,4,DB
2025-05-14 16:10:28.720,1.433297385235452e-05,0.8231215813757102,4,DB
2025-05-14 16:10:28.728,1.4140054875873533e-05,0.7326483772033043,4,DB
2025-05-14 16:10:28.736,1.393458626541793e-05,0.6652211775410961,4,DB
2025-05-14 16:10:28.744,1.3718984913812528e-05,0.6209417523577503,4,DB
2025-05-14 16:10:28.752,1.3497520983573627e-05,0.5997187069567453,4,DB
2025-05-14 16:10:28.759,1.327695951978063e-05,0.6013078256270579,4,DB
2025-05-14 16:10:28.767,1.3067052912503e-05,0.6253583269898932,4,DB
2025-05-14 16:10:28.775,1.2880843645461384e-05,0.6714618876664425,4,DB
2025-05-14 16:10:28.783,1.2734743919029624e-05,0.7392009475327191,4,DB
2025-05-14 16:10:28.791,1.2648367533477997e-05,0.8281926032584502,4,DB
2025-05-14 16:10:28.799,1.2644099630171922e-05,0.9381243548828808,4,DB
2025-05-14 16:10:28.806,1.2746401228661064e-05,1.0687781238890537,4,DB
2025-05-14 16:10:28.814,1.2980857630288607e-05,1.2200393359132038,4,DB
2025-05-14 16:10:28.822,1.3372992302327474e-05,1.3918884690320446,4,DB
2025-05-14 16:10:28.830,1.3946880389249914e-05,1.5843733053183915,4,DB
2025-05-14 16:10:28.838,1.4723608066541632e-05,1.7975611661955984,4,DB
2025-05-14 16:10:28.845,1.571963508305358e-05,2.03147161623458,4,DB
2025-05-14 16:10:28.853,1.694512754663762e-05,2.2859914180199965,4,DB
2025-05-14 16:10:28.861,1.840233581620476e-05,2.5607748287717698,4,DB
2025-05-14 16:10:28.869,2.008409781403007e-05,2.855133558729565,4,DB
2025-05-14 16:10:28.877,2.1972550746616497e-05,3.167921778139924,4,DB
2025-05-14 16:10:28.884,2.4038133759897218e-05,3.497422390483373,4,DB
2025-05-14 16:10:28.892,2.623896017125152e-05,3.841241324249917,4,DB
2025-05-14 16:10:28.900,2.8520630429372112e-05,4.196216792180157,4,DB
2025-05-14 16:10:28.908,3.081654578095063e-05,4.558350305176914,4,DB
2025-05-14 16:10:28.916,3.304876782953837e-05,4.922765706812633,4,DB
2025-05-14 16:10:28.924,3.512945096157684e-05,5.283701623163484,4,DB
2025-05-14 16:10:28.931,3.6962853348439725e-05,5.63454151712122,4,DB
2025-05-14 16:10:28.939,3.844790843447037e-05,5.96788402380388,4,DB
2025-05-14 16:10:28.947,3.9481313175165566e-05,6.2756544764887305,4,DB
2025-05-14 16:10:28.955,3.996106263952201e-05,6.549256593342322,4,DB
2025-05-14 16:10:28.963,3.979033392321393e-05,6.779761288463341,4,DB
2025-05-14 16:10:28.970,3.888159674638767e-05,6.958127607667112,4,DB
2025-05-14 16:10:28.978,3.71608048404184e-05,7.075448978763017,4,DB
2025-05-14 16:10:28.986,3.457150253357348e-05,7.123216410758108,4,DB
2025-05-14 16:10:28.994,3.10786661187139e-05,7.093589070823284,4,DB
2025-05-14 16:10:29.002,2.66720908925361e-05,6.9796618916866064,4,DB
2025-05-14 16:10:29.009,2.1369133380995456e-05,6.775719573233772,4,DB
2025-05-14 16:10:29.017,1.5216625258271012e-05,6.477466571125239,4,DB
2025-05-14 16:10:29.025,8.291791680275871e-06,6.082223410569173,4,DB
2025-05-14 16:10:29.033,7.02032787627897e-07,5.589080886648203,4,DB
2025-05-14 16:10:29.041,-7.416536723558299e-06,4.999005341293111,4,DB
2025-05-14 16:10:29.049,-1.5901848883577478e-05,4.314890148280655,4,DB
2025-05-14 16:10:29.056,-2.456994776190769e-05,3.5415506945484965,4,DB
2025-05-14 16:10:29.064,-3.322029759966676e-05,2.6856624227250574,4,DB
2025-05-14 16:10:29.072,-4.164220088664481e-05,1.7556437940729774,4,DB
2025-05-14 16:10:29.080,-4.962211640533509e-05,0.7614882288420509,4,DB
2025-05-14 16:10:29.088,-5.695158863619013e-05,-0.2854489387336686,4,DB
2025-05-14 16:10:29.095,-6.343543215762413e-05,-1.3727008037940325,4,DB
2025-05-14 16:10:29.103,-6.889978146143539e-05,-2.4869676146987225,4,DB
2025-05-14 16:10:29.111,-7.319963249528872e-05,-3.614414199908917,4,DB
2025-05-14 16:10:29.119,-7.622554447420159e-05,-4.740976143529704,4,DB
2025-05-14 16:10:29.127,-7.790919451073677e-05,-5.852664932883292,4,DB
2025-05-14 16:10:29.134,-7.822747079439953e-05,-6.935862874955172,4,DB
2025-05-14 16:10:29.142,-7.720479010349968e-05,-7.977599471942868,4,DB
2025-05-14 16:10:29.150,-7.491337818971905e-05,-8.965802081765842,4,DB
2025-05-14 16:10:29.158,-7.147136687017138e-05,-9.889514996810853,4,DB
2025-05-14 16:10:29.166,-6.703871611215644e-05,-10.739082490131617,4,DB
2025-05-14 16:10:29.174,-6.181113486315868e-05,-11.506292841822528,4,DB
2025-05-14 16:10:29.181,-5.601232709140055e-05,-12.184481807871432,4,DB
2025-05-14 16:10:29.189,-4.9885001124106655e-05,-12.76859536939884,4,DB
2025-05-14 16:10:29.197,-4.368112551379733e-05,-13.255212847130238,4,DB
2025-05-14 16:10:29.205,-3.765189293888577e-05,-13.642532538405838,4,DB
2025-05-14 16:10:29.213,-3.203779125529073e-05,-13.930322898805183,4,DB
2025-05-14 16:10:29.220,-2.7059113245362143e-05,-14.119842931708886,4,DB
2025-05-14 16:10:29.228,-2.2907197478006698e-05,-14.21373587108437,4,DB
2025-05-14 16:10:29.236,-1.9736697814929015e-05,-14.215900468144625,4,DB
2025-05-14 16:10:29.244,-1.765920475506353e-05,-14.131344258585086,4,DB
2025-05-14 16:10:29.252,-1.673854034747092e-05,-13.966023141441587,4,DB
2025-05-14 16:10:29.259,-1.6987995658401732e-05,-13.726671493735786,4,DB
2025-05-14 16:10:29.267,-1.8369689082291885e-05,-13.420626918925509,4,DB
2025-05-14 16:10:29.275,-2.079611786882117e-05,-13.055653603886965,4,DB
2025-05-14 16:10:29.283,-2.4133865903184435e-05,-12.639768136231275,4,DB
2025-05-14 16:10:29.291,-2.820932178310204e-05,-12.181071489163942,4,DB
2025-05-14 16:10:29.299,-3.281615475479922e-05,-11.68759068570199,4,DB
2025-05-14 16:10:29.306,-3.7724195955433744e-05,-11.167133383727087,4,DB
2025-05-14 16:10:29.314,-4.268929064706164e-05,-10.62715826492157,4,DB
2025-05-14 16:10:29.322,-4.746364669563091e-05,-10.074663662407056,4,DB
2025-05-14 16:10:29.330,-5.180621906832622e-05,-9.51609633124749,4,DB
2025-05-14 16:10:29.338,-5.549271572615087e-05,-8.957281665331697,4,DB
2025-05-14 16:10:29.345,-5.832483958514098e-05,-8.4033760069751,4,DB
2025-05-14 16:10:29.353,-6.013837230747759e-05,-7.85884099545489,4,DB
2025-05-14 16:10:29.361,-6.0809684136945655e-05,-7.327439175569842,4,DB
2025-05-14 16:10:29.369,-6.026027394756025e-05,-6.812249365970578,4,DB
2025-05-14 16:10:29.377,-5.845904988625064e-05,-6.315699610821378,4,DB
2025-05-14 16:10:29.384,-5.542224474224575e-05,-5.83961495415374,4,DB
2025-05-14 16:10:29.392,-5.121105790313326e-05,-5.385276824459713,4,DB
2025-05-14 16:10:29.400,-4.5927274838580255e-05,-4.953490524615677,4,DB
2025-05-14 16:10:29.408,-3.970723476796446e-05,-4.544657203762358,4,DB
2025-05-14 16:10:29.416,-3.2714606340741714e-05,-4.158846748555468,4,DB
2025-05-14 16:10:29.424,-2.5132473560298678e-05,-3.795868266441301,4,DB
2025-05-14 16:10:29.431,-1.7155218349580432e-05,-3.4553352268165414,4,DB
2025-05-14 16:10:29.439,-8.980628548895763e-06,-3.1367228510718466,4,DB
2025-05-14 16:10:29.447,-8.025849594583403e-07,-2.83941596819076,4,DB
2025-05-14 16:10:29.455,7.195398575976549e-06,-2.562746242760573,4,DB
2025-05-14 16:10:29.463,1.4845587331589826e-05,-2.30601839387708,4,DB
2025-05-14 16:10:29.470,2.2000271454614256e-05,-2.068525707525846,4,DB
2025-05-14 16:10:29.478,2.853479714937152e-05,-1.849555755356194,4,DB
2025-05-14 16:10:29.486,3.434939800276847e-05,-1.6483877356943557,4,DB
2025-05-14 16:10:29.494,3.9369894952534486e-05,-1.4642832288432186,4,DB
2025-05-14 16:10:29.502,4.354737706188872e-05,-1.2964723972192638,4,DB
2025-05-14 16:10:29.509,4.685700823910105e-05,-1.14413775540073,4,DB
2025-05-14 16:10:29.517,4.929612720913576e-05,-1.0063975875216025,4,DB
2025-05-14 16:10:29.525,5.088181969715131e-05,-0.882290913811305,4,DB
2025-05-14 16:10:29.533,5.164814357310842e-05,-0.7707656291081385,4,DB
2025-05-14 16:10:29.541,5.164318059673007e-05,-0.6706710825299962,4,DB
2025-05-14 16:10:29.549,5.092607360911729e-05,-0.580755966769647,4,DB
2025-05-14 16:10:29.556,4.956418695035299e-05,-0.4996719633081699,4,DB
2025-05-14 16:10:29.564,4.763050208109636e-05,-0.4259831710935666,4,DB
2025-05-14 16:10:29.572,4.5201331460159446e-05,-0.3581809551094304,4,DB
2025-05-14 16:10:29.580,4.235440330060372e-05,-0.294703509326138,4,DB
2025-05-14 16:10:29.588,3.916733947200624e-05,-0.2339591540093582,4,DB
2025-05-14 16:10:29.595,3.571652002089167e-05,-0.174352197369742,4,DB
2025-05-14 16:10:29.603,3.207630189167547e-05,-0.1143101023577152,4,DB
2025-05-14 16:10:29.611,2.831853761725699e-05,-0.0523107198514716,4,DB
2025-05-14 16:10:29.619,2.4512322973933807e-05,0.0130915282373455,4,DB
2025-05-14 16:10:29.627,2.0723891588770293e-05,0.0832414342345179,4,DB
2025-05-14 16:10:29.635,1.7016569727108363e-05,0.1593614379887705,4,DB
2025-05-14 16:10:29.642,1.3450706189830849e-05,0.242533143083989,4,DB
2025-05-14 16:10:29.650,1.0083500364838628e-05,0.3336821287993881,4,DB
2025-05-14 16:10:29.658,6.968665692931247e-06,0.4335660936008862,4,DB
2025-05-14 16:10:29.666,4.155885560088792e-06,0.5427662476150841,4,DB
2025-05-14 16:10:29.674,1.6900431149077337e-06,0.6616818125179971,4,DB
2025-05-14 16:10:29.681,-3.897652831369815e-07,0.7905274749344875,4,DB
2025-05-14 16:10:29.689,-2.051392551665942e-06,0.92933365422102,4,DB
2025-05-14 16:10:29.697,-3.2709069797972303e-06,1.0779494695269012,4,DB
2025-05-14 16:10:29.705,-4.033857995266363e-06,1.2360483141485132,4,DB
2025-05-14 16:10:29.713,-4.336407890619201e-06,1.4031359661978595,4,DB
2025-05-14 16:10:29.720,-4.18617101624244e-06,1.5785611879095849,4,DB
2025-05-14 16:10:29.728,-3.6025933787393026e-06,1.761528795975308,4,DB
2025-05-14 16:10:29.736,-2.616735267199471e-06,1.951115222039152,4,DB
2025-05-14 16:10:29.744,-1.2703999536345751e-06,2.146286618863201,4,DB
2025-05-14 16:10:29.752,3.853425516824423e-07,2.34591958870861,4,DB
2025-05-14 16:10:29.760,2.2921052514733107e-06,2.548824594958195,4,DB
2025-05-14 16:10:29.767,4.38644234620358e-06,2.753772044609686,4,DB
2025-05-14 16:10:29.775,6.602253712013926e-06,2.959520884292308,4,DB
2025-05-14 16:10:29.783,8.873191322700256e-06,3.164849333707307,4,DB
2025-05-14 16:10:29.791,1.1134945134623614e-05,3.368587096984439,4,DB
2025-05-14 16:10:29.799,1.3327309222153056e-05,3.5696480649428555,4,DB
2025-05-14 16:10:29.806,1.539595264567515e-05,3.7670621835083953,4,DB
2025-05-14 16:10:29.814,1.7293842779578884e-05,3.960004861913786,4,DB
2025-05-14 16:10:29.822,1.898229086762623e-05,4.147822080085201,4,DB
2025-05-14 16:10:29.830,2.0431609782206664e-05,4.33004927220769,4,DB
2025-05-14 16:10:29.838,2.1621391853987164e-05,4.506422141118636,4,DB
2025-05-14 16:10:29.845,2.2540429859832785e-05,4.676877805524444,4,DB
2025-05-14 16:10:29.853,2.31863165949199e-05,4.841545092125985,4,DB
2025-05-14 16:10:29.861,2.356476782200501e-05,5.000723336296828,4,DB
2025-05-14 16:10:29.869,2.3688719814670452e-05,5.1548497140360725,4,DB
2025-05-14 16:10:29.877,2.357725632116728e-05,5.304455850077103,4,DB
2025-05-14 16:10:29.885,2.325442078545207e-05,5.450115179843111,4,DB
2025-05-14 16:10:29.892,2.274796835416622e-05,5.592383228765847,4,DB
2025-05-14 16:10:29.900,2.2088108904579283e-05,5.731733553040778,4,DB
2025-05-14 16:10:29.908,2.130628741324746e-05,5.868492510073236,4,DB
2025-05-14 16:10:29.916,2.04340418283051e-05,6.0027762605978605,4,DB
2025-05-14 16:10:29.924,1.950197159013628e-05,6.134433436845942,4,DB
2025-05-14 16:10:29.931,1.853884243246201e-05,6.26299675178758,4,DB
2025-05-14 16:10:29.939,1.757084543034758e-05,6.387646494541622,4,DB
2025-05-14 16:10:29.947,1.6621020750501363e-05,6.507188382622632,4,DB
2025-05-14 16:10:29.955,1.5708849468089463e-05,6.620047652814117,4,DB
2025-05-14 16:10:29.963,1.4850010362267508e-05,6.724280602079027,4,DB
2025-05-14 16:10:29.970,1.4056292959815565e-05,6.817604068978106,4,DB
2025-05-14 16:10:29.978,1.3335653383141244e-05,6.8974425994821775,4,DB
2025-05-14 16:10:29.986,1.2692395847688871e-05,6.960992289646827,4,DB
2025-05-14 16:10:29.994,1.2127459971275958e-05,7.005299562805483,4,DB
2025-05-14 16:10:30.002,1.1638792389722276e-05,7.027352444639595,4,DB
2025-05-14 16:10:30.010,1.1221780469055484e-05,7.024181270721617,4,DB
2025-05-14 16:10:30.017,1.086972608428742e-05,6.992965224097596,4,DB
2025-05-14 16:10:30.025,1.0574338394333212e-05,6.931140686233611,4,DB
2025-05-14 16:10:30.033,1.0326226161022551e-05,6.83650713070253,4,DB
2025-05-14 16:10:30.041,1.011537230550126e-05,6.707326231716382,4,DB
2025-05-14 16:10:30.049,9.93157593111038e-06,6.542410020889894,4,DB
2025-05-14 16:10:30.056,9.764849832370249e-06,6.341194304828994,4,DB
2025-05-14 16:10:30.064,9.60576442503061e-06,6.1037941316420135,4,DB
2025-05-14 16:10:30.072,9.44573195218049e-06,5.831038829207956,4,DB
2025-05-14 16:10:30.080,9.277227639219294e-06,5.524484984958839,4,DB
2025-05-14 16:10:30.088,9.093947094777249e-06,5.186406644913514,4,DB
2025-05-14 16:10:30.095,8.890901611380671e-06,4.819762930182608,4,DB
2025-05-14 16:10:30.103,8.66445505276731e-06,4.428144160581542,4,DB
2025-05-14 16:10:30.111,8.41230768634274e-06,4.015698401629249,4,DB
2025-05-14 16:10:30.119,8.13343360888234e-06,3.58704107852064,4,DB
2025-05-14 16:10:30.127,7.827979317067066e-06,3.1471508942472384,4,DB
2025-05-14 16:10:30.135,7.497131502279192e-06,2.701255721087332,4,DB
2025-05-14 16:10:30.142,7.142962324395613e-06,2.254712392404807,4,DB
2025-05-14 16:10:30.150,6.76826027561002e-06,1.8128844093539935,4,DB
2025-05-14 16:10:30.158,6.376354324108075e-06,1.3810215091654456,4,DB
2025-05-14 16:10:30.166,5.970938375822867e-06,0.9641448322700532,4,DB
2025-05-14 16:10:30.174,5.5559022608606725e-06,0.5669410819033377,4,DB
2025-05-14 16:10:30.181,5.135174490878216e-06,0.1936685948256164,4,DB
2025-05-14 16:10:30.189,4.712580995083855e-06,-0.1519223576687626,4,DB
2025-05-14 16:10:30.197,4.291722973238895e-06,-0.4666534231081998,4,DB
2025-05-14 16:10:30.205,3.875875947432642e-06,-0.7479653299617501,4,DB
2025-05-14 16:10:30.213,3.467911088486608e-06,-0.9939482927677776,4,DB
2025-05-14 16:10:30.220,3.0702389693721093e-06,-1.203356319423262,4,DB
2025-05-14 16:10:30.228,2.6847750820172567e-06,-1.375606687850285,4,DB
2025-05-14 16:10:30.236,2.3129257633871206e-06,-1.5107663037489885,4,DB
2025-05-14 16:10:30.244,1.955592622900877e-06,-1.6095269077748398,4,DB
2025-05-14 16:10:30.252,1.6131931506751232e-06,-1.6731711679442625,4,DB
2025-05-14 16:10:30.260,1.2856949132719765e-06,-1.703531588513476,4,DB
2025-05-14 16:10:30.267,9.72660603748399e-07,-1.7029439212766535,4,DB
2025-05-14 16:10:30.275,6.733011944915155e-07,-1.6741964229276254,4,DB
2025-05-14 16:10:30.283,3.865345296239591e-07,-1.6204759149695476,4,DB
2025-05-14 16:10:30.291,1.1104687107978085e-07,-1.5453112214108862,4,DB
2025-05-14 16:10:30.299,-1.5464484046601568e-07,-1.452514224293766,4,DB
2025-05-14 16:10:30.306,-4.121319517423327e-07,-1.3461185160805034,4,DB
2025-05-14 16:10:30.314,-6.630559051111057e-07,-1.23031546116379,4,DB
2025-05-14 16:10:30.322,-9.090541657320548e-07,-1.109387420226142,4,DB
2025-05-14 16:10:30.330,-1.1517112122168817e-06,-0.98763794656688,4,DB
2025-05-14 16:10:30.338,-1.3925152237277104e-06,-0.8693189286337091,4,DB
2025-05-14 16:10:30.345,-1.6328208177052903e-06,-0.7585549161840084,4,DB
2025-05-14 16:10:30.353,-1.8738179555952695e-06,-0.6592652137756496,4,DB
2025-05-14 16:10:30.361,-2.116506945027478e-06,-0.5750847366829964,4,DB
2025-05-14 16:10:30.369,-2.361679328650881e-06,-0.5092850759246662,4,DB
2025-05-14 16:10:30.377,-2.6099043619047157e-06,-0.4646976762538628,4,DB
2025-05-14 16:10:30.385,-2.861520741221169e-06,-0.4436414518777332,4,DB
2025-05-14 16:10:30.392,-3.1166332447833613e-06,-0.4478575057128685,4,DB
2025-05-14 16:10:30.400,-3.3751139821717565e-06,-0.4784538378271831,4,DB
2025-05-14 16:10:30.408,-3.63660800757432e-06,-0.535862990275008,4,DB
2025-05-14 16:10:30.416,-3.900543123191624e-06,-0.6198154481092395,4,DB
2025-05-14 16:10:30.424,-4.166143774024914e-06,-0.7293312804998189,4,DB
2025-05-14 16:10:30.431,-4.432449001474065e-06,-0.8627319595550139,4,DB
2025-05-14 16:10:30.439,-4.698334470846753e-06,-1.0176735560158874,4,DB
2025-05-14 16:10:30.447,-4.962538607963299e-06,-1.1912016172233986,4,DB
2025-05-14 16:10:30.455,-5.223692865225651e-06,-1.3798270341414731,4,DB
2025-05-14 16:10:30.463,-5.480356082645501e-06,-1.5796211607611708,4,DB
2025-05-14 16:10:30.470,-5.731052811734407e-06,-1.7863274267901283,4,DB
2025-05-14 16:10:30.478,-5.974315329932845e-06,-1.9954857515049709,4,DB
2025-05-14 16:10:30.486,-6.208728893365742e-06,-2.2025652909978226,4,DB
2025-05-14 16:10:30.494,-6.43297956203558e-06,-2.4031004967825678,4,DB
2025-05-14 16:10:30.502,-6.645903692778887e-06,-2.592825183944925,4,DB
2025-05-14 16:10:30.510,-6.846537942667896e-06,-2.76779933412803,4,DB
2025-05-14 16:10:30.517,-7.034168372502159e-06,-2.9245236960948717,4,DB
2025-05-14 16:10:30.525,-7.208377001812389e-06,-3.0600378671399477,4,DB
2025-05-14 16:10:30.533,-7.369083959755483e-06,-3.17199838984049,4,DB
2025-05-14 16:10:30.541,-7.516583217259044e-06,-3.2587344120072377,4,DB
2025-05-14 16:10:30.549,-7.651569791342532e-06,-3.3192795569520617,4,DB
2025-05-14 16:10:30.556,-7.77515629818169e-06,-3.353379759167641,4,DB
2025-05-14 16:10:30.564,-7.888876810752525e-06,-3.3614778647076475,4,DB
2025-05-14 16:10:30.572,-7.994676160594715e-06,-3.344676712723316,4,DB
2025-05-14 16:10:30.580,-8.094883118621463e-06,-3.3046831554232114,4,DB
2025-05-14 16:10:30.588,-8.192166299938996e-06,-3.2437360084449494,4,DB
2025-05-14 16:10:30.595,-8.289472160381547e-06,-3.164521246772788,4,DB
2025-05-14 16:10:30.603,-8.389945080579622e-06,-3.0700778907697988,4,DB
2025-05-14 16:10:30.611,-8.496830253817607e-06,-2.963697996392811,4,DB
2025-05-14 16:10:30.619,-8.613360887843032e-06,-2.8488240131489038,4,DB
2025-05-14 16:10:30.627,-8.742632073611751e-06,-2.7289465411120104,4,DB
2025-05-14 16:10:30.635,-8.887464535815803e-06,-2.607505236236644,4,DB
2025-05-14 16:10:30.642,-9.050262326379325e-06,-2.487795305112529,4,DB
2025-05-14 16:10:30.650,-9.23286931457014e-06,-2.372881712827162,4,DB
2025-05-14 16:10:30.658,-9.43643002498303e-06,-2.2655229109059087,4,DB
2025-05-14 16:10:30.666,-9.661260935210396e-06,-2.168105578989108,4,DB
2025-05-14 16:10:30.674,-9.906738726739198e-06,-2.08259155912964,4,DB
2025-05-14 16:10:30.681,-1.017121214592079e-05,-2.010477837415389,4,DB
2025-05-14 16:10:30.689,-1.0451944041309867e-05,-1.9527700888431767,4,DB
2025-05-14 16:10:30.697,-1.07450897699417e-05,-1.9099699478827736,4,DB
2025-05-14 16:10:30.705,-1.1045717486998488e-05,-1.882075802946892,4,DB
2025-05-14 16:10:30.713,-1.1347874839580823e-05,-1.868596545693192,4,DB
2025-05-14 16:10:30.720,-1.1644705276419676e-05,-1.8685773485326451,4,DB
2025-05-14 16:10:30.728,-1.19286155749411e-05,-1.8806362144043132,4,DB
2025-05-14 16:10:30.736,-1.219149430293905e-05,-1.903009763205708,4,DB
2025-05-14 16:10:30.744,-1.2424978816859798e-05,-1.9336065087980427,4,DB
2025-05-14 16:10:30.752,-1.2620766109915854e-05,-1.9700657548974223,4,DB
2025-05-14 16:10:30.760,-1.2770960432904928e-05,-2.0098202111294885,4,DB
2025-05-14 16:10:30.767,-1.2868448203944465e-05,-2.050160513383796,4,DB
2025-05-14 16:10:30.775,-1.2907288396988155e-05,-2.0883000268204097,4,DB
2025-05-14 16:10:30.783,-1.2883104458478104e-05,-2.1214385991386653,4,DB
2025-05-14 16:10:30.791,-1.279346195796006e-05,-2.146824282198693,4,DB
2025-05-14 16:10:30.799,-1.2638214744894422e-05,-2.161812407265604,4,DB
2025-05-14 16:10:30.806,-1.241980147055866e-05,-2.1639217339346235,4,DB
2025-05-14 16:10:30.814,-1.214347404371432e-05,-2.1508876460284525,4,DB
2025-05-14 16:10:30.822,-1.181744001183836e-05,-2.1207124971248605,4,DB
2025-05-14 16:10:30.830,-1.1452902068529096e-05,-2.071713188286542,4,DB
2025-05-14 16:10:30.838,-1.1063979931419128e-05,-2.002565889971799,4,DB
2025-05-14 16:10:30.845,-1.0667502734772e-05,-1.9123475227798408,4,DB
2025-05-14 16:10:30.853,-1.0282663825718343e-05,-1.800573229259488,4,DB
2025-05-14 16:10:30.861,-9.930534395615744e-06,-1.6672286531031293,4,DB
2025-05-14 16:10:30.869,-9.63343763253333e-06,-1.5127954496312503,4,DB
2025-05-14 16:10:30.877,-9.414190921711027e-06,-1.3382681403619217,4,DB
2025-05-14 16:10:30.885,-9.29522988262376e-06,-1.1451602458814667,4,DB
2025-05-14 16:10:30.892,-9.297634510648664e-06,-0.9354976228256212,4,DB
2025-05-14 16:10:30.900,-9.440084150584702e-06,-0.7117971151885385,4,DB
2025-05-14 16:10:30.908,-9.73777420179515e-06,-0.4770290187387616,4,DB
2025-05-14 16:10:30.916,-1.0201333052333596e-05,-0.2345624518930851,4,DB
2025-05-14 16:10:30.924,-1.0835782461424913e-05,0.0119064862048698,4,DB
2025-05-14 16:10:30.931,-1.163958815381695e-05,0.2584429462399369,4,DB
2025-05-14 16:10:30.939,-1.260384946411993e-05,0.5009760866687414,4,DB
2025-05-14 16:10:30.947,-1.3711677206615746e-05,0.735413448651687,4,DB
2025-05-14 16:10:30.955,-1.4937807316531544e-05,0.957763069304583,4,DB
2025-05-14 16:10:30.963,-1.6248494035219602e-05,1.164258663690001,4,DB
2025-05-14 16:10:30.970,-1.760172038327363e-05,1.3514826801751525,4,DB
2025-05-14 16:10:30.978,-1.8947755351046607e-05,1.5164818360106382,4,DB
2025-05-14 16:10:30.986,-2.0230076695029465e-05,1.6568698960127983,4,DB
2025-05-14 16:10:30.994,-2.1386665621082847e-05,1.770912954318238,4,DB
2025-05-14 16:10:31.002,-2.2351665228187677e-05,1.857593274626016,4,DB
2025-05-14 16:10:31.010,-2.3057378755242264e-05,1.916648775882352,4,DB
2025-05-14 16:10:31.017,-2.343656690271283e-05,1.948586442305687,4,DB
2025-05-14 16:10:31.025,-2.3424986377226088e-05,1.9546692040031453,4,DB
2025-05-14 16:10:31.033,-2.296409500870377e-05,1.9368770892986595,4,DB
2025-05-14 16:10:31.041,-2.2003833070452085e-05,1.8978446096945076,4,DB
2025-05-14 16:10:31.049,-2.050537660178181e-05,1.84077733242414,4,DB
2025-05-14 16:10:31.056,-1.844374742852548e-05,1.7693513686610456,4,DB
2025-05-14 16:10:31.064,-1.5810157036554915e-05,1.6876000207535546,4,DB
2025-05-14 16:10:31.072,-1.2613958279465426e-05,1.599792074491152,4,DB
2025-05-14 16:10:31.080,-8.884080824549495e-06,1.5103062023549108,4,DB
2025-05-14 16:10:31.088,-4.6698338811379945e-06,1.423505693893639,4,DB
2025-05-14 16:10:31.095,-4.0973582882915367e-08,1.3436172987432295,4,DB
2025-05-14 16:10:31.103,4.9130473064763685e-06,1.27461741353549,4,DB
2025-05-14 16:10:31.111,1.00847028659056e-05,1.220128225299915,4,DB
2025-05-14 16:10:31.119,1.5350913005499407e-05,1.18332579701242,4,DB
2025-05-14 16:10:31.127,2.0576441278565196e-05,1.166861494135007,4,DB
2025-05-14 16:10:31.135,2.561811070014682e-05,1.172797642563767,4,DB
2025-05-14 16:10:31.142,3.0329728603852856e-05,1.2025579045829755,4,DB
2025-05-14 16:10:31.150,3.456756076184478e-05,1.2568925727282891,4,DB
2025-05-14 16:10:31.158,3.819614318265938e-05,1.3358588103732694,4,DB
2025-05-14 16:10:31.166,4.109416909598106e-05,1.438815797483075,4,DB
2025-05-14 16:10:31.174,4.316014075362188e-05,1.5644347421177844,4,DB
2025-05-14 16:10:31.181,4.431743472656531e-05,1.7107237522277683,4,DB
2025-05-14 16:10:31.189,4.451840741451125e-05,1.8750675794588036,4,DB
2025-05-14 16:10:31.197,4.374718911701715e-05,2.054282198336838,4,DB
2025-05-14 16:10:31.205,4.202090341380537e-05,2.244684029656096,4,DB
2025-05-14 16:10:31.213,3.938920015146774e-05,2.442173330946497,4,DB
2025-05-14 16:10:31.220,3.593216820144718e-05,2.6423308563681958,4,DB
2025-05-14 16:10:31.228,3.175684752706326e-05,2.84052635495158,4,DB
2025-05-14 16:10:31.236,2.699265209381413e-05,3.032036870311676,4,DB
2025-05-14 16:10:31.244,2.17860420659622e-05,3.2121721732473336,4,DB
2025-05-14 16:10:31.252,1.629476857905386e-05,3.376404045240634,4,DB
2025-05-14 16:10:31.260,1.0681981581970246e-05,3.520495581568187,4,DB
2025-05-14 16:10:31.267,5.110452623409545e-06,3.6406262509859273,4,DB
2025-05-14 16:10:31.275,-2.6287635675524184e-07,3.7335081922245688,4,DB
2025-05-14 16:10:31.283,-5.2918483768341225e-06,3.7964891951129713,4,DB
2025-05-14 16:10:31.291,-9.845421090205392e-06,3.827638036716845,4,DB
2025-05-14 16:10:31.299,-1.3811278580079088e-05,3.825808328404974,4,DB
2025-05-14 16:10:31.306,-1.7098667260158332e-05,3.790677762959711,4,DB
2025-05-14 16:10:31.314,-1.964042800429076e-05,3.7227605948898224,4,DB
2025-05-14 16:10:31.322,-2.139422234854993e-05,3.623392288647136,4,DB
2025-05-14 16:10:31.330,-2.234297184794479e-05,3.4946864664751844,4,DB
2025-05-14 16:10:31.338,-2.2494546615259253e-05,3.3394655157370323,4,DB
2025-05-14 16:10:31.345,-2.1880752125175336e-05,3.161167408398602,4,DB
2025-05-14 16:10:31.353,-2.0555673105957045e-05,2.9637323707565097,4,DB
2025-05-14 16:10:31.361,-1.8593440454891618e-05,2.7514739431455464,4,DB
2025-05-14 16:10:31.369,-1.608549235829337e-05,2.5289396196902363,4,DB
2025-05-14 16:10:31.377,-1.3137404938793056e-05,2.30076661498741,4,DB
2025-05-14 16:10:31.385,-9.865371517348506e-06,2.071538357414966,4,DB
2025-05-14 16:10:31.392,-6.392413601479058e-06,1.8456470733671864,4,DB
2025-05-14 16:10:31.400,-2.8444115004125767e-06,1.6271673380551794,4,DB
2025-05-14 16:10:31.408,6.539516371870915e-07,1.4197447764890283,4,DB
2025-05-14 16:10:31.416,3.983231416295361e-06,1.226503263003053,4,DB
2025-05-14 16:10:31.424,7.0331401216831615e-06,1.0499730516172208,4,DB
2025-05-14 16:10:31.431,9.70622239492205e-06,0.8920413289684695,4,DB
2025-05-14 16:10:31.439,1.1921160333899548e-05,0.753925762066786,4,DB
2025-05-14 16:10:31.447,1.3615570139106542e-05,0.6361707499811176,4,DB
2025-05-14 16:10:31.455,1.4748143904333775e-05,0.5386653094855901,4,DB
2025-05-14 16:10:31.463,1.5299985216322787e-05,0.4606808506809779,4,DB
2025-05-14 16:10:31.470,1.5274996601644434e-05,0.4009265411809244,4,DB
2025-05-14 16:10:31.478,1.4699222199580788e-05,0.3576195168871704,4,DB
2025-05-14 16:10:31.486,1.3619142556741706e-05,0.3285668665787901,4,DB
2025-05-14 16:10:31.494,1.2099034727444404e-05,0.3112560901629168,4,DB
2025-05-14 16:10:31.502,1.0217600851078736e-05,0.3029506066324303,4,DB
2025-05-14 16:10:31.510,8.0641067124228e-06,0.3007868730265972,4,DB
2025-05-14 16:10:31.517,5.7342707921356e-06,0.3018697743963068,4,DB
2025-05-14 16:10:31.525,3.3261258105695484e-06,0.3033631545492889,4,DB
2025-05-14 16:10:31.533,9.36049703528634e-07,0.3025726688714875,4,DB
2025-05-14 16:10:31.541,-1.344865783271506e-06,0.2970185419465508,4,DB
2025-05-14 16:10:31.549,-3.433971937158673e-06,0.2844962922950098,4,DB
2025-05-14 16:10:31.556,-5.259641035806829e-06,0.263124030808243,4,DB
2025-05-14 16:10:31.564,-6.7631940885822696e-06,0.2313755314018117,4,DB
2025-05-14 16:10:31.572,-7.900139513437504e-06,0.1880988927315341,4,DB
2025-05-14 16:10:31.580,-8.640715120438249e-06,0.1325212360149455,4,DB
2025-05-14 16:10:31.588,-8.969755112360701e-06,0.0642404860313236,4,DB
2025-05-14 16:10:31.595,-8.885930782770222e-06,-0.0167941794905608,4,DB
2025-05-14 16:10:31.603,-8.400437822863895e-06,-0.1103111970208809,4,DB
2025-05-14 16:10:31.611,-7.535224376556296e-06,-0.2157525035897438,4,DB
2025-05-14 16:10:31.619,-6.320872035525051e-06,-0.3323140355681343,4,DB
2025-05-14 16:10:31.627,-4.794256741994764e-06,-0.4589885007979242,4,DB
2025-05-14 16:10:31.635,-2.996128022400072e-06,-0.5946083106506801,4,DB
2025-05-14 16:10:31.642,-9.687531044354502e-07,-0.7378869032145216,4,DB
2025-05-14 16:10:31.650,1.2462227073254082e-06,-0.8874571061263944,4,DB
2025-05-14 16:10:31.658,3.609546474249897e-06,-1.0419056378374598,4,DB
2025-05-14 16:10:31.666,6.0856092785621866e-06,-1.1998033003665869,4,DB
2025-05-14 16:10:31.674,8.643047315604327e-06,-1.3597308499375726,4,DB
2025-05-14 16:10:31.681,1.1254613565438692e-05,-1.5203009155233844,4,DB
2025-05-14 16:10:31.689,1.3896340334607088e-05,-1.6801766359117902,4,DB
2025-05-14 16:10:31.697,1.6546131952371505e-05,-1.8380878716574136,4,DB
2025-05-14 16:10:31.705,1.918201582100533e-05,-1.9928458964937967,4,DB
2025-05-14 16:10:31.713,2.178031283391109e-05,-2.143357374540887,4,DB
2025-05-14 16:10:31.720,2.431397675688663e-05,-2.2886381914604583,4,DB
2025-05-14 16:10:31.728,2.6751318149680946e-05,-2.427827353283729,4,DB
2025-05-14 16:10:31.736,2.905528281819608e-05,-2.560200738783497,4,DB
2025-05-14 16:10:31.744,3.118340088921238e-05,-2.68518404837419,4,DB
2025-05-14 16:10:31.752,3.3088462272556184e-05,-2.8023638973210137,4,DB
2025-05-14 16:10:31.760,3.471990961704688e-05,-2.911495708536301,4,DB
2025-05-14 16:10:31.767,3.602587314501515e-05,-3.0125069123143264,4,DB
2025-05-14 16:10:31.775,3.6955705360061735e-05,-3.1054939855766337,4,DB
2025-05-14 16:10:31.783,3.746281165874648e-05,-3.1907120751415845,4,DB
2025-05-14 16:10:31.791,3.750752751353549e-05,-3.268556341945592,4,DB
2025-05-14 16:10:31.799,3.705978718411195e-05,-3.339534708118173,4,DB
2025-05-14 16:10:31.806,3.610137638402552e-05,-3.404232342130012,4,DB
2025-05-14 16:10:31.814,3.462763780963068e-05,-3.4632689259798246,4,DB
2025-05-14 16:10:31.822,3.264855600061294e-05,-3.517250453607435,4,DB
2025-05-14 16:10:31.830,3.0189163963302305e-05,-3.5667179453083504,4,DB
2025-05-14 16:10:31.838,2.728921128071818e-05,-3.612095959299261,4,DB
2025-05-14 16:10:31.845,2.4002055280292345e-05,-3.653644078066241,4,DB
2025-05-14 16:10:31.853,2.039280599170726e-05,-3.691414605798932,4,DB
2025-05-14 16:10:31.861,1.6535849080518297e-05,-3.725219525208271,4,DB
2025-05-14 16:10:31.869,1.2511940256193174e-05,-3.7546093456304153,4,DB
2025-05-14 16:10:31.877,8.405084994291163e-06,-3.7788658690928,4,DB
2025-05-14 16:10:31.885,4.29940149946237e-06,-3.79701015955923,4,DB
2025-05-14 16:10:31.892,2.761347773342473e-07,-3.8078261781686207,4,DB
2025-05-14 16:10:31.900,-3.589043408867148e-06,-3.809899693003789,4,DB
2025-05-14 16:10:31.908,-7.228347113408948e-06,-3.80167122652854,4,DB
2025-05-14 16:10:31.916,-1.0583731865429767e-05,-3.7815010045581823,4,DB
2025-05-14 16:10:31.924,-1.3608254049888185e-05,-3.747743156184439,4,DB
2025-05-14 16:10:31.931,-1.6266921902962417e-05,-3.6988258240575775,4,DB
2025-05-14 16:10:31.939,-1.8537049817846506e-05,-3.633333414472668,4,DB
2025-05-14 16:10:31.947,-2.0408147607685205e-05,-3.550086974523148,4,DB
2025-05-14 16:10:31.955,-2.1881392245681305e-05,-3.4482186483691946,4,DB
2025-05-14 16:10:31.963,-2.296874134855022e-05,-3.3272363472140736,4,DB
2025-05-14 16:10:31.970,-2.3691755394829486e-05,-3.187075167558459,4,DB
2025-05-14 16:10:31.978,-2.408019961516075e-05,-3.028132694284184,4,DB
2025-05-14 16:10:31.986,-2.4170497009603975e-05,-2.851286098507748,4,DB
2025-05-14 16:10:31.994,-2.4004101475103032e-05,-2.6578898439039254,4,DB
2025-05-14 16:10:32.002,-2.3625855062239775e-05,-2.44975380299294,4,DB
2025-05-14 16:10:32.010,-2.3082386457111372e-05,-2.229102607095889,4,DB
2025-05-14 16:10:32.017,-2.242059944529151e-05,-1.9985180556287077,4,DB
2025-05-14 16:10:32.025,-2.168629089334468e-05,-1.7608673291631949,4,DB
2025-05-14 16:10:32.033,-2.092292818218135e-05,-1.5192205161917065,4,DB
2025-05-14 16:10:32.041,-2.0170606502358127e-05,-1.2767615074673964,4,DB
2025-05-14 16:10:32.049,-1.946519737177313e-05,-1.0366965792955145,4,DB
2025-05-14 16:10:32.056,-1.883769148998638e-05,-0.8021649462430136,4,DB
2025-05-14 16:10:32.064,-1.831373185488417e-05,-0.5761552124909479,4,DB
2025-05-14 16:10:32.072,-1.791332711361337e-05,-0.361431022693143,4,DB
2025-05-14 16:10:32.080,-1.7650730500920004e-05,-0.1604683745999997,4,DB
2025-05-14 16:10:32.088,-1.7534466461230988e-05,0.0245939034033443,4,DB
2025-05-14 16:10:32.095,-1.756748511570215e-05,0.1919899884661734,4,DB
2025-05-14 16:10:32.103,-1.7747424022520605e-05,0.3403496020384831,4,DB
2025-05-14 16:10:32.111,-1.806695703915157e-05,0.4687083971069941,4,DB
2025-05-14 16:10:32.119,-1.851421134186134e-05,0.5765078826258775,4,DB
2025-05-14 16:10:32.127,-1.9073235577266748e-05,0.6635868701398465,4,DB
2025-05-14 16:10:32.135,-1.972450448525409e-05,0.7301664758865246,4,DB
2025-05-14 16:10:32.142,-2.0445447912764243e-05,0.7768305380642562,4,DB
2025-05-14 16:10:32.150,-2.1210994713653028e-05,0.8045029600842022,4,DB
2025-05-14 16:10:32.158,-2.1994124401454724e-05,0.8144230274184536,4,DB
2025-05-14 16:10:32.166,-2.276642141962463e-05,0.8081192385083635,4,DB
2025-05-14 16:10:32.174,-2.34986283858339e-05,0.787381711496287,4,DB
2025-05-14 16:10:32.181,-2.4161195565435744e-05,0.7542328407465853,4,DB
