Timestamp,GSR_Filtered,PPG_Filtered
2025-06-11 20:59:15.992,-1.924726138531452e-05,-67.08723138203933
2025-06-11 20:59:16.000,-2.7693437211469344e-05,-48.50774531734932
2025-06-11 20:59:16.008,-3.5843813652664e-05,-29.35981999871056
2025-06-11 20:59:16.015,-4.350824867068785e-05,-9.800902381792431
2025-06-11 20:59:16.023,-5.050700332652338e-05,9.993811440552976
2025-06-11 20:59:16.031,-5.667532067097939e-05,29.837767853314308
2025-06-11 20:59:16.039,-6.186791616525952e-05,49.53973325727741
2025-06-11 20:59:16.047,-6.596329002748496e-05,68.91049502664686
2025-06-11 20:59:16.055,-6.886773583797424e-05,87.76932981354759
2025-06-11 20:59:16.062,-7.051887991786817e-05,105.94999832382912
2025-06-11 20:59:16.070,-7.088854497952199e-05,123.30604845119451
2025-06-11 20:59:16.078,-6.998469376779763e-05,139.71523788562556
2025-06-11 20:59:16.086,-6.785218650766352e-05,155.08292202695995
2025-06-11 20:59:16.094,-6.45721051526292e-05,169.34429235067142
2025-06-11 20:59:16.101,-6.025948143591615e-05,182.46539347175693
2025-06-11 20:59:16.109,-5.505941147072065e-05,194.4428932449344
2025-06-11 20:59:16.117,-4.914171074074073e-05,205.3026284919708
2025-06-11 20:59:16.125,-4.269440930600121e-05,215.09699831347743
2025-06-11 20:59:16.133,-3.591647128577401e-05,223.90132590205943
2025-06-11 20:59:16.140,-2.901014159486012e-05,231.8093561457904
2025-06-11 20:59:16.148,-2.2173299557568132e-05,238.9280973577748
2025-06-11 20:59:16.156,-1.55921577599388e-05,245.3722482857553
2025-06-11 20:59:16.164,-9.434597001688771e-06,251.2584735359786
2025-06-11 20:59:16.172,-3.844377901596314e-06,256.6997997010544
2025-06-11 20:59:16.180,1.0635818333710904e-06,261.80039961764703
2025-06-11 20:59:16.187,5.2067269210548346e-06,266.6510129676872
2025-06-11 20:59:16.195,8.537093546953827e-06,271.325218434431
2025-06-11 20:59:16.203,1.1042209012386934e-05,275.87672724780435
2025-06-11 20:59:16.211,1.274466882319864e-05,280.33781239252795
2025-06-11 20:59:16.219,1.3700440846374763e-05,284.71892486083414
2025-06-11 20:59:16.226,1.3995985741350026e-05,289.0094815260362
2025-06-11 20:59:16.234,1.3744319104251816e-05,293.17974240252244
2025-06-11 20:59:16.242,1.3080173574636992e-05,297.1836325556812
2025-06-11 20:59:16.250,1.2154448490225888e-05,300.9623102516904
2025-06-11 20:59:16.258,1.1128160454996816e-05,304.44824239542817
2025-06-11 20:59:16.265,1.0166130267138484e-05,307.56952433347186
2025-06-11 20:59:16.273,9.430659803069597e-06,310.25417565494666
2025-06-11 20:59:16.281,9.07546633110493e-06,312.4341569667272
2025-06-11 20:59:16.289,9.240149252375891e-06,314.04888353003923
2025-06-11 20:59:16.297,1.0045455187353446e-05,315.0480576675039
2025-06-11 20:59:16.305,1.158956038529635e-05,315.39369932681814
2025-06-11 20:59:16.312,1.3945492734636136e-05,315.06131830017654
2025-06-11 20:59:16.320,1.715969480622748e-05,314.04023670640714
2025-06-11 20:59:16.328,2.125163353090436e-05,312.33313062343245
2025-06-11 20:59:16.336,2.6214316621962325e-05,309.9549099516963
2025-06-11 20:59:16.344,3.201556824678496e-05,306.93109168826624
2025-06-11 20:59:16.351,3.859992467308718e-05,303.29584154635137
2025-06-11 20:59:16.359,4.58910234225444e-05,299.08986190418926
2025-06-11 20:59:16.367,5.379437365080295e-05,294.35829167263233
2025-06-11 20:59:16.375,6.220040950608226e-05,289.14875833282264
2025-06-11 20:59:16.383,7.098774068767042e-05,283.50968762996405
2025-06-11 20:59:16.390,8.002652410464641e-05,281.5193640098867
2025-06-11 20:59:16.398,8.91818864394412e-05,279.9661906796304
2025-06-11 20:59:16.406,9.831732885293558e-05,278.8538377827074
2025-06-11 20:59:16.414,0.000107298041652,278.16513058541426
2025-06-11 20:59:16.422,0.0001159940484452,277.86307943184727
2025-06-11 20:59:16.430,0.0001242830864569,277.89261647777334
2025-06-11 20:59:16.437,0.000132053114552,278.18294512316305
2025-06-11 20:59:16.445,0.0001392043338164,278.6503948699233
2025-06-11 20:59:16.453,0.0001456506291489,279.2016654109078
2025-06-11 20:59:16.461,0.0001513204069599,279.7373378003532
2025-06-11 20:59:16.469,0.00015615688914,280.15552688223016
2025-06-11 20:59:16.476,0.0001601179789532,280.3555476975717
2025-06-11 20:59:16.484,0.000163175816396,280.24146971992946
2025-06-11 20:59:16.492,0.0001653161043628,279.72543701002525
2025-06-11 20:59:16.500,0.0001665372459236,278.7306401865595
2025-06-11 20:59:16.508,0.0001668493206153,277.19383768860246
2025-06-11 20:59:16.515,0.0001662729599031,275.0673390639511
2025-06-11 20:59:16.523,0.0001648382357598,272.3203815823734
2025-06-11 20:59:16.531,0.0001625837048287,268.9398527404336
2025-06-11 20:59:16.539,0.0001595557307949,264.93033443233134
2025-06-11 20:59:16.547,0.0001558081538574,260.3134688508217
2025-06-11 20:59:16.555,0.0001514023124701,255.12667066231228
2025-06-11 20:59:16.562,0.000146407361602,249.42123379686183
2025-06-11 20:59:16.570,0.0001409007782191,243.25990348714072
2025-06-11 20:59:16.578,0.0001349689010967,236.7140042355363
2025-06-11 20:59:16.586,0.0001287073206547,229.86023152555236
2025-06-11 20:59:16.594,0.0001222209170274,222.77722874956592
2025-06-11 20:59:16.601,0.0001156233422764,215.54208050948563
2025-06-11 20:59:16.609,0.0001090357562248,208.22685874502685
2025-06-11 20:59:16.617,0.0001025846549217,200.895358716637
2025-06-11 20:59:16.625,9.63986757344412e-05,193.6001574688712
2025-06-11 20:59:16.633,9.060432238962564e-05,186.38011790416544
2025-06-11 20:59:16.641,8.532062521088578e-05,179.25844705704097
2025-06-11 20:59:16.648,8.065283405824609e-05,172.24139783891636
2025-06-11 20:59:16.656,7.668533123669335e-05,165.31767993009274
2025-06-11 20:59:16.664,7.347404565322337e-05,158.45861838589576
2025-06-11 20:59:16.672,7.103874412241999e-05,151.61906889468338
2025-06-11 20:59:16.680,6.935566704179168e-05,144.7390676695975
2025-06-11 20:59:16.687,6.835105961282654e-05,137.7461629913222
2025-06-11 20:59:16.695,6.789622227571198e-05,130.55834579882216
2025-06-11 20:59:16.703,6.780475944236512e-05,123.08746975854854
2025-06-11 20:59:16.711,6.783272891119003e-05,115.24302814616274
2025-06-11 20:59:16.719,6.768235028695265e-05,106.93613674167032
2025-06-11 20:59:16.726,6.70097734425051e-05,98.0835597023781
2025-06-11 20:59:16.734,6.543711872127385e-05,88.61160975617739
2025-06-11 20:59:16.742,6.256861106059661e-05,78.4597554940424
2025-06-11 20:59:16.750,5.801020089363816e-05,67.58377716675972
2025-06-11 20:59:16.758,5.139165466737482e-05,55.958328015210064
2025-06-11 20:59:16.766,4.2389766093362e-05,43.57878027782948
2025-06-11 20:59:16.773,3.075114585901641e-05,30.462262811579603
2025-06-11 20:59:16.781,1.6313023698559856e-05,16.64782963725593
2025-06-11 20:59:16.789,-9.793774026744088e-07,2.1957343183710964
2025-06-11 20:59:16.797,-2.106010693464183e-05,-12.814177681906235
2025-06-11 20:59:16.805,-4.373531158128744e-05,-28.28490939860669
2025-06-11 20:59:16.812,-6.868219821262668e-05,-44.10550100385627
2025-06-11 20:59:16.820,-9.545433909512848e-05,-60.15485035674652
2025-06-11 20:59:16.828,-0.0001234931328669,-76.3060219113151
2025-06-11 20:59:16.836,-0.0001521448716421,-92.43087855817436
2025-06-11 20:59:16.844,-0.00018068258322,-108.4048549389005
2025-06-11 20:59:16.851,-0.0002083316470385,-124.11168092644223
2025-06-11 20:59:16.859,-0.0002342981034832,-139.4478606107531
2025-06-11 20:59:16.867,-0.0002577985434366,-154.32671552871545
2025-06-11 20:59:16.875,-0.0002780904459261,-168.6818112454526
2025-06-11 20:59:16.883,-0.0002945018156767,-182.46960387944796
2025-06-11 20:59:16.891,-0.0003064589595692,-195.6711678242408
2025-06-11 20:59:16.898,-0.0003135112361579,-208.29289766547816
2025-06-11 20:59:16.906,-0.0003153516309812,-220.36611575761611
2025-06-11 20:59:16.914,-0.0003118320876881,-231.94556125306696
2025-06-11 20:59:16.922,-0.000302972699963,-243.10678502687628
2025-06-11 20:59:16.930,-0.0002889641437852,-253.94252567061457
2025-06-11 20:59:16.937,-0.0002701630650404,-264.5581918034227
2025-06-11 20:59:16.945,-0.0002470805046725,-275.0666224414523
2025-06-11 20:59:16.953,-0.0002203638380548,-285.5823372409851
2025-06-11 20:59:16.961,-0.0001907730986526,-296.2155195359309
2025-06-11 20:59:16.969,-0.0001591528803743,-307.065995123099
2025-06-11 20:59:16.976,-0.0001264012183555,-318.21747717954776
2025-06-11 20:59:16.984,-9.343694318065022e-05,-329.7323416689511
2025-06-11 20:59:16.992,-6.116702163456165e-05,-341.6471779802076
2025-06-11 20:59:17.000,-3.045533994168604e-05,-353.96932696731915
2025-06-11 20:59:17.008,-2.0942238476514742e-06,-366.67457442905857
2025-06-11 20:59:17.016,2.3220280068613576e-05,-379.7061145988363
2025-06-11 20:59:17.023,4.490865189697696e-05,-392.974838459139
2025-06-11 20:59:17.031,6.252322515845988e-05,-406.3609394443842
2025-06-11 20:59:17.039,7.575829992215218e-05,-419.7167685871708
2025-06-11 20:59:17.047,8.445484532425175e-05,-432.8708165250565
2025-06-11 20:59:17.055,8.859972145919714e-05,-445.6326544313033
2025-06-11 20:59:17.062,8.831956366051536e-05,-457.79863221716494
2025-06-11 20:59:17.070,8.386974859255805e-05,-469.1581115693596
2025-06-11 20:59:17.078,7.561913055796647e-05,-479.50000382007534
2025-06-11 20:59:17.086,6.403143702356661e-05,-488.61938745776905
2025-06-11 20:59:17.094,4.964432160210073e-05,-496.32399519026194
2025-06-11 20:59:17.101,3.30470916816942e-05,-502.4403826942445
2025-06-11 20:59:17.109,1.4858070132485073e-05,-506.8196167340345
2025-06-11 20:59:17.117,-4.297547178280369e-06,-509.3423454313608
2025-06-11 20:59:17.125,-2.3808570099658504e-05,-509.9231350338889
2025-06-11 20:59:17.133,-4.3096745690921855e-05,-508.51397374635513
2025-06-11 20:59:17.141,-6.163316608407181e-05,-505.1068537753573
2025-06-11 20:59:17.148,-7.895172302953784e-05,-499.73534884870605
2025-06-11 20:59:17.156,-9.46593481517222e-05,-492.4751084196577
2025-06-11 20:59:17.164,-0.0001084429426581,-483.44319488024166
2025-06-11 20:59:17.172,-0.000120073047118,-472.7962005868556
2025-06-11 20:59:17.180,-0.0001294044263892,-460.7271019050321
2025-06-11 20:59:17.187,-0.0001363738450909,-447.46084152668175
2025-06-11 20:59:17.195,-0.0001409953845774,-433.2486792620802
2025-06-11 20:59:17.203,-0.0001433537035801,-418.36141301390177
2025-06-11 20:59:17.211,-0.0001435956728625,-403.0816399210985
2025-06-11 20:59:17.219,-0.0001419208214152,-387.6952950143993
2025-06-11 20:59:17.226,-0.0001385710205472,-372.48276351173286
2025-06-11 20:59:17.234,-0.0001338198057514,-357.70990693803253
2025-06-11 20:59:17.242,-0.0001279616977224,-343.6193683331993
2025-06-11 20:59:17.250,-0.0001213018367812,-330.422525428794
2025-06-11 20:59:17.258,-0.0001141461925226,-318.2924419783706
2025-06-11 20:59:17.266,-0.0001067925558924,-307.35812732457856
2025-06-11 20:59:17.273,-9.95224669455085e-05,-297.7003555507307
2025-06-11 20:59:17.281,-9.25941806707578e-05,-289.3492226389755
2025-06-11 20:59:17.289,-8.623672747114801e-05,-282.2835385319446
2025-06-11 20:59:17.297,-8.064508562543517e-05,-276.43206687179844
2025-06-11 20:59:17.305,-7.597645128535546e-05,-271.6765440190531
2025-06-11 20:59:17.312,-7.234756770329451e-05,-267.85633503996075
2025-06-11 20:59:17.320,-6.983305937810726e-05,-264.7745204329274
2025-06-11 20:59:17.328,-6.846470813413068e-05,-262.2051548943824
2025-06-11 20:59:17.336,-6.82316059054623e-05,-259.90139912092746
2025-06-11 20:59:17.344,-6.908112196343883e-05,-257.60419788750687
2025-06-11 20:59:17.351,-7.092062904817713e-05,-255.051162633098
2025-06-11 20:59:17.359,-7.361994175366575e-05,-251.98531460039828
2025-06-11 20:59:17.367,-7.701442993393189e-05,-248.1633551842688
2025-06-11 20:59:17.375,-8.090877825849414e-05,-243.36315342399143
2025-06-11 20:59:17.383,-8.508136890216972e-05,-237.3901763156239
2025-06-11 20:59:17.391,-8.928926648490166e-05,-230.0826354977883
2025-06-11 20:59:17.398,-9.327378185689733e-05,-221.3151832939306
2025-06-11 20:59:17.406,-9.676658358685312e-05,-211.00106075324192
2025-06-11 20:59:17.414,-9.949631289428155e-05,-199.09267726538732
2025-06-11 20:59:17.422,-0.0001011956395411,-185.5806802621542
2025-06-11 20:59:17.430,-0.0001016086735752,-170.4916475213904
2025-06-11 20:59:17.437,-0.0001004986219406,-153.88459712763972
2025-06-11 20:59:17.445,-9.765555138462582e-05,-135.8465570702949
2025-06-11 20:59:17.453,-9.290409168654516e-05,-116.4874663637277
2025-06-11 20:59:17.461,-8.611088819059914e-05,-95.93469287111364
2025-06-11 20:59:17.469,-7.719159230080217e-05,-74.32745100438616
2025-06-11 20:59:17.476,-6.611716382902044e-05,-51.81138689523681
2025-06-11 20:59:17.484,-5.291924261271664e-05,-28.53357151001077
2025-06-11 20:59:17.492,-3.7694310315379365e-05,-4.638105733986897
2025-06-11 20:59:17.500,-2.0606297603837657e-05,19.737501990819187
2025-06-11 20:59:17.508,-1.8872248957115895e-06,44.46507296029967
2025-06-11 20:59:17.516,1.8164552496303916e-05,69.42754829207078
2025-06-11 20:59:17.523,3.918886539042235e-05,94.5198200979926
2025-06-11 20:59:17.531,6.077126626356889e-05,119.6486404846142
2025-06-11 20:59:17.539,8.245366473868675e-05,144.73168968200235
2025-06-11 20:59:17.547,0.0001037479583155,169.69592364777293
2025-06-11 20:59:17.555,0.0001241523427041,194.4753536579728
2025-06-11 20:59:17.562,0.0001431697605989,219.00843460535776
2025-06-11 20:59:17.570,0.0001603277165534,243.235254211629
2025-06-11 20:59:17.578,0.0001751984684195,267.0947216727117
2025-06-11 20:59:17.586,0.0001874184437032,290.5219512645139
2025-06-11 20:59:17.594,0.0001967056750582,313.44602432867504
2025-06-11 20:59:17.601,0.0002028741298816,335.78829233345573
2025-06-11 20:59:17.609,0.0002058440016676,357.46135516362176
2025-06-11 20:59:17.617,0.0002056472861995,378.3688135166464
2025-06-11 20:59:17.625,0.0002024282459161,398.4058536128578
2025-06-11 20:59:17.633,0.0001964386536551,417.4606779399557
2025-06-11 20:59:17.641,0.0001880279950003,435.416749224748
2025-06-11 20:59:17.648,0.0001776290908486,452.1557681977228
2025-06-11 20:59:17.656,0.000165739872772,467.5612610498106
2025-06-11 20:59:17.664,0.000152902295825,481.5226119064841
2025-06-11 20:59:17.672,0.000139679589446,493.9393413080808
2025-06-11 20:59:17.680,0.0001266331875772,504.72540568609327
2025-06-11 20:59:17.687,0.0001143006853692,513.813277149597
2025-06-11 20:59:17.695,0.0001031759986684,521.1575593486373
2025-06-11 20:59:17.703,9.369257181341543e-05,526.737905313938
2025-06-11 20:59:17.711,8.621008049874049e-05,530.5610281936881
2025-06-11 20:59:17.719,8.10047336817247e-05,532.6616363251087
2025-06-11 20:59:17.726,7.82630819590135e-05,533.1021793022851
2025-06-11 20:59:17.734,7.807920362051639e-05,531.9713581922284
2025-06-11 20:59:17.742,8.045520607268415e-05,529.3814243628925
2025-06-11 20:59:17.750,8.530505511635214e-05,525.4643599387199
2025-06-11 20:59:17.758,9.246174093855231e-05,520.3670928320947
2025-06-11 20:59:17.766,0.0001016876694768,514.2459476973996
2025-06-11 20:59:17.773,0.0001126879544372,507.2605702034409
2025-06-11 20:59:17.781,0.000125126038471,499.5675857853784
2025-06-11 20:59:17.789,0.0001386408532819,491.3142659016232
2025-06-11 20:59:17.797,0.0001528645790893,482.63247536185656
2025-06-11 20:59:17.805,0.0001674399987994,473.6331642487309
2025-06-11 20:59:17.812,0.000182036462395,464.4016482017428
2025-06-11 20:59:17.820,0.0001963635808872,454.99389235432193
2025-06-11 20:59:17.828,0.0002101819429052,445.4339780994892
2025-06-11 20:59:17.836,0.0002233103602395,435.7128892793743
2025-06-11 20:59:17.844,0.0002356293717826,425.7887066072216
2025-06-11 20:59:17.851,0.0002470809518161,415.5882474777318
2025-06-11 20:59:17.859,0.0002576645707723,405.01013422631297
2025-06-11 20:59:17.867,0.0002674299390885,393.9292188671195
2025-06-11 20:59:17.875,0.0002764669230709,382.2022379624306
2025-06-11 20:59:17.883,0.0002848932520847,369.67451921652827
2025-06-11 20:59:17.891,0.0002928407360233,356.1875133743147
2025-06-11 20:59:17.898,0.0003004407788793,341.58688281156435
2025-06-11 20:59:17.906,0.0003078100071161,325.7308436194444
2025-06-11 20:59:17.914,0.000315036830052,308.4984327789491
2025-06-11 20:59:17.922,0.0003221697139996,289.79735789055945
2025-06-11 20:59:17.930,0.0003292078820244,269.5710854444513
2025-06-11 20:59:17.937,0.0003360950375049,247.8048361697532
2025-06-11 20:59:17.945,0.0003427165246229,224.53018370606367
2025-06-11 20:59:17.953,0.000348900055729,199.82799644556803
2025-06-11 20:59:17.961,0.000354419784855,173.82952204053757
2025-06-11 20:59:17.969,0.0003590032014271,146.7154887762695
2025-06-11 20:59:17.976,0.0003623401812303,118.71318496666292
2025-06-11 20:59:17.984,0.0003640935883465,90.09157173562744
2025-06-11 20:59:17.992,0.00036391097989,61.15457930583969
2025-06-11 20:59:18.000,0.0003614370966786,32.23282515852696
2025-06-11 20:59:18.008,0.0003563268577845,3.674068143714335
2025-06-11 20:59:18.016,0.0003482585343424,-24.16722838549903
2025-06-11 20:59:18.023,0.0003369467262775,-50.940811570279095
2025-06-11 20:59:18.031,0.0003221547543132,-76.31160009718214
2025-06-11 20:59:18.039,0.0003037061002977,-99.9702609057716
2025-06-11 20:59:18.047,0.0002814945397853,-121.64299302334112
2025-06-11 20:59:18.055,0.0002554925921597,-141.1001499753871
2025-06-11 20:59:18.062,0.000225757882934,-158.16338691780004
2025-06-11 20:59:18.070,0.0001924369967376,-172.71108374380702
2025-06-11 20:59:18.078,0.0001557664128049,-184.68186635703165
2025-06-11 20:59:18.086,0.0001160701649854,-194.07612102990092
2025-06-11 20:59:18.094,7.375396810142763e-05,-200.95546851369485
2025-06-11 20:59:18.101,2.929572405957034e-05,-205.44023409939257
2025-06-11 20:59:18.109,-1.676742441942159e-05,-207.70501709857425
2025-06-11 20:59:18.117,-6.385501706425018e-05,-207.97252869692343
2025-06-11 20:59:18.125,-0.0001113614052368,-206.5059310657816
2025-06-11 20:59:18.133,-0.0001586750956185,-203.5999718942623
2025-06-11 20:59:18.141,-0.0002051982106166,-199.57126348533376
2025-06-11 20:59:18.148,-0.000250364979602,-194.74809816752145
2025-06-11 20:59:18.156,-0.0002936582734555,-189.46021564427485
2025-06-11 20:59:18.164,-0.0003346233407747,-184.0289389080763
2025-06-11 20:59:18.172,-0.0003728780934947,-178.7580723269199
2025-06-11 20:59:18.180,-0.000408119550354,-173.92590942511447
2025-06-11 20:59:18.187,-0.0004401263815815,-169.77863117718502
2025-06-11 20:59:18.195,-0.0004687578429977,-166.52529265481095
2025-06-11 20:59:18.203,-0.0004939496422451,-164.334503394308
2025-06-11 20:59:18.211,-0.0005157073850093,-163.33281340029274
2025-06-11 20:59:18.219,-0.0005340982280258,-163.60473036992798
2025-06-11 20:59:18.226,-0.0005492413000149,-165.19422017994734
2025-06-11 20:59:18.234,-0.0005612974245124,-168.10748475732456
2025-06-11 20:59:18.242,-0.0005704587174346,-172.31677002576288
2025-06-11 20:59:18.250,-0.0005769386852554,-177.76493151059103
2025-06-11 20:59:18.258,-0.0005809634266399,-184.37047560138163
2025-06-11 20:59:18.266,-0.0005827643893057,-192.0327991468769
2025-06-11 20:59:18.273,-0.0005825728757188,-200.6373673371893
2025-06-11 20:59:18.281,-0.0005806161930305,-210.06059776340652
2025-06-11 20:59:18.289,-0.0005771150825634,-220.1742549754941
2025-06-11 20:59:18.297,-0.0005722819104956,-230.84920250360128
2025-06-11 20:59:18.305,-0.0005663190858065,-241.958405841936
2025-06-11 20:59:18.312,-0.0005594172730723,-253.37912802869337
2025-06-11 20:59:18.320,-0.0005517531364878,-264.99430700360284
2025-06-11 20:59:18.328,-0.0005434865399137,-276.69314886509443
2025-06-11 20:59:18.336,-0.0005347572971747,-288.3710116791433
2025-06-11 20:59:18.344,-0.0005256816955064,-299.9286890709043
2025-06-11 20:59:18.351,-0.0005163491102905,-311.2712302130637
2025-06-11 20:59:18.359,-0.0005068191010203,-322.3064520857257
2025-06-11 20:59:18.367,-0.0004971194016756,-332.94331043197565
2025-06-11 20:59:18.375,-0.0004872451568231,-343.09029742684424
2025-06-11 20:59:18.383,-0.0004771596117205,-352.65402681833
2025-06-11 20:59:18.391,-0.000466796283169,-361.5381516309093
2025-06-11 20:59:18.398,-0.0004560624651236,-369.64273621352606
2025-06-11 20:59:18.406,-0.0004448437979597,-376.8641745380776
2025-06-11 20:59:18.414,-0.0004330095735449,-383.09571155991966
2025-06-11 20:59:18.422,-0.0004204184488513,-388.2285857305808
2025-06-11 20:59:18.430,-0.0004069242743257,-392.1537701991493
2025-06-11 20:59:18.437,-0.0003923817987572,-394.7642498039183
2025-06-11 20:59:18.445,-0.0003766520785092,-395.9577326962649
2025-06-11 20:59:18.453,-0.0003596074694656,-395.6396614588168
2025-06-11 20:59:18.461,-0.0003411361008767,-393.72636096979727
2025-06-11 20:59:18.469,-0.0003211457364723,-390.1481410346885
2025-06-11 20:59:18.476,-0.000299566942008,-384.8521628160832
2025-06-11 20:59:18.484,-0.0002763555105451,-377.8048809854601
2025-06-11 20:59:18.492,-0.0002514941492599,-368.9938896337324
2025-06-11 20:59:18.500,-0.0002249935040677,-358.4290300858867
2025-06-11 20:59:18.508,-0.0001968926881159,-346.14266229178617
2025-06-11 20:59:18.516,-0.0001672595740273,-332.1890552266752
2025-06-11 20:59:18.523,-0.0001361911730621,-316.642909587602
2025-06-11 20:59:18.531,-0.0001038144105486,-299.59708078161486
2025-06-11 20:59:18.539,-7.028749503612144e-05,-281.1596162990207
2025-06-11 20:59:18.547,-3.58018968723235e-05,-261.4502565635958
2025-06-11 20:59:18.555,-5.847538461863067e-07,-240.59657189740665
2025-06-11 20:59:18.562,3.509865176016082e-05,-218.72992087940256
2025-06-11 20:59:18.570,7.09428299996829e-05,-195.9814179894673
2025-06-11 20:59:18.578,0.0001066009977882,-172.4780920774061
2025-06-11 20:59:18.586,0.0001416855585301,-148.33940308163338
2025-06-11 20:59:18.594,0.0001757707011136,-123.6742638374952
2025-06-11 20:59:18.601,0.0002083975831438,-98.57868809942308
2025-06-11 20:59:18.609,0.0002390824218674,-73.13415640216381
2025-06-11 20:59:18.617,0.000267327637337,-47.40675942750343
2025-06-11 20:59:18.625,0.0002926360035267,-21.447145395747302
2025-06-11 20:59:18.633,0.0003145275844412,4.708735136242275
2025-06-11 20:59:18.641,0.000332559048134,31.038125707940416
2025-06-11 20:59:18.648,0.0003463447243209,57.52927015021633
2025-06-11 20:59:18.656,0.0003555784900702,84.178623944805
2025-06-11 20:59:18.664,0.0003600552704501,110.98758921936115
2025-06-11 20:59:18.672,0.0003596906954119,137.95891046009473
2025-06-11 20:59:18.680,0.0003545373295858,165.09288164813998
2025-06-11 20:59:18.687,0.000344795924082,192.38352376557188
2025-06-11 20:59:18.695,0.0003308203222669,219.8148942095337
2025-06-11 20:59:18.703,0.0003131149716469,247.35768647522843
2025-06-11 20:59:18.711,0.0002923244578775,274.96626954296823
2025-06-11 20:59:18.719,0.0002692150743105,302.576301905473
2025-06-11 20:59:18.726,0.0002446490973504,330.1030354324274
2025-06-11 20:59:18.734,0.0002195530351253,357.44039978840374
2025-06-11 20:59:18.742,0.0001948815596616,384.4609295661414
2025-06-11 20:59:18.750,0.0001715790958128,411.016564511184
2025-06-11 20:59:18.758,0.0001505411511169,436.9403192102582
2025-06-11 20:59:18.766,0.0001325774595505,462.0487835776748
2025-06-11 20:59:18.773,0.0001183788905324,486.1453807435509
2025-06-11 20:59:18.781,0.0001084898549697,509.0242760091164
2025-06-11 20:59:18.789,0.0001032876403508,530.4748009909308
2025-06-11 20:59:18.797,0.0001029697249438,550.2862326188089
2025-06-11 20:59:18.805,0.0001075496407402,568.2527490220464
2025-06-11 20:59:18.812,0.0001168613981748,584.178375273486
2025-06-11 20:59:18.820,0.0001305719344542,597.8817330878213
2025-06-11 20:59:18.828,0.0001482005827122,609.2004210322082
2025-06-11 20:59:18.836,0.0001691442007222,617.994875361353
2025-06-11 20:59:18.844,0.0001927063209135,624.1515935525501
2025-06-11 20:59:18.851,0.0002181284839347,627.5856379952583
2025-06-11 20:59:18.859,0.0002446218503889,628.242370799766
2025-06-11 20:59:18.867,0.0002713973263527,626.098399140657
2025-06-11 20:59:18.875,0.0002976927929508,621.1617335537508
2025-06-11 20:59:18.883,0.0003227964927687,613.4711806273432
2025-06-11 20:59:18.891,0.00034606606483,603.0950087651487
2025-06-11 20:59:18.898,0.0003669430775069,590.1289434661104
2025-06-11 20:59:18.906,0.0003849631965504,574.6935687981447
2025-06-11 20:59:18.914,0.0003997623632366,556.9312349869598
2025-06-11 20:59:18.922,0.0004110795400695,537.0025962644138
2025-06-11 20:59:18.930,0.0004187566747395,515.0829237832683
2025-06-11 20:59:18.937,0.000422736492317,491.3583505759645
2025-06-11 20:59:18.945,0.0004230585357915,466.0222063827589
2025-06-11 20:59:18.953,0.0004198535836396,439.2715896405241
2025-06-11 20:59:18.961,0.0004133362853054,411.3043036992664
2025-06-11 20:59:18.969,0.0004037956974493,382.3162567290628
2025-06-11 20:59:18.976,0.0003915834640942,352.4993922164039
2025-06-11 20:59:18.984,0.000377099654455,322.0401818090954
2025-06-11 20:59:18.992,0.0003607766459033,291.11867682066656
2025-06-11 20:59:19.000,0.000343061780068,259.90808103121714
2025-06-11 20:59:19.008,0.0003243997393461,228.57477736026948
2025-06-11 20:59:19.016,0.0003052156619194,197.2787160845376
2025-06-11 20:59:19.023,0.0002858999428936,166.17405374421102
2025-06-11 20:59:19.031,0.0002667954919573,135.40992057905677
2025-06-11 20:59:19.039,0.0002481879882025,105.13119073476408
2025-06-11 20:59:19.047,0.0002302994247663,75.4791336695086
2025-06-11 20:59:19.055,0.0002132849749309,46.59183687923525
2025-06-11 20:59:19.062,0.0001972329570821,18.60430858949453
2025-06-11 20:59:19.070,0.0001821674738138,-8.351806570611974
2025-06-11 20:59:19.078,0.0001680531773899,-34.14893700549445
2025-06-11 20:59:19.086,0.0001548015611319,-58.66472496506218
2025-06-11 20:59:19.094,0.0001422781812687,-81.78357203536825
2025-06-11 20:59:19.101,0.0001303102778431,-103.39853049159436
2025-06-11 20:59:19.109,0.0001186943810292,-123.41345248873152
2025-06-11 20:59:19.117,0.0001072036307769,-141.7452848710676
2025-06-11 20:59:19.125,9.559466444173062e-05,-158.32638026068432
2025-06-11 20:59:19.133,8.361401262972802e-05,-173.1066869764519
2025-06-11 20:59:19.141,7.100398458381503e-05,-186.0556829372152
2025-06-11 20:59:19.148,5.750804899809552e-05,-197.16393311606825
2025-06-11 20:59:19.156,4.287576111710389e-05,-206.4441759651956
2025-06-11 20:59:19.164,2.6867351289173805e-05,-213.9318786187393
2025-06-11 20:59:19.172,9.258136375767602e-06,-219.68523820250132
2025-06-11 20:59:19.180,-1.01570783686025e-05,-223.78464121665652
2025-06-11 20:59:19.187,-3.155945924171429e-05,-226.3316204636144
2025-06-11 20:59:19.195,-5.510134103641353e-05,-227.4473677821956
2025-06-11 20:59:19.203,-8.090105001366029e-05,-227.2708712521187
2025-06-11 20:59:19.211,-0.0001090372432173,-225.956748734886
2025-06-11 20:59:19.219,-0.0001395426432727,-223.6728470871536
2025-06-11 20:59:19.226,-0.0001723970345535,-220.5976696786837
2025-06-11 20:59:19.234,-0.0002075194028346,-216.91768552989143
2025-06-11 20:59:19.242,-0.0002447591897391,-212.82456294564992
2025-06-11 20:59:19.250,-0.0002838868132796,-208.51236032015925
2025-06-11 20:59:19.258,-0.0003245838453947,-204.17469798934349
2025-06-11 20:59:19.266,-0.0003664334802357,-200.0019285418292
2025-06-11 20:59:19.273,-0.0004089121295573,-196.17831952267463
2025-06-11 20:59:19.281,-0.0004513831229673,-192.87926233273475
2025-06-11 20:59:19.289,-0.0004930935621003,-190.26852438748915
2025-06-11 20:59:19.297,-0.0005331753743068,-188.4955679901005
2025-06-11 20:59:19.305,-0.0005706515313765,-187.6929683378967
2025-06-11 20:59:19.312,-0.0006044482432824,-187.9739737948834
2025-06-11 20:59:19.320,-0.0006334137102096,-189.43026297030983
2025-06-11 20:59:19.328,-0.0006563437255597,-192.12996400723677
2025-06-11 20:59:19.336,-0.0006720140785765,-196.1160104426025
2025-06-11 20:59:19.344,-0.0006792193209405,-201.4049136277406
2025-06-11 20:59:19.351,-0.0006768170529475,-207.98603258114616
2025-06-11 20:59:19.359,-0.0006637764697391,-215.82141695230413
2025-06-11 20:59:19.367,-0.0006392295062698,-224.84628634626384
2025-06-11 20:59:19.375,-0.0006025225522336,-234.97018875438775
2025-06-11 20:59:19.383,-0.0005532663965148,-246.0788520319805
2025-06-11 20:59:19.391,-0.000491381826154,-258.0367060702806
2025-06-11 20:59:19.398,-0.0004171381692122,-270.6900117361976
2025-06-11 20:59:19.406,-0.00033118206237,-283.8704894559557
2025-06-11 20:59:19.414,-0.0002345538788974,-297.3993002802054
2025-06-11 20:59:19.422,-0.0001286895940218,-311.0912006274218
2025-06-11 20:59:19.430,-1.540637402543476e-05,-324.7586734235664
2025-06-11 20:59:19.437,0.0001031291947956,-338.2158363822558
2025-06-11 20:59:19.445,0.0002244506002163,-351.2819440472317
2025-06-11 20:59:19.453,0.0003458581697605,-363.7843331521833
2025-06-11 20:59:19.461,0.0004645017418385,-375.5607078866056
2025-06-11 20:59:19.469,0.0005774768619721,-386.460717724322
2025-06-11 20:59:19.477,0.0006819310094688,-396.34683893196967
2025-06-11 20:59:19.484,0.0007751751739673,-405.0946248248768
2025-06-11 20:59:19.492,0.0008547949850648,-412.5924337403159
2025-06-11 20:59:19.500,0.0009187548239905,-418.74077434716907
2025-06-11 20:59:19.508,0.0009654881719561,-423.4514242682072
2025-06-11 20:59:19.516,0.000993967965959,-426.6464804227965
2025-06-11 20:59:19.523,0.0010037519060143,-428.2574891654604
2025-06-11 20:59:19.531,0.000994999441863,-428.2247828952425
2025-06-11 20:59:19.539,0.0009684594259005,-426.4971194722886
2025-06-11 20:59:19.547,0.0009254297838181,-423.0316839851577
2025-06-11 20:59:19.555,0.0008676925428785,-417.7944719129648
2025-06-11 20:59:19.562,0.0007974288772049,-410.7610314359071
2025-06-11 20:59:19.570,0.0007171194943297,-401.9175035481271
2025-06-11 20:59:19.578,0.0006294358805666,-391.26186466527656
2025-06-11 20:59:19.586,0.0005371278320766,-378.8052504056606
2025-06-11 20:59:19.594,0.0004429124509296,-364.5732237274486
2025-06-11 20:59:19.602,0.0003493694473286,-348.6068478021431
2025-06-11 20:59:19.609,0.0002588471811711,-330.9634352805455
2025-06-11 20:59:19.617,0.0001733833824112,-311.7168706372451
2025-06-11 20:59:19.625,9.46438652941455e-05,-290.95743797393897
2025-06-11 20:59:19.633,2.388173592692266e-05,-268.79112731140924
2025-06-11 20:59:19.641,-3.8081469319974366e-05,-245.33843172230303
2025-06-11 20:59:19.648,-9.08525819071019e-05,-220.73268122444435
2025-06-11 20:59:19.656,-0.0001344428177869,-195.1179853535524
2025-06-11 20:59:19.664,-0.000169225579182,-168.64687468648242
2025-06-11 20:59:19.672,-0.0001958795597198,-141.47774289295282
2025-06-11 20:59:19.680,-0.000215321239496,-113.77219594805176
2025-06-11 20:59:19.687,-0.0002286311116228,-85.6924147951394
2025-06-11 20:59:19.695,-0.0002369780114363,-57.39863287907159
2025-06-11 20:59:19.703,-0.0002415457656785,-29.0468214176915
2025-06-11 20:59:19.711,-0.0002434660257557,-0.7866638309535608
2025-06-11 20:59:19.719,-0.0002437605512354,27.2401128986374
2025-06-11 20:59:19.727,-0.0002432953672617,54.90099740992801
2025-06-11 20:59:19.734,-0.0002427482420839,82.07350754505174
2025-06-11 20:59:19.742,-0.0002425899894956,108.64553933840229
2025-06-11 20:59:19.750,-0.0002430793051611,134.51525012362293
2025-06-11 20:59:19.758,-0.0002442701958346,159.59049258944714
2025-06-11 20:59:19.766,-0.0002460305097857,183.78783505878644
2025-06-11 20:59:19.773,-0.0002480695993846,207.0312218194445
2025-06-11 20:59:19.781,-0.0002499727535943,229.2503454652266
2025-06-11 20:59:19.789,-0.0002512397718237,250.37881995694852
2025-06-11 20:59:19.797,-0.0002513249747924,270.35225722047
2025-06-11 20:59:19.805,-0.0002496761188806,289.1063602588789
2025-06-11 20:59:19.812,-0.0002457701119397,306.5751508737909
2025-06-11 20:59:19.820,-0.0002391440709476,322.68944942256445
2025-06-11 20:59:19.828,-0.0002294210017425,337.3757172344234
2025-06-11 20:59:19.836,-0.0002163300665105,350.5553594052147
2025-06-11 20:59:19.844,-0.0001997218803468,362.14456707793977
2025-06-11 20:59:19.852,-0.0001795794202088,372.0547546949767
2025-06-11 20:59:19.859,-0.0001560249038347,380.19362004351126
2025-06-11 20:59:19.867,-0.0001293225164984,386.46682439968384
2025-06-11 20:59:19.875,-9.98763625407406e-05,390.7802580993108
2025-06-11 20:59:19.883,-6.822273497772988e-05,393.04282498995104
2025-06-11 20:59:19.891,-3.5015885417788766e-05,393.1696491662871
2025-06-11 20:59:19.898,-1.0069681247772203e-06,391.08558098801535
2025-06-11 20:59:19.906,3.298340584943639e-05,386.7288585275805
2025-06-11 20:59:19.914,6.609778653880849e-05,380.05476721797015
2025-06-11 20:59:19.922,9.747785363343194e-05,371.0391364182181
2025-06-11 20:59:19.930,0.0001263015198546,359.6815183119022
2025-06-11 20:59:19.937,0.0001518187065428,346.00791211909217
2025-06-11 20:59:19.945,0.0001733832237627,330.07292275600514
2025-06-11 20:59:19.953,0.0001904783163788,311.9612731414019
2025-06-11 20:59:19.961,0.0002027339092181,291.7886180861999
2025-06-11 20:59:19.969,0.0002099343961051,269.7016316472876
2025-06-11 20:59:19.977,0.0002120168101808,245.8773581224681
2025-06-11 20:59:19.984,0.0002090601546623,220.5218304657064
2025-06-11 20:59:19.992,0.0002012673916094,193.86797045604695
2025-06-11 20:59:20.000,0.0001889420361926,166.17279415348162
2025-06-11 20:59:20.008,0.0001724615298257,137.71395548821073
2025-06-11 20:59:20.016,0.000152249611406,108.78567134526818
2025-06-11 20:59:20.023,0.0001287497744362,79.694083848032
2025-06-11 20:59:20.031,0.0001024015906714,50.75212986285353
2025-06-11 20:59:20.039,7.3621247519699e-05,22.274003791622786
2025-06-11 20:59:20.047,4.2787173902629895e-05,-5.43068305096464
2025-06-11 20:59:20.055,1.0231192171375209e-05,-32.06292549492234
2025-06-11 20:59:20.062,-2.376474129605312e-05,-57.34039177609432
2025-06-11 20:59:20.070,-5.896647406268538e-05,-81.00338101406781
2025-06-11 20:59:20.078,-9.518085999679689e-05,-102.8205039111386
2025-06-11 20:59:20.086,-0.0001322451389184,-122.59391080452563
2025-06-11 20:59:20.094,-0.0001700137205934,-140.16388786885193
2025-06-11 20:59:20.102,-0.0002083438347482,-155.41264571516197
2025-06-11 20:59:20.109,-0.0002470815867318,-168.26713582656433
2025-06-11 20:59:20.117,-0.0002860498456013,-178.7007498068006
2025-06-11 20:59:20.125,-0.0003250391238439,-186.73378450343756
2025-06-11 20:59:20.133,-0.0003638022727719,-192.43259249754976
2025-06-11 20:59:20.141,-0.0004020535024234,-195.90738158194625
2025-06-11 20:59:20.148,-0.0004394719740575,-197.30867757385903
2025-06-11 20:59:20.156,-0.0004757099725198,-196.8225205410992
2025-06-11 20:59:20.164,-0.0005104053934158,-194.66452312367244
2025-06-11 20:59:20.172,-0.00054319797492,-191.07297825123825
2025-06-11 20:59:20.180,-0.0005737484105941,-186.3012585149433
2025-06-11 20:59:20.187,-0.0006017592309804,-180.609796381283
2025-06-11 20:59:20.195,-0.000626996144206,-174.25796866316057
2025-06-11 20:59:20.203,-0.0006493083894054,-167.49622580339567
2025-06-11 20:59:20.211,-0.0006686466030741,-160.55880322942596
2025-06-11 20:59:20.219,-0.0006850767404545,-153.65732672075674
2025-06-11 20:59:20.227,-0.0006987887321695,-146.97557696246798
2025-06-11 20:59:20.234,-0.0007100987784112,-140.66561296859217
2025-06-11 20:59:20.242,-0.000719444445141,-134.8453746492894
2025-06-11 20:59:20.250,-0.0007273719661867,-129.59779818927535
2025-06-11 20:59:20.258,-0.0007345153574972,-124.97139211426746
2025-06-11 20:59:20.266,-0.0007415671869494,-120.98214484256432
2025-06-11 20:59:20.273,-0.0007492412324667,-117.61657223302127
2025-06-11 20:59:20.281,-0.0007582279008727,-114.83566942814552
2025-06-11 20:59:20.289,-0.0007691441840945,-112.57950581533804
2025-06-11 20:59:20.297,-0.0007824809673457,-110.77219407444092
2025-06-11 20:59:20.305,-0.0007985514193736,-109.32697188159104
2025-06-11 20:59:20.312,-0.0008174447259308,-108.15115511195734
2025-06-11 20:59:20.320,-0.0008389894113381,-107.15075122638189
2025-06-11 20:59:20.328,-0.0008627299007681,-106.23455784972326
2025-06-11 20:59:20.336,-0.0008879189310998,-105.31761159034284
2025-06-11 20:59:20.344,-0.0009135271690485,-104.32389365692636
2025-06-11 20:59:20.352,-0.0009382701967138,-103.18824002881092
2025-06-11 20:59:20.359,-0.0009606520235047,-101.8574434008137
2025-06-11 20:59:20.367,-0.0009790235117024,-100.29057065958588
2025-06-11 20:59:20.375,-0.0009916535410136,-98.4585522608376
2025-06-11 20:59:20.383,-0.0009968103641051,-96.3431277689935
2025-06-11 20:59:20.391,-0.000992850402061,-93.93525439732176
2025-06-11 20:59:20.398,-0.0009783116314672,-91.23310224963612
2025-06-11 20:59:20.406,-0.0009520085617326,-88.23977090776197
2025-06-11 20:59:20.414,-0.0009131253887974,-84.96086700757957
2025-06-11 20:59:20.422,-0.0008613031616737,-81.4020816469875
2025-06-11 20:59:20.430,-0.0007967158760543,-77.56690017526412
2025-06-11 20:59:20.437,-0.0007201296456279,-73.4545655697697
2025-06-11 20:59:20.445,-0.0006329388073051,-69.05840078104124
2025-06-11 20:59:20.453,-0.0005371731892742,-64.36457579666212
2025-06-11 20:59:20.461,-0.0004354719285203,-59.351382505631264
2025-06-11 20:59:20.469,-0.0003310211847943,-53.989055582978736
2025-06-11 20:59:20.477,-0.0002274556563193,-48.240151464728655
2025-06-11 20:59:20.484,-0.0001287265333383,-42.06047099686364
2025-06-11 20:59:20.492,-3.894102542216039e-05,-35.40048549845362
2025-06-11 20:59:20.500,3.781930524803971e-05,-28.20720176950674
2025-06-11 20:59:20.508,9.769251686056175e-05,-20.426379982041308
2025-06-11 20:59:20.516,0.0001372326006114,-12.005000375850466
2025-06-11 20:59:20.523,0.0001535979060546,-2.893861148970864
2025-06-11 20:59:20.531,0.0001447221164285,6.949818274038863
2025-06-11 20:59:20.539,0.0001094596327627,17.55991656464155
2025-06-11 20:59:20.547,4.769908037472895e-05,28.95917592698777
2025-06-11 20:59:20.555,-3.955941608183184e-05,41.15732593838237
2025-06-11 20:59:20.562,-0.0001501658793494,54.14966042666399
2025-06-11 20:59:20.570,-0.0002808225725388,67.91613896310126
2025-06-11 20:59:20.578,-0.0004271273984446,82.42105766681976
2025-06-11 20:59:20.586,-0.0005836591302394,97.61330515139036
2025-06-11 20:59:20.594,-0.0007441047128119,113.42719045825862
2025-06-11 20:59:20.602,-0.0009014282507987,129.7838024422101
2025-06-11 20:59:20.609,-0.001048079960931,146.5928358307555
2025-06-11 20:59:20.617,-0.001176241202384,163.75479936132152
2025-06-11 20:59:20.625,-0.0012780989976651,181.16350695801572
2025-06-11 20:59:20.633,-0.001346140755564,198.7087442982761
2025-06-11 20:59:20.641,-0.0013734577185329,216.2790001955056
2025-06-11 20:59:20.648,-0.0013540442778746,233.76415432698028
2025-06-11 20:59:20.656,-0.0012830797876506,251.0580190392351
2025-06-11 20:59:20.664,-0.0011571797676331,268.060642342123
2025-06-11 20:59:20.672,-0.0009746042838046,284.6802910201851
2025-06-11 20:59:20.680,-0.0007354127069671,300.83504656474884
2025-06-11 20:59:20.687,-0.0004415558628377,316.4539621131717
2025-06-11 20:59:20.695,-9.689873419906958e-05,331.4777456550374
2025-06-11 20:59:20.703,0.0002928306247616,345.85895329645814
2025-06-11 20:59:20.711,0.0007201673949128,359.561696074712
2025-06-11 20:59:20.719,0.001176109657219,372.56088415534543
2025-06-11 20:59:20.727,0.001650386021404,384.841052442465
2025-06-11 20:59:20.734,0.0021317822972769,396.39483072792353
2025-06-11 20:59:20.742,0.0026085150447787,407.2211384632478
2025-06-11 20:59:20.750,0.0030686371257589,417.3231980699394
2025-06-11 20:59:20.758,0.0035004582926878,426.7064705465445
2025-06-11 20:59:20.766,0.0038929622447493,435.376622289865
2025-06-11 20:59:20.773,0.0042362002926332,443.3376320121459
2025-06-11 20:59:20.781,0.0045216411222061,450.5901410943159
2025-06-11 20:59:20.789,0.0047424572392604,457.1301395765376
2025-06-11 20:59:20.797,0.0048937327856782,462.9480634135357
2025-06-11 20:59:20.805,0.0049725846342165,468.0283570921596
2025-06-11 20:59:20.812,0.0049781972446047,472.3495301185735
2025-06-11 20:59:20.820,0.0049117790795545,475.8847076001692
2025-06-11 20:59:20.828,0.0047764525462293,478.60264590815945
2025-06-11 20:59:20.836,0.0045770900418383,480.4691560760392
2025-06-11 20:59:20.844,0.0043201066754168,481.4488519489471
2025-06-11 20:59:20.852,0.004013217425609,481.50711875804535
2025-06-11 20:59:20.859,0.0036651647901951,480.61218216666566
2025-06-11 20:59:20.867,0.003285423264398,478.73714909474046
2025-06-11 20:59:20.875,0.0028838885530246,475.8618906046552
2025-06-11 20:59:20.883,0.0024705609436706,471.9746441897589
2025-06-11 20:59:20.891,0.0020552331461925,467.0732277664596
2025-06-11 20:59:20.898,0.0016471933333138,461.1657798003792
2025-06-11 20:59:20.906,0.0012549541843764,454.2709680615697
2025-06-11 20:59:20.914,0.0008860181296124,446.4176418295423
2025-06-11 20:59:20.922,0.0005466875067083,437.6439369032608
2025-06-11 20:59:20.930,0.0002419261576564,427.9958771643838
2025-06-11 20:59:20.937,-2.4723527108973955e-05,417.5255481946213
2025-06-11 20:59:20.945,-0.0002511666969786,406.2889451396257
2025-06-11 20:59:20.953,-0.0004367263592063,394.34361657422977
2025-06-11 20:59:20.961,-0.0005820613947641,381.7462371010078
2025-06-11 20:59:20.969,-0.0006890378811644,368.550243148495
2025-06-11 20:59:20.977,-0.0007605611840206,354.8036591317449
2025-06-11 20:59:20.984,-0.0008003778746082,340.54722578542305
2025-06-11 20:59:20.992,-0.0008128579155413,325.81292066366615
2025-06-11 20:59:21.000,-0.000802768564521,310.62293447585444
2025-06-11 20:59:21.008,-0.0007750516603101,294.9891382152577
2025-06-11 20:59:21.016,-0.0007346150574736,278.9130470733353
2025-06-11 20:59:21.023,-0.0006861470876044,262.3862599400682
2025-06-11 20:59:21.031,-0.0006339605053048,245.39132966519827
2025-06-11 20:59:21.039,-0.0005818698769049,227.9030006452764
2025-06-11 20:59:21.047,-0.0005331040600656,209.88973769902876
2025-06-11 20:59:21.055,-0.0004902534483328,191.3154640501117
2025-06-11 20:59:21.062,-0.0004552500851936,172.14142642231712
2025-06-11 20:59:21.070,-0.0004293775718771,152.32811107019378
2025-06-11 20:59:21.078,-0.000413306825688,131.83714481963224
2025-06-11 20:59:21.086,-0.0004071531148795,110.63312830050728
2025-06-11 20:59:21.094,-0.0004105493609306,88.68536273008715
2025-06-11 20:59:21.102,-0.0004227304465077,65.96944507303921
2025-06-11 20:59:21.109,-0.0004426232053581,42.46871765393001
2025-06-11 20:59:21.117,-0.0004689369558898,18.175566345891497
2025-06-11 20:59:21.125,-0.0005002500016791,-6.907434044930735
2025-06-11 20:59:21.133,-0.0005350885619257,-32.766527440165085
2025-06-11 20:59:21.141,-0.0005719959736147,-59.37593911382543
2025-06-11 20:59:21.148,-0.0006095912872892,-86.69719897679424
2025-06-11 20:59:21.156,-0.0006466171269964,-114.6786362901545
2025-06-11 20:59:21.164,-0.0006819768351532,-143.25506210266173
2025-06-11 20:59:21.172,-0.0007147607710728,-172.3476608496385
2025-06-11 20:59:21.180,-0.0007442615505278,-201.86411651670943
2025-06-11 20:59:21.187,-0.0007699782407821,-231.6990008566559
2025-06-11 20:59:21.195,-0.0007916101117876,-261.7344507683523
2025-06-11 20:59:21.203,-0.0008090413447344,-291.8411586750527
2025-06-11 20:59:21.211,-0.0008223188223157,-321.87969332983687
2025-06-11 20:59:21.219,-0.0008316255015432,-351.70215888961184
2025-06-11 20:59:21.227,-0.0008372518236472,-381.15418751941536
2025-06-11 20:59:21.234,-0.000839567266444,-410.0772456302632
2025-06-11 20:59:21.242,-0.0008389936653957,-438.3112167604044
2025-06-11 20:59:21.250,-0.0008359814320871,-465.69720594561016
2025-06-11 20:59:21.258,-0.0008309893373267,-492.0804922544237
2025-06-11 20:59:21.266,-0.0008244681362079,-517.3135392271914
2025-06-11 20:59:21.273,-0.0008168480035487,-541.2589586263258
2025-06-11 20:59:21.281,-0.0008085295046291,-563.7923126423008
2025-06-11 20:59:21.289,-0.0007998776555463,-584.8046350041582
2025-06-11 20:59:21.297,-0.000791218561863,-604.2045537886411
2025-06-11 20:59:21.305,-0.0007828381539115,-621.9199094826085
2025-06-11 20:59:21.312,-0.0007749825999508,-637.8987821224723
2025-06-11 20:59:21.320,-0.0007678600270897,-652.109871355892
2025-06-11 20:59:21.328,-0.0007616432132812,-664.5422113589044
2025-06-11 20:59:21.336,-0.0007564729393018,-675.2042443252742
2025-06-11 20:59:21.344,-0.0007524616941643,-684.1223156090226
2025-06-11 20:59:21.352,-0.0007496973984414,-691.3386851438206
2025-06-11 20:59:21.359,-0.0007482467705904,-696.9091706805173
2025-06-11 20:59:21.367,-0.0007481579578712,-700.9005484378729
2025-06-11 20:59:21.375,-0.0007494621081179,-703.3878371648868
2025-06-11 20:59:21.383,-0.000752173655752,-704.4515841543658
2025-06-11 20:59:21.391,-0.0007562892096399,-704.1752584375729
2025-06-11 20:59:21.398,-0.0007617850470964,-702.6428393092283
2025-06-11 20:59:21.406,-0.000768613331,-699.9366694395195
2025-06-11 20:59:21.414,-0.0007766972708717,-696.1356227095102
2025-06-11 20:59:21.422,-0.0007859255410638,-691.3136185799798
2025-06-11 20:59:21.430,-0.0007961463555715,-685.5384977460672
2025-06-11 20:59:21.437,-0.0008071616965824,-678.8712581775877
2025-06-11 20:59:21.445,-0.0008187223111074,-671.3656364470954
2025-06-11 20:59:21.453,-0.0008305241985672,-663.0680066405911
2025-06-11 20:59:21.461,-0.0008422073610532,-654.0175584207315
2025-06-11 20:59:21.469,-0.0008533575510557,-644.2467073982398
2025-06-11 20:59:21.477,-0.0008635116415925,-633.7816853444309
2025-06-11 20:59:21.484,-0.0008721670845865,-622.6432553524857
2025-06-11 20:59:21.492,-0.0008787957292522,-610.8474980331598
2025-06-11 20:59:21.500,-0.0008828620506774,-598.4066191338824
2025-06-11 20:59:21.508,-0.0008838455969553,-585.3297362231237
2025-06-11 20:59:21.516,-0.0008812672078561,-571.623611668979
2025-06-11 20:59:21.523,-0.0008747182871869,-557.2933103068743
2025-06-11 20:59:21.531,-0.0008638921045125,-542.3427721415467
2025-06-11 20:59:21.539,-0.0008486157402582,-526.775302396139
2025-06-11 20:59:21.547,-0.0008288809070702,-510.59399249310906
2025-06-11 20:59:21.555,-0.0008048715871166,-493.80209546375255
2025-06-11 20:59:21.562,-0.0007769863168864,-476.4033872005722
2025-06-11 20:59:21.570,-0.0007458530247066,-458.4025502566869
2025-06-11 20:59:21.578,-0.0007123345073912,-439.8056189208321
2025-06-11 20:59:21.586,-0.0006775228794166,-420.6205224802884
2025-06-11 20:59:21.594,-0.0006427216736119,-400.85775758773264
2025-06-11 20:59:21.602,-0.0006094147768124,-380.531210555189
2025-06-11 20:59:21.609,-0.0005792220687088,-359.65913677079715
2025-06-11 20:59:21.617,-0.0005538424558108,-338.2652881994479
2025-06-11 20:59:21.625,-0.0005349858729282,-316.38016220971645
2025-06-11 20:59:21.633,-0.0005242966661231,-294.0423269631242
2025-06-11 20:59:21.641,-0.0005232714756512,-271.29976150920504
2025-06-11 20:59:21.648,-0.0005331752210538,-248.21113371267893
2025-06-11 20:59:21.656,-0.000554959009093,-224.8469272765211
2025-06-11 20:59:21.664,-0.0005891837488125,-201.2903213726873
2025-06-11 20:59:21.672,-0.000635953025863,-177.6377235443015
2025-06-11 20:59:21.680,-0.000694858445325,-153.99885919529493
2025-06-11 20:59:21.687,-0.0007649402656881,-130.49632950305394
2025-06-11 20:59:21.695,-0.0008446657179706,-107.26456408819156
2025-06-11 20:59:21.703,-0.0009319268794973,-84.44811508846526
2025-06-11 20:59:21.711,-0.0010240593398122,-62.19926495759757
2025-06-11 20:59:21.719,-0.0011178822626307,-40.67495059814168
2025-06-11 20:59:21.727,-0.0012097599648897,-20.033040307386777
2025-06-11 20:59:21.734,-0.0012956848454184,-0.428036162157407
2025-06-11 20:59:21.742,-0.0013713812818566,17.99368865707887
2025-06-11 20:59:21.750,-0.0014324297820378,35.09897225685645
2025-06-11 20:59:21.758,-0.0014744100757347,50.77308788950093
2025-06-11 20:59:21.766,-0.001493060920402,64.9249030937241
2025-06-11 20:59:21.773,-0.0014844532341033,77.49174699979596
2025-06-11 20:59:21.781,-0.0014451718630657,88.4437467630348
2025-06-11 20:59:21.789,-0.0013724998797876,97.78739305704012
2025-06-11 20:59:21.797,-0.001264597752473,105.568106071103
2025-06-11 20:59:21.805,-0.0011206680382803,111.87159886523575
2025-06-11 20:59:21.812,-0.0009410946496262,116.82387515591472
2025-06-11 20:59:21.820,-0.0007275447039886,120.58975377322724
2025-06-11 20:59:21.828,-0.0004830211271426,123.3698806852196
2025-06-11 20:59:21.836,-0.0002118560693547,125.39626753187316
2025-06-11 20:59:21.844,8.036109906275218e-05,126.92647624881576
2025-06-11 20:59:21.852,0.0003869225292293,128.2366448098338
2025-06-11 20:59:21.859,0.0007002037906188,129.61361301344738
2025-06-11 20:59:21.867,0.0010119217108372,131.34645573943703
2025-06-11 20:59:21.875,0.0013134387888719,133.71776234562208
2025-06-11 20:59:21.883,0.0015961028331468,136.99501399802256
2025-06-11 20:59:21.891,0.0018516071725314,141.42240531846383
2025-06-11 20:59:21.898,0.0020723524789418,147.2134327893869
2025-06-11 20:59:21.906,0.0022517882341245,154.5445306523119
2025-06-11 20:59:21.914,0.0023847123476248,163.54997793744712
2025-06-11 20:59:21.922,0.0024675114558449,174.31823246568655
2025-06-11 20:59:21.930,0.0024983301734842,186.8897758419153
2025-06-11 20:59:21.937,0.0024771630007584,201.25648444456263
2025-06-11 20:59:21.945,0.0024058667033652,217.3624801918316
2025-06-11 20:59:21.953,0.0022880937802166,235.1063638442589
2025-06-11 20:59:21.961,0.0021291496157921,254.34469327196013
2025-06-11 20:59:21.969,0.0019357777413883,274.89653897521
2025-06-11 20:59:21.977,0.0017158799463654,296.54892828174565
2025-06-11 20:59:21.984,0.0014781811711372,319.0629769399186
2025-06-11 20:59:21.992,0.0012318530590337,342.18050108068013
2025-06-11 20:59:22.000,0.000986114035583,365.6309025281244
2025-06-11 20:59:22.008,0.0007498267561192,389.13812506884
2025-06-11 20:59:22.016,0.0005311148818043,412.4274875586997
2025-06-11 20:59:22.023,0.000337020270671,435.2322108622682
2025-06-11 20:59:22.031,0.0001732191805062,457.299469028795
2025-06-11 20:59:22.039,4.3812366210349046e-05,478.3958105083514
2025-06-11 20:59:22.047,-4.880078063053386e-05,498.31181255878687
2025-06-11 20:59:22.055,-0.0001039595141723,516.8658514904256
2025-06-11 20:59:22.062,-0.0001226920451302,533.9068934581423
2025-06-11 20:59:22.070,-0.000107586375847,549.3162357290107
2025-06-11 20:59:22.078,-6.259373607132852e-05,563.0081574335383
2025-06-11 20:59:22.086,7.220760382051395e-06,574.9294724959591
2025-06-11 20:59:22.094,9.596510551309785e-05,585.0580163353432
2025-06-11 20:59:22.102,0.0001972308218514,593.4001419129702
2025-06-11 20:59:22.109,0.0003044140773284,599.9873478387141
2025-06-11 20:59:22.117,0.0004110358591452,604.872207030105
2025-06-11 20:59:22.125,0.0005110498281128,608.1238026888851
2025-06-11 20:59:22.133,0.0005991259895611,609.8229037749036
2025-06-11 20:59:22.141,0.0006708975783881,610.0571220556411
2025-06-11 20:59:22.148,0.0007231580683865,608.916287179326
2025-06-11 20:59:22.156,0.0007539955675902,606.4882565823216
2025-06-11 20:59:22.164,0.0007628538623263,602.8553455773393
2025-06-11 20:59:22.172,0.0007505137278487,598.0915221696607
2025-06-11 20:59:22.180,0.000718994743705,592.2604636987763
2025-06-11 20:59:22.188,0.0006713854639395,585.4145210980919
2025-06-11 20:59:22.195,0.0006116164133635,577.5945842314368
2025-06-11 20:59:22.203,0.0005441944599165,568.8307911819592
2025-06-11 20:59:22.211,0.0004739183129324,559.1439781988256
2025-06-11 20:59:22.219,0.0004055938299384,548.547727726928
2025-06-11 20:59:22.227,0.0003437653065757,537.0508417824402
2025-06-11 20:59:22.234,0.0002924757029852,524.6600488027873
2025-06-11 20:59:22.242,0.0002550655063295,511.3827454690265
2025-06-11 20:59:22.250,0.0002340171784692,497.2295816749989
2025-06-11 20:59:22.258,0.0002308500139179,482.216716584249
2025-06-11 20:59:22.266,0.0002460683884074,466.367605069446
2025-06-11 20:59:22.273,0.0002791643052727,449.7142140175658
2025-06-11 20:59:22.281,0.0003286725872687,432.2976133729164
2025-06-11 20:59:22.289,0.0003922741489092,414.1679333957514
2025-06-11 20:59:22.297,0.0004669398966382,395.3837236380129
2025-06-11 20:59:22.305,0.0005491053470459,376.0107874063447
2025-06-11 20:59:22.313,0.00063486431903,356.12059573903133
2025-06-11 20:59:22.320,0.0007201691852932,335.78840593648005
2025-06-11 20:59:22.328,0.0008010252241643,315.091221180102
2025-06-11 20:59:22.336,0.0008736676837297,294.1057302362827
2025-06-11 20:59:22.344,0.0009347123517014,272.906360654508
2025-06-11 20:59:22.352,0.0009812736144341,251.5635664680628
2025-06-11 20:59:22.359,0.0010110477040094,230.1424534952041
2025-06-11 20:59:22.367,0.0010223623076696,208.7018231828653
2025-06-11 20:59:22.375,0.0010141962605436,187.29369072646384
2025-06-11 20:59:22.383,0.0009861743651555,165.96330607502645
2025-06-11 20:59:22.391,0.0009385426180879,144.74967850757395
2025-06-11 20:59:22.398,0.0008721286409166,123.68657786716724
2025-06-11 20:59:22.406,0.0007882912425935,102.80395938252784
2025-06-11 20:59:22.414,0.0006888619935788,82.12973536303538
2025-06-11 20:59:22.422,0.0005760806580335,61.69179687432595
2025-06-11 20:59:22.430,0.0004525255448414,41.52017256561011
2025-06-11 20:59:22.438,0.0003210394659814,21.649200693803405
2025-06-11 20:59:22.445,0.0001846520023986,2.119584437383636
2025-06-11 20:59:22.453,4.649900571216874e-05,-17.01979998508638
2025-06-11 20:59:22.461,-9.02594436672452e-05,-35.71046799055608
2025-06-11 20:59:22.469,-0.0002225211169323,-53.88337933415436
2025-06-11 20:59:22.477,-0.0003473220063444,-71.45857828581113
2025-06-11 20:59:22.484,-0.0004619130643417,-88.34549968735492
2025-06-11 20:59:22.492,-0.000563831328916,-104.44399332271465
2025-06-11 20:59:22.500,-0.0006509635104365,-119.64608865194909
2025-06-11 20:59:22.508,-0.0007216002935057,-133.8384879433437
2025-06-11 20:59:22.516,-0.0007744798772553,-146.90573923953437
2025-06-11 20:59:22.523,-0.0008088195870097,-158.73400275896483
2025-06-11 20:59:22.531,-0.0008243346936798,-169.21528688839015
2025-06-11 20:59:22.539,-0.0008212438766886,-178.25199472948208
2025-06-11 20:59:22.547,-0.0008002611094322,-185.7615912602067
2025-06-11 20:59:22.555,-0.0007625741265703,-191.6811766904601
2025-06-11 20:59:22.563,-0.0007098098958474,-195.97173566614583
2025-06-11 20:59:22.570,-0.0006439874994966,-198.621826647161
2025-06-11 20:59:22.578,-0.0005674586509859,-199.65048289776644
2025-06-11 20:59:22.586,-0.000482836163795,-199.1091176302116
2025-06-11 20:59:22.594,-0.0003929114111437,-197.08226204574947
2025-06-11 20:59:22.602,-0.0003005630739274,-193.68701663633405
2025-06-11 20:59:22.609,-0.00020866076735,-189.0711618143204
2025-06-11 20:59:22.617,-0.0001199679684691,-183.40994968327507
2025-06-11 20:59:22.625,-3.704887004768279e-05,-176.90167771321347
2025-06-11 20:59:22.633,3.781649190969277e-05,-169.76221933763546
2025-06-11 20:59:22.641,0.0001027049930393,-162.2187494969031
2025-06-11 20:59:22.648,0.0001561077546159,-154.50295084097706
2025-06-11 20:59:22.656,0.0001969693050522,-146.8440165701046
2025-06-11 20:59:22.664,0.0002247065233342,-139.4617776439268
2025-06-11 20:59:22.672,0.0002392063602255,-132.5602747439462
2025-06-11 20:59:22.680,0.0002408027222781,-126.32206883408908
2025-06-11 20:59:22.688,0.0002302344147337,-120.90353920954288
2025-06-11 20:59:22.695,0.0002085873556359,-116.43135703429684
2025-06-11 20:59:22.703,0.0001772251760128,-113.00025047811948
2025-06-11 20:59:22.711,0.0001377127484374,-110.67210170273631
2025-06-11 20:59:22.719,9.173718911698454e-05,-109.4763434094694
2025-06-11 20:59:22.727,4.1030559846264825e-05,-109.4115589564822
2025-06-11 20:59:22.734,-1.270203071783347e-05,-110.4481381512216
2025-06-11 20:59:22.742,-6.784586817519411e-05,-112.53180174407969
2025-06-11 20:59:22.750,-0.0001229292590173,-115.58778137136542
2025-06-11 20:59:22.758,-0.0001766637316907,-119.52542767860652
2025-06-11 20:59:22.766,-0.0002279709861291,-124.2430167214254
2025-06-11 20:59:22.773,-0.0002759965648082,-129.63253234890328
2025-06-11 20:59:22.781,-0.0003201109825679,-135.58421877961393
2025-06-11 20:59:22.789,-0.0003598997258699,-141.99072149860615
2025-06-11 20:59:22.797,-0.0003951440547757,-148.75066436260545
2025-06-11 20:59:22.805,-0.0004257948554348,-155.77154478811036
2025-06-11 20:59:22.813,-0.0004519418801458,-162.97186550437
2025-06-11 20:59:22.820,-0.0004737806255676,-170.28245902105937
2025-06-11 20:59:22.828,-0.0004915789155053,-177.64699822158738
2025-06-11 20:59:22.836,-0.0005056450178301,-185.02172200931935
2025-06-11 20:59:22.844,-0.0005162988391013,-192.37443752624145
2025-06-11 20:59:22.852,-0.0005238474080039,-199.68288913344196
2025-06-11 20:59:22.859,-0.0005285655076548,-206.93260828620748
2025-06-11 20:59:22.867,-0.0005306819829363,-214.11437704501583
2025-06-11 20:59:22.875,-0.0005303719455059,-221.22145081537116
2025-06-11 20:59:22.883,-0.0005277548147567,-228.2466927581624
2025-06-11 20:59:22.891,-0.0005228978553787,-235.17977308157023
2025-06-11 20:59:22.898,-0.0005158246031936,-242.00458120548825
2025-06-11 20:59:22.906,-0.000506527328449,-248.69698783114663
2025-06-11 20:59:22.914,-0.0004949824998655,-255.22307765538568
2025-06-11 20:59:22.922,-0.0004811681035541,-261.537952386326
2025-06-11 20:59:22.930,-0.000465081622021,-267.5851785243724
2025-06-11 20:59:22.938,-0.0004467574586412,-273.29692587589585
2025-06-11 20:59:22.945,-0.0004262826144539,-278.5948118932616
2025-06-11 20:59:22.953,-0.0004038095453634,-283.39143472394693
2025-06-11 20:59:22.961,-0.0003795653795511,-287.5925454475818
2025-06-11 20:59:22.969,-0.0003538570052069,-291.0997786188741
2025-06-11 20:59:22.977,-0.0003270718489936,-293.8138312236163
2025-06-11 20:59:22.984,-0.0002996743924574,-295.6379548415041
2025-06-11 20:59:22.992,-0.000272198623255,-296.48160554270646
2025-06-11 20:59:23.000,-0.0002452367322402,-296.2640821366333
2025-06-11 20:59:23.008,-0.0002194244773602,-294.9179770739116
2025-06-11 20:59:23.016,-0.0001954237506293,-292.3922666769729
2025-06-11 20:59:23.023,-0.0001739030041357,-288.65487930121947
2025-06-11 20:59:23.031,-0.0001555163098079,-283.6946018930957
2025-06-11 20:59:23.039,-0.0001408819295524,-277.5222167742688
2025-06-11 20:59:23.047,-0.0001305613215749,-270.1707997971004
2025-06-11 20:59:23.055,-0.0001250394655417,-261.6951556466013
2025-06-11 20:59:23.063,-0.0001247072508114,-252.1704126141028
2025-06-11 20:59:23.070,-0.0001298464771329,-241.6898439984151
2025-06-11 20:59:23.078,-0.0001406178029548,-230.36202302978091
2025-06-11 20:59:23.086,-0.0001570517652395,-218.30745017604272
2025-06-11 20:59:23.094,-0.0001790428228559,-205.6548141449692
2025-06-11 20:59:23.102,-0.0002063462810506,-192.53706013363717
2025-06-11 20:59:23.109,-0.0002385779327976,-179.08744111641226
2025-06-11 20:59:23.117,-0.0002752162627013,-165.43572114269082
2025-06-11 20:59:23.125,-0.0003156070630814,-151.70468511923585
2025-06-11 20:59:23.133,-0.0003589702941586,-138.00708896370548
2025-06-11 20:59:23.141,-0.0004044089875773,-124.44315892585512
2025-06-11 20:59:23.148,-0.0004509199868853,-111.0987207643328
2025-06-11 20:59:23.156,-0.0004974064239279,-98.0440096826452
2025-06-11 20:59:23.164,-0.0005426921234094,-85.33318169013995
2025-06-11 20:59:23.172,-0.0005855385721196,-73.00451750367601
2025-06-11 20:59:23.180,-0.0006246654666382,-61.08128232411168
2025-06-11 20:59:23.188,-0.0006587758678245,-49.57317981251884
2025-06-11 20:59:23.195,-0.0006865865057406,-38.478317224234736
2025-06-11 20:59:23.203,-0.0007068629487987,-27.785581598237677
2025-06-11 20:59:23.211,-0.0007184584906909,-17.477314544098167
2025-06-11 20:59:23.219,-0.000720354963823,-7.532165635559742
2025-06-11 20:59:23.227,-0.0007117033430338,2.0719984250768224
2025-06-11 20:59:23.234,-0.0006918619385805,11.355250178170918
2025-06-11 20:59:23.242,-0.0006604301363452,20.33293913192456
2025-06-11 20:59:23.250,-0.0006172759513694,29.013317669012164
2025-06-11 20:59:23.258,-0.0005625560379033,37.39554992600255
2025-06-11 20:59:23.266,-0.0004967271945784,45.46818379354645
2025-06-11 20:59:23.273,-0.0004205488123938,53.208149347339614
2025-06-11 20:59:23.281,-0.0003350761232485,60.58032839209264
2025-06-11 20:59:23.289,-0.0002416444287982,67.53771982409981
2025-06-11 20:59:23.297,-0.0001418446019732,74.02220472527864
2025-06-11 20:59:23.305,-3.7490046733163226e-05,79.96589415490801
2025-06-11 20:59:23.313,6.942484937972788e-05,85.29302228848155
2025-06-11 20:59:23.320,0.0001767746688419,89.92232870693267
2025-06-11 20:59:23.328,0.0002823607766212,93.76985704890556
2025-06-11 20:59:23.336,0.0003839756710962,96.75208349867478
2025-06-11 20:59:23.344,0.0004794716769837,98.78927798414874
2025-06-11 20:59:23.352,0.0005668310486645,99.80899344125012
2025-06-11 20:59:23.359,0.000644234098463,99.74957368846506
2025-06-11 20:59:23.367,0.0007101218158347,98.56356779121924
2025-06-11 20:59:23.375,0.0007632495732949,96.22093773148188
2025-06-11 20:59:23.383,0.0008027289151969,92.71194640662594
2025-06-11 20:59:23.391,0.000828055123041,88.04961454001544
2025-06-11 20:59:23.398,0.0008391192444813,82.27163856661642
2025-06-11 20:59:23.406,0.0008362044412321,75.44166797505768
2025-06-11 20:59:23.414,0.0008199676228453,67.64985118655696
2025-06-11 20:59:23.422,0.0007914081835126,59.01257497703725
2025-06-11 20:59:23.430,0.0007518261710015,49.67134440669439
2025-06-11 20:59:23.438,0.0007027724204089,39.790778209367765
2025-06-11 20:59:23.445,0.0006459931534168,29.555727773438747
2025-06-11 20:59:23.453,0.0005833713609002,19.16756457541019
2025-06-11 20:59:23.461,0.0005168670315395,8.839718981708222
2025-06-11 20:59:23.469,0.0004484580158061,-1.2074097223369835
2025-06-11 20:59:23.477,0.0003800830528943,-10.752018651970475
2025-06-11 20:59:23.484,0.0003135882529491,-19.57676028566688
2025-06-11 20:59:23.492,0.0002506781200296,-27.4746919538114
2025-06-11 20:59:23.500,0.0001928720094764,-34.255099582627246
2025-06-11 20:59:23.508,0.0001414667288118,-39.74897578998464
2025-06-11 20:59:23.516,9.750583951564812e-05,-43.81393941215655
2025-06-11 20:59:23.523,6.175614147947486e-05,-46.338401871973375
2025-06-11 20:59:23.531,3.469182896945058e-05,-47.244815493729256
2025-06-11 20:59:23.539,1.6486841295713637e-05,-46.49187881310625
2025-06-11 20:59:23.547,7.01591280462769e-06,-44.07562165724933
2025-06-11 20:59:23.555,5.864700539249122e-06,-40.029344619297255
2025-06-11 20:59:23.563,1.2349116927510642e-05,-34.422439184277664
2025-06-11 20:59:23.570,2.5543627864062613e-05,-27.358161941800034
2025-06-11 20:59:23.578,4.431783615638046e-05,-18.9704757420986
2025-06-11 20:59:23.586,6.738023175841887e-05,-9.4201004966962
2025-06-11 20:59:23.594,9.332760849565322e-05,1.110063747130139
2025-06-11 20:59:23.602,0.0001206983241864,12.419968139904482
2025-06-11 20:59:23.609,0.0001480273122196,24.297724834406917
2025-06-11 20:59:23.617,0.0001739005685216,36.52502344770912
2025-06-11 20:59:23.625,0.0001970067860858,48.8824919008621
2025-06-11 20:59:23.633,0.0002161839217428,61.15485303954438
2025-06-11 20:59:23.641,0.0002304587552817,73.13574514251115
2025-06-11 20:59:23.648,0.0002390778998728,84.63209318784453
2025-06-11 20:59:23.656,0.0002415291881585,95.46793779734612
2025-06-11 20:59:23.664,0.0002375528473676,105.4876495332851
2025-06-11 20:59:23.672,0.0002271423680239,114.55847725628806
2025-06-11 20:59:23.680,0.0002105354519215,122.57240023496348
2025-06-11 20:59:23.688,0.0001881958764606,129.44727428504385
2025-06-11 20:59:23.695,0.0001607874962751,135.12728199318695
2025-06-11 20:59:23.703,0.0001291418787913,139.58271556722542
2025-06-11 20:59:23.711,9.422123492111264e-05,142.80913755893687
2025-06-11 20:59:23.719,5.707839706343359e-05,144.8259791771043
2025-06-11 20:59:23.727,1.881563992887157e-05,145.67464777043628
2025-06-11 20:59:23.734,-1.9455874222444215e-05,145.4162240268964
2025-06-11 20:59:23.742,-5.665432473053006e-05,144.12883533065883
2025-06-11 20:59:23.750,-9.176157397183422e-05,141.90479448122034
2025-06-11 20:59:23.758,-0.0001238522632329,138.84759267787123
2025-06-11 20:59:23.766,-0.0001521166046533,135.06883250353502
2025-06-11 20:59:23.773,-0.0001758762189205,130.68518093092493
2025-06-11 20:59:23.781,-0.0001945928499877,125.81541456402164
2025-06-11 20:59:23.789,-0.0002078702754931,120.57761995006804
2025-06-11 20:59:23.797,-0.0002154501592621,115.08660142841758
2025-06-11 20:59:23.805,-0.0002172029251255,109.45153820249452
2025-06-11 20:59:23.813,-0.0002131149737178,103.77392167879174
2025-06-11 20:59:23.820,-0.0002032737269178,98.145794102472
2025-06-11 20:59:23.828,-0.0001878520443573,92.64830053507602
2025-06-11 20:59:23.836,-0.0001670934697603,87.35055855176526
2025-06-11 20:59:23.844,-0.0001412995114142,82.30884383392599
2025-06-11 20:59:23.852,-0.0001108197570744,77.56608511242409
2025-06-11 20:59:23.859,-7.60451295089046e-05,73.15165857222874
2025-06-11 20:59:23.867,-3.7404107065672113e-05,69.08146966040854
2025-06-11 20:59:23.875,4.638644191247254e-06,65.35830897631573
2025-06-11 20:59:23.883,4.9582026893411e-05,61.97246824733358
2025-06-11 20:59:23.891,9.688759322652008e-05,58.9026019638207
2025-06-11 20:59:23.898,0.0001459789243046,56.11681972236956
2025-06-11 20:59:23.906,0.0001962422088014,53.57399339718954
2025-06-11 20:59:23.914,0.000247028725567,51.225261674550936
2025-06-11 20:59:23.922,0.0002976596456633,49.015712076177806
2025-06-11 20:59:23.930,0.0003474332524162,46.88621729194671
2025-06-11 20:59:23.938,0.0003956343992012,44.77539847274929
2025-06-11 20:59:23.945,0.0004415458254947,42.62168324527489
2025-06-11 20:59:23.953,0.000484460840607,40.3654208609702
2025-06-11 20:59:23.961,0.000523696833008,37.95101144569692
2025-06-11 20:59:23.969,0.0005586090283695,35.32900121430404
2025-06-11 20:59:23.977,0.0005886038831504,32.458091223828795
2025-06-11 20:59:23.984,0.0006131514878204,29.3070042050825
2025-06-11 20:59:23.992,0.0006317964125159,25.856152613466744
2025-06-11 20:59:24.000,0.0006441665828654,22.099051563496488
2025-06-11 20:59:24.008,0.0006499800012105,18.043422942373763
2025-06-11 20:59:24.016,0.0006490493782027,13.711941808635215
2025-06-11 20:59:24.023,0.0006412849643333,9.142583123908189
2025-06-11 20:59:24.031,0.0006266960242118,4.388535770876631
2025-06-11 20:59:24.039,0.0006053914318641,-0.4823385886614986
2025-06-11 20:59:24.047,0.000577579765476,-5.388512295505875
2025-06-11 20:59:24.055,0.0005435690780903,-10.236261621000898
2025-06-11 20:59:24.063,0.0005037662782112,-14.921583737820503
2025-06-11 20:59:24.070,0.0004586758306968,-19.3325307766445
2025-06-11 20:59:24.078,0.0004088973407839,-23.351917356829134
2025-06-11 20:59:24.086,0.0003551215599952,-26.86034504010969
2025-06-11 20:59:24.094,0.0002981244488596,-29.739475523620055
2025-06-11 20:59:24.102,0.0002387590811528,-31.87547467483628
2025-06-11 20:59:24.109,0.000177945308612,-33.1625422492922
2025-06-11 20:59:24.117,0.0001166572116939,-33.5064376477957
2025-06-11 20:59:24.125,5.590846344612868e-05,-32.82791037729739
2025-06-11 20:59:24.133,-3.264172467786249e-06,-31.06594464366364
2025-06-11 20:59:24.141,-5.981893759214569e-05,-28.1807300950361
2025-06-11 20:59:24.148,-0.0001127285101508,-24.156274364777275
2025-06-11 20:59:24.156,-0.0001610005687899,-19.002576994759565
2025-06-11 20:59:24.164,-0.0002036993339923,-12.757288097756335
2025-06-11 20:59:24.172,-0.0002399679424526,-5.486778781306299
2025-06-11 20:59:24.180,-0.0002690514715091,2.713445452540244
2025-06-11 20:59:24.188,-0.0002903203478475,11.71905121323544
2025-06-11 20:59:24.195,-0.0003032937548129,21.37795741932631
2025-06-11 20:59:24.203,-0.0003076625058196,31.51222926856933
2025-06-11 20:59:24.211,-0.000303310689466,41.92080676183241
2025-06-11 20:59:24.219,-0.0002903352284083,52.383063400134816
2025-06-11 20:59:24.227,-0.0002690623430086,62.66316025307769
2025-06-11 20:59:24.234,-0.000240059788327,72.51512637697698
2025-06-11 20:59:24.242,-0.0002041436628621,81.68856065789751
2025-06-11 20:59:24.250,-0.0001623786031123,89.93481497955244
2025-06-11 20:59:24.258,-0.0001160703019141,97.01348650669406
2025-06-11 20:59:24.266,-6.674950311003401e-05,102.699019904448
2025-06-11 20:59:24.273,-1.6146886444034334e-05,106.78720030581918
2025-06-11 20:59:24.281,3.384145879991488e-05,109.10130644519332
2025-06-11 20:59:24.289,8.119795440952322e-05,109.49769209436114
2025-06-11 20:59:24.297,0.0001238364624502,107.870574037245
2025-06-11 20:59:24.305,0.0001596634171513,104.15582712779413
2025-06-11 20:59:24.313,0.0001866458938441,98.33362151467776
2025-06-11 20:59:24.320,0.0002028848774052,90.42978269118156
2025-06-11 20:59:24.328,0.0002066915565973,80.51580901146353
2025-06-11 20:59:24.336,0.000196664113354,68.70753980777016
2025-06-11 20:59:24.344,0.000171762175038,55.16252561863514
2025-06-11 20:59:24.352,0.0001313757631659,40.07620573252015
2025-06-11 20:59:24.359,7.538516246960827e-05,23.67704361759884
2025-06-11 20:59:24.367,4.207769962436634e-06,6.220805683834654
2025-06-11 20:59:24.375,-8.117209965917681e-05,-12.015807453233991
2025-06-11 20:59:24.383,-0.0001791941001749,-30.741955064589533
2025-06-11 20:59:24.391,-0.0002877362382682,-49.65965043571985
2025-06-11 20:59:24.398,-0.0004041543855355,-68.47073514125947
2025-06-11 20:59:24.406,-0.0005253471886179,-86.88362633758956
2025-06-11 20:59:24.414,-0.0006478452182731,-104.61964873243444
2025-06-11 20:59:24.422,-0.0007679217684897,-121.41878643283304
2025-06-11 20:59:24.430,-0.0008817213706483,-137.04471697842348
2025-06-11 20:59:24.438,-0.0009854009502365,-151.28901946543718
2025-06-11 20:59:24.445,-0.001075277735203,-163.9744798248878
2025-06-11 20:59:24.453,-0.0011479775254655,-174.95744822068394
2025-06-11 20:59:24.461,-0.0012005766437134,-184.1292354213109
2025-06-11 20:59:24.469,-0.0012307307569109,-191.41656608851335
2025-06-11 20:59:24.477,-0.0012367839365102,-196.781136355793
2025-06-11 20:59:24.484,-0.0012178520348811,-200.2183499045343
2025-06-11 20:59:24.492,-0.0011738757074858,-201.7553300177365
2025-06-11 20:59:24.500,-0.001105639977567,-201.44832382567057
2025-06-11 20:59:24.508,-0.0010147589014155,-199.37962821968048
2025-06-11 20:59:24.516,-0.0009036255845666,-195.65417394590912
2025-06-11 20:59:24.523,-0.000775329543649,-190.39590484576215
2025-06-11 20:59:24.531,-0.0006335451956177,-183.7440832725584
2025-06-11 20:59:24.539,-0.0004823969744836,-175.84964106505075
2025-06-11 20:59:24.547,-0.0003263079630426,-166.87167910701203
2025-06-11 20:59:24.555,-0.000169839653761,-156.97419864475756
2025-06-11 20:59:24.563,-1.7530382342084327e-05,-146.32312547754609
2025-06-11 20:59:24.570,0.0001262606730638,-135.083665234173
2025-06-11 20:59:24.578,0.0002574978842735,-123.41800553908185
2025-06-11 20:59:24.586,0.0003725967562089,-111.48336020225352
2025-06-11 20:59:24.594,0.0004685303768357,-99.43033274060578
2025-06-11 20:59:24.602,0.0005429114132421,-87.40156245770115
2025-06-11 20:59:24.609,0.000594047439444,-75.5306066348856
2025-06-11 20:59:24.617,0.0006209685113635,-63.941007507902256
2025-06-11 20:59:24.625,0.0006234270481056,-52.74549271251307
2025-06-11 20:59:24.633,0.0006018712983018,-42.04526257874623
2025-06-11 20:59:24.641,0.0005573949841143,-31.92932655196284
2025-06-11 20:59:24.648,0.0004916669949414,-22.473863381549208
2025-06-11 20:59:24.656,0.0004068460072397,-13.74159459105885
2025-06-11 20:59:24.664,0.0003054854460727,-5.781177006199232
2025-06-11 20:59:24.672,0.0001904342538753,1.3733634677298756
2025-06-11 20:59:24.680,6.473858732595568e-05,7.703119363688402
2025-06-11 20:59:24.688,-6.84510783782673e-05,13.204660222055605
2025-06-11 20:59:24.695,-0.0002059638499077,17.890202940581293
2025-06-11 20:59:24.703,-0.0003446808218301,21.787530544864804
2025-06-11 20:59:24.711,-0.000481594632608,24.939597794676693
2025-06-11 20:59:24.719,-0.0006138558389805,27.40377014674604
2025-06-11 20:59:24.727,-0.0007388066612401,29.25065680995201
2025-06-11 20:59:24.734,-0.0008540035283373,30.56251801888643
2025-06-11 20:59:24.742,-0.0009572307594184,31.43124979294881
2025-06-11 20:59:24.750,-0.0010465084575931,31.955974727771174
2025-06-11 20:59:24.758,-0.0011200979776371,32.240293127104856
2025-06-11 20:59:24.766,-0.0011765080304536,32.38927331023525
2025-06-11 20:59:24.773,-0.001214503683778,32.5062814323177
2025-06-11 20:59:24.781,-0.0012331193876562,32.68976787547009
2025-06-11 20:59:24.789,-0.0012316758750147,33.030137701210634
2025-06-11 20:59:24.797,-0.0012097995604686,33.606835781883554
2025-06-11 20:59:24.805,-0.0011674421077698,34.48577267856471
2025-06-11 20:59:24.813,-0.0011048973249695,35.71720541252591
2025-06-11 20:59:24.820,-0.0010228125025687,37.33416888256107
2025-06-11 20:59:24.828,-0.0009221916440083,39.35153013072811
2025-06-11 20:59:24.836,-0.0008043886532764,41.76571051366769
2025-06-11 20:59:24.844,-0.0006710893948813,44.55509173432759
2025-06-11 20:59:24.852,-0.0005242825766992,47.68109222458511
2025-06-11 20:59:24.859,-0.0003662205001482,51.08987200839745
2025-06-11 20:59:24.867,-0.0001993716768994,54.71459820287043
2025-06-11 20:59:24.875,-2.636793739660443e-05,58.47818081288332
2025-06-11 20:59:24.883,0.0001500511246754,62.29637031341292
2025-06-11 20:59:24.891,0.0003270936567311,66.08109534130527
2025-06-11 20:59:24.899,0.000501968653358,69.74391104822443
2025-06-11 20:59:24.906,0.000671934841218,73.19942645991412
2025-06-11 20:59:24.914,0.0008343441159815,76.36858244171145
2025-06-11 20:59:24.922,0.0009866788859197,79.18166022441659
2025-06-11 20:59:24.930,0.001126583233785,81.5809133004903
2025-06-11 20:59:24.938,0.0012518884051131,83.52273207407366
2025-06-11 20:59:24.945,0.0013606337569816,84.97927003912717
2025-06-11 20:59:24.953,0.0014510847943616,85.93948152996887
2025-06-11 20:59:24.961,0.0015217501048268,86.40954333078173
2025-06-11 20:59:24.969,0.0015713988545324,86.4126548124846
2025-06-11 20:59:24.977,0.0015990801395558,85.98823304137893
2025-06-11 20:59:24.984,0.0016041450004594,85.1905398122539
2025-06-11 20:59:24.992,0.0015862713366248,84.08679621508364
2025-06-11 20:59:25.000,0.0015454912912528,82.75485664308287
2025-06-11 20:59:25.008,0.0014822199179468,81.28052766770614
2025-06-11 20:59:25.016,0.0013972831404313,79.75462760871751
2025-06-11 20:59:25.024,0.0012919422876908,78.26988967037907
2025-06-11 20:59:25.031,0.0011679119240889,76.91781503950527
2025-06-11 20:59:25.039,0.0010273673417098,75.7855822687967
2025-06-11 20:59:25.047,0.0008729379916237,74.95311560252549
2025-06-11 20:59:25.055,0.0007076834300793,74.49040774236195
2025-06-11 20:59:25.063,0.000535049210039,74.45518212256991
2025-06-11 20:59:25.070,0.0003588016101258,74.89096643056344
2025-06-11 20:59:25.078,0.0001829419598952,75.8256333777981
2025-06-11 20:59:25.086,1.160317055980558e-05,77.27044723011633
2025-06-11 20:59:25.094,-0.0001510674943487,79.21963607553668
2025-06-11 20:59:25.102,-0.0003010345483002,81.65049102655156
2025-06-11 20:59:25.109,-0.0004345041558406,84.52397531466438
2025-06-11 20:59:25.117,-0.0005480526335031,87.78580928223705
2025-06-11 20:59:25.125,-0.0006387485694333,91.36798226418908
2025-06-11 20:59:25.133,-0.0007042634892684,95.19062980674434
2025-06-11 20:59:25.141,-0.0007429657255049,99.1642049684752
2025-06-11 20:59:25.149,-0.0007539919950537,103.19186580454664
2025-06-11 20:59:25.156,-0.0007372916405256,107.17199760660212
2025-06-11 20:59:25.164,-0.0006936397874,111.0007879805169
2025-06-11 20:59:25.172,-0.0006246176100197,114.57477520412893
2025-06-11 20:59:25.180,-0.0005325600144351,117.79329524359576
2025-06-11 20:59:25.188,-0.0004204729264266,120.5607599846939
2025-06-11 20:59:25.195,-0.0002919238586562,122.78870827824156
2025-06-11 20:59:25.203,-0.0001509105637317,124.39758191206994
2025-06-11 20:59:25.211,-1.7134509527481058e-06,125.3181902105336
2025-06-11 20:59:25.219,0.0001512618779324,125.49283924014212
2025-06-11 20:59:25.227,0.0003036450760753,124.87611418747086
2025-06-11 20:59:25.234,0.0004512571751869,123.43531599821776
2025-06-11 20:59:25.242,0.0005902549539924,121.15056545592996
2025-06-11 20:59:25.250,0.0007172565274465,118.01459917751843
2025-06-11 20:59:25.258,0.0008294422047708,114.0322921579734
2025-06-11 20:59:25.266,0.0009246263113969,109.21995014657496
2025-06-11 20:59:25.274,0.0010012976688712,103.60442188283136
2025-06-11 20:59:25.281,0.0010586285167871,97.2220855993356
2025-06-11 20:59:25.289,0.0010964535826801,90.11776569871648
2025-06-11 20:59:25.297,0.0011152225627768,82.34363369856224
2025-06-11 20:59:25.305,0.0011159303858171,73.95814227088285
2025-06-11 20:59:25.313,0.0011000303107782,65.02503277827157
2025-06-11 20:59:25.320,0.001069335216626,55.61244580844751
2025-06-11 20:59:25.328,0.0010259124393664,45.79215171746468
2025-06-11 20:59:25.336,0.0009719772731773,35.63890504406029
2025-06-11 20:59:25.344,0.0009097898757158,25.229913760043928
2025-06-11 20:59:25.352,0.0008415598687728,14.644402518081858
2025-06-11 20:59:25.359,0.0007693623938731,3.9632391027453258
2025-06-11 20:59:25.367,0.0006950687258312,-6.731414179179493
2025-06-11 20:59:25.375,0.0006202937502509,-17.356466920328995
2025-06-11 20:59:25.383,0.000546361681186,-27.828328764792573
2025-06-11 20:59:25.391,0.0004742903507167,-38.06344089371403
2025-06-11 20:59:25.399,0.0004047932975093,-47.97894667304097
2025-06-11 20:59:25.406,0.0003382978222135,-57.49352827160438
2025-06-11 20:59:25.414,0.0002749762849899,-66.52842419055513
2025-06-11 20:59:25.422,0.0002147872864718,-75.00862850066218
2025-06-11 20:59:25.430,0.0001575230481756,-82.86425688128857
2025-06-11 20:59:25.438,0.0001028592985938,-90.03204814265949
2025-06-11 20:59:25.445,5.0404239022013256e-05,-96.45695374712794
2025-06-11 20:59:25.453,-2.5635289895893576e-07,-102.09375295703354
2025-06-11 20:59:25.461,-4.952017889486944e-05,-106.90861869261278
2025-06-11 20:59:25.469,-9.773717552795934e-05,-110.88055004097204
2025-06-11 20:59:25.477,-0.0001451867141347,-114.00258262444088
2025-06-11 20:59:25.484,-0.0001920632516436,-116.28268861651904
2025-06-11 20:59:25.492,-0.0002384698305991,-117.7442847664516
2025-06-11 20:59:25.500,-0.000284418357623,-118.42627960532884
2025-06-11 20:59:25.508,-0.0003298352417289,-118.38260965473036
2025-06-11 20:59:25.516,-0.0003745707692603,-117.68123787169245
2025-06-11 20:59:25.524,-0.000418410591608,-116.40261423834058
2025-06-11 20:59:25.531,-0.0004610879346173,-114.63762670267296
2025-06-11 20:59:25.539,-0.0005022955396403,-112.48509895481342
2025-06-11 20:59:25.547,-0.0005416967764255,-110.0489180995468
2025-06-11 20:59:25.555,-0.0005789357091406,-107.43489841714836
2025-06-11 20:59:25.563,-0.0006136461158731,-104.7475053819088
2025-06-11 20:59:25.570,-0.0006454595849778,-102.08657546825768
2025-06-11 20:59:25.578,-0.0006740128671568,-99.54417103087368
2025-06-11 20:59:25.586,-0.0006989546621319,-97.20170534715182
2025-06-11 20:59:25.594,-0.0007199519694339,-95.12746108610456
2025-06-11 20:59:25.602,-0.000736696050726,-93.37460694618385
2025-06-11 20:59:25.609,-0.0007489079753961,-91.97979335528962
2025-06-11 20:59:25.617,-0.00075634370408,-90.96238057534798
2025-06-11 20:59:25.625,-0.0007587987320639,-90.32432302101626
2025-06-11 20:59:25.633,-0.0007561124335213,-90.05070377525747
2025-06-11 20:59:25.641,-0.0007481723398924,-90.11088472429454
2025-06-11 20:59:25.649,-0.000734918575832,-90.46021180181724
2025-06-11 20:59:25.656,-0.0007163485446032,-91.04219264342164
2025-06-11 20:59:25.664,-0.0006925217552781,-91.7910463623898
2025-06-11 20:59:25.672,-0.0006635644990973,-92.63451276371065
2025-06-11 20:59:25.680,-0.000629673966179,-93.49680145508454
2025-06-11 20:59:25.688,-0.0005911213673513,-94.3015600700511
2025-06-11 20:59:25.695,-0.0005482536968781,-94.97474499961736
2025-06-11 20:59:25.703,-0.0005014939311766,-95.4472871822174
2025-06-11 20:59:25.711,-0.0004513396692869,-95.65745893588092
2025-06-11 20:59:25.719,-0.0003983604225169,-95.55286464389346
2025-06-11 20:59:25.727,-0.0003431938833123,-95.0919973062134
2025-06-11 20:59:25.734,-0.0002865414893351,-94.24532347159376
2025-06-11 20:59:25.742,-0.0002291634293128,-92.99587983070214
2025-06-11 20:59:25.750,-0.0001718729464259,-91.33938484038984
2025-06-11 20:59:25.758,-0.0001155294633186,-89.28388736392903
2025-06-11 20:59:25.766,-6.102978457578599e-05,-86.84899080248002
2025-06-11 20:59:25.774,-9.296519400647325e-06,-84.06470506284684
2025-06-11 20:59:25.781,3.873704943382761e-05,-80.96998961185868
2025-06-11 20:59:25.789,8.214615840777996e-05,-77.61105861278126
2025-06-11 20:59:25.797,0.0001200379119856,-74.0395236650893
2025-06-11 20:59:25.805,0.0001515783555013,-70.31045103834325
2025-06-11 20:59:25.813,0.0001760222617115,-66.48040867393281
2025-06-11 20:59:25.820,0.0001927440837578,-62.60557388934143
2025-06-11 20:59:25.828,0.0002012681448029,-58.73996599928937
2025-06-11 20:59:25.836,0.0002012960044537,-54.93385936279046
2025-06-11 20:59:25.844,0.0001927290986655,-51.23242210893614
2025-06-11 20:59:25.852,0.0001756851284008,-47.67461445195252
2025-06-11 20:59:25.859,0.0001505071422824,-44.29236856945222
2025-06-11 20:59:25.867,0.0001177647013364,-41.11005999299413
2025-06-11 20:59:25.875,7.824687798297893e-05,-38.14426884493042
2025-06-11 20:59:25.883,3.294714346082755e-05,-35.403818514100294
2025-06-11 20:59:25.891,-1.6959517033795675e-05,-32.89006990214921
2025-06-11 20:59:25.899,-7.014662343477625e-05,-30.597441520123912
2025-06-11 20:59:25.906,-0.0001251724052806,-28.514119700786164
2025-06-11 20:59:25.914,-0.0001805209542598,-26.622919133066254
2025-06-11 20:59:25.922,-0.0002346468709279,-24.90225182513374
2025-06-11 20:59:25.930,-0.0002860218328399,-23.32716236418737
2025-06-11 20:59:25.938,-0.0003331814686866,-21.87038878569027
2025-06-11 20:59:25.945,-0.0003747709114731,-20.50341125275414
2025-06-11 20:59:25.953,-0.0004095873938739,-19.197454792898053
2025-06-11 20:59:25.961,-0.0004366182458949,-17.92441723126224
2025-06-11 20:59:25.969,-0.0004550727050846,-16.657698877170258
2025-06-11 20:59:25.977,-0.000464406124959,-15.37291616305017
2025-06-11 20:59:25.984,-0.000464335506309,-14.048487035454642
2025-06-11 20:59:25.992,-0.0004548457307766,-12.66608123773151
2025-06-11 20:59:26.000,-0.0004361863498177,-11.210933534808005
2025-06-11 20:59:26.008,-0.0004088592140393,-9.672022299531282
2025-06-11 20:59:26.016,-0.0003735976159343,-8.042119648437012
2025-06-11 20:59:26.024,-0.0003313379791228,-6.317722471031516
2025-06-11 20:59:26.031,-0.0002831854562481,-4.498876263373132
2025-06-11 20:59:26.039,-0.000230375063496,-2.5889056980701253
2025-06-11 20:59:26.047,-0.0001742301366546,-0.5940673925786792
2025-06-11 20:59:26.055,-0.0001161199213561,1.476858572753847
2025-06-11 20:59:26.063,-5.7418035413008e-05,3.6130211483176566
2025-06-11 20:59:26.070,5.365943145329882e-07,5.801977279020017
2025-06-11 20:59:26.078,5.647490641804915e-05,8.030179878344327
2025-06-11 20:59:26.086,0.0001092278441654,10.28345783237139
2025-06-11 20:59:26.094,0.000157750671468,12.547471949551062
2025-06-11 20:59:26.102,0.0002011410938334,14.808132100953832
2025-06-11 20:59:26.109,0.0002386512291701,17.051962564932513
2025-06-11 20:59:26.117,0.0002696938457299,19.266404792729524
2025-06-11 20:59:26.125,0.0002938435820926,21.44004942055731
2025-06-11 20:59:26.133,0.0003108340500793,23.562792316064787
2025-06-11 20:59:26.141,0.0003205517620495,25.62591268060045
2025-06-11 20:59:26.149,0.0003230277350905,27.622074620860147
2025-06-11 20:59:26.156,0.0003184274839321,29.545257012724186
2025-06-11 20:59:26.164,0.0003070399918308,31.39061974139505
2025-06-11 20:59:26.172,0.0002892661349271,33.15431734047767
2025-06-11 20:59:26.180,0.0002656068735958,34.83327350088388
2025-06-11 20:59:26.188,0.0002366513056492,36.42493173293363
2025-06-11 20:59:26.195,0.0002030644723613,37.9269985273524
2025-06-11 20:59:26.203,0.0001655746994002,39.3371955948198
2025-06-11 20:59:26.211,0.0001249602584477,40.65303713312735
2025-06-11 20:59:26.219,8.203521064053275e-05,41.871646588788
2025-06-11 20:59:26.227,3.763437950792254e-05,42.989625110732376
2025-06-11 20:59:26.234,-7.402546360763159e-06,44.00298094820623
2025-06-11 20:59:26.242,-5.224775289084888e-05,44.90712557093063
2025-06-11 20:59:26.250,-9.610278160252398e-05,45.69693846515504
2025-06-11 20:59:26.258,-0.0001382164683128,46.36689858738282
2025-06-11 20:59:26.266,-0.0001779027699327,46.91127655810771
2025-06-11 20:59:26.274,-0.0002145576012774,47.324378076018135
2025-06-11 20:59:26.281,-0.0002476735733946,47.60082594482333
2025-06-11 20:59:26.289,-0.0002768514506111,47.73586572132453
2025-06-11 20:59:26.297,-0.0003018072560445,47.72567846585519
2025-06-11 20:59:26.305,-0.0003223742320642,47.56768350340083
2025-06-11 20:59:26.313,-0.000338499242494,47.26081452342724
2025-06-11 20:59:26.320,-0.0003502336216722,46.80575373297686
2025-06-11 20:59:26.328,-0.0003577188880312,46.20511104180248
2025-06-11 20:59:26.336,-0.0003611681260148,45.46353824816307
2025-06-11 20:59:26.344,-0.0003608441883009,44.587771700366126
2025-06-11 20:59:26.352,-0.0003570361617467,43.58660068563367
2025-06-11 20:59:26.359,-0.0003500357368719,42.47076259066671
2025-06-11 20:59:26.367,-0.0003401151734748,41.25276945327437
2025-06-11 20:59:26.375,-0.000327508442906,39.94667368037462
2025-06-11 20:59:26.383,-0.0003123968802132,38.567783281271325
2025-06-11 20:59:26.391,-0.0002949003518238,37.132338838845484
2025-06-11 20:59:26.399,-0.000275074572678,35.65716555473465
2025-06-11 20:59:26.406,-0.0002529147952756,34.15931405894574
2025-06-11 20:59:26.414,-0.0002283656458727,32.65570332308745
2025-06-11 20:59:26.422,-0.0002013364393073,31.162778047523584
2025-06-11 20:59:26.430,-0.000171720925568,29.696191415068025
2025-06-11 20:59:26.438,-0.000139420145187,28.27052224068485
2025-06-11 20:59:26.445,-0.0001043668945579,26.899033431678607
2025-06-11 20:59:26.453,-6.65502127801366e-05,25.59347644430524
2025-06-11 20:59:26.461,-2.603829390278816e-05,24.36394421636808
2025-06-11 20:59:26.469,1.7001696369209762e-05,23.21877299664964
2025-06-11 20:59:26.477,6.228826191735466e-05,22.164491687779165
2025-06-11 20:59:26.484,0.0001094157995969,21.20581584884925
2025-06-11 20:59:26.492,0.0001578512253325,20.34568241121797
2025-06-11 20:59:26.500,0.0002069374838081,19.58532044650225
2025-06-11 20:59:26.508,0.0002559040791632,18.924352949890896
2025-06-11 20:59:26.516,0.0003038844346583,18.3609244955438
2025-06-11 20:59:26.524,0.000349939581781,17.89184970279795
2025-06-11 20:59:26.531,0.0003930874014313,17.512777643441208
2025-06-11 20:59:26.539,0.0004323363893905,17.218367554873726
2025-06-11 20:59:26.547,0.00046672268007,17.002471452978476
2025-06-11 20:59:26.555,0.0004953488336923,16.85831943357048
2025-06-11 20:59:26.563,0.0005174227050274,16.778703601985363
2025-06-11 20:59:26.570,0.0005322946202391,16.75615667976248
2025-06-11 20:59:26.578,0.0005394911227523,16.78312141979424
2025-06-11 20:59:26.586,0.0005387436910544,16.852107044311907
2025-06-11 20:59:26.594,0.0005300110373024,16.955829046352747
2025-06-11 20:59:26.602,0.0005134938337693,17.087328917825413
2025-06-11 20:59:26.609,0.0004896409738037,17.24007073663116
2025-06-11 20:59:26.617,0.0004591467541793,17.40801209716163
2025-06-11 20:59:26.625,0.000422938666896,17.585647617145113
2025-06-11 20:59:26.633,0.0003821558104461,17.76802419163731
2025-06-11 20:59:26.641,0.0003381182720164,17.950728263403175
2025-06-11 20:59:26.649,0.0002922881904373,18.129846588379525
2025-06-11 20:59:26.656,0.0002462235806139,18.301903225459338
2025-06-11 20:59:26.664,0.0002015263759005,18.463776687083648
2025-06-11 20:59:26.672,0.0001597865059007,18.61260226196494
2025-06-11 20:59:26.680,0.0001225241314116,18.745665379241444
2025-06-11 20:59:26.688,9.113235207330772e-05,18.86029245200191
2025-06-11 20:59:26.695,6.682276488843802e-05,18.953745864680343
2025-06-11 20:59:26.703,5.057622008332837e-05,19.02312962818188
2025-06-11 20:59:26.711,4.310103772513561e-05,19.065311724194608
2025-06-11 20:59:26.719,4.480078662290065e-05,19.07686832689573
2025-06-11 20:59:26.727,5.575340440502979e-05,19.054053974116893
2025-06-11 20:59:26.734,7.570292224542884e-05,18.99280042065338
2025-06-11 20:59:26.742,0.0001040644226929,18.888745413675284
2025-06-11 20:59:26.750,0.0001399422170949,18.737291061936062
2025-06-11 20:59:26.758,0.0001821606341723,18.53368990656832
2025-06-11 20:59:26.766,0.0002293062490752,18.273155316625957
2025-06-11 20:59:26.774,0.0002797798411763,17.950991492677016
2025-06-11 20:59:26.781,0.0003318558835185,17.562737222616075
2025-06-11 20:59:26.789,0.0003837469991706,17.10431664452364
2025-06-11 20:59:26.797,0.0004336706278817,16.572189676438065
2025-06-11 20:59:26.805,0.0004799151468785,15.963494512920974
2025-06-11 20:59:26.813,0.0005209028260605,15.27617469906648
2025-06-11 20:59:26.820,0.0005552471839007,14.509083802636628
2025-06-11 20:59:26.828,0.0005818025192991,13.662061629903604
2025-06-11 20:59:26.836,0.000599703671575,12.73597726532199
2025-06-11 20:59:26.844,0.0006083944442394,11.732735927542258
2025-06-11 20:59:26.852,0.0006076435913321,10.655248664326152
2025-06-11 20:59:26.859,0.0005975477392145,9.507366166086909
2025-06-11 20:59:26.867,0.000578521063212,8.293780336814558
2025-06-11 20:59:26.875,0.0005512719972296,7.019899561466996
2025-06-11 20:59:26.883,0.0005167678008134,5.691705664525873
2025-06-11 20:59:26.891,0.0004761884487346,4.315602173252675
2025-06-11 20:59:26.899,0.0004308719508157,2.898264504570202
2025-06-11 20:59:26.906,0.0003822537508847,1.4465029444888808
2025-06-11 20:59:26.914,0.0003318032504481,-0.0328513061025478
2025-06-11 20:59:26.922,0.0002809607362982,-1.5330282068122374
2025-06-11 20:59:26.930,0.0002310780110703,-3.047362530559405
2025-06-11 20:59:26.938,0.0001833657766491,-4.569295486857501
2025-06-11 20:59:26.945,0.0001388503133216,-6.0923341059772005
2025-06-11 20:59:26.953,9.834131767711808e-05,-7.609971777553703
2025-06-11 20:59:26.961,6.241200846203667e-05,-9.115576866591688
2025-06-11 20:59:26.969,3.139184767096691e-05,-10.60225950439243
2025-06-11 20:59:26.977,5.371489336278213e-06,-12.062729211821967
2025-06-11 20:59:26.984,-1.5781107521212078e-05,-13.48915773868611
2025-06-11 20:59:26.992,-3.239503394275895e-05,-14.873062232369843
2025-06-11 20:59:27.000,-4.496328985216436e-05,-16.205223482357518
2025-06-11 20:59:27.008,-5.410439185217566e-05,-17.475652496383972
2025-06-11 20:59:27.016,-6.052101329228383e-05,-18.673616097426773
2025-06-11 20:59:27.024,-6.495785749015314e-05,-19.78772872013455
2025-06-11 20:59:27.031,-6.816080298819704e-05,-20.806113345272276
2025-06-11 20:59:27.039,-7.083913930315773e-05,-21.71662982917056
2025-06-11 20:59:27.047,-7.363244475108114e-05,-22.50716410323611
2025-06-11 20:59:27.055,-7.708335512706887e-05,-23.165967203269236
2025-06-11 20:59:27.063,-8.161714373008351e-05,-23.68202919758512
2025-06-11 20:59:27.070,-8.752868959908567e-05,-24.04547012729041
2025-06-11 20:59:27.078,-9.497706157366444e-05,-24.247928281039112
2025-06-11 20:59:27.086,-0.0001039876000634,-24.282925629670427
2025-06-11 20:59:27.094,-0.0001144610447409,-24.146191070345832
2025-06-11 20:59:27.102,-0.00012618894265,-23.835924204442527
2025-06-11 20:59:27.109,-0.0001388742846685,-23.35298553295897
2025-06-11 20:59:27.117,-0.0001521560670895,-22.701002942770348
2025-06-11 20:59:27.125,-0.0001656362748978,-21.886388854232717
2025-06-11 20:59:27.133,-0.0001789076616415,-20.91826705489514
2025-06-11 20:59:27.141,-0.0001915806847712,-19.80831272019285
2025-06-11 20:59:27.149,-0.0002033080544518,-18.57051313076155
2025-06-11 20:59:27.156,-0.0002138055646226,-17.22085991122388
2025-06-11 20:59:27.164,-0.0002228681890439,-15.77698608446012
2025-06-11 20:59:27.172,-0.0002303808129303,-14.257762787447364
2025-06-11 20:59:27.180,-0.0002363233734482,-12.682871140489969
2025-06-11 20:59:27.188,-0.0002407705408182,-11.072364581843132
2025-06-11 20:59:27.195,-0.0002438863566413,-9.446236103611165
2025-06-11 20:59:27.203,-0.0002459144488219,-7.824003407682031
2025-06-11 20:59:27.211,-0.000247164559236,-6.22432320715985
2025-06-11 20:59:27.219,-0.0002479961616078,-4.664643891969351
2025-06-11 20:59:27.227,-0.0002487999486283,-3.160903707637832
2025-06-11 20:59:27.234,-0.0002499779755574,-1.7272795947305024
2025-06-11 20:59:27.242,-0.0002519232866707,-0.3759900091414655
2025-06-11 20:59:27.250,-0.0002549998993011,0.8828465347973855
2025-06-11 20:59:27.258,-0.0002595240307031,2.0412967492457383
2025-06-11 20:59:27.266,-0.0002657474017644,3.0936422492021034
2025-06-11 20:59:27.274,-0.0002738433523245,4.036354959511274
2025-06-11 20:59:27.281,-0.0002838963784314,4.868020205482298
2025-06-11 20:59:27.289,-0.0002958955640999,5.589209987068531
2025-06-11 20:59:27.297,-0.0003097322327144,6.202309521338978
2025-06-11 20:59:27.305,-0.0003252019881482,6.711300857375695
2025-06-11 20:59:27.313,-0.0003420111550261,7.1215082881407445
2025-06-11 20:59:27.320,-0.0003597874635198,7.439311419346239
2025-06-11 20:59:27.328,-0.0003780946590483,7.671833059828504
2025-06-11 20:59:27.336,-0.0003964505539724,7.826610476093732
2025-06-11 20:59:27.344,-0.0004143478798721,7.911259882479352
2025-06-11 20:59:27.352,-0.0004312771487521,7.933145186199088
2025-06-11 20:59:27.359,-0.0004467505933811,7.899062844957714
2025-06-11 20:59:27.367,-0.0004603261351849,7.814955104529978
2025-06-11 20:59:27.375,-0.0004716302288473,7.685663760215598
2025-06-11 20:59:27.383,-0.0004803783721017,7.514735847983645
2025-06-11 20:59:27.391,-0.0004863920838467,7.3042912699390845
2025-06-11 20:59:27.399,-0.0004896112914926,7.054960289130054
2025-06-11 20:59:27.406,-0.0004901013488248,6.765896139284304
2025-06-11 20:59:27.414,-0.0004880542880159,6.434864797366328
2025-06-11 20:59:27.422,-0.0004837843057298,6.058410434190875
2025-06-11 20:59:27.430,-0.0004777178052335,5.632091410394069
2025-06-11 20:59:27.438,-0.0004703785225904,5.150778165009284
2025-06-11 20:59:27.445,-0.000462368373414,4.609001195187191
2025-06-11 20:59:27.453,-0.0004543447131193,4.001334767385653
2025-06-11 20:59:27.461,-0.000446994742248,3.3228001999368666
2025-06-11 20:59:27.469,-0.0004410078221742,2.569271607279081
2025-06-11 20:59:27.477,-0.0004370464977035,1.737866909969057
2025-06-11 20:59:27.484,-0.0004357170516759,0.8273076368423427
2025-06-11 20:59:27.492,-0.0004375404416422,-0.1617675240519998
2025-06-11 20:59:27.500,-0.0004429244881126,-1.226548456786964
2025-06-11 20:59:27.508,-0.0004521381950624,-2.361869206001656
2025-06-11 20:59:27.516,-0.0004652890829906,-3.5601012364564544
2025-06-11 20:59:27.524,-0.0004823043990452,-4.811129241022569
2025-06-11 20:59:27.531,-0.0005029170335747,-6.1024113727289935
2025-06-11 20:59:27.539,-0.0005266569140028,-7.419122802508521
2025-06-11 20:59:27.547,-0.0005528485616427,-8.744378637425182
2025-06-11 20:59:27.555,-0.0005806153821519,-10.059529545769488
2025-06-11 20:59:27.563,-0.0006088911140024,-11.344520992541336
2025-06-11 20:59:27.570,-0.0006364386811823,-12.578304856464138
2025-06-11 20:59:27.578,-0.0006618764875039,-13.739290440762163
2025-06-11 20:59:27.586,-0.0006837119533902,-14.805820562557164
2025-06-11 20:59:27.594,-0.0007003818368021,-15.75665755759604
2025-06-11 20:59:27.602,-0.0007102986051035,-16.571463700256263
2025-06-11 20:59:27.610,-0.0007119018431916,-17.231260727862356
2025-06-11 20:59:27.617,-0.000703713406153,-17.718853870938876
2025-06-11 20:59:27.625,-0.0006843947647221,-18.019207009710463
2025-06-11 20:59:27.633,-0.0006528047629802,-18.119757269947915
2025-06-11 20:59:27.641,-0.000608055825026,-18.010659489614195
2025-06-11 20:59:27.649,-0.0005495665261496,-17.684953463473448
2025-06-11 20:59:27.656,-0.0004771083994729,-17.13864961679105
2025-06-11 20:59:27.664,-0.0003908448936552,-16.37073166331011
2025-06-11 20:59:27.672,-0.0002913605322531,-15.383077743907528
2025-06-11 20:59:27.680,-0.0001796785287549,-14.180304391109836
2025-06-11 20:59:27.688,-5.726534677724108e-05,-12.769540298145916
2025-06-11 20:59:27.695,7.397905164806548e-05,-11.160139188211431
2025-06-11 20:59:27.703,0.0002117462242989,-9.363343009913429
2025-06-11 20:59:27.711,0.0003533600848924,-7.391908190790966
2025-06-11 20:59:27.719,0.000495833572229,-5.259708752722495
2025-06-11 20:59:27.727,0.0006359405032777,-2.9813307402337115
2025-06-11 20:59:27.735,0.0007703012138137,-0.5716726519177356
2025-06-11 20:59:27.742,0.0008954798348686,1.9544335898414804
2025-06-11 20:59:27.750,0.0010080903670293,4.582567138920793
2025-06-11 20:59:27.758,0.0011049081449682,7.29901513358925
2025-06-11 20:59:27.766,0.0011829828430497,10.091010262704865
2025-06-11 20:59:27.774,0.0012397488609524,12.94689891528362
2025-06-11 20:59:27.781,0.0012731287685446,15.856231845456644
2025-06-11 20:59:27.789,0.0012816255244691,18.80977158014137
2025-06-11 20:59:27.797,0.0012643994432134,21.79941333326676
2025-06-11 20:59:27.805,0.0012213263592666,24.81801892081627
2025-06-11 20:59:27.813,0.0011530340676208,27.859166052205364
2025-06-11 20:59:27.820,0.0010609148249463,30.916818371040986
2025-06-11 20:59:27.828,0.0009471124036759,33.98492470656966
2025-06-11 20:59:27.836,0.0008144828869135,37.05695914955413
2025-06-11 20:59:27.844,0.000666529139362,40.12541673459002
2025-06-11 20:59:27.852,0.0005073097949036,43.18128260435629
2025-06-11 20:59:27.860,0.0003413247358584,46.21349541067149
2025-06-11 20:59:27.867,0.000173380365112,49.20842819566697
2025-06-11 20:59:27.875,8.439319316981688e-06,52.14941189942378
2025-06-11 20:59:27.883,-0.0001485396077961,55.01632776515759
2025-06-11 20:59:27.891,-0.0002927648689254,57.78529508517793
2025-06-11 20:59:27.899,-0.0004197722387896,60.42847981011401
2025-06-11 20:59:27.906,-0.0005255751901784,62.91404743482352
2025-06-11 20:59:27.914,-0.0006067998677862,65.20628023143502
2025-06-11 20:59:27.922,-0.0006607998666053,67.26587433151744
2025-06-11 20:59:27.930,-0.0006857469993469,69.05042643538296
2025-06-11 20:59:27.938,-0.0006806951697669,70.51511318773973
2025-06-11 20:59:27.945,-0.0006456153516621,71.61355872000014
2025-06-11 20:59:27.953,-0.0005814005554812,72.2988778012994
2025-06-11 20:59:27.961,-0.000489840561746,72.52487379342348
2025-06-11 20:59:27.969,-0.0003735670953071,72.2473625313689
2025-06-11 20:59:27.977,-0.0002359710139771,71.42558572516408
2025-06-11 20:59:27.985,-8.109401944063925e-05,70.02367086464935
2025-06-11 20:59:27.992,8.65016435209665e-05,68.01208924091041
2025-06-11 20:59:28.000,0.0002618811241246,65.36905986387934
2025-06-11 20:59:28.008,0.0004398973900191,62.08184499517584
2025-06-11 20:59:28.016,0.000615358421717,58.147882925555976
2025-06-11 20:59:28.024,0.0007831951598879,53.57570565995105
2025-06-11 20:59:28.031,0.0009386242074286,48.385593424483325
2025-06-11 20:59:28.039,0.0010772996292144,42.60992439789919
2025-06-11 20:59:28.047,0.0011954487998108,36.29318672573682
2025-06-11 20:59:28.055,0.0012899880108767,29.49163053607044
2025-06-11 20:59:28.063,0.0013586143020468,22.27255007755291
2025-06-11 20:59:28.070,0.0013998705810888,14.713199875183369
2025-06-11 20:59:28.078,0.0014131815599283,6.899363472652342
2025-06-11 20:59:28.086,0.0013988585503609,-1.076391670313559
2025-06-11 20:59:28.094,0.0013580720089034,-9.116724890128644
2025-06-11 20:59:28.102,0.0012927920563535,-17.121736804032924
2025-06-11 20:59:28.110,0.0012056989565125,-24.991313994344253
2025-06-11 20:59:28.117,0.0011000674449852,-32.62752130336764
2025-06-11 20:59:28.125,0.0009796305014853,-39.93695371929053
2025-06-11 20:59:28.133,0.0008484293689144,-46.83295876826365
2025-06-11 20:59:28.141,0.0007106571935174,-53.23764417707559
2025-06-11 20:59:28.149,0.0005705036019525,-59.08359448576787
2025-06-11 20:59:28.156,0.0004320069628176,-64.3152338983938
2025-06-11 20:59:28.164,0.0002989201572249,-68.88979004297285
2025-06-11 20:59:28.172,0.0001745945461386,-72.77783310701876
2025-06-11 20:59:28.180,6.188559097670537e-05,-75.96338543537168
2025-06-11 20:59:28.188,-3.69176438836727e-05,-78.44361656488813
2025-06-11 20:59:28.195,-0.0001201380361979,-80.22815651258405
2025-06-11 20:59:28.203,-0.0001867309797883,-81.33807498071559
2025-06-11 20:59:28.211,-0.0002362808942513,-81.80458542839897
2025-06-11 20:59:28.219,-0.0002689753659668,-81.66754045493789
2025-06-11 20:59:28.227,-0.0002855592643916,-80.97378867644764
2025-06-11 20:59:28.235,-0.0002872716965123,-79.77546347600916
2025-06-11 20:59:28.242,-0.0002757690778019,-78.12827102659519
2025-06-11 20:59:28.250,-0.0002530379303933,-76.08983928558804
2025-06-11 20:59:28.258,-0.000221301252213,-73.71818177615471
2025-06-11 20:59:28.266,-0.000182922388231,-71.07032048735886
2025-06-11 20:59:28.274,-0.0001403102424891,-68.20110173521817
2025-06-11 20:59:28.281,-9.582940027998955e-05,-65.16222789629427
2025-06-11 20:59:28.289,-5.171831265055484e-05,-62.001517062015886
2025-06-11 20:59:28.297,-1.0018159442911712e-05,-58.76239230537883
2025-06-11 20:59:28.305,2.748562568158946e-05,-55.4835927764612
2025-06-11 20:59:28.313,5.930788388392279e-05,-52.19909056581346
2025-06-11 20:59:28.320,8.429374813786668e-05,-48.93819045404243
2025-06-11 20:59:28.328,0.0001016342709696,-45.72578449325781
2025-06-11 20:59:28.336,0.0001108683935422,-42.58272994734729
2025-06-11 20:59:28.344,0.0001118724779836,-39.52631745468893
2025-06-11 20:59:28.352,0.000104838983361,-36.57079625970784
2025-06-11 20:59:28.360,9.024609051363144e-05,-33.72792478469908
2025-06-11 20:59:28.367,6.882017599693858e-05,-31.007517417131066
2025-06-11 20:59:28.375,4.149301859414873e-05,-28.417961889388494
2025-06-11 20:59:28.383,9.35552897228774e-06,-25.966685764688517
2025-06-11 20:59:28.391,-2.639034017265708e-05,-23.66055509087172
2025-06-11 20:59:28.399,-6.447999704205915e-05,-21.50619306504564
2025-06-11 20:59:28.406,-0.0001036335753018,-19.51021142830378
2025-06-11 20:59:28.414,-0.0001426010576319,-17.679352163916644
2025-06-11 20:59:28.422,-0.0001802040897984,-16.020541786477736
2025-06-11 20:59:28.430,-0.0002153735303768,-14.540864949527975
2025-06-11 20:59:28.438,-0.0002471818723263,-13.24746811255921
2025-06-11 20:59:28.445,-0.0002748697514588,-12.14740743055974
2025-06-11 20:59:28.453,-0.0002978658568845,-11.247457695966908
2025-06-11 20:59:28.461,-0.0003157997266073,-10.553900922844129
2025-06-11 20:59:28.469,-0.0003285071685421,-10.072313890639196
2025-06-11 20:59:28.477,-0.0003360283563579,-9.807373570744424
2025-06-11 20:59:28.485,-0.0003385989300395,-9.762697800104757
2025-06-11 20:59:28.492,-0.0003366346134287,-9.940735853202789
2025-06-11 20:59:28.500,-0.0003307099446689,-10.34271976973536
2025-06-11 20:59:28.508,-0.0003215317717865,-10.968682566470456
2025-06-11 20:59:28.516,-0.0003099082681249,-11.81754403026678
2025-06-11 20:59:28.524,-0.0002967143834884,-12.887258974848868
2025-06-11 20:59:28.531,-0.0002828548319793,-14.17501703527398
2025-06-11 20:59:28.539,-0.0002692258931621,-15.677477690881767
2025-06-11 20:59:28.547,-0.0002566774528281,-17.391019657649984
2025-06-11 20:59:28.555,-0.0002459768163496,-19.31198043439219
2025-06-11 20:59:28.563,-0.0002377758551076,-21.43685991057911
2025-06-11 20:59:28.570,-0.0002325829470149,-23.762461738652977
2025-06-11 20:59:28.578,-0.0002307409258622,-26.28594772259908
2025-06-11 20:59:28.586,-0.0002324119008712,-29.00478374580561
2025-06-11 20:59:28.594,-0.0002375694341694,-31.91656061935109
2025-06-11 20:59:28.602,-0.0002459982565119,-35.01867945389452
2025-06-11 20:59:28.610,-0.0002573014983353,-38.30789845348356
2025-06-11 20:59:28.617,-0.0002709152825683,-41.77974606011837
2025-06-11 20:59:28.625,-0.0002861303875756,-45.427813777912085
2025-06-11 20:59:28.633,-0.0003021204654196,-49.24295039313013
2025-06-11 20:59:28.641,-0.0003179759720459,-53.21238729107456
2025-06-11 20:59:28.649,-0.0003327425932204,-57.31883176601373
2025-06-11 20:59:28.656,-0.0003454626344478,-61.53957126139334
2025-06-11 20:59:28.664,-0.0003552176494386,-65.84563604242429
2025-06-11 20:59:28.672,-0.000361170504818,-70.20107062780514
2025-06-11 20:59:28.680,-0.000362605078147,-74.5623651871054
2025-06-11 20:59:28.688,-0.0003589618332264,-78.87809688503343
2025-06-11 20:59:28.695,-0.0003498676131263,-83.0888276887064
2025-06-11 20:59:28.703,-0.0003351581684974,-87.12729933708898
2025-06-11 20:59:28.711,-0.0003148922323647,-90.91895793836508
2025-06-11 20:59:28.719,-0.00028935635958,-94.38283003965098
2025-06-11 20:59:28.727,-0.0002590602171679,-97.43275917604616
2025-06-11 20:59:28.735,-0.0002247224868211,-99.97899720614387
2025-06-11 20:59:28.742,-0.0001872480026435,-101.93012872534432
2025-06-11 20:59:28.750,-0.0001476971873131,-103.19529022963602
2025-06-11 20:59:28.758,-0.0001072492336102,-103.68662929901996
2025-06-11 20:59:28.766,-6.716074457647807e-05,-103.32193372839907
2025-06-11 20:59:28.774,-2.8721646120454223e-05,-102.02734706573314
2025-06-11 20:59:28.781,6.789867642198201e-06,-99.74007616113995
2025-06-11 20:59:28.789,3.815172283569296e-05,-96.41098874057322
2025-06-11 20:59:28.797,6.424016001319628e-05,-92.00699526086828
2025-06-11 20:59:28.805,8.406826338944802e-05,-86.51310984933761
2025-06-11 20:59:28.813,9.6819422125729e-05,-79.9340903274021
2025-06-11 20:59:28.820,0.0001018744700595,-72.2955673459825
2025-06-11 20:59:28.828,9.88315040018858e-05,-63.64458749013983
2025-06-11 20:59:28.836,8.751773446450536e-05,-54.04951455788825
2025-06-11 20:59:28.844,6.799317420382625e-05,-43.599256523703815
2025-06-11 20:59:28.852,4.0546479881537496e-05,-32.40181212827926
2025-06-11 20:59:28.860,5.683720864893454e-06,-20.582159511198764
2025-06-11 20:59:28.867,-3.588885411162859e-05,-8.279538532453275
2025-06-11 20:59:28.875,-8.328686088957939e-05,4.355793036293696
2025-06-11 20:59:28.883,-0.0001354734325468,17.166222976918124
2025-06-11 20:59:28.891,-0.0001912873379194,29.99073880373112
2025-06-11 20:59:28.899,-0.0002494725561592,42.6690266089086
2025-06-11 20:59:28.906,-0.0003087084799914,55.04555818993198
2025-06-11 20:59:28.914,-0.000367640081753,66.9735076304822
2025-06-11 20:59:28.922,-0.0004249074744474,78.31834463062418
2025-06-11 20:59:28.930,-0.0004791743650014,88.96096662192241
2025-06-11 20:59:28.938,-0.0005291549907812,98.80025436223092
2025-06-11 20:59:28.945,-0.000573639283088,107.75496484901645
2025-06-11 20:59:28.953,-0.000611516186453,115.7649089893502
2025-06-11 20:59:28.961,-0.0006417952195633,122.79139714090486
2025-06-11 20:59:28.969,-0.0006636264277722,128.81697095074912
2025-06-11 20:59:28.977,-0.0006763188061645,133.84447262095952
2025-06-11 20:59:28.985,-0.0006793570837127,137.8955309501401
2025-06-11 20:59:28.992,-0.0006724165348591,141.0085658307882
2025-06-11 20:59:29.000,-0.0006553752989943,143.2364284003441
2025-06-11 20:59:29.008,-0.0006283235377747,144.6438022907382
2025-06-11 20:59:29.016,-0.0005915686039433,145.304492380908
2025-06-11 20:59:29.024,-0.0005456352614006,145.29872153166815
2025-06-11 20:59:29.031,-0.0004912600035518,144.71054376132187
2025-06-11 20:59:29.039,-0.0004293787644703,143.625465321335
2025-06-11 20:59:29.047,-0.0003611077827576,142.12834451498463
2025-06-11 20:59:29.055,-0.0002877179389478,140.30161836508842
2025-06-11 20:59:29.063,-0.0002106034027588,138.22388090021505
2025-06-11 20:59:29.070,-0.0001312457870366,135.96881533206778
2025-06-11 20:59:29.078,-5.117516637657061e-05,133.60446201533705
2025-06-11 20:59:29.086,2.807067361461701e-05,131.19278686940498
2025-06-11 20:59:29.094,0.0001049874316029,128.78950169948556
2025-06-11 20:59:29.102,0.0001781446227861,126.44407910892188
2025-06-11 20:59:29.110,0.0002462237419199,124.19990067441516
2025-06-11 20:59:29.117,0.0003080529829187,122.09447767818152
2025-06-11 20:59:29.125,0.0003626373151075,120.1596885580944
2025-06-11 20:59:29.133,0.0004091828007599,118.42198566938512
2025-06-11 20:59:29.141,0.0004471141158579,116.90253505229389
2025-06-11 20:59:29.149,0.0004760843376515,115.61726564250726
2025-06-11 20:59:29.156,0.0004959762499196,114.57681769020076
2025-06-11 20:59:29.164,0.0005068947555476,113.78639308550432
2025-06-11 20:59:29.172,0.0005091505106976,113.24552199051506
2025-06-11 20:59:29.180,0.0005032355535143,112.94777001128898
2025-06-11 20:59:29.188,0.0004897923528089,112.88041766850438
2025-06-11 20:59:29.195,0.0004695782031897,113.02414889062015
2025-06-11 20:59:29.203,0.0004434271770934,113.35278757654726
2025-06-11 20:59:29.211,0.0004122119404953,113.83312103015014
2025-06-11 20:59:29.219,0.0003768077168823,114.42484646733622
2025-06-11 20:59:29.227,0.0003380605713994,115.08067215545658
2025-06-11 20:59:29.235,0.0002967619386907,115.74659844768416
2025-06-11 20:59:29.242,0.000253630867667,116.36239643049872
2025-06-11 20:59:29.250,0.0002093048011091,116.86229351010272
2025-06-11 20:59:29.258,0.0001643389405343,117.17586639065904
2025-06-11 20:59:29.266,0.0001192135055775,117.2291328672731
2025-06-11 20:59:29.274,7.434758648987515e-05,116.94582495787158
2025-06-11 20:59:29.281,3.0117842082092797e-05,116.24881741334691
2025-06-11 20:59:29.289,-1.3120002832161958e-05,115.06167789017472
2025-06-11 20:59:29.297,-5.500907025034026e-05,113.3102984157239
2025-06-11 20:59:29.305,-9.517086538254916e-05,110.9245626444295
2025-06-11 20:59:29.313,-0.0001331884583321,107.84000022844474
2025-06-11 20:59:29.320,-0.0001685949551439,103.99937880609616
2025-06-11 20:59:29.328,-0.0002008683903248,99.35418593919697
2025-06-11 20:59:29.336,-0.000229433587802,93.86595792886123
2025-06-11 20:59:29.344,-0.000253670946106,87.50741969156587
2025-06-11 20:59:29.352,-0.0002729315851945,80.26340935739007
2025-06-11 20:59:29.360,-0.0002865579117959,72.13157217379461
2025-06-11 20:59:29.367,-0.0002939084339307,63.12281950763182
2025-06-11 20:59:29.375,-0.0002943855557355,53.261558829809566
2025-06-11 20:59:29.383,-0.0002874650729164,42.58570818954408
2025-06-11 20:59:29.391,-0.0002727261269042,31.146512959248003
2025-06-11 20:59:29.399,-0.0002498804082253,19.0081834094696
2025-06-11 20:59:29.406,-0.0002187993840868,6.247369459458614
2025-06-11 20:59:29.414,-0.0001795382692682,-7.047515389083564
2025-06-11 20:59:29.422,-0.0001323554090949,-20.77711440364148
2025-06-11 20:59:29.430,-7.772574041395333e-05,-34.83209136282459
2025-06-11 20:59:29.438,-1.6347064068068858e-05,-49.094241679333706
2025-06-11 20:59:29.445,5.086198041184691e-05,-63.43775822800953
2025-06-11 20:59:29.453,0.0001227730743923,-77.73066033237473
2025-06-11 20:59:29.461,0.0001980689487858,-91.83639283275792
2025-06-11 20:59:29.469,0.0002752736135609,-105.6155977533866
2025-06-11 20:59:29.477,0.0003527914722739,-118.92805386201908
2025-06-11 20:59:29.485,0.0004289541582776,-131.63476971486037
2025-06-11 20:59:29.492,0.0005020734054072,-143.60020420818844
2025-06-11 20:59:29.500,0.0005704977837379,-154.69457604036455
2025-06-11 20:59:29.508,0.000632670707544,-164.79621079762876
2025-06-11 20:59:29.516,0.0006871867834382,-173.7938626684474
2025-06-11 20:59:29.524,0.000732843363041,-181.58893814593029
2025-06-11 20:59:29.531,0.0007686841697552,-188.0975425787988
2025-06-11 20:59:29.539,0.0007940321644858,-193.2522681463464
2025-06-11 20:59:29.547,0.0008085094665694,-197.00364475382403
2025-06-11 20:59:29.555,0.0008120431433302,-199.3211842141568
2025-06-11 20:59:29.563,0.0008048568853401,-200.1939631171157
2025-06-11 20:59:29.570,0.0007874497704178,-199.6307104438048
2025-06-11 20:59:29.578,0.0007605642790804,-197.65939090914068
2025-06-11 20:59:29.586,0.0007251463256802,-194.3263021946566
2025-06-11 20:59:29.594,0.0006823002767163,-189.69473124245383
2025-06-11 20:59:29.602,0.0006332418013316,-183.8432390439835
2025-06-11 20:59:29.610,0.000579251057435,-176.8636624181533
2025-06-11 20:59:29.617,0.0005216282719722,-168.85893309941434
2025-06-11 20:59:29.625,0.0004616532951928,-159.9408178054821
2025-06-11 20:59:29.633,0.000400550232487,-150.2276776813968
2025-06-11 20:59:29.641,0.0003394578061733,-139.84233260177325
2025-06-11 20:59:29.649,0.0002794056934317,-128.9100970541758
2025-06-11 20:59:29.656,0.0002212967518312,-117.5570319118103
2025-06-11 20:59:29.664,0.0001658948224998,-105.9084325870818
2025-06-11 20:59:29.672,0.0001138177310128,-94.08755096977497
2025-06-11 20:59:29.680,6.553516524159045e-05,-82.21452808216043
2025-06-11 20:59:29.688,2.1371190040307783e-05,-70.40549808132299
2025-06-11 20:59:29.695,-1.8488861222231608e-05,-58.77181325632266
2025-06-11 20:59:29.703,-5.398753409988948e-05,-47.4193347045448
2025-06-11 20:59:29.711,-8.518107817723733e-05,-36.44773465644496
2025-06-11 20:59:29.719,-0.0001122227679623,-25.94976371494327
2025-06-11 20:59:29.727,-0.0001353445938962,-16.010448916370205
2025-06-11 20:59:29.735,-0.0001548381304305,-6.706205449037391
2025-06-11 20:59:29.742,-0.0001710352710604,1.8961353052700565
2025-06-11 20:59:29.750,-0.0001842894304369,9.740357670441089
2025-06-11 20:59:29.758,-0.0001949577680108,16.781909311343366
2025-06-11 20:59:29.766,-0.0002033849566667,22.988902466045765
2025-06-11 20:59:29.774,-0.0002098889761584,28.342993133160107
2025-06-11 20:59:29.781,-0.0002147493469443,32.84005521715909
2025-06-11 20:59:29.789,-0.0002181981373594,36.490566720221146
2025-06-11 20:59:29.797,-0.0002204139799266,39.3196331605999
2025-06-11 20:59:29.805,-0.0002215192250824,41.36658910401323
2025-06-11 20:59:29.813,-0.0002215802468346,42.68414069394216
2025-06-11 20:59:29.820,-0.0002206107989995,43.33703837028335
2025-06-11 20:59:29.828,-0.0002185782067476,43.40029726296888
2025-06-11 20:59:29.836,-0.000215412070123,42.9570107018018
2025-06-11 20:59:29.844,-0.0002110150577712,42.09582775440517
2025-06-11 20:59:29.852,-0.0002052752838045,40.9081869015368
2025-06-11 20:59:29.860,-0.0001980796918475,39.48541354740681
2025-06-11 20:59:29.867,-0.0001893278207495,37.91579820908599
2025-06-11 20:59:29.875,-0.0001789452988109,36.28177460944247
2025-06-11 20:59:29.883,-0.0001668964097673,34.657312670497454
2025-06-11 20:59:29.891,-0.0001531950958316,33.10563115480374
2025-06-11 20:59:29.899,-0.0001379138118594,31.67731936566649
2025-06-11 20:59:29.906,-0.0001211897205688,30.4089380771805
2025-06-11 20:59:29.914,-0.0001032278213672,29.322148051317463
2025-06-11 20:59:29.922,-8.430073358162793e-05,28.423391482039307
2025-06-11 20:59:29.930,-6.474500512268329e-05,27.70412880371045
2025-06-11 20:59:29.938,-4.495397723189069e-05,27.1416117002524
2025-06-11 20:59:29.945,-2.5367380508056527e-05,26.70015384587451
2025-06-11 20:59:29.953,-6.4579509009234176e-06,26.33284464849357
2025-06-11 20:59:29.961,1.1284542575605967e-05,25.983638527777646
2025-06-11 20:59:29.969,2.737133072405876e-05,25.58974322197297
2025-06-11 20:59:29.977,4.1334024158239687e-05,25.08422516882604
2025-06-11 20:59:29.985,5.274442251655862e-05,24.398747768990148
2025-06-11 20:59:29.992,6.123367403927761e-05,23.466358741094865
2025-06-11 20:59:30.000,6.650965207608426e-05,22.22424514824781
2025-06-11 20:59:30.008,6.837149570039402e-05,20.61637837607413
2025-06-11 20:59:30.016,6.672045469137788e-05,18.595975874146152
2025-06-11 20:59:30.024,6.156643565816765e-05,16.127711561541837
2025-06-11 20:59:30.031,5.302992819020349e-05,13.18961242573767
2025-06-11 20:59:30.039,4.133928041744769e-05,9.774585222417722
2025-06-11 20:59:30.047,2.6823583106144235e-05,5.891524660625128
2025-06-11 20:59:30.055,9.901693154377634e-06,1.5659633919930558
2025-06-11 20:59:30.063,-8.931856834758464e-06,-3.1597652405250254
2025-06-11 20:59:30.070,-2.9123205537565838e-05,-8.226868352716048
2025-06-11 20:59:30.078,-5.0076926488812176e-05,-13.560941269758764
2025-06-11 20:59:30.086,-7.117448534466339e-05,-19.0733094432072
2025-06-11 20:59:30.094,-9.179282222517222e-05,-24.66283634621967
2025-06-11 20:59:30.102,-0.000111322620728,-30.21815347172505
2025-06-11 20:59:30.110,-0.0001291859009898,-35.62025369613661
2025-06-11 20:59:30.117,-0.0001448526137135,-40.74537601971032
2025-06-11 20:59:30.125,-0.0001578559601073,-45.46809881057773
2025-06-11 20:59:30.133,-0.000167806241518,-49.66455081391916
2025-06-11 20:59:30.141,-0.0001744031365115,-53.21564478432701
2025-06-11 20:59:30.149,-0.0001774463786337,-56.010237790994886
2025-06-11 20:59:30.156,-0.0001768448228658,-57.94812481759739
2025-06-11 20:59:30.164,-0.0001726237985415,-58.94277779670068
2025-06-11 20:59:30.172,-0.0001649304373695,-58.92375029904571
2025-06-11 20:59:30.180,-0.0001540363835954,-57.83867861368386
2025-06-11 20:59:30.188,-0.0001403370343404,-55.65482298647187
2025-06-11 20:59:30.195,-0.0001243463260424,-52.36010840169602
2025-06-11 20:59:30.203,-0.0001066861545376,-47.96364234788387
2025-06-11 20:59:30.211,-8.806981682177146e-05,-42.495706992056775
2025-06-11 20:59:30.219,-6.927935286454936e-05,-36.00724409249724
2025-06-11 20:59:30.227,-5.113725381705463e-05,-28.568871252650567
2025-06-11 20:59:30.235,-3.447358874386516e-05,-20.26948576846165
2025-06-11 20:59:30.242,-2.009012082346885e-05,-11.214525276862576
2025-06-11 20:59:30.250,-8.723393528075663e-06,-1.5239610267447323
2025-06-11 20:59:30.258,-1.0090069967201874e-06,8.669900889383081
2025-06-11 20:59:30.266,2.550702151168404e-06,19.22474219159808
2025-06-11 20:59:30.274,1.6136527149276822e-06,29.990623172580413
2025-06-11 20:59:30.281,-3.981736477230634e-06,40.812400921098735
2025-06-11 20:59:30.289,-1.4203894012987558e-05,51.53214940574578
2025-06-11 20:59:30.297,-2.882338806938844e-05,61.99156788052894
2025-06-11 20:59:30.305,-4.741618422682622e-05,72.03437085591658
2025-06-11 20:59:30.313,-6.937471179123292e-05,81.50865312974703
2025-06-11 20:59:30.321,-9.3926490759255e-05,90.2692172582354
2025-06-11 20:59:30.328,-0.0001201599741326,98.17983999832492
2025-06-11 20:59:30.336,-0.0001470570726795,105.11544142558844
2025-06-11 20:59:30.344,-0.0001735315178088,110.96410886688518
2025-06-11 20:59:30.352,-0.0001984718121367,115.62892048310596
2025-06-11 20:59:30.360,-0.000220787084947,119.02951244189236
2025-06-11 20:59:30.367,-0.0002394537902007,121.1033400075074
2025-06-11 20:59:30.375,-0.000253560930452,121.80659598275206
2025-06-11 20:59:30.383,-0.0002623514077529,121.11476792787742
2025-06-11 20:59:30.391,-0.0002652572085368,119.02283574699976
2025-06-11 20:59:30.399,-0.0002619264230894,115.54513050806784
2025-06-11 20:59:30.406,-0.0002522405577719,110.71489090702607
2025-06-11 20:59:30.414,-0.0002363211554028,104.58356357268688
2025-06-11 20:59:30.422,-0.0002145253244036,97.2198965628118
2025-06-11 20:59:30.430,-0.0001874303672546,88.70887214441332
2025-06-11 20:59:30.438,-0.000155808304577,79.15051629847302
2025-06-11 20:59:30.446,-0.0001205916872133,68.65860986466252
2025-06-11 20:59:30.453,-8.283259385205253e-05,57.359311667216254
2025-06-11 20:59:30.461,-4.365704879708596e-05,45.38968928518124
2025-06-11 20:59:30.469,-4.217248047576604e-06,32.896140250410575
2025-06-11 20:59:30.477,3.4356002960599506e-05,20.03267706525569
2025-06-11 20:59:30.485,7.099829518285116e-05,6.959044852796666
2025-06-11 20:59:30.492,0.0001047518170375,-6.161358481469766
2025-06-11 20:59:30.500,0.0001347986715434,-19.163782711368043
2025-06-11 20:59:30.508,0.0001604855616941,-31.884656882621474
2025-06-11 20:59:30.516,0.000181338632674,-44.16434504487541
2025-06-11 20:59:30.524,0.0001970679465316,-55.85009793430293
2025-06-11 20:59:30.531,0.0002075618368808,-66.79914901254041
2025-06-11 20:59:30.539,0.0002128722205286,-76.8818793901046
2025-06-11 20:59:30.547,0.0002131927609965,-85.9849537239353
2025-06-11 20:59:30.555,0.0002088324407035,-94.01431018944557
2025-06-11 20:59:30.563,0.0002001874545679,-100.8978740835882
2025-06-11 20:59:30.571,0.0001877142962068,-106.58785829417388
2025-06-11 20:59:30.578,0.0001719064576786,-111.06251602969851
2025-06-11 20:59:30.586,0.0001532763845247,-114.32722231984792
2025-06-11 20:59:30.594,0.0001323433677113,-116.41478051000036
2025-06-11 20:59:30.602,0.0001096270847186,-117.38487724222716
2025-06-11 20:59:30.610,8.564568664491338e-05,-117.32264273421072
2025-06-11 20:59:30.617,6.091679106152324e-05,-116.33631072874748
2025-06-11 20:59:30.625,3.59595362728157e-05,-114.55401228851817
2025-06-11 20:59:30.633,1.1295965145059362e-05,-112.11977754879022
2025-06-11 20:59:30.641,-1.2549634983046812e-05,-109.1888575070488
2025-06-11 20:59:30.649,-3.505431807664841e-05,-105.92251192689292
2025-06-11 20:59:30.656,-5.57033698320207e-05,-102.48243769751318
2025-06-11 20:59:30.664,-7.400044330979944e-05,-99.02503308984748
2025-06-11 20:59:30.672,-8.948051115014899e-05,-95.69570627139336
2025-06-11 20:59:30.680,-0.000101724877451,-92.62344062640064
2025-06-11 20:59:30.688,-0.0001103771968277,-89.9158247798108
2025-06-11 20:59:30.696,-0.0001151592190311,-87.65474207043366
2025-06-11 20:59:30.703,-0.0001158848712428,-85.89289325389474
2025-06-11 20:59:30.711,-0.0001124713464685,-84.65129842228633
2025-06-11 20:59:30.719,-0.0001049460855028,-83.91789070695619
2025-06-11 20:59:30.727,-9.344888557164064e-05,-83.64727663218545
2025-06-11 20:59:30.735,-7.822877782332514e-05,-83.76169743201713
2025-06-11 20:59:30.742,-5.9635721559185e-05,-84.15318364930292
2025-06-11 20:59:30.750,-3.810752991725359e-05,-84.68685326115842
2025-06-11 20:59:30.758,-1.4152763155597858e-05,-85.20526268232956
2025-06-11 20:59:30.766,1.1669416412733794e-05,-85.53368146737475
2025-06-11 20:59:30.774,3.877128009240981e-05,-85.48612649342671
2025-06-11 20:59:30.781,6.655928472445042e-05,-84.87196097522889
2025-06-11 20:59:30.789,9.445644192020574e-05,-83.50283897269843
2025-06-11 20:59:30.797,0.0001219233324739,-81.19975822877173
2025-06-11 20:59:30.805,0.0001484769333794,-77.7999742940952
2025-06-11 20:59:30.813,0.0001737065603109,-73.16352786690165
2025-06-11 20:59:30.821,0.0001972863537503,-67.17914572140856
2025-06-11 20:59:30.828,0.0002189838490623,-59.76929371027359
2025-06-11 20:59:30.836,0.0002386642679477,-50.89418777004028
2025-06-11 20:59:30.844,0.0002562902502725,-40.55460473085795
2025-06-11 20:59:30.852,0.000271916813483,-28.79337760884555
2025-06-11 20:59:30.860,0.0002856813961748,-15.695508106707193
2025-06-11 20:59:30.867,0.0002977889585094,-1.3868801837039826
2025-06-11 20:59:30.875,0.0003084923514625,13.968389349281804
2025-06-11 20:59:30.883,0.0003180685796691,30.171876190128497
