Timestamp,GSR_Filtered,PPG_Filtered,FMS,Condition
2025-06-11 21:18:42.167,-2.0744188212038548e-05,19.870928056114355,1,DB
2025-06-11 21:18:42.175,-3.759802589745644e-05,21.366039038240224,1,DB
2025-06-11 21:18:42.183,-5.457429010488252e-05,22.67861022333516,1,DB
2025-06-11 21:18:42.191,-7.135878503795045e-05,23.791276096004047,1,DB
2025-06-11 21:18:42.199,-8.76350870496124e-05,24.690150042354336,1,DB
2025-06-11 21:18:42.206,-0.0001030912542337,25.365225792898496,1,DB
2025-06-11 21:18:42.214,-0.0001174268682241,25.8106563710197,1,DB
2025-06-11 21:18:42.222,-0.0001303602922844,26.02490185585795,1,DB
2025-06-11 21:18:42.230,-0.0001416360348799,26.01074271873508,1,DB
2025-06-11 21:18:42.238,-0.0001510320658397,25.775160847759278,1,DB
2025-06-11 21:18:42.245,-0.0001583668243817,25.32909539745805,1,DB
2025-06-11 21:18:42.253,-0.0001635055471043,24.68708509006608,1,DB
2025-06-11 21:18:42.261,-0.0001663655022171,23.866812404302355,1,DB
2025-06-11 21:18:42.269,-0.0001669197572305,22.88856812195444,1,DB
2025-06-11 21:18:42.277,-0.0001651991976501,21.77465691399776,1,DB
2025-06-11 21:18:42.285,-0.0001612926221771,20.548766020204933,1,DB
2025-06-11 21:18:42.292,-0.0001553448511193,19.235319615487832,1,DB
2025-06-11 21:18:42.300,-0.0001475528864534,17.858841188263927,1,DB
2025-06-11 21:18:42.308,-0.0001381602321526,16.443345226379293,1,DB
2025-06-11 21:18:42.316,-0.000127449509231,15.01177777787917,1,DB
2025-06-11 21:18:42.324,-0.0001157335060335,13.585523103889932,1,DB
2025-06-11 21:18:42.331,-0.0001033448384993,12.18399075526516,1,DB
2025-06-11 21:18:42.339,-9.062448116564176e-05,10.824294077092208,1,DB
2025-06-11 21:18:42.347,-7.790955309564967e-05,9.521027475002562,1,DB
2025-06-11 21:18:42.355,-6.552087758514947e-05,8.286145869424123,1,DB
2025-06-11 21:18:42.363,-5.375095495145653e-05,7.128945732906329,1,DB
2025-06-11 21:18:42.370,-4.285305544197232e-05,6.056143081492604,1,DB
2025-06-11 21:18:42.378,-3.303210752168764e-05,5.0720399227934845,1,DB
2025-06-11 21:18:42.386,-2.4437912892395727e-05,4.178767116477826,1,DB
2025-06-11 21:18:42.394,-1.7161011680139366e-05,3.376588551657315,1,DB
2025-06-11 21:18:42.402,-1.123131570714593e-05,2.664249161158815,1,DB
2025-06-11 21:18:42.410,-6.619451575367129e-06,2.039347727445227,1,DB
2025-06-11 21:18:42.417,-3.240609607685295e-06,1.4987148048874663,1,DB
2025-06-11 21:18:42.425,-9.605972999910732e-07,1.038776449620751,1,DB
2025-06-11 21:18:42.433,3.962388612986761e-07,0.6558858057010616,1,DB
2025-06-11 21:18:42.441,1.0375585788455222e-06,0.3466068700291245,1,DB
2025-06-11 21:18:42.449,1.1923849716561408e-06,0.1079378143545073,1,DB
2025-06-11 21:18:42.456,1.0996616309373404e-06,-0.0625350968908828,1,DB
2025-06-11 21:18:42.464,9.964630752080394e-07,-0.1665578955283004,1,DB
2025-06-11 21:18:42.472,1.1063767127629657e-06,-0.2052042766101254,1,DB
2025-06-11 21:18:42.480,1.6286227362527244e-06,-0.1789424451604767,1,DB
2025-06-11 21:18:42.488,2.728498898522734e-06,-0.0877660646908361,1,DB
2025-06-11 21:18:42.495,4.529696112618496e-06,0.06862145648372,1,DB
2025-06-11 21:18:42.503,7.108893234902185e-06,0.2905828326218357,1,DB
2025-06-11 21:18:42.511,1.0492822331492802e-05,0.5782983644992179,1,DB
2025-06-11 21:18:42.519,1.465777274628638e-05,0.9315095481282588,1,DB
2025-06-11 21:18:42.527,1.953134696056894e-05,1.3492716103524194,1,DB
2025-06-11 21:18:42.535,2.499621074577102e-05,1.8297311299577537,1,DB
2025-06-11 21:18:42.542,3.089556120123744e-05,2.3699434695180965,1,DB
2025-06-11 21:18:42.550,3.704004353021664e-05,2.965742575050846,1,DB
2025-06-11 21:18:42.558,4.321588060821151e-05,3.611672899014114,1,DB
2025-06-11 21:18:42.566,4.919401477073346e-05,4.3009898950558405,1,DB
2025-06-11 21:18:42.574,5.474003783029292e-05,5.025731873529111,1,DB
2025-06-11 21:18:42.581,5.962457080569535e-05,5.776862169408522,1,DB
2025-06-11 21:18:42.589,6.363359887189768e-05,6.544476746409631,1,DB
2025-06-11 21:18:42.597,6.65781652144159e-05,7.318068733899509,1,DB
2025-06-11 21:18:42.605,6.830283958012405e-05,8.086838152161633,1,DB
2025-06-11 21:18:42.613,6.869249246964114e-05,8.840032398039309,1,DB
2025-06-11 21:18:42.620,6.767707710590851e-05,9.567301082025004,1,DB
2025-06-11 21:18:42.628,6.523430946121065e-05,10.259047635266295,1,DB
2025-06-11 21:18:42.636,6.139031527573882e-05,10.906759800894392,1,DB
2025-06-11 21:18:42.644,5.621845298719171e-05,11.503301706231351,1,DB
2025-06-11 21:18:42.652,4.983659520888679e-05,12.043151661426178,1,DB
2025-06-11 21:18:42.660,4.240315003978419e-05,12.522572091186117,1,DB
2025-06-11 21:18:42.667,3.4112040581507496e-05,12.939700989784734,1,DB
2025-06-11 21:18:42.675,2.5186771833911267e-05,13.294557873192057,1,DB
2025-06-11 21:18:42.683,1.58736493511221e-05,13.58896123465576,1,DB
2025-06-11 21:18:42.691,6.434203679386612e-06,13.82635881483141,1,DB
2025-06-11 21:18:42.699,-2.8630927077853788e-06,14.011576378864811,1,DB
2025-06-11 21:18:42.706,-1.1751668457710322e-05,14.15049494301932,1,DB
2025-06-11 21:18:42.714,-1.9976016762348667e-05,14.249670299729546,1,DB
2025-06-11 21:18:42.722,-2.7300830813876395e-05,14.315912042046545,1,DB
2025-06-11 21:18:42.730,-3.351968085822887e-05,14.355841889642516,1,DB
2025-06-11 21:18:42.738,-3.8462779871414624e-05,14.375452800550011,1,DB
2025-06-11 21:18:42.745,-4.200342361546087e-05,14.379690991122148,1,DB
2025-06-11 21:18:42.753,-4.406277106454967e-05,14.372082512969278,1,DB
2025-06-11 21:18:42.761,-4.461272865979296e-05,14.354424444868428,1,DB
2025-06-11 21:18:42.769,-4.36768114391842e-05,14.3265581106485,1,DB
2025-06-11 21:18:42.777,-4.132898507100507e-05,14.28623815510866,1,DB
2025-06-11 21:18:42.785,-3.769062449753608e-05,14.229106979263456,1,DB
2025-06-11 21:18:42.792,-3.292580569072339e-05,14.14877917676904,1,DB
2025-06-11 21:18:42.800,-2.7235163049837764e-05,14.037035474021636,1,DB
2025-06-11 21:18:42.808,-2.084854489230551e-05,13.884120511906572,1,DB
2025-06-11 21:18:42.816,-1.4016720993072395e-05,13.679133861375488,1,DB
2025-06-11 21:18:42.824,-7.00241400797267e-06,13.410499159888404,1,DB
2025-06-11 21:18:42.831,-7.090736941392925e-08,13.066492385450816,1,DB
2025-06-11 21:18:42.839,6.519556111273483e-06,12.635807213229178,1,DB
2025-06-11 21:18:42.847,1.2527382096700965e-05,12.10813325923642,1,DB
2025-06-11 21:18:42.855,1.773699061730004e-05,11.474721908000127,1,DB
2025-06-11 21:18:42.863,2.1967590911622275e-05,10.728914414505743,1,DB
2025-06-11 21:18:42.870,2.5080905408658197e-05,9.866608091917511,1,DB
2025-06-11 21:18:42.878,2.6987335823101245e-05,8.886638621110874,1,DB
2025-06-11 21:18:42.886,2.765011950881366e-05,7.791059763891183,1,DB
2025-06-11 21:18:42.894,2.708714716174205e-05,6.585305891965657,1,DB
2025-06-11 21:18:42.902,2.5370243968872488e-05,5.278227575314222,1,DB
2025-06-11 21:18:42.910,2.2621842737199624e-05,3.8819957878996423,1,DB
2025-06-11 21:18:42.917,1.900912937407308e-05,2.411875841707557,1,DB
2025-06-11 21:18:42.925,1.4735926182557272e-05,0.8858776952861812,1,DB
2025-06-11 21:18:42.933,1.0032756067453282e-05,-0.6757054531680424,1,DB
2025-06-11 21:18:42.941,5.145650494441692e-06,-2.2508536193227204,1,DB
2025-06-11 21:18:42.949,3.243050341947034e-07,-3.816450812999552,1,DB
2025-06-11 21:18:42.956,-4.189842025568533e-06,-5.348966250668297,1,DB
2025-06-11 21:18:42.964,-8.175095795253908e-06,-6.825159939969272,1,DB
2025-06-11 21:18:42.972,-1.144008523791061e-05,-8.222785511837095,1,DB
2025-06-11 21:18:42.980,-1.3832950798452726e-05,-9.521263257093404,1,DB
2025-06-11 21:18:42.988,-1.5248610639308628e-05,-10.702297546196048,1,DB
2025-06-11 21:18:42.995,-1.5633595075249982e-05,-11.750415124398362,1,DB
2025-06-11 21:18:43.003,-1.4988069547896882e-05,-12.653404091881566,1,DB
2025-06-11 21:18:43.011,-1.3364885611308911e-05,-13.402637572257564,1,DB
2025-06-11 21:18:43.019,-1.0865735593808298e-05,-13.993270975731004,1,DB
2025-06-11 21:18:43.027,-7.634685870967893e-06,-14.42430716774437,1,DB
2025-06-11 21:18:43.035,-3.8495222396217095e-06,-14.698529514989326,1,DB
2025-06-11 21:18:43.042,2.8852413766542005e-07,-14.822308422281797,1,DB
2025-06-11 21:18:43.050,4.565995355811557e-06,-14.805292302634353,1,DB
2025-06-11 21:18:43.058,8.768642746703397e-06,-14.65999864780274,1,DB
2025-06-11 21:18:43.066,1.2692376912848115e-05,-14.401324723407637,1,DB
2025-06-11 21:18:43.074,1.615313543604533e-05,-14.046000190656354,1,DB
2025-06-11 21:18:43.081,1.899523983235361e-05,-13.612005520046951,1,DB
2025-06-11 21:18:43.089,2.1097990769094488e-05,-13.117980362392585,1,DB
2025-06-11 21:18:43.097,2.2380394131161656e-05,-12.582645118768223,1,DB
2025-06-11 21:18:43.105,2.280401751706519e-05,-12.024256925132947,1,DB
2025-06-11 21:18:43.113,2.2374057486059115e-05,-11.460118328112602,1,DB
2025-06-11 21:18:43.120,2.1138737837409134e-05,-10.906153308981336,1,DB
2025-06-11 21:18:43.128,1.9187145502613743e-05,-10.376561264129936,1,DB
2025-06-11 21:18:43.136,1.664556988121411e-05,-9.883555317109524,1,DB
2025-06-11 21:18:43.144,1.3672382653993804e-05,-9.437187143912444,1,DB
2025-06-11 21:18:43.152,1.0451490707733586e-05,-9.045256536521633,1,DB
2025-06-11 21:18:43.160,7.184414800503482e-06,-8.713300377790269,1,DB
2025-06-11 21:18:43.167,4.081104513459456e-06,-8.444652692630454,1,DB
2025-06-11 21:18:43.175,1.3497061013940876e-06,-8.240565087649285,1,DB
2025-06-11 21:18:43.183,-8.143703461924512e-07,-8.10037527678115,1,DB
2025-06-11 21:18:43.191,-2.2396247683658134e-06,-8.02171056689143,1,DB
2025-06-11 21:18:43.199,-2.7893315050830443e-06,-8.000713162017242,1,DB
2025-06-11 21:18:43.206,-2.3714546121170457e-06,-8.032274909356833,1,DB
2025-06-11 21:18:43.214,-9.469028658977498e-07,-8.110270570495558,1,DB
2025-06-11 21:18:43.222,1.4645802177839373e-06,-8.227780719181965,1,DB
2025-06-11 21:18:43.230,4.781475645200873e-06,-8.377297761657736,1,DB
2025-06-11 21:18:43.238,8.860884377253777e-06,-8.550911141318576,1,DB
2025-06-11 21:18:43.245,1.350243364362272e-05,-8.740470310798472,1,DB
2025-06-11 21:18:43.253,1.8455659001120653e-05,-8.937726321832814,1,DB
2025-06-11 21:18:43.261,2.343060070277394e-05,-9.13445471192728,1,DB
2025-06-11 21:18:43.269,2.8111118216348934e-05,-9.322563617491936,1,DB
2025-06-11 21:18:43.277,3.217022637565065e-05,-9.494191636990571,1,DB
2025-06-11 21:18:43.285,3.5286617967172816e-05,-9.641799896135128,1,DB
2025-06-11 21:18:43.292,3.716145352939043e-05,-9.7582620937516,1,DB
2025-06-11 21:18:43.300,3.753446132248911e-05,-9.836955158697116,1,DB
2025-06-11 21:18:43.308,3.619841370947866e-05,-9.871851694363434,1,DB
2025-06-11 21:18:43.316,3.301115198590143e-05,-9.857613811906177,1,DB
2025-06-11 21:18:43.324,2.790451778034231e-05,-9.789686432732264,1,DB
2025-06-11 21:18:43.331,2.088978640243154e-05,-9.664386831096095,1,DB
2025-06-11 21:18:43.339,1.2059445563181962e-05,-9.478986217796871,1,DB
2025-06-11 21:18:43.347,1.5853747787554273e-06,-9.231778629856333,1,DB
2025-06-11 21:18:43.355,-1.0286383987528885e-05,-8.922132339689343,1,DB
2025-06-11 21:18:43.363,-2.324400723234607e-05,-8.550519434851118,1,DB
2025-06-11 21:18:43.370,-3.692109958964923e-05,-8.118520104226814,1,DB
2025-06-11 21:18:43.378,-5.0910287543996845e-05,-7.628799414801717,1,DB
2025-06-11 21:18:43.386,-6.477859730469267e-05,-7.085055857172006,1,DB
2025-06-11 21:18:43.394,-7.808390246411596e-05,-6.491942539532596,1,DB
2025-06-11 21:18:43.402,-9.039168868628226e-05,-5.854963476980393,1,DB
2025-06-11 21:18:43.410,-0.0001012913967326,-5.180348824984726,1,DB
2025-06-11 21:18:43.417,-0.0001104116498999,-4.474914035163147,1,DB
2025-06-11 21:18:43.425,-0.0001174337577676,-3.745908690900953,1,DB
2025-06-11 21:18:43.433,-0.0001221030147532,-3.0008611665871614,1,DB
2025-06-11 21:18:43.441,-0.0001242374407685,-2.2474252375856856,1,DB
2025-06-11 21:18:43.449,-0.0001237337058012,-1.4932343698103543,1,DB
2025-06-11 21:18:43.456,-0.000120570053049,-0.745768686312325,1,DB
2025-06-11 21:18:43.464,-0.0001148061309509,-0.012238613568759,1,DB
2025-06-11 21:18:43.472,-0.0001065797843226,0.7005119619866825,1,DB
2025-06-11 21:18:43.480,-9.610101452524684e-05,1.3860814495903184,1,DB
2025-06-11 21:18:43.488,-8.36434519481092e-05,2.038564878878515,1,DB
2025-06-11 21:18:43.495,-6.953375710278017e-05,2.6525875790255005,1,DB
2025-06-11 21:18:43.503,-5.4139379936973936e-05,3.223319957628922,1,DB
2025-06-11 21:18:43.511,-3.785509572431484e-05,3.746475886453368,1,DB
2025-06-11 21:18:43.519,-2.108874868391043e-05,4.218297762811497,1,DB
2025-06-11 21:18:43.527,-4.246703852975351e-06,4.635531692050339,1,DB
2025-06-11 21:18:43.535,1.2280377287028457e-05,4.995396447827838,1,DB
2025-06-11 21:18:43.542,2.8130720277347135e-05,5.295549926913301,1,DB
2025-06-11 21:18:43.550,4.298284687329362e-05,5.534056729215,1,DB
2025-06-11 21:18:43.558,5.656457951307585e-05,5.709360259423086,1,DB
2025-06-11 21:18:43.566,6.865920872730369e-05,5.820262359393358,1,DB
2025-06-11 21:18:43.574,7.910863298467961e-05,5.865912936693729,1,DB
2025-06-11 21:18:43.581,8.781352471063725e-05,5.845811353492275,1,DB
2025-06-11 21:18:43.589,9.47307948056715e-05,5.75982048461168,1,DB
2025-06-11 21:18:43.597,9.986879242939292e-05,5.608193359162408,1,DB
2025-06-11 21:18:43.605,0.0001032807705052,5.391611203730282,1,DB
2025-06-11 21:18:43.613,0.0001050571905316,5.111230571583482,1,DB
2025-06-11 21:18:43.620,0.0001053174694226,4.768736160557185,1,DB
2025-06-11 21:18:43.628,0.0001042017872596,4.366394992117801,1,DB
2025-06-11 21:18:43.636,0.0001018635417633,3.907106941057816,1,DB
2025-06-11 21:18:43.644,9.846292638914788e-05,3.394446247338929,1,DB
2025-06-11 21:18:43.652,9.41619310845136e-05,2.8326886624923544,1,DB
2025-06-11 21:18:43.660,8.912085641802096e-05,2.2268193104299736,1,DB
2025-06-11 21:18:43.667,8.34962551655335e-05,1.5825171783363483,1,DB
2025-06-11 21:18:43.675,7.744011497062799e-05,0.9061133722222868,1,DB
2025-06-11 21:18:43.683,7.110005256131547e-05,0.2045218171000541,1,DB
2025-06-11 21:18:43.691,6.462024730577163e-05,-0.5148571401132654,1,DB
2025-06-11 21:18:43.699,5.814277197614101e-05,-1.244257887926062,1,DB
2025-06-11 21:18:43.706,5.180890533201247e-05,-1.9756913127744944,1,DB
2025-06-11 21:18:43.714,4.575998138221375e-05,-2.701101427421746,1,DB
2025-06-11 21:18:43.722,4.013737779364622e-05,-3.412529935650181,1,DB
2025-06-11 21:18:43.730,3.5081369285923535e-05,-4.102281131883195,1,DB
2025-06-11 21:18:43.738,3.0728733951288364e-05,-4.763079455065234,1,DB
2025-06-11 21:18:43.745,2.7209151357212293e-05,-5.388212544527338,1,DB
2025-06-11 21:18:43.753,2.4640542639378748e-05,-5.971653735632198,1,DB
2025-06-11 21:18:43.761,2.312358989549431e-05,-6.508159479565572,1,DB
2025-06-11 21:18:43.769,2.2735767384935746e-05,-6.993339019385823,1,DB
2025-06-11 21:18:43.777,2.352531795542769e-05,-7.423695614986872,1,DB
2025-06-11 21:18:43.785,2.550568259645924e-05,-7.796640485577951,1,DB
2025-06-11 21:18:43.792,2.8650925484563004e-05,-8.110482248548927,1,DB
2025-06-11 21:18:43.800,3.2892691991228366e-05,-8.364395834200206,1,DB
2025-06-11 21:18:43.808,3.8119167103497664e-05,-8.558375556353198,1,DB
2025-06-11 21:18:43.816,4.417633332069023e-05,-8.693177195889184,1,DB
2025-06-11 21:18:43.824,5.087157791982025e-05,-8.77025365674236,1,DB
2025-06-11 21:18:43.831,5.797944548803365e-05,-8.791688094327705,1,DB
2025-06-11 21:18:43.839,6.524915552150289e-05,-8.76012754759079,1,DB
2025-06-11 21:18:43.847,7.241343614530229e-05,-8.67871918800269,1,DB
2025-06-11 21:18:43.855,7.91982225206587e-05,-8.551050466916871,1,DB
2025-06-11 21:18:43.863,8.533277272530994e-05,-8.381093784985428,1,DB
2025-06-11 21:18:43.870,9.05597542419952e-05,-8.173155857905238,1,DB
2025-06-11 21:18:43.878,9.464488299865963e-05,-7.931831695467934,1,DB
2025-06-11 21:18:43.886,9.73857647304118e-05,-7.661962991574629,1,DB
2025-06-11 21:18:43.894,9.861965924078249e-05,-7.368600667577921,1,DB
2025-06-11 21:18:43.902,9.822992619485924e-05,-7.056971244884262,1,DB
2025-06-11 21:18:43.910,9.615092782695476e-05,-6.732446583031472,1,DB
2025-06-11 21:18:43.917,9.23711947573451e-05,-6.400516266542767,1,DB
2025-06-11 21:18:43.925,8.69347085531315e-05,-6.066761547021249,1,DB
2025-06-11 21:18:43.933,7.99401932205445e-05,-5.736829269773396,1,DB
2025-06-11 21:18:43.941,7.153834008975743e-05,-5.416403694137684,1,DB
2025-06-11 21:18:43.949,6.192695198861595e-05,-5.111173635432726,1,DB
2025-06-11 21:18:43.956,5.134409472596641e-05,-4.8267920047309865,1,DB
2025-06-11 21:18:43.964,4.0059451036871904e-05,-4.568824684016802,1,DB
2025-06-11 21:18:43.972,2.836414822580144e-05,-4.342685811693736,1,DB
2025-06-11 21:18:43.980,1.6559387827048744e-05,-4.15355700249707,1,DB
2025-06-11 21:18:43.988,4.944285392551895e-06,-4.006288795982197,1,DB
2025-06-11 21:18:43.995,-6.1965578597181465e-06,-3.90528370497792,1,DB
2025-06-11 21:18:44.003,-1.66051218260673e-05,-3.854361581373389,1,DB
2025-06-11 21:18:44.011,-2.606099025083146e-05,-3.856609566569476,1,DB
2025-06-11 21:18:44.019,-3.439067136210821e-05,-3.914220560470545,1,DB
2025-06-11 21:18:44.027,-4.14746616138442e-05,-4.028325824716693,1,DB
2025-06-11 21:18:44.035,-4.725187566116311e-05,-4.198828925237001,1,DB
2025-06-11 21:18:44.042,-5.172129213329718e-05,-4.424249605344328,1,DB
2025-06-11 21:18:44.050,-5.494087786315633e-05,-4.7015872505883465,1,DB
2025-06-11 21:18:44.058,-5.702398860564574e-05,-5.02621424782818,1,DB
2025-06-11 21:18:44.066,-5.8133489445792544e-05,-5.391809648087032,1,DB
2025-06-11 21:18:44.074,-5.847383934784005e-05,-5.790343028643356,1,DB
2025-06-11 21:18:44.081,-5.828139923919319e-05,-6.212117258062018,1,DB
2025-06-11 21:18:44.089,-5.781328410299105e-05,-6.645876982967153,1,DB
2025-06-11 21:18:44.097,-5.733518619124347e-05,-7.078987108375702,1,DB
2025-06-11 21:18:44.105,-5.710870689354664e-05,-7.497682412689917,1,DB
2025-06-11 21:18:44.113,-5.737878713176126e-05,-7.887385848440256,1,DB
2025-06-11 21:18:44.120,-5.836180421299623e-05,-8.233089199996204,1,DB
2025-06-11 21:18:44.128,-6.023485647548161e-05,-8.51978580951992,1,DB
2025-06-11 21:18:44.136,-6.312673098105069e-05,-8.73294128108438,1,DB
2025-06-11 21:18:44.144,-6.711102927619107e-05,-8.858984682436544,1,DB
2025-06-11 21:18:44.152,-7.220186722800288e-05,-8.885800036954791,1,DB
2025-06-11 21:18:44.160,-7.835243826323188e-05,-8.803196075918308,1,DB
2025-06-11 21:18:44.167,-8.545653773940298e-05,-8.603331517874077,1,DB
2025-06-11 21:18:44.175,-9.33529337809934e-05,-8.281073725666543,1,DB
2025-06-11 21:18:44.183,-0.000101832302738,-7.834270559232041,1,DB
2025-06-11 21:18:44.191,-0.0001106463540223,-7.263918592748493,1,DB
2025-06-11 21:18:44.199,-0.0001195187232868,-6.574215478261458,1,DB
2025-06-11 21:18:44.206,-0.0001281571821371,-5.77248986665914,1,DB
2025-06-11 21:18:44.214,-0.0001362666786602,-4.869008577498371,1,DB
2025-06-11 21:18:44.222,-0.0001435626635968,-3.876667198593154,1,DB
2025-06-11 21:18:44.230,-0.0001497840689899,-2.810576523096862,1,DB
2025-06-11 21:18:44.238,-0.0001547052403379,-1.687562749883679,1,DB
2025-06-11 21:18:44.245,-0.0001581461415163,-0.5256038051264881,1,DB
2025-06-11 21:18:44.253,-0.0001599802627404,0.6567727898743879,1,DB
2025-06-11 21:18:44.261,-0.0001601398290093,1.841103541496399,1,DB
2025-06-11 21:18:44.269,-0.0001586180930669,3.0095871690554907,1,DB
2025-06-11 21:18:44.277,-0.0001554686772181,4.145641961733472,1,DB
2025-06-11 21:18:44.285,-0.0001508020754558,5.234399786731391,1,DB
2025-06-11 21:18:44.292,-0.0001447795256053,6.2631181831820655,1,DB
2025-06-11 21:18:44.300,-0.0001376045325187,7.221496710860534,1,DB
2025-06-11 21:18:44.308,-0.0001295124117541,8.101888900618501,1,DB
2025-06-11 21:18:44.316,-0.0001207583408227,8.89940643569585,1,DB
2025-06-11 21:18:44.324,-0.0001116045154953,9.611917262444903,1,DB
2025-06-11 21:18:44.331,-0.0001023070751585,10.239943908460084,1,DB
2025-06-11 21:18:44.339,-9.310349387150444e-05,10.786472152918186,1,DB
2025-06-11 21:18:44.347,-8.420116450474315e-05,11.256683192577682,1,DB
2025-06-11 21:18:44.355,-7.576792127256423e-05,11.657624499117592,1,DB
2025-06-11 21:18:44.363,-6.792519129172475e-05,11.997835671747357,1,DB
2025-06-11 21:18:44.370,-6.074429563163508e-05,12.286945828665914,1,DB
2025-06-11 21:18:44.378,-5.424615268510721e-05,12.535258580127568,1,DB
2025-06-11 21:18:44.386,-4.840432558677825e-05,12.753339538633517,1,DB
2025-06-11 21:18:44.394,-4.3151053074942086e-05,12.951619804504556,1,DB
2025-06-11 21:18:44.402,-3.838565336561936e-05,13.14002706133509,1,DB
2025-06-11 21:18:44.410,-3.398452698130947e-05,13.327653947576934,1,DB
2025-06-11 21:18:44.417,-2.981191979651535e-05,13.52247133415298,1,DB
2025-06-11 21:18:44.425,-2.573063324496269e-05,13.731092106088022,1,DB
2025-06-11 21:18:44.433,-2.1611961681102797e-05,13.958589074597858,1,DB
2025-06-11 21:18:44.441,-1.7344268941072234e-05,14.208368781937924,1,DB
2025-06-11 21:18:44.449,-1.2839769202724478e-05,14.482101244692144,1,DB
2025-06-11 21:18:44.456,-8.039237797097648e-06,14.779704142163258,1,DB
2025-06-11 21:18:44.464,-2.914519236819929e-06,15.09937861547073,1,DB
2025-06-11 21:18:44.472,2.531188394957771e-06,15.437692718453158,1,DB
2025-06-11 21:18:44.480,8.265178609091575e-06,15.789707678203651,1,DB
2025-06-11 21:18:44.488,1.4228974532219664e-05,16.149141510237186,1,DB
2025-06-11 21:18:44.495,2.0343584617450775e-05,16.508564212491986,1,DB
2025-06-11 21:18:44.503,2.6515806462160733e-05,16.859618730440854,1,DB
2025-06-11 21:18:44.511,3.264505658032808e-05,17.19326210023782,1,DB
2025-06-11 21:18:44.519,3.863018318949542e-05,17.500021552469654,1,DB
2025-06-11 21:18:44.527,4.43757451204932e-05,17.770260775953375,1,DB
2025-06-11 21:18:44.535,4.9797323171463614e-05,17.994451865825802,1,DB
2025-06-11 21:18:44.542,5.48255530361004e-05,18.163448594550392,1,DB
2025-06-11 21:18:44.550,5.940870602435163e-05,18.26875647557908,1,DB
2025-06-11 21:18:44.558,6.351378091595485e-05,18.302794634654543,1,DB
2025-06-11 21:18:44.566,6.712620149436558e-05,18.259143842243223,1,DB
2025-06-11 21:18:44.574,7.024833396483217e-05,18.132774346482517,1,DB
2025-06-11 21:18:44.581,7.289713324670783e-05,17.92024657958701,1,DB
2025-06-11 21:18:44.589,7.510127324188327e-05,17.61987758835448,1,DB
2025-06-11 21:18:44.597,7.689809808970167e-05,17.2318662992037,1,DB
2025-06-11 21:18:44.605,7.833066358117367e-05,16.758371518262724,1,DB
2025-06-11 21:18:44.613,7.94450479334403e-05,16.203537852648775,1,DB
2025-06-11 21:18:44.620,8.028801270719592e-05,15.57346643225037,1,DB
2025-06-11 21:18:44.628,8.090500167430707e-05,14.876129297858538,1,DB
2025-06-11 21:18:44.636,8.133840612468827e-05,14.121228476667945,1,DB
2025-06-11 21:18:44.644,8.162601490026092e-05,13.320002964620668,1,DB
2025-06-11 21:18:44.652,8.17995922282303e-05,12.48498895743645,1,DB
2025-06-11 21:18:44.660,8.188356417628908e-05,11.62974060658751,1,DB
2025-06-11 21:18:44.667,8.18938341102174e-05,10.768520216713462,1,DB
2025-06-11 21:18:44.675,8.183678578106867e-05,9.915968047056692,1,DB
2025-06-11 21:18:44.683,8.170856812932411e-05,9.08676264418074,1,DB
2025-06-11 21:18:44.691,8.149478552359997e-05,8.295282851737374,1,DB
2025-06-11 21:18:44.699,8.11707299452266e-05,7.555282281265094,1,DB
2025-06-11 21:18:44.706,8.070226579970226e-05,6.879586088462967,1,DB
2025-06-11 21:18:44.714,8.004740139184884e-05,6.279818426587513,1,DB
2025-06-11 21:18:44.722,7.91584791928919e-05,5.766167032271922,1,DB
2025-06-11 21:18:44.730,7.798483916893167e-05,5.347189171737127,1,DB
2025-06-11 21:18:44.738,7.647578129250643e-05,5.029660802871131,1,DB
2025-06-11 21:18:44.745,7.458366295001392e-05,4.818468474544655,1,DB
2025-06-11 21:18:44.753,7.226699281227608e-05,4.716541372945219,1,DB
2025-06-11 21:18:44.761,6.949341423727991e-05,4.724819206384247,1,DB
2025-06-11 21:18:44.769,6.624250420183112e-05,4.84225044120169,1,DB
2025-06-11 21:18:44.777,6.250833743252741e-05,5.0658148698409375,1,DB
2025-06-11 21:18:44.785,5.830175821666057e-05,5.390564658764489,1,DB
2025-06-11 21:18:44.792,5.3652252131247725e-05,5.80967886822474,1,DB
2025-06-11 21:18:44.800,4.8609241976919975e-05,6.314527865650218,1,DB
2025-06-11 21:18:44.808,4.3242595417529073e-05,6.894745916843757,1,DB
2025-06-11 21:18:44.816,3.764215117053806e-05,7.538312335961455,1,DB
2025-06-11 21:18:44.824,3.1916133124187696e-05,8.23164367733343,1,DB
2025-06-11 21:18:44.831,2.6188404744471127e-05,8.959701319975824,1,DB
2025-06-11 21:18:44.839,2.059460742292375e-05,9.706120204853915,1,DB
2025-06-11 21:18:44.847,1.527731997309336e-05,10.453365252310409,1,DB
2025-06-11 21:18:44.855,1.0380459571531855e-05,11.182921989894808,1,DB
2025-06-11 21:18:44.863,6.043193182738111e-06,11.875527108393523,1,DB
2025-06-11 21:18:44.870,2.3936282961601176e-06,12.511443059706885,1,DB
2025-06-11 21:18:44.878,-4.57474528978749e-07,13.070778505680291,1,DB
2025-06-11 21:18:44.886,-2.4227309117330423e-06,13.533853568605734,1,DB
2025-06-11 21:18:44.894,-3.4436306214510158e-06,13.881605609430911,1,DB
2025-06-11 21:18:44.902,-3.495168587415373e-06,14.096027883868738,1,DB
2025-06-11 21:18:44.910,-2.589220692828077e-06,14.160630128024534,1,DB
2025-06-11 21:18:44.917,-7.762775804108665e-07,14.060907129550335,1,DB
2025-06-11 21:18:44.925,1.854757544232673e-06,13.784798855754708,1,DB
2025-06-11 21:18:44.933,5.178827152765696e-06,13.323123917744416,1,DB
2025-06-11 21:18:44.941,9.03896207386176e-06,12.669967201894302,1,DB
2025-06-11 21:18:44.949,1.325228053519163e-05,11.823002522057102,1,DB
2025-06-11 21:18:44.956,1.76173953563473e-05,10.78373223440156,1,DB
2025-06-11 21:18:44.964,2.1922789109389144e-05,9.557627966000432,1,DB
2025-06-11 21:18:44.972,2.5955670287967533e-05,8.154159925721935,1,DB
2025-06-11 21:18:44.980,2.951083433444053e-05,6.586706585924622,1,DB
2025-06-11 21:18:44.988,3.2399106302054886e-05,4.8723416337244245,1,DB
2025-06-11 21:18:44.996,3.44550137815311e-05,3.031500681010712,1,DB
2025-06-11 21:18:45.003,3.5543417350910696e-05,1.0875359158076856,1,DB
2025-06-11 21:18:45.011,3.55649073008149e-05,-0.9338277245272644,1,DB
2025-06-11 21:18:45.019,3.445985603302656e-05,-3.005116548133969,1,DB
2025-06-11 21:18:45.027,3.221108377213464e-05,-5.097790208202023,1,DB
2025-06-11 21:18:45.035,2.884512880729361e-05,-7.182957284667968,1,DB
2025-06-11 21:18:45.042,2.4432099756790467e-05,-9.232098473879182,1,DB
2025-06-11 21:18:45.050,1.9084051391804693e-05,-11.217771579951275,1,DB
2025-06-11 21:18:45.058,1.2951816109096418e-05,-13.11427381360571,1,DB
2025-06-11 21:18:45.066,6.220265141934874e-06,-14.898239318447814,1,DB
2025-06-11 21:18:45.074,-8.979458572040602e-07,-16.54915317001179,1,DB
2025-06-11 21:18:45.081,-8.169995792241008e-06,-18.049767102514732,1,DB
2025-06-11 21:18:45.089,-1.5351630328713123e-05,-19.38640666120249,1,DB
2025-06-11 21:18:45.097,-2.2196656256981736e-05,-20.54916409379689,1,DB
2025-06-11 21:18:45.105,-2.846675235787796e-05,-21.53197582806104,1,DB
2025-06-11 21:18:45.113,-3.39410762821165e-05,-22.332587602434938,1,DB
2025-06-11 21:18:45.121,-3.842512564390512e-05,-22.952414035473463,1,DB
2025-06-11 21:18:45.128,-4.175837912753237e-05,-23.396302510784363,1,DB
2025-06-11 21:18:45.136,-4.382038836982013e-05,-23.672213655856886,1,DB
2025-06-11 21:18:45.144,-4.453514264614128e-05,-23.790832400763435,1,DB
2025-06-11 21:18:45.152,-4.387362312148482e-05,-23.76512465516253,1,DB
2025-06-11 21:18:45.160,-4.185451119454531e-05,-23.60985510986888,1,DB
2025-06-11 21:18:45.167,-3.854306524290624e-05,-23.341081640721804,1,DB
2025-06-11 21:18:45.175,-3.404824997641334e-05,-22.97564135736645,1,DB
2025-06-11 21:18:45.183,-2.851827905349295e-05,-22.530642576255687,1,DB
2025-06-11 21:18:45.191,-2.21348055810798e-05,-22.02297596764496,1,DB
2025-06-11 21:18:45.199,-1.510605589267237e-05,-21.4688568785652,1,DB
2025-06-11 21:18:45.206,-7.659224542550243e-06,-20.88340940885359,1,DB
2025-06-11 21:18:45.214,-3.2421967695559776e-08,-20.280301257837188,1,DB
2025-06-11 21:18:45.222,7.53358266280742e-06,-19.671436713824228,1,DB
2025-06-11 21:18:45.230,1.4803607250738814e-05,-19.066713479630085,1,DB
2025-06-11 21:18:45.238,2.1556054577271327e-05,-18.47384736373208,1,DB
2025-06-11 21:18:45.246,2.759037995335289e-05,-17.898267256379295,1,DB
2025-06-11 21:18:45.253,3.273372354208551e-05,-17.343081278125638,1,DB
2025-06-11 21:18:45.261,3.684642593522118e-05,-16.809113548274293,1,DB
2025-06-11 21:18:45.269,3.982620305586144e-05,-16.295009676245535,1,DB
2025-06-11 21:18:45.277,4.16108255195537e-05,-15.797407823337316,1,DB
2025-06-11 21:18:45.285,4.2179217238233686e-05,-15.31117099572938,1,DB
2025-06-11 21:18:45.292,4.155095563161743e-05,-14.829675074580756,1,DB
2025-06-11 21:18:45.300,3.978422050223907e-05,-14.345145912303767,1,DB
2025-06-11 21:18:45.308,3.697229979812796e-05,-13.849037566323794,1,DB
2025-06-11 21:18:45.316,3.323881762924544e-05,-13.332442356186991,1,DB
2025-06-11 21:18:45.324,2.873190260111208e-05,-12.78652190665042,1,DB
2025-06-11 21:18:45.331,2.361756239516748e-05,-12.20294672913543,1,DB
2025-06-11 21:18:45.339,1.8072573160664928e-05,-11.574330323294246,1,DB
2025-06-11 21:18:45.347,1.2277229235247236e-05,-10.894642449190364,1,DB
2025-06-11 21:18:45.355,6.4083278216792325e-06,-10.159585378437482,1,DB
2025-06-11 21:18:45.363,6.327741982892695e-07,-9.366916835490292,1,DB
2025-06-11 21:18:45.371,-4.897837133774314e-06,-8.516704189005766,1,DB
2025-06-11 21:18:45.378,-1.0051402956343842e-05,-7.611496332919818,1,DB
2025-06-11 21:18:45.386,-1.4718142045902097e-05,-6.656402547726965,1,DB
2025-06-11 21:18:45.394,-1.881213581403391e-05,-5.6590712674263095,1,DB
2025-06-11 21:18:45.402,-2.22717785901824e-05,-4.629565831923474,1,DB
2025-06-11 21:18:45.410,-2.505940900994999e-05,-3.580138689944606,1,DB
2025-06-11 21:18:45.417,-2.716039400828608e-05,-2.5249098661499287,1,DB
2025-06-11 21:18:45.425,-2.858188893051453e-05,-1.4794596000639524,1,DB
2025-06-11 21:18:45.433,-2.935142676998619e-05,-0.4603487431710278,1,DB
2025-06-11 21:18:45.441,-2.9515409820627867e-05,0.5154163491645857,1,DB
2025-06-11 21:18:45.449,-2.9137495185430376e-05,1.4309551553168458,1,DB
2025-06-11 21:18:45.456,-2.829679523507919e-05,2.27009941675719,1,DB
2025-06-11 21:18:45.464,-2.7085779791348344e-05,3.0179723917769548,1,DB
2025-06-11 21:18:45.472,-2.5607783484796576e-05,3.661538321157338,1,DB
2025-06-11 21:18:45.480,-2.3974068218050567e-05,4.190099982731417,1,DB
2025-06-11 21:18:45.488,-2.2300429944379364e-05,4.595723574503936,1,DB
2025-06-11 21:18:45.496,-2.0703368416646465e-05,4.873572413643441,1,DB
2025-06-11 21:18:45.503,-1.929588349659732e-05,5.022134042406666,1,DB
2025-06-11 21:18:45.511,-1.8183020641108463e-05,5.043329217777831,1,DB
2025-06-11 21:18:45.519,-1.745733320607744e-05,4.94249580824352,1,DB
2025-06-11 21:18:45.527,-1.7194458533605354e-05,4.728245659620316,1,DB
2025-06-11 21:18:45.535,-1.7449043157362045e-05,4.412197807885215,1,DB
2025-06-11 21:18:45.542,-1.8251296421252875e-05,4.00859675976719,1,DB
2025-06-11 21:18:45.550,-1.9604463331891985e-05,3.5338296576461805,1,DB
2025-06-11 21:18:45.558,-2.148346422691616e-05,3.005860713202345,1,DB
2025-06-11 21:18:45.566,-2.383486461706778e-05,2.4436050654761186,1,DB
2025-06-11 21:18:45.574,-2.6578236726679653e-05,1.866266960406094,1,DB
2025-06-11 21:18:45.581,-2.9608869045848127e-05,1.2926686879808544,1,DB
2025-06-11 21:18:45.589,-3.280168596678467e-05,0.7405969580731591,1,DB
2025-06-11 21:18:45.597,-3.601618003261361e-05,0.2261923469532669,1,DB
2025-06-11 21:18:45.605,-3.910214883074265e-05,-0.2365948042179031,1,DB
2025-06-11 21:18:45.613,-4.190604394392959e-05,-0.6364619369364728,1,DB
2025-06-11 21:18:45.621,-4.427773389395301e-05,-0.965109241516387,1,DB
2025-06-11 21:18:45.628,-4.6077433761468834e-05,-1.2174806136414098,1,DB
2025-06-11 21:18:45.636,-4.71824759856266e-05,-1.3918840146628042,1,DB
2025-06-11 21:18:45.644,-4.749351577672131e-05,-1.4899894673698688,1,DB
2025-06-11 21:18:45.652,-4.693970546926951e-05,-1.5167074910238318,1,DB
2025-06-11 21:18:45.660,-4.548237233893363e-05,-1.4799549397223362,1,DB
2025-06-11 21:18:45.667,-4.311683899292669e-05,-1.3903188510048026,1,DB
2025-06-11 21:18:45.675,-3.98722431705681e-05,-1.2606319830773136,1,DB
2025-06-11 21:18:45.683,-3.580948250365191e-05,-1.105476201746756,1,DB
2025-06-11 21:18:45.691,-3.101762964318707e-05,-0.9406317728754026,1,DB
2025-06-11 21:18:45.699,-2.5609271960908443e-05,-0.7824919259401214,1,DB
2025-06-11 21:18:45.706,-1.971523644201841e-05,-0.6474627770653778,1,DB
2025-06-11 21:18:45.714,-1.3479109351153205e-05,-0.5513688316492795,1,DB
2025-06-11 21:18:45.722,-7.051887301295097e-06,-0.5088838306814847,1,DB
2025-06-11 21:18:45.730,-5.870164136039078e-07,-0.5330056800432194,1,DB
2025-06-11 21:18:45.738,5.764005537423716e-06,-0.6345926458715757,1,DB
2025-06-11 21:18:45.746,1.1855369437257422e-05,-0.8219759634323726,1,DB
2025-06-11 21:18:45.753,1.755001891375379e-05,-1.1006615502130606,1,DB
2025-06-11 21:18:45.761,2.2722088241597088e-05,-1.47313069287501,1,DB
2025-06-11 21:18:45.769,2.725882350515781e-05,-1.9387464444834364,1,DB
2025-06-11 21:18:45.777,3.106214308213695e-05,-2.493769073973788,1,DB
2025-06-11 21:18:45.785,3.4050016407452905e-05,-3.1314803121836228,1,DB
2025-06-11 21:18:45.792,3.6157817755611774e-05,-3.842412414252717,1,DB
2025-06-11 21:18:45.800,3.7339732971748064e-05,-4.614674309600261,1,DB
2025-06-11 21:18:45.808,3.75701882298995e-05,-5.434363467979086,1,DB
2025-06-11 21:18:45.816,3.6845181523640815e-05,-6.286048723805151,1,DB
2025-06-11 21:18:45.824,3.518335671623969e-05,-7.153306333247281,1,DB
2025-06-11 21:18:45.831,3.262665605912052e-05,-8.019289154074675,1,DB
2025-06-11 21:18:45.839,2.9240400099963148e-05,-8.867307192919212,1,DB
2025-06-11 21:18:45.847,2.511266461778788e-05,-9.681396991671388,1,DB
2025-06-11 21:18:45.855,2.0352851311746735e-05,-10.446857519893774,1,DB
2025-06-11 21:18:45.863,1.5089382521613798e-05,-11.15073144833348,1,DB
2025-06-11 21:18:45.871,9.466490113404296e-06,-11.782212883961895,1,DB
2025-06-11 21:18:45.878,3.6401143857912826e-06,-12.33296576679867,1,DB
2025-06-11 21:18:45.886,-2.2270202995135286e-06,-12.797341013810389,1,DB
2025-06-11 21:18:45.894,-7.971031547176056e-06,-13.172484937936874,1,DB
2025-06-11 21:18:45.902,-1.343302740214368e-05,-13.458336221908311,1,DB
2025-06-11 21:18:45.910,-1.846553945537043e-05,-13.657513520596469,1,DB
2025-06-11 21:18:45.917,-2.2938945142790068e-05,-13.775100345921782,1,DB
2025-06-11 21:18:45.925,-2.6747529355402502e-05,-13.818338033205109,1,DB
2025-06-11 21:18:45.933,-2.9814786613794083e-05,-13.796241125689676,1,DB
2025-06-11 21:18:45.941,-3.2097525913143866e-05,-13.719152327991328,1,DB
2025-06-11 21:18:45.949,-3.358832477202613e-05,-13.59825620391076,1,DB
2025-06-11 21:18:45.956,-3.431592142012912e-05,-13.445072004756549,1,DB
2025-06-11 21:18:45.964,-3.434327822858805e-05,-13.270946414015404,1,DB
2025-06-11 21:18:45.972,-3.376330291063493e-05,-13.086566603349494,1,DB
2025-06-11 21:18:45.980,-3.269251333703694e-05,-12.90151284791536,1,DB
2025-06-11 21:18:45.988,-3.1263176047950376e-05,-12.723868093040714,1,DB
2025-06-11 21:18:45.996,-2.9614574474866472e-05,-12.559899357936802,1,DB
2025-06-11 21:18:46.003,-2.788407828116328e-05,-12.413822777135382,1,DB
2025-06-11 21:18:46.011,-2.6198634310232945e-05,-12.287660508038028,1,DB
2025-06-11 21:18:46.019,-2.466721739100318e-05,-12.181193791039584,1,DB
2025-06-11 21:18:46.027,-2.337468032291422e-05,-12.092012284996748,1,DB
2025-06-11 21:18:46.035,-2.237733185227711e-05,-12.015655594302084,1,DB
2025-06-11 21:18:46.042,-2.170045293191222e-05,-11.945838861601072,1,DB
2025-06-11 21:18:46.050,-2.133783863049901e-05,-11.87475064654108,1,DB
2025-06-11 21:18:46.058,-2.12533293121815e-05,-11.793408265594476,1,DB
2025-06-11 21:18:46.066,-2.1384173661421385e-05,-11.692053517307349,1,DB
2025-06-11 21:18:46.074,-2.1645952824318845e-05,-11.560570387502754,1,DB
2025-06-11 21:18:46.081,-2.193870233459444e-05,-11.38890597085138,1,DB
2025-06-11 21:18:46.089,-2.215382028713601e-05,-11.167476434717967,1,DB
2025-06-11 21:18:46.097,-2.218136047053556e-05,-10.887541301165664,1,DB
2025-06-11 21:18:46.105,-2.1917354140978936e-05,-10.541531498058742,1,DB
2025-06-11 21:18:46.113,-2.1270836256338667e-05,-10.123319360610845,1,DB
2025-06-11 21:18:46.121,-2.0170247305651935e-05,-9.62842186257012,1,DB
2025-06-11 21:18:46.128,-1.8568855524561505e-05,-9.054131635061388,1,DB
2025-06-11 21:18:46.136,-1.6448828848115727e-05,-8.399573623968202,1,DB
2025-06-11 21:18:46.144,-1.3823615459987697e-05,-7.665688407511282,1,DB
2025-06-11 21:18:46.152,-1.0738390639813289e-05,-6.855146143566722,1,DB
2025-06-11 21:18:46.160,-7.268491626517368e-06,-5.972197775060767,1,DB
2025-06-11 21:18:46.167,-3.5159539026501763e-06,-5.022472452349489,1,DB
2025-06-11 21:18:46.175,3.9556992021701886e-07,-4.012732106300536,1,DB
2025-06-11 21:18:46.183,4.327121299993816e-06,-2.950595691151105,1,DB
2025-06-11 21:18:46.191,8.13154984140024e-06,-1.84424676118616,1,DB
2025-06-11 21:18:46.199,1.1661007286105554e-05,-0.702138680868571,1,DB
2025-06-11 21:18:46.206,1.477442329018073e-05,0.4672881844101937,1,DB
2025-06-11 21:18:46.214,1.7344599323727838e-05,1.6558635627195295,1,DB
2025-06-11 21:18:46.222,1.9264598229395797e-05,2.85590623977769,1,DB
2025-06-11 21:18:46.230,2.045315373791252e-05,4.060394501157694,1,DB
2025-06-11 21:18:46.238,2.085887546419542e-05,5.263080327750231,1,DB
2025-06-11 21:18:46.246,2.0463079590841097e-05,6.458542805845891,1,DB
2025-06-11 21:18:46.253,1.9281132662185986e-05,7.642179737840008,1,DB
2025-06-11 21:18:46.261,1.7362254801508957e-05,8.81014008293963,1,DB
2025-06-11 21:18:46.269,1.4787788406435309e-05,9.959203384881643,1,DB
2025-06-11 21:18:46.277,1.166799816470386e-05,11.08661553037204,1,DB
2025-06-11 21:18:46.285,8.13752723622234e-06,12.189892828381026,1,DB
2025-06-11 21:18:46.292,4.349691790398515e-06,13.266608343799584,1,DB
2025-06-11 21:18:46.300,4.698508170967405e-07,14.31417554240745,1,DB
2025-06-11 21:18:46.308,-3.331860803275941e-06,15.329644542981926,1,DB
2025-06-11 21:18:46.316,-6.88810173528515e-06,16.309525615787415,1,DB
2025-06-11 21:18:46.324,-1.0041821724377012e-05,17.24965305817527,1,DB
2025-06-11 21:18:46.331,-1.2653281721078604e-05,18.145100317594327,1,DB
2025-06-11 21:18:46.339,-1.46061801513162e-05,18.990154374871867,1,DB
2025-06-11 21:18:46.347,-1.5812500201457535e-05,19.7783541455239,1,DB
2025-06-11 21:18:46.355,-1.6215780786645285e-05,20.502594227174328,1,DB
2025-06-11 21:18:46.363,-1.579264285981098e-05,21.15529193596254,1,DB
2025-06-11 21:18:46.371,-1.4552544840732076e-05,21.72861242240424,1,DB
2025-06-11 21:18:46.378,-1.253588241598744e-05,22.214743877203045,1,DB
2025-06-11 21:18:46.386,-9.810675085861249e-06,22.60621251354592,1,DB
2025-06-11 21:18:46.394,-6.468166816515241e-06,22.89622517372862,1,DB
2025-06-11 21:18:46.402,-2.617696112173007e-06,23.079026041393373,1,DB
2025-06-11 21:18:46.410,1.6188234444336692e-06,23.150253010967813,1,DB
2025-06-11 21:18:46.417,6.11250489721903e-06,23.107278737766247,1,DB
2025-06-11 21:18:46.425,1.0732905988439808e-05,22.94952124781033,1,DB
2025-06-11 21:18:46.433,1.535304301646803e-05,22.67870923658619,1,DB
2025-06-11 21:18:46.441,1.9853827067378744e-05,22.299087874104035,1,DB
2025-06-11 21:18:46.449,2.4127796388332804e-05,21.8175521284193,1,DB
2025-06-11 21:18:46.456,2.8082064215936564e-05,21.243696393440345,1,DB
2025-06-11 21:18:46.464,3.1640443880496644e-05,20.589771604803538,1,DB
2025-06-11 21:18:46.472,3.474475134169904e-05,19.87054404328152,1,DB
2025-06-11 21:18:46.480,3.735531861433603e-05,19.103053591282237,1,DB
2025-06-11 21:18:46.488,3.945077923286045e-05,18.306273203726644,1,DB
2025-06-11 21:18:46.496,4.1027208666333736e-05,17.500675620085016,1,DB
2025-06-11 21:18:46.503,4.2096718365007045e-05,16.70771769374392,1,DB
2025-06-11 21:18:46.511,4.268561205415507e-05,15.949256946523104,1,DB
2025-06-11 21:18:46.519,4.2832217340923246e-05,15.246918861344398,1,DB
2025-06-11 21:18:46.527,4.2584505176200064e-05,14.621436795872237,1,DB
2025-06-11 21:18:46.535,4.199760484957921e-05,14.091989030184989,1,DB
2025-06-11 21:18:46.542,4.113131371186312e-05,13.67555915865814,1,DB
2025-06-11 21:18:46.550,4.004768948795492e-05,13.386346628304477,1,DB
2025-06-11 21:18:46.558,3.880879965249124e-05,13.235253577798527,1,DB
2025-06-11 21:18:46.566,3.74746876669428e-05,13.229472161566555,1,DB
2025-06-11 21:18:46.574,3.610160065555332e-05,13.372193239275596,1,DB
2025-06-11 21:18:46.581,3.474050800071001e-05,13.662452744257132,1,DB
2025-06-11 21:18:46.589,3.343592595730276e-05,14.09512637803414,1,DB
2025-06-11 21:18:46.597,3.2225050217096544e-05,14.661076764426474,1,DB
2025-06-11 21:18:46.605,3.113718679203932e-05,15.347450164983211,1,DB
2025-06-11 21:18:46.613,3.019346191701197e-05,16.138112695625107,1,DB
2025-06-11 21:18:46.621,2.9406784078859076e-05,17.01420911497802,1,DB
2025-06-11 21:18:46.628,2.8782025838818955e-05,17.95482110649834,1,DB
2025-06-11 21:18:46.636,2.8316389814723765e-05,18.93769695059044,1,DB
2025-06-11 21:18:46.644,2.7999921928866027e-05,19.94002091689948,1,DB
2025-06-11 21:18:46.652,2.781613563741305e-05,20.939188838131905,1,DB
2025-06-11 21:18:46.660,2.7742713110898863e-05,21.91355626675756,1,DB
2025-06-11 21:18:46.667,2.7752252963900215e-05,22.843127341778523,1,DB
2025-06-11 21:18:46.675,2.7813038840188196e-05,23.71015585412154,1,DB
2025-06-11 21:18:46.683,2.788980864064456e-05,24.499634741022582,1,DB
2025-06-11 21:18:46.691,2.7944510131138004e-05,25.19965603608264,1,DB
2025-06-11 21:18:46.699,2.793703479852306e-05,25.801629791252907,1,DB
2025-06-11 21:18:46.706,2.7825927874771055e-05,26.30035730082261,1,DB
2025-06-11 21:18:46.714,2.756907819915849e-05,26.6939607372842,1,DB
2025-06-11 21:18:46.722,2.7124396858579805e-05,26.98367772147373,1,DB
2025-06-11 21:18:46.730,2.645049820882508e-05,27.17353509857749,1,DB
2025-06-11 21:18:46.738,2.550740086059929e-05,27.2699210288834,1,DB
2025-06-11 21:18:46.746,2.4257269492230952e-05,27.2810782348948,1,DB
2025-06-11 21:18:46.753,2.266522095699738e-05,27.21654374497874,1,DB
2025-06-11 21:18:46.761,2.070022016443845e-05,27.08656167704116,1,DB
2025-06-11 21:18:46.769,1.833609274997436e-05,26.901495524462284,1,DB
2025-06-11 21:18:46.777,1.5552682755177613e-05,26.671265121610578,1,DB
2025-06-11 21:18:46.785,1.233718459256804e-05,26.40483112088319,1,DB
2025-06-11 21:18:46.792,8.685678017649504e-06,26.10974659833156,1,DB
2025-06-11 21:18:46.800,4.604883166753432e-06,25.791791540786942,1,DB
2025-06-11 21:18:46.808,1.1410949621071014e-07,25.45470168604102,1,DB
2025-06-11 21:18:46.816,-4.752713378415782e-06,25.09999872007085,1,DB
2025-06-11 21:18:46.824,-9.945136967072242e-06,24.72692440228012,1,DB
2025-06-11 21:18:46.831,-1.5394709656422536e-05,24.33247699053163,1,DB
2025-06-11 21:18:46.839,-2.101419798920985e-05,23.91154453499296,1,DB
2025-06-11 21:18:46.847,-2.6697765766089006e-05,23.457126315815085,1,DB
2025-06-11 21:18:46.855,-3.232229902333176e-05,22.96063097109637,1,DB
2025-06-11 21:18:46.863,-3.774998678784311e-05,22.41223770622416,1,DB
2025-06-11 21:18:46.871,-4.2832179397940695e-05,21.801305370314594,1,DB
2025-06-11 21:18:46.878,-4.741445084641768e-05,21.11681309860658,1,DB
2025-06-11 21:18:46.886,-5.134269216941243e-05,20.34781563047644,1,DB
2025-06-11 21:18:46.894,-5.446996281036176e-05,19.4838963204611,1,DB
2025-06-11 21:18:46.902,-5.666372982743933e-05,18.5156012806164,1,DB
2025-06-11 21:18:46.910,-5.781303627918551e-05,17.434839046309143,1,DB
2025-06-11 21:18:46.917,-5.783507374977707e-05,16.235231651390738,1,DB
2025-06-11 21:18:46.925,-5.668061591109129e-05,14.912405017937084,1,DB
2025-06-11 21:18:46.933,-5.433782652781722e-05,13.464209068750051,1,DB
2025-06-11 21:18:46.941,-5.083409383363752e-05,11.890860883758988,1,DB
2025-06-11 21:18:46.949,-4.623574874517196e-05,10.19500743333223,1,DB
2025-06-11 21:18:46.956,-4.064575836874459e-05,8.381707784606377,1,DB
2025-06-11 21:18:46.964,-3.419968632408792e-05,6.458338016915325,1,DB
2025-06-11 21:18:46.972,-2.706032459858696e-05,4.434425216590483,1,DB
2025-06-11 21:18:46.980,-1.9411425381917727e-05,2.3214196778926377,1,DB
2025-06-11 21:18:46.988,-1.1450932053952226e-05,0.132416668095634,1,DB
2025-06-11 21:18:46.996,-3.384059525677345e-06,-2.118159292515009,1,DB
2025-06-11 21:18:47.003,4.5834803142143804e-06,-4.4148937999161095,1,DB
2025-06-11 21:18:47.011,1.225186789623433e-05,-6.741731588493226,1,DB
2025-06-11 21:18:47.019,1.943299422402388e-05,-9.082321736408888,1,DB
2025-06-11 21:18:47.027,2.595557340080797e-05,-11.420346715449876,1,DB
2025-06-11 21:18:47.035,3.1669460972646906e-05,-13.739824566986847,1,DB
2025-06-11 21:18:47.042,3.644912981883547e-05,-16.02537546614039,1,DB
2025-06-11 21:18:47.050,4.019628874369245e-05,-18.262446148791767,1,DB
2025-06-11 21:18:47.058,4.284165530647704e-05,-20.43748800612633,1,DB
2025-06-11 21:18:47.066,4.434591390188359e-05,-22.53808700166776,1,DB
2025-06-11 21:18:47.074,4.469990317953151e-05,-24.55304585205985,1,DB
2025-06-11 21:18:47.081,4.39240843923185e-05,-26.47242105740797,1,DB
2025-06-11 21:18:47.089,4.206734526940668e-05,-28.28751929401176,1,DB
2025-06-11 21:18:47.097,3.9205193780613885e-05,-29.990859316974586,1,DB
2025-06-11 21:18:47.105,3.54373940606467e-05,-31.576106791467897,1,DB
2025-06-11 21:18:47.113,3.088509418578264e-05,-33.03799031836475,1,DB
2025-06-11 21:18:47.121,2.5687493782790535e-05,-34.372207299324465,1,DB
2025-06-11 21:18:47.128,1.999809981537343e-05,-35.57532818095293,1,DB
2025-06-11 21:18:47.136,1.3980622359818064e-05,-36.6447070416248,1,DB
2025-06-11 21:18:47.144,7.80456951994273e-06,-37.57840548253061,1,DB
2025-06-11 21:18:47.152,1.6406123134960857e-06,-38.375135424991214,1,DB
2025-06-11 21:18:47.160,-4.3441934753143975e-06,-39.03422478472098,1,DB
2025-06-11 21:18:47.167,-9.99122105893488e-06,-39.55560818638215,1,DB
2025-06-11 21:18:47.175,-1.5154990504583645e-05,-39.93984299475919,1,DB
2025-06-11 21:18:47.183,-1.970763232141616e-05,-40.1881490598076,1,DB
2025-06-11 21:18:47.191,-2.3542910087791823e-05,-40.30246877872522,1,DB
2025-06-11 21:18:47.199,-2.6579588809087036e-05,-40.28554244044543,1,DB
2025-06-11 21:18:47.206,-2.876392225338005e-05,-40.14099240760721,1,DB
2025-06-11 21:18:47.214,-3.007105480730919e-05,-39.87340858054503,1,DB
2025-06-11 21:18:47.222,-3.0505204654746227e-05,-39.48842684908913,1,DB
2025-06-11 21:18:47.230,-3.0098592633204343e-05,-38.9927919369396,1,DB
2025-06-11 21:18:47.238,-2.8909166741090025e-05,-38.39439623103952,1,DB
2025-06-11 21:18:47.246,-2.7017242381446744e-05,-37.70228689028923,1,DB
2025-06-11 21:18:47.253,-2.452125768311638e-05,-36.92663473703756,1,DB
2025-06-11 21:18:47.261,-2.1532928193880697e-05,-36.07866011032658,1,DB
2025-06-11 21:18:47.269,-1.81721379217859e-05,-35.170512931238726,1,DB
2025-06-11 21:18:47.277,-1.4561901823579784e-05,-34.21510660262222,1,DB
2025-06-11 21:18:47.285,-1.082369215051376e-05,-33.22590792279468,1,DB
2025-06-11 21:18:47.292,-7.073360778978073e-06,-32.216687803946094,1,DB
2025-06-11 21:18:47.300,-3.417824046467988e-06,-31.20124010432212,1,DB
2025-06-11 21:18:47.308,4.739020524668751e-08,-30.19307814946765,1,DB
2025-06-11 21:18:47.316,3.2396993762659865e-06,-29.20512036805337,1,DB
2025-06-11 21:18:47.324,6.090155089733954e-06,-28.249377750636725,1,DB
2025-06-11 21:18:47.331,8.543350165095246e-06,-27.33665643533712,1,DB
2025-06-11 21:18:47.339,1.0556679893408966e-05,-26.47628855969969,1,DB
2025-06-11 21:18:47.347,1.2099136385682632e-05,-25.675903576004387,1,DB
2025-06-11 21:18:47.355,1.3149848098532136e-05,-24.94125055281428,1,DB
2025-06-11 21:18:47.363,1.3696598487884592e-05,-24.27607968494008,1,DB
2025-06-11 21:18:47.371,1.3734557981450216e-05,-23.68208846420077,1,DB
2025-06-11 21:18:47.378,1.326542134991232e-05,-23.15893491266854,1,DB
2025-06-11 21:18:47.386,1.2297047055152336e-05,-22.704317147529224,1,DB
2025-06-11 21:18:47.394,1.084357301607662e-05,-22.31411552508733,1,DB
2025-06-11 21:18:47.402,8.92588498334507e-06,-21.9825908730778,1,DB
2025-06-11 21:18:47.410,6.572266181422205e-06,-21.70263000427745,1,DB
2025-06-11 21:18:47.417,3.8190491657729656e-06,-21.46602790769625,1,DB
2025-06-11 21:18:47.425,7.111024282560041e-07,-21.26379479114563,1,DB
2025-06-11 21:18:47.433,-2.6979946661857905e-06,-21.086475519252637,1,DB
2025-06-11 21:18:47.441,-6.346206516171549e-06,-20.92446894506021,1,DB
2025-06-11 21:18:47.449,-1.0163808038229854e-05,-20.768335140860557,1,DB
2025-06-11 21:18:47.456,-1.4074704727025482e-05,-20.609079546195435,1,DB
2025-06-11 21:18:47.464,-1.7998300943354773e-05,-20.438404506110302,1,DB
2025-06-11 21:18:47.472,-2.185186148472416e-05,-20.248920502107342,1,DB
2025-06-11 21:18:47.480,-2.555325954145161e-05,-20.03431150609533,1,DB
2025-06-11 21:18:47.488,-2.902395180334706e-05,-19.78945122142477,1,DB
2025-06-11 21:18:47.496,-3.219197223347785e-05,-19.51046939527291,1,DB
2025-06-11 21:18:47.503,-3.499470151349222e-05,-19.19476974627378,1,DB
2025-06-11 21:18:47.511,-3.738117201932221e-05,-18.841003188333,1,DB
2025-06-11 21:18:47.519,-3.931372162500242e-05,-18.4490017906011,1,DB
2025-06-11 21:18:47.527,-4.0768890921925386e-05,-18.019680170035286,1,DB
2025-06-11 21:18:47.535,-4.173752927112494e-05,-17.554911692321937,1,DB
2025-06-11 21:18:47.542,-4.222413182539989e-05,-17.057386945115727,1,DB
2025-06-11 21:18:47.550,-4.2245496863468114e-05,-16.530461493724943,1,DB
2025-06-11 21:18:47.558,-4.182886702508543e-05,-15.97799904095156,1,DB
2025-06-11 21:18:47.566,-4.100976142142557e-05,-15.404214940830634,1,DB
2025-06-11 21:18:47.574,-3.982969597947793e-05,-14.81352373317379,1,DB
2025-06-11 21:18:47.581,-3.833394074317633e-05,-14.210393143777807,1,DB
2025-06-11 21:18:47.589,-3.6569400357232265e-05,-13.599205983703753,1,DB
2025-06-11 21:18:47.597,-3.458264995078809e-05,-12.984130687601656,1,DB
2025-06-11 21:18:47.605,-3.241813828727704e-05,-12.369000904197687,1,DB
2025-06-11 21:18:47.613,-3.011659736149441e-05,-11.757204575609412,1,DB
2025-06-11 21:18:47.621,-2.7713748895080285e-05,-11.151583242374478,1,DB
2025-06-11 21:18:47.628,-2.5239425919691067e-05,-10.554342773199837,1,DB
2025-06-11 21:18:47.636,-2.271720796188352e-05,-9.966977207047275,1,DB
2025-06-11 21:18:47.644,-2.0164614928364924e-05,-9.39020777595992,1,DB
2025-06-11 21:18:47.652,-1.75938407009968e-05,-8.823939340610737,1,DB
2025-06-11 21:18:47.660,-1.5012944753775149e-05,-8.267236355023899,1,DB
2025-06-11 21:18:47.667,-1.2427362673278316e-05,-7.718320080384647,1,DB
2025-06-11 21:18:47.675,-9.841547996495628e-06,-7.174588145000809,1,DB
2025-06-11 21:18:47.683,-7.260529812054416e-06,-6.63265679134096,1,DB
2025-06-11 21:18:47.691,-4.691185297644432e-06,-6.088425366192918,1,DB
2025-06-11 21:18:47.699,-2.1430962650649706e-06,-5.537161887618364,1,DB
2025-06-11 21:18:47.707,3.710415234294807e-07,-4.973607926154831,1,DB
2025-06-11 21:18:47.714,2.835407272706233e-06,-4.392100598352784,1,DB
2025-06-11 21:18:47.722,5.231358250455069e-06,-3.7867091843273295,1,DB
2025-06-11 21:18:47.730,7.537961293325793e-06,-3.151383710972525,1,DB
2025-06-11 21:18:47.738,9.73267736925602e-06,-2.480112728907318,1,DB
2025-06-11 21:18:47.746,1.1792136114119348e-05,-1.7670873873509294,1,DB
2025-06-11 21:18:47.753,1.3692949242731458e-05,-1.006868722031284,1,DB
2025-06-11 21:18:47.761,1.54125229729762e-05,-0.194554789422975,1,DB
2025-06-11 21:18:47.769,1.6929839727032602e-05,0.6740560842162456,1,DB
2025-06-11 21:18:47.777,1.822618810490872e-05,1.6023100701852326,1,DB
2025-06-11 21:18:47.785,1.9285827276204025e-05,2.592555108886963,1,DB
2025-06-11 21:18:47.792,2.009657741446476e-05,3.646015396470592,1,DB
2025-06-11 21:18:47.800,2.0650331605141824e-05,4.762687801750769,1,DB
2025-06-11 21:18:47.808,2.094348688006815e-05,5.941264649301084,1,DB
2025-06-11 21:18:47.816,2.097729283365228e-05,7.17908670822602,1,DB
2025-06-11 21:18:47.824,2.0758115890689383e-05,8.472129318145136,1,DB
2025-06-11 21:18:47.832,2.0297616008542253e-05,9.815023412742738,1,DB
2025-06-11 21:18:47.839,1.9612830731824152e-05,11.20111185543771,1,DB
2025-06-11 21:18:47.847,1.872615942241132e-05,12.622540098319575,1,DB
2025-06-11 21:18:47.855,1.766523851384383e-05,14.0703788396121,1,DB
2025-06-11 21:18:47.863,1.6462697127420175e-05,15.534775197429722,1,DB
2025-06-11 21:18:47.871,1.5155781649493532e-05,17.005128017750806,1,DB
2025-06-11 21:18:47.878,1.3785838173144554e-05,18.47028232998595,1,DB
2025-06-11 21:18:47.886,1.2397643261172412e-05,19.91873764703215,1,DB
2025-06-11 21:18:47.894,1.1038576428500272e-05,21.33886473128985,1,DB
2025-06-11 21:18:47.902,9.757632126546111e-06,22.71912554184316,1,DB
2025-06-11 21:18:47.910,8.604274807254612e-06,24.048291264023007,1,DB
2025-06-11 21:18:47.917,7.627147725295897e-06,25.31565353687922,1,DB
2025-06-11 21:18:47.925,6.872654285634074e-06,26.51122419774359,1,DB
2025-06-11 21:18:47.933,6.383439653151333e-06,27.625919050688427,1,DB
2025-06-11 21:18:47.941,6.1968096221676415e-06,28.65172136924081,1,DB
2025-06-11 21:18:47.949,6.343132936587327e-06,29.581821125043472,1,DB
2025-06-11 21:18:47.957,6.844281840231189e-06,30.41072636307008,1,DB
2025-06-11 21:18:47.964,7.712173068469076e-06,31.13434377075641,1,DB
2025-06-11 21:18:47.972,8.947477197517191e-06,31.75002632511797,1,DB
2025-06-11 21:18:47.980,1.0538567686006376e-05,32.25658691937218,1,DB
2025-06-11 21:18:47.988,1.2460781548380073e-05,32.654278005514904,1,DB
2025-06-11 21:18:47.996,1.4676060926683943e-05,32.94473845572969,1,DB
2025-06-11 21:18:48.003,1.7133038500735525e-05,33.13090994849942,1,DB
2025-06-11 21:18:48.011,1.9767619436513942e-05,33.21692613693587,1,DB
2025-06-11 21:18:48.019,2.250409829922016e-05,33.207978590731614,1,DB
2025-06-11 21:18:48.027,2.5256831093153817e-05,33.110163982747345,1,DB
2025-06-11 21:18:48.035,2.793246055714553e-05,32.93031721180168,1,DB
2025-06-11 21:18:48.042,3.0432667455273e-05,32.6758351403166,1,DB
2025-06-11 21:18:48.050,3.265739246906197e-05,32.354495431839226,1,DB
2025-06-11 21:18:48.058,3.4508443226684286e-05,31.97427467186556,1,DB
2025-06-11 21:18:48.066,3.589336999119913e-05,31.54316962563041,1,DB
2025-06-11 21:18:48.074,3.672946273739001e-05,31.069025197998567,1,DB
2025-06-11 21:18:48.082,3.694769308205104e-05,30.55937245471923,1,DB
2025-06-11 21:18:48.089,3.649639821074513e-05,30.021279943198763,1,DB
2025-06-11 21:18:48.097,3.5344482045531346e-05,29.46122147757856,1,DB
2025-06-11 21:18:48.105,3.34838945435167e-05,28.884963462200425,1,DB
2025-06-11 21:18:48.113,3.093115434368097e-05,28.29747464238179,1,DB
2025-06-11 21:18:48.121,2.7727724941207837e-05,27.70286081858429,1,DB
2025-06-11 21:18:48.128,2.393915252477344e-05,27.10432648543064,1,DB
2025-06-11 21:18:48.136,1.965299916054277e-05,26.50416453989687,1,DB
2025-06-11 21:18:48.144,1.4975708925326794e-05,25.90377416618405,1,DB
2025-06-11 21:18:48.152,1.0028601226100089e-05,25.303705815902998,1,DB
2025-06-11 21:18:48.160,4.943206756965426e-06,24.703730964763043,1,DB
2025-06-11 21:18:48.167,-1.4383143898786354e-07,24.10293316429357,1,DB
2025-06-11 21:18:48.175,-5.096066318153746e-06,23.499815944669862,1,DB
2025-06-11 21:18:48.183,-9.78253809605484e-06,22.89242247215576,1,DB
2025-06-11 21:18:48.191,-1.4082822703845113e-05,22.27846159757495,1,DB
2025-06-11 21:18:48.199,-1.7891614287345246e-05,21.65543507566084,1,DB
2025-06-11 21:18:48.207,-2.1122623085446196e-05,21.020761256270543,1,DB
2025-06-11 21:18:48.214,-2.371157839646308e-05,20.371891362380637,1,DB
2025-06-11 21:18:48.222,-2.561814874706082e-05,19.70641545611541,1,DB
2025-06-11 21:18:48.230,-2.6826648999929485e-05,19.02215621874387,1,DB
2025-06-11 21:18:48.238,-2.7345508798036865e-05,18.317249608738205,1,DB
2025-06-11 21:18:48.246,-2.7205602756709892e-05,17.590212217100973,1,DB
2025-06-11 21:18:48.253,-2.645764092997685e-05,16.839995654329616,1,DB
2025-06-11 21:18:48.261,-2.516886287057212e-05,16.06602856491258,1,DB
2025-06-11 21:18:48.269,-2.341928242025984e-05,15.268246902158724,1,DB
2025-06-11 21:18:48.277,-2.1297715155879e-05,14.447112974538518,1,DB
2025-06-11 21:18:48.285,-1.889779732041626e-05,13.603623582597816,1,DB
2025-06-11 21:18:48.292,-1.6314177224382488e-05,12.739307390683264,1,DB
2025-06-11 21:18:48.300,-1.3639029019341186e-05,11.856211588575352,1,DB
2025-06-11 21:18:48.308,-1.0959005878050626e-05,10.956877934207576,1,DB
2025-06-11 21:18:48.316,-8.352716323948555e-06,10.044308438852902,1,DB
2025-06-11 21:18:48.324,-5.888774965348979e-06,9.121921239965666,1,DB
2025-06-11 21:18:48.332,-3.624448277550625e-06,8.193497559275011,1,DB
2025-06-11 21:18:48.339,-1.604888233089881e-06,7.263121006621805,1,DB
2025-06-11 21:18:48.347,1.3707778722047616e-07,6.3351108065454405,1,DB
2025-06-11 21:18:48.355,1.580652747396177e-06,5.41395074939464,1,DB
2025-06-11 21:18:48.363,2.7163393799341507e-06,4.504215772181602,1,DB
2025-06-11 21:18:48.371,3.544852885559446e-06,3.610498043846337,1,DB
2025-06-11 21:18:48.378,4.075763671481459e-06,2.737334269187944,1,DB
2025-06-11 21:18:48.386,4.3259597741861056e-06,1.8891356549886649,1,DB
2025-06-11 21:18:48.394,4.318017521005407e-06,1.0701216322106564,1,DB
2025-06-11 21:18:48.402,4.078564322322093e-06,0.2842580378326773,1,DB
2025-06-11 21:18:48.410,3.636709742235121e-06,-0.4647999301617648,1,DB
2025-06-11 21:18:48.417,3.0226107200888288e-06,-1.1737600193493969,1,DB
2025-06-11 21:18:48.425,2.266224597808608e-06,-1.8397407917825896,1,DB
2025-06-11 21:18:48.433,1.3962900559493917e-06,-2.46031550594355,1,DB
2025-06-11 21:18:48.441,4.3956178098019044e-07,-3.03355247523397,1,DB
2025-06-11 21:18:48.449,-5.796897347631327e-07,-3.558052238719404,1,DB
2025-06-11 21:18:48.457,-1.6399158669711609e-06,-4.032981623603186,1,DB
2025-06-11 21:18:48.464,-2.722280701290525e-06,-4.458104417534273,1,DB
2025-06-11 21:18:48.472,-3.81043245517597e-06,-4.833807935467781,1,DB
2025-06-11 21:18:48.480,-4.890092855491252e-06,-5.16112430396089,1,DB
2025-06-11 21:18:48.488,-5.948509746499257e-06,-5.4417448467425285,1,DB
2025-06-11 21:18:48.496,-6.973823802190064e-06,-5.678025591890267,1,DB
2025-06-11 21:18:48.503,-7.954403362180808e-06,-5.872981683191615,1,DB
2025-06-11 21:18:48.511,-8.878202028349704e-06,-6.030268413013506,1,DB
2025-06-11 21:18:48.519,-9.732191757707604e-06,-6.154146742398516,1,DB
2025-06-11 21:18:48.527,-1.050191985326534e-05,-6.249431566510508,1,DB
2025-06-11 21:18:48.535,-1.1171231653473624e-05,-6.321421633148973,1,DB
2025-06-11 21:18:48.542,-1.1722192090231133e-05,-6.375810916966572,1,DB
2025-06-11 21:18:48.550,-1.213522893195434e-05,-6.418582345488491,1,DB
2025-06-11 21:18:48.558,-1.2389508820536577e-05,-6.455885977836577,1,DB
2025-06-11 21:18:48.566,-1.2463544572779866e-05,-6.493904932923871,1,DB
2025-06-11 21:18:48.574,-1.23360191176749e-05,-6.538713417548429,1,DB
2025-06-11 21:18:48.582,-1.1986798386141776e-05,-6.596131994328405,1,DB
2025-06-11 21:18:48.589,-1.1398092989034313e-05,-6.67158566464429,1,DB
2025-06-11 21:18:48.597,-1.0555717152772766e-05,-6.769970377269248,1,DB
2025-06-11 21:18:48.605,-9.450383666620502e-06,-6.895533211901512,1,DB
2025-06-11 21:18:48.613,-8.078966048444e-06,-7.051770773351335,1,DB
2025-06-11 21:18:48.621,-6.445654237210951e-06,-7.241349343567338,1,DB
2025-06-11 21:18:48.628,-4.562928296402174e-06,-7.466049174770823,1,DB
2025-06-11 21:18:48.636,-2.452276216111388e-06,-7.726734081289867,1,DB
2025-06-11 21:18:48.644,-1.4458719517879604e-07,-8.023346313036784,1,DB
2025-06-11 21:18:48.652,2.3198390777577743e-06,-8.354925663344588,1,DB
2025-06-11 21:18:48.660,4.891713614262327e-06,-8.719650938283046,1,DB
2025-06-11 21:18:48.667,7.513639480973484e-06,-9.11490131585635,1,DB
2025-06-11 21:18:48.675,1.0121462729895422e-05,-9.537334737276147,1,DB
2025-06-11 21:18:48.683,1.2646078938641892e-05,-9.982980254474088,1,DB
2025-06-11 21:18:48.691,1.5015655500174171e-05,-10.44734114777658,1,DB
2025-06-11 21:18:48.699,1.7158202118331577e-05,-10.925505567260856,1,DB
2025-06-11 21:18:48.707,1.9004393373575992e-05,-11.412261401606434,1,DB
2025-06-11 21:18:48.714,2.0490518737052864e-05,-11.90221202887812,1,DB
2025-06-11 21:18:48.722,2.1561408158369657e-05,-12.389889575914513,1,DB
2025-06-11 21:18:48.730,2.217315654820656e-05,-12.869862355616284,1,DB
2025-06-11 21:18:48.738,2.229545101416277e-05,-13.336833328336288,1,DB
2025-06-11 21:18:48.746,2.1913301553525235e-05,-13.785726803698312,1,DB
2025-06-11 21:18:48.753,2.1028010912396247e-05,-14.211761194687169,1,DB
2025-06-11 21:18:48.761,1.965730483587234e-05,-14.61050644780587,1,DB
2025-06-11 21:18:48.769,1.7834654647359954e-05,-14.977925749078883,1,DB
2025-06-11 21:18:48.777,1.560791098927061e-05,-15.310402158647806,1,DB
2025-06-11 21:18:48.785,1.303740530310286e-05,-15.604751850692487,1,DB
2025-06-11 21:18:48.792,1.019367653678975e-05,-15.858226521379828,1,DB
2025-06-11 21:18:48.800,7.154966436507435e-06,-16.06850817501121,1,DB
2025-06-11 21:18:48.808,4.004608495045507e-06,-16.233699825473376,1,DB
2025-06-11 21:18:48.816,8.284159760531586e-07,-16.352315604231137,1,DB
2025-06-11 21:18:48.824,-2.2878455079804757e-06,-16.42327333536125,1,DB
2025-06-11 21:18:48.832,-5.260834656313702e-06,-16.44589185627185,1,DB
2025-06-11 21:18:48.839,-8.011811958896442e-06,-16.419894308522412,1,DB
2025-06-11 21:18:48.847,-1.0468585237625514e-05,-16.345417412222677,1,DB
2025-06-11 21:18:48.855,-1.256720357915214e-05,-16.22302550735543,1,DB
2025-06-11 21:18:48.863,-1.4253390230893323e-05,-16.053727035537413,1,DB
2025-06-11 21:18:48.871,-1.548371235769536e-05,-15.838990267978293,1,DB
2025-06-11 21:18:48.878,-1.6226490073600526e-05,-15.580754550295325,1,DB
2025-06-11 21:18:48.886,-1.646244914521776e-05,-15.281433186543566,1,DB
2025-06-11 21:18:48.894,-1.6185121628530068e-05,-14.943904340086686,1,DB
2025-06-11 21:18:48.902,-1.5400996985400475e-05,-14.571486965822492,1,DB
2025-06-11 21:18:48.910,-1.4129423551978277e-05,-14.167899745130958,1,DB
2025-06-11 21:18:48.917,-1.2402257273647948e-05,-13.737202175515252,1,DB
2025-06-11 21:18:48.925,-1.0263252071791408e-05,-13.28371825623843,1,DB
2025-06-11 21:18:48.933,-7.76718473834004e-06,-12.811944496605806,1,DB
2025-06-11 21:18:48.941,-4.978707481101775e-06,-12.326445159264615,1,DB
2025-06-11 21:18:48.949,-1.97092369272223e-06,-11.8317386623614,1,DB
2025-06-11 21:18:48.957,1.1763124051553747e-06,-11.332179848115675,1,DB
2025-06-11 21:18:48.964,4.378363624793632e-06,-10.83184335098692,1,DB
2025-06-11 21:18:48.972,7.548025621143669e-06,-10.334413558347077,1,DB
2025-06-11 21:18:48.980,1.0597957258979952e-05,-9.843086656210966,1,DB
2025-06-11 21:18:48.988,1.344327572861637e-05,-9.360489998588152,1,DB
2025-06-11 21:18:48.996,1.6004248062853493e-05,-8.888623532604232,1,DB
2025-06-11 21:18:49.003,1.820899072210485e-05,-8.42882725296818,1,DB
2025-06-11 21:18:49.011,1.9996068319760127e-05,-7.9817776553124835,1,DB
2025-06-11 21:18:49.019,2.131686234360413e-05,-7.547514925784111,1,DB
2025-06-11 21:18:49.027,2.2137561997945643e-05,-7.125501174206084,1,DB
2025-06-11 21:18:49.035,2.244061485777852e-05,-6.714708435106355,1,DB
2025-06-11 21:18:49.042,2.2225475800635217e-05,-6.313733487604896,1,DB
2025-06-11 21:18:49.050,2.15085304794442e-05,-5.920934866093586,1,DB
2025-06-11 21:18:49.058,2.0322156749008016e-05,-5.534585856131652,1,DB
2025-06-11 21:18:49.066,1.871299864082205e-05,-5.153035916577287,1,DB
2025-06-11 21:18:49.074,1.6739613682217077e-05,-4.774871962475292,1,DB
2025-06-11 21:18:49.082,1.4469690261105012e-05,-4.399070389547168,1,DB
2025-06-11 21:18:49.089,1.1977029683951034e-05,-4.02513069503694,1,DB
2025-06-11 21:18:49.097,9.338469393589604e-06,-3.653182085405007,1,DB
2025-06-11 21:18:49.105,6.630900441547758e-06,-3.284055548930729,1,DB
2025-06-11 21:18:49.113,3.928506600619644e-06,-2.919315459135307,1,DB
2025-06-11 21:18:49.121,1.3003256243725186e-06,-2.561246778874372,1,DB
2025-06-11 21:18:49.128,-1.1917938169214488e-06,-2.2127962486707475,1,DB
2025-06-11 21:18:49.136,-3.494792118487882e-06,-1.8774684449636383,1,DB
2025-06-11 21:18:49.144,-5.565532695516872e-06,-1.5591801519446975,1,DB
2025-06-11 21:18:49.152,-7.37146909994965e-06,-1.2620789656543832,1,DB
2025-06-11 21:18:49.160,-8.890863800682863e-06,-0.9903343021892436,1,DB
2025-06-11 21:18:49.167,-1.0112593270734044e-05,-0.7479108811285465,1,DB
2025-06-11 21:18:49.175,-1.103558680674819e-05,-0.5383361809565878,1,DB
2025-06-11 21:18:49.183,-1.1667955876629043e-05,-0.3644742132305593,1,DB
2025-06-11 21:18:49.191,-1.2025876826113726e-05,-0.2283181589416241,1,DB
2025-06-11 21:18:49.199,-1.2132292660536008e-05,-0.1308139100129103,1,DB
2025-06-11 21:18:49.207,-1.2015499630149605e-05,-0.0717253583015189,1,DB
2025-06-11 21:18:49.214,-1.170768183284552e-05,-0.0495504141796312,1,DB
2025-06-11 21:18:49.222,-1.1243452403420568e-05,-0.0614942981332452,1,DB
2025-06-11 21:18:49.230,-1.0658453510229155e-05,-0.103503750660672,1,DB
2025-06-11 21:18:49.238,-9.9880597658024e-06,-0.1703626011195333,1,DB
2025-06-11 21:18:49.246,-9.266221209794432e-06,-0.255845808085306,1,DB
2025-06-11 21:18:49.253,-8.524473151714233e-06,-0.3529258369355034,1,DB
2025-06-11 21:18:49.261,-7.791131245543966e-06,-0.4540222870114878,1,DB
2025-06-11 21:18:49.269,-7.090681543860864e-06,-0.5512832217113648,1,DB
2025-06-11 21:18:49.277,-6.443367230768267e-06,-0.6368848588060385,1,DB
2025-06-11 21:18:49.285,-5.8649664915662045e-06,-0.7033352630294726,1,DB
2025-06-11 21:18:49.292,-5.36674971688026e-06,-0.7437675050268028,1,DB
2025-06-11 21:18:49.300,-4.955599077897295e-06,-0.7522084036570069,1,DB
2025-06-11 21:18:49.308,-4.634269511467814e-06,-0.723810387253082,1,DB
2025-06-11 21:18:49.316,-4.401767333245771e-06,-0.6550360751254475,1,DB
2025-06-11 21:18:49.324,-4.253821023327828e-06,-0.5437877306072575,1,DB
2025-06-11 21:18:49.332,-4.183418133462009e-06,-0.3894765831807495,1,DB
2025-06-11 21:18:49.339,-4.181382648166257e-06,-0.1930299708254195,1,DB
2025-06-11 21:18:49.347,-4.236968370660906e-06,0.0431628563004052,1,DB
2025-06-11 21:18:49.355,-4.338445858673903e-06,0.3153627485193025,1,DB
2025-06-11 21:18:49.363,-4.4736629560057445e-06,0.6186446067681818,1,DB
2025-06-11 21:18:49.371,-4.630561901716206e-06,0.9471054423156716,1,DB
2025-06-11 21:18:49.378,-4.797639201693669e-06,1.2941072234156392,1,DB
2025-06-11 21:18:49.386,-4.964337777336199e-06,1.6525441569560415,1,DB
2025-06-11 21:18:49.394,-5.1213642357548704e-06,2.015123469682724,1,DB
2025-06-11 21:18:49.402,-5.260927323581616e-06,2.3746485745315185,1,DB
2025-06-11 21:18:49.410,-5.376896638177972e-06,2.724293683943521,1,DB
2025-06-11 21:18:49.417,-5.464883400799797e-06,3.057859422361814,1,DB
2025-06-11 21:18:49.425,-5.5222474903073285e-06,3.369999769573853,1,DB
2025-06-11 21:18:49.433,-5.54803695625606e-06,3.656411725786784,1,DB
2025-06-11 21:18:49.441,-5.542867857094241e-06,3.913980426505993,1,DB
2025-06-11 21:18:49.449,-5.508753498893479e-06,4.140874045315714,1,DB
2025-06-11 21:18:49.457,-5.448892992275958e-06,4.336584684882679,1,DB
2025-06-11 21:18:49.464,-5.367429520818291e-06,4.501913526222189,1,DB
2025-06-11 21:18:49.472,-5.26918885259708e-06,4.638900714916,1,DB
2025-06-11 21:18:49.480,-5.159408463062817e-06,4.750702723213601,1,DB
2025-06-11 21:18:49.488,-5.043467210988241e-06,4.841422136918601,1,DB
2025-06-11 21:18:49.496,-4.9266248600481415e-06,4.915896865131146,1,DB
2025-06-11 21:18:49.503,-4.813779906261904e-06,4.979457551425122,1,DB
2025-06-11 21:18:49.511,-4.709253193531906e-06,5.037663385203603,1,DB
2025-06-11 21:18:49.519,-4.616603710017858e-06,5.096027504949784,1,DB
2025-06-11 21:18:49.527,-4.5384817872751e-06,5.159743708748554,1,DB
2025-06-11 21:18:49.535,-4.476523697829648e-06,5.233426218731158,1,DB
2025-06-11 21:18:49.542,-4.431290386835644e-06,5.320873777279566,1,DB
2025-06-11 21:18:49.550,-4.402251797569676e-06,5.424868393225548,1,DB
2025-06-11 21:18:49.558,-4.387816973635592e-06,5.547017636729296,1,DB
2025-06-11 21:18:49.566,-4.385408855668702e-06,5.6876475582226576,1,DB
2025-06-11 21:18:49.574,-4.391581448814236e-06,5.845751161511055,1,DB
2025-06-11 21:18:49.582,-4.402175831199381e-06,6.018994996019947,1,DB
2025-06-11 21:18:49.589,-4.412510316104626e-06,6.203783962166486,1,DB
2025-06-11 21:18:49.597,-4.417598986800994e-06,6.39538196340545,1,DB
2025-06-11 21:18:49.605,-4.4123918111835244e-06,6.588083699331053,1,DB
2025-06-11 21:18:49.613,-4.3920286348913e-06,6.775430775467068,1,DB
2025-06-11 21:18:49.621,-4.352098571553662e-06,6.95046349235837,1,DB
2025-06-11 21:18:49.628,-4.288895685395048e-06,7.105998238716953,1,DB
2025-06-11 21:18:49.636,-4.199661425546996e-06,7.234919400217556,1,DB
2025-06-11 21:18:49.644,-4.082804055527165e-06,7.330474134361334,1,DB
2025-06-11 21:18:49.652,-3.938085358104241e-06,7.38655826066259,1,DB
2025-06-11 21:18:49.660,-3.766765216257802e-06,7.397981869316181,1,DB
2025-06-11 21:18:49.667,-3.571695302653428e-06,7.360704046806523,1,DB
2025-06-11 21:18:49.675,-3.357354074663117e-06,7.27202733096593,1,DB
2025-06-11 21:18:49.683,-3.1298165830221154e-06,7.130744105393774,1,DB
2025-06-11 21:18:49.691,-2.8966542628610933e-06,6.9372290706753885,1,DB
2025-06-11 21:18:49.699,-2.6667618766574727e-06,6.693474113010793,1,DB
2025-06-11 21:18:49.707,-2.4501110957455272e-06,6.403064235980134,1,DB
2025-06-11 21:18:49.714,-2.257432800646842e-06,6.071095622889346,1,DB
2025-06-11 21:18:49.722,-2.0998329940424688e-06,5.70403924688943,1,DB
2025-06-11 21:18:49.730,-1.988350180025004e-06,5.309555636826598,1,DB
2025-06-11 21:18:49.738,-1.9334650790591003e-06,4.8962683349471705,1,DB
2025-06-11 21:18:49.746,-1.9445765142828304e-06,4.47350515187447,1,DB
2025-06-11 21:18:49.753,-2.0294601027808705e-06,4.051017453815062,1,DB
2025-06-11 21:18:49.761,-2.193728886700976e-06,3.638688349417854,1,DB
2025-06-11 21:18:49.769,-2.4403171090960902e-06,3.2462407501422064,1,DB
2025-06-11 21:18:49.777,-2.769009842610097e-06,2.8829558615156325,1,DB
2025-06-11 21:18:49.785,-3.17604198453716e-06,2.557411762949002,1,DB
2025-06-11 21:18:49.792,-3.653790118972187e-06,2.277250427807503,1,DB
2025-06-11 21:18:49.800,-4.190579812521058e-06,2.0489799302706677,1,DB
2025-06-11 21:18:49.808,-4.770628975030965e-06,1.877816804736404,1,DB
2025-06-11 21:18:49.816,-5.374144932195996e-06,1.7675716908580077,1,DB
2025-06-11 21:18:49.824,-5.977588810536479e-06,1.7205796209641702,1,DB
2025-06-11 21:18:49.832,-6.554115757158991e-06,1.737674669105652,1,DB
2025-06-11 21:18:49.839,-7.074193483518044e-06,1.8182072362987367,1,DB
2025-06-11 21:18:49.847,-7.506394760488232e-06,1.9601010223305595,1,DB
2025-06-11 21:18:49.855,-7.818351978958783e-06,2.1599457360502488,1,DB
2025-06-11 21:18:49.863,-7.977853954117548e-06,2.413120810702108,1,DB
2025-06-11 21:18:49.871,-7.954057068896198e-06,2.7139447932700573,1,DB
2025-06-11 21:18:49.878,-7.718774942109594e-06,3.055844637553347,1,DB
2025-06-11 21:18:49.886,-7.2478034247919165e-06,3.431538826740801,1,DB
2025-06-11 21:18:49.894,-6.522231255228997e-06,3.833228073991379,1,DB
2025-06-11 21:18:49.902,-5.529681534194326e-06,4.252787307388433,1,DB
2025-06-11 21:18:49.910,-4.265425711542068e-06,4.681952762250643,1,DB
2025-06-11 21:18:49.917,-2.7333103818280315e-06,5.112498313278869,1,DB
2025-06-11 21:18:49.925,-9.464382144364172e-07,5.536395717929463,1,DB
2025-06-11 21:18:49.933,1.0724519148981808e-06,5.945954237873131,1,DB
2025-06-11 21:18:49.941,3.290953847568203e-06,6.333936162702091,1,DB
2025-06-11 21:18:49.949,5.667350631894684e-06,6.693646054858335,1,DB
2025-06-11 21:18:49.957,8.151384249519976e-06,7.018993011433751,1,DB
2025-06-11 21:18:49.964,1.0685448404077527e-05,7.304526810665421,1,DB
2025-06-11 21:18:49.972,1.3206195574038938e-05,7.54545036401408,1,DB
2025-06-11 21:18:49.980,1.5646528492839693e-05,7.737612295131128,1,DB
2025-06-11 21:18:49.988,1.7937923273153322e-05,7.87748457928857,1,DB
2025-06-11 21:18:49.996,2.0013007187839607e-05,7.962130882786906,1,DB
2025-06-11 21:18:50.003,2.1808289441350287e-05,7.989171457235797,1,DB
2025-06-11 21:18:50.011,2.3266919016943516e-05,7.956750130510477,1,DB
2025-06-11 21:18:50.019,2.4341320873035895e-05,7.863508111259556,1,DB
2025-06-11 21:18:50.027,2.4995541468195575e-05,7.708568061770069,1,DB
2025-06-11 21:18:50.035,2.520711956957169e-05,7.491530323498908,1,DB
2025-06-11 21:18:50.042,2.4968299361229347e-05,7.212481468791667,1,DB
2025-06-11 21:18:50.050,2.428644171617535e-05,6.872013684683098,1,DB
2025-06-11 21:18:50.058,2.3183578324050414e-05,6.471252041914929,1,DB
2025-06-11 21:18:50.066,2.169516671381864e-05,6.011885602454774,1,DB
2025-06-11 21:18:50.074,1.9868192917701935e-05,5.496197663422688,1,DB
2025-06-11 21:18:50.082,1.7758807130973878e-05,4.927090265065141,1,DB
2025-06-11 21:18:50.089,1.5429678434421253e-05,4.3080983963770585,1,DB
2025-06-11 21:18:50.097,1.2947239172162862e-05,3.6433900599418174,1,DB
2025-06-11 21:18:50.105,1.0378968748250677e-05,2.9377494126730044,1,DB
2025-06-11 21:18:50.113,7.790843188986404e-06,2.196541453255735,1,DB
2025-06-11 21:18:50.121,5.24505191576457e-06,1.425658033193463,1,DB
2025-06-11 21:18:50.128,2.798057813876215e-06,0.6314461818558662,1,DB
2025-06-11 21:18:50.136,4.990517950865101e-07,-0.1793792624236808,1,DB
2025-06-11 21:18:50.144,-1.6111705545418932e-06,-0.9998360082247548,1,DB
2025-06-11 21:18:50.152,-3.500904299147964e-06,-1.8227845396807223,1,DB
2025-06-11 21:18:50.160,-5.1478156647291685e-06,-2.641044973494656,1,DB
2025-06-11 21:18:50.167,-6.538837227802779e-06,-3.4475173768354024,1,DB
2025-06-11 21:18:50.175,-7.669720414527088e-06,-4.235302571948563,1,DB
2025-06-11 21:18:50.183,-8.54429784104018e-06,-4.997820672848879,1,DB
2025-06-11 21:18:50.191,-9.173514685313473e-06,-5.728924773450506,1,DB
2025-06-11 21:18:50.199,-9.574291820878484e-06,-6.423007292663571,1,DB
2025-06-11 21:18:50.207,-9.768284075576122e-06,-7.07509647073629,1,DB
2025-06-11 21:18:50.214,-9.78059499298757e-06,-7.680940423406582,1,DB
2025-06-11 21:18:50.222,-9.638505218478164e-06,-8.23707604368521,1,DB
2025-06-11 21:18:50.230,-9.37026549527373e-06,-8.74087996343314,1,DB
2025-06-11 21:18:50.238,-9.003997652578222e-06,-9.190598826798372,1,DB
2025-06-11 21:18:50.246,-8.566738319923603e-06,-9.585356359278766,1,DB
2025-06-11 21:18:50.253,-8.083650826521025e-06,-9.925135195047588,1,DB
2025-06-11 21:18:50.261,-7.577421239983231e-06,-10.210732176940828,1,DB
2025-06-11 21:18:50.269,-7.067845135351046e-06,-10.44368685889487,1,DB
2025-06-11 21:18:50.277,-6.571602795675034e-06,-10.626184175725973,1,DB
2025-06-11 21:18:50.285,-6.102212418708461e-06,-10.760933626037374,1,DB
2025-06-11 21:18:50.292,-5.670143781772508e-06,-10.851028743502331,1,DB
2025-06-11 21:18:50.300,-5.283068889115891e-06,-10.89979199729206,1,DB
2025-06-11 21:18:50.308,-4.9462215320044765e-06,-10.910611445619598,1,DB
2025-06-11 21:18:50.316,-4.662834518995375e-06,-10.886776353130388,1,DB
2025-06-11 21:18:50.324,-4.434621620398497e-06,-10.831319474260615,1,DB
2025-06-11 21:18:50.332,-4.262271007788423e-06,-10.74687372960724,1,DB
2025-06-11 21:18:50.339,-4.145918103885384e-06,-10.6355505297712,1,DB
2025-06-11 21:18:50.347,-4.085568197677299e-06,-10.498846047927202,1,DB
2025-06-11 21:18:50.355,-4.081442796343282e-06,-10.337580374815694,1,DB
2025-06-11 21:18:50.363,-4.134228320534749e-06,-10.151872818083069,1,DB
2025-06-11 21:18:50.371,-4.2452112179600745e-06,-9.941154772477862,1,DB
2025-06-11 21:18:50.378,-4.416289665908707e-06,-9.704219739141594,1,DB
2025-06-11 21:18:50.386,-4.649858534064506e-06,-9.439308350297436,1,DB
2025-06-11 21:18:50.394,-4.948570951327674e-06,-9.144224770033416,1,DB
2025-06-11 21:18:50.402,-5.314986425126001e-06,-8.81647966224661,1,DB
2025-06-11 21:18:50.410,-5.751121759016687e-06,-8.453454067240491,1,DB
2025-06-11 21:18:50.418,-6.257926769342566e-06,-8.052577989926435,1,DB
2025-06-11 21:18:50.425,-6.834711789967254e-06,-7.611517225425916,1,DB
2025-06-11 21:18:50.433,-7.478557967733006e-06,-7.128361870517392,1,DB
2025-06-11 21:18:50.441,-8.18374420470487e-06,-6.601810035157853,1,DB
2025-06-11 21:18:50.449,-8.941226139372527e-06,-6.031340437248741,1,DB
2025-06-11 21:18:50.457,-9.738202655162812e-06,-5.417367820047731,1,DB
2025-06-11 21:18:50.464,-1.0557803978658404e-05,-4.761375483910532,1,DB
2025-06-11 21:18:50.472,-1.1378932445583472e-05,-4.066019696408104,1,DB
2025-06-11 21:18:50.480,-1.217628248466813e-05,-3.335201362637105,1,DB
2025-06-11 21:18:50.488,-1.2920560367931366e-05,-2.5741011178697626,1,DB
2025-06-11 21:18:50.496,-1.3578916929097187e-05,-1.789174953481636,1,DB
2025-06-11 21:18:50.503,-1.4115597948318734e-05,-0.9881085974778924,1,DB
2025-06-11 21:18:50.511,-1.4492807489964454e-05,-0.1797301198985202,1,DB
2025-06-11 21:18:50.519,-1.4671769468250134e-05,0.626118421437712,1,DB
2025-06-11 21:18:50.527,-1.4613962464829003e-05,1.4187480981506613,1,DB
2025-06-11 21:18:50.535,-1.4282492743096252e-05,2.1868254474546864,1,DB
2025-06-11 21:18:50.543,-1.364356094525714e-05,2.9186052393120394,1,DB
2025-06-11 21:18:50.550,-1.2667969597400232e-05,3.602187807120269,1,DB
2025-06-11 21:18:50.558,-1.1332611776181212e-05,4.225794206271313,1,DB
2025-06-11 21:18:50.566,-9.621876597323754e-06,4.7780518370333445,1,DB
2025-06-11 21:18:50.574,-7.52890503955833e-06,5.2482827908807845,1,DB
2025-06-11 21:18:50.582,-5.056630446002072e-06,5.626787046628263,1,DB
2025-06-11 21:18:50.589,-2.2185422150154795e-06,5.905112735652693,1,DB
2025-06-11 21:18:50.597,9.608810120678369e-07,6.076305985288809,1,DB
2025-06-11 21:18:50.605,4.4461107588408944e-06,6.135133300973831,1,DB
2025-06-11 21:18:50.613,8.190907350022238e-06,6.0782700255469,1,DB
2025-06-11 21:18:50.621,1.2139065176649942e-05,5.904449091780938,1,DB
2025-06-11 21:18:50.628,1.6225549232262455e-05,5.614565052608998,1,DB
2025-06-11 21:18:50.636,2.0377981691251782e-05,5.211729243083267,1,DB
2025-06-11 21:18:50.644,2.451840890820152e-05,4.701272923127421,1,DB
2025-06-11 21:18:50.652,2.8565250695613223e-05,4.0906963986954965,1,DB
2025-06-11 21:18:50.660,3.2435315710303905e-05,3.389563442202393,1,DB
2025-06-11 21:18:50.668,3.604578094481429e-05,2.6093418347506003,1,DB
2025-06-11 21:18:50.675,3.931609209299397e-05,1.7631925112104654,1,DB
2025-06-11 21:18:50.683,4.216981993360399e-05,0.8657115554321192,1,DB
2025-06-11 21:18:50.691,4.4536557400691055e-05,-0.0673689083611024,1,DB
2025-06-11 21:18:50.699,4.6353938190228185e-05,-1.0195131484524167,1,DB
2025-06-11 21:18:50.707,4.756981400593613e-05,-1.9737382495983464,1,DB
2025-06-11 21:18:50.714,4.814456703311672e-05,-2.912983941258519,1,DB
2025-06-11 21:18:50.722,4.805346943814012e-05,-3.820484401009624,1,DB
2025-06-11 21:18:50.730,4.728893722200275e-05,-4.680130263421983,1,DB
2025-06-11 21:18:50.738,4.586246466557565e-05,-5.476809285298756,1,DB
2025-06-11 21:18:50.746,4.380597256531993e-05,-6.19671491970617,1,DB
2025-06-11 21:18:50.753,4.117227272727647e-05,-6.827613404086726,1,DB
2025-06-11 21:18:50.761,3.803437579813244e-05,-7.359061789644511,1,DB
2025-06-11 21:18:50.769,3.4483483698402764e-05,-7.782571501730661,1,DB
2025-06-11 21:18:50.777,3.0625698577573384e-05,-8.091714365779296,1,DB
2025-06-11 21:18:50.785,2.6577672701834097e-05,-8.282170394194303,1,DB
2025-06-11 21:18:50.793,2.246154322700164e-05,-8.35171885515365,1,DB
2025-06-11 21:18:50.800,1.839952884573347e-05,-8.300176115262238,1,DB
2025-06-11 21:18:50.808,1.4508545334053284e-05,-8.129285384652642,1,DB
2025-06-11 21:18:50.816,1.0895156116595635e-05,-7.842564755926952,1,DB
2025-06-11 21:18:50.824,7.651125200050778e-06,-7.445120815134762,1,DB
2025-06-11 21:18:50.832,4.849786534148617e-06,-6.943435643079812,1,DB
2025-06-11 21:18:50.839,2.5433876865927787e-06,-6.345135267262619,1,DB
2025-06-11 21:18:50.847,7.6150819543945e-07,-5.658747620977494,1,DB
2025-06-11 21:18:50.855,-4.894044962763662e-07,-4.893457860362093,1,DB
2025-06-11 21:18:50.863,-1.225394723622868e-06,-4.058868514197601,1,DB
2025-06-11 21:18:50.871,-1.4833206852844383e-06,-3.164771417398571,1,DB
2025-06-11 21:18:50.878,-1.3182557325144697e-06,-2.220937724290136,1,DB
2025-06-11 21:18:50.886,-8.001311698253393e-07,-1.2369315218699477,1,DB
2025-06-11 21:18:50.894,-9.823030134459037e-09,-0.2219516649493172,1,DB
2025-06-11 21:18:50.902,9.650806698952e-07,0.8152945767546523,1,DB
2025-06-11 21:18:50.910,2.034570064766932e-06,1.8666836454752065,1,DB
2025-06-11 21:18:50.918,3.110291928709741e-06,2.9247324996264545,1,DB
2025-06-11 21:18:50.925,4.10918043738073e-06,3.982620432760192,1,DB
2025-06-11 21:18:50.933,4.956488592318286e-06,5.034177741976674,1,DB
2025-06-11 21:18:50.941,5.588178722467923e-06,6.07384455979371,1,DB
2025-06-11 21:18:50.949,5.952716478911838e-06,7.096604520921691,1,DB
2025-06-11 21:18:50.957,6.012348948408364e-06,8.097899060335576,1,DB
2025-06-11 21:18:50.964,5.743945945583764e-06,9.073528933240398,1,DB
2025-06-11 21:18:50.972,5.139465864630369e-06,10.0195499403768,1,DB
2025-06-11 21:18:50.980,4.206084602906354e-06,10.93216979882804,1,DB
2025-06-11 21:18:50.988,2.9660010064128164e-06,11.807652624100347,1,DB
2025-06-11 21:18:50.996,1.4559064814066364e-06,12.642236628871132,1,DB
2025-06-11 21:18:51.003,-2.739186546673751e-07,13.43206947735223,1,DB
2025-06-11 21:18:51.011,-2.160942394535014e-06,14.173164365786258,1,DB
2025-06-11 21:18:51.019,-4.13222984737989e-06,14.86137844323234,1,DB
2025-06-11 21:18:51.027,-6.106883233189848e-06,15.49241375117523,1,DB
2025-06-11 21:18:51.035,-7.999116482123417e-06,16.06183953697371,1,DB
2025-06-11 21:18:51.043,-9.721921870655012e-06,16.565133654130545,1,DB
2025-06-11 21:18:51.050,-1.1191176104954714e-05,16.99773984992834,1,DB
2025-06-11 21:18:51.058,-1.2329948774290732e-05,17.35513708640159,1,DB
2025-06-11 21:18:51.066,-1.3072743093557796e-05,17.632916654581187,1,DB
2025-06-11 21:18:51.074,-1.33694056731319e-05,17.82686272282297,1,DB
2025-06-11 21:18:51.082,-1.318846753819809e-05,17.93303209869391,1,DB
2025-06-11 21:18:51.089,-1.2519712458323864e-05,17.947829363095735,1,DB
2025-06-11 21:18:51.097,-1.1375808520098071e-05,17.868074125952692,1,DB
2025-06-11 21:18:51.105,-9.792884008600183e-06,17.691057913437945,1,DB
2025-06-11 21:18:51.113,-7.829978199336701e-06,17.41458907724706,1,DB
2025-06-11 21:18:51.121,-5.567350646879921e-06,17.037025060802222,1,DB
2025-06-11 21:18:51.128,-3.103687928667748e-06,16.557292304059008,1,DB
2025-06-11 21:18:51.136,-5.523033854531805e-07,15.974894954872726,1,DB
2025-06-11 21:18:51.144,1.9635181039825905e-06,15.289914324974804,1,DB
2025-06-11 21:18:51.152,4.315823285437668e-06,14.503001639959823,1,DB
2025-06-11 21:18:51.160,6.377682647365229e-06,13.615367054099652,1,DB
2025-06-11 21:18:51.168,8.028966851810326e-06,12.62876810890794,1,DB
2025-06-11 21:18:51.175,9.161874855585673e-06,11.54550079483534,1,DB
2025-06-11 21:18:51.183,9.685893143207488e-06,10.368396125999952,1,DB
2025-06-11 21:18:51.191,9.53193047472532e-06,9.100824668307515,1,DB
2025-06-11 21:18:51.199,8.655465794318012e-06,7.746710793059191,1,DB
2025-06-11 21:18:51.207,7.038620128179332e-06,6.310557595298571,1,DB
2025-06-11 21:18:51.214,4.691093459064186e-06,4.797482465496362,1,DB
2025-06-11 21:18:51.222,1.6499174572896393e-06,3.2132622897404644,1,DB
2025-06-11 21:18:51.230,-2.021992279742436e-06,1.5643862342674602,1,DB
2025-06-11 21:18:51.238,-6.238422409371477e-06,-0.1418869010803601,1,DB
2025-06-11 21:18:51.246,-1.0893423263748392e-05,-1.89747065085178,1,DB
2025-06-11 21:18:51.253,-1.5865606829565267e-05,-3.6933968017958487,1,DB
2025-06-11 21:18:51.261,-2.1022917414300628e-05,-5.519770454997108,1,DB
2025-06-11 21:18:51.269,-2.6227623356522587e-05,-7.365739785733886,1,DB
2025-06-11 21:18:51.277,-3.134130553508285e-05,-9.219486163611686,1,DB
2025-06-11 21:18:51.285,-3.622964975720946e-05,-11.068240106255374,1,DB
2025-06-11 21:18:51.293,-4.076688233423384e-05,-12.898328006653571,1,DB
2025-06-11 21:18:51.300,-4.483972008205286e-05,-14.695253668761325,1,DB
2025-06-11 21:18:51.308,-4.83507366309352e-05,-16.44381741002901,1,DB
2025-06-11 21:18:51.316,-5.122107555454735e-05,-18.128273882385948,1,DB
2025-06-11 21:18:51.324,-5.339246693246817e-05,-19.732527899916168,1,DB
2025-06-11 21:18:51.332,-5.482852728031095e-05,-21.2403655451374,1,DB
2025-06-11 21:18:51.339,-5.551534326994893e-05,-22.635715779194932,1,DB
2025-06-11 21:18:51.347,-5.5461357461757856e-05,-23.90293584004308,1,DB
2025-06-11 21:18:51.355,-5.4696589678467086e-05,-25.02711201815539,1,DB
2025-06-11 21:18:51.363,-5.327124107772597e-05,-25.99436608789425,1,DB
2025-06-11 21:18:51.371,-5.1253739909800494e-05,-26.792156861040297,1,DB
2025-06-11 21:18:51.378,-4.872829888468202e-05,-27.40956609840594,1,DB
2025-06-11 21:18:51.386,-4.5792064505768e-05,-27.837558400539606,1,DB
2025-06-11 21:18:51.394,-4.255194907860275e-05,-28.069205682622645,1,DB
2025-06-11 21:18:51.402,-3.91212466949157e-05,-28.099868354365857,1,DB
2025-06-11 21:18:51.410,-3.5616145512324947e-05,-27.92732725915479,1,DB
2025-06-11 21:18:51.418,-3.215226012727232e-05,-27.55186262726312,1,DB
2025-06-11 21:18:51.425,-2.8841319625602397e-05,-26.976278593776307,1,DB
2025-06-11 21:18:51.433,-2.5788157035619464e-05,-26.205874046925725,1,DB
2025-06-11 21:18:51.441,-2.308814420596523e-05,-25.2483625426,1,DB
2025-06-11 21:18:51.449,-2.082518130366628e-05,-24.113745610750343,1,DB
2025-06-11 21:18:51.457,-1.90702701729485e-05,-22.814144903315565,1,DB
2025-06-11 21:18:51.464,-1.7880601125520636e-05,-21.36359926972208,1,DB
2025-06-11 21:18:51.472,-1.7299012209937436e-05,-19.777833037647145,1,DB
2025-06-11 21:18:51.480,-1.735366354415881e-05,-18.0740016128636,1,DB
2025-06-11 21:18:51.488,-1.8057793905786184e-05,-16.270420104173663,1,DB
2025-06-11 21:18:51.496,-1.9409469745895217e-05,-14.386280141683333,1,DB
2025-06-11 21:18:51.503,-2.1391286098476777e-05,-12.441359492407749,1,DB
2025-06-11 21:18:51.511,-2.3970030378413343e-05,-10.455728569307212,1,DB
2025-06-11 21:18:51.519,-2.70963712299432e-05,-8.449457533257549,1,DB
2025-06-11 21:18:51.527,-3.070468284837587e-05,-6.442327428118486,1,DB
2025-06-11 21:18:51.535,-3.4713156461788164e-05,-4.453548669640976,1,DB
2025-06-11 21:18:51.543,-3.902437295223675e-05,-2.5014902162453727,1,DB
2025-06-11 21:18:51.550,-4.352649127798716e-05,-0.6034228593603521,1,DB
2025-06-11 21:18:51.558,-4.809513353776239e-05,1.2247197501736502,1,DB
2025-06-11 21:18:51.566,-5.259594422283275e-05,2.968558514266268,1,DB
2025-06-11 21:18:51.574,-5.688771743022892e-05,4.615460714568567,1,DB
2025-06-11 21:18:51.582,-6.082594712795429e-05,6.154702081580665,1,DB
2025-06-11 21:18:51.589,-6.4266650140432e-05,7.5775948710735905,1,DB
2025-06-11 21:18:51.597,-6.707031826665837e-05,8.87757777682341,1,DB
2025-06-11 21:18:51.605,-6.91058648596227e-05,10.050263742658707,1,DB
2025-06-11 21:18:51.613,-7.025444053766506e-05,11.09344219257025,1,DB
2025-06-11 21:18:51.621,-7.041300253318368e-05,12.00703292961594,1,DB
2025-06-11 21:18:51.628,-6.949753275192179e-05,12.79299000843674,1,DB
2025-06-11 21:18:51.636,-6.744581130734612e-05,13.455155284516955,1,DB
2025-06-11 21:18:51.644,-6.42196656163991e-05,13.999063070694858,1,DB
2025-06-11 21:18:51.652,-5.9806630677367416e-05,14.43169932826587,1,DB
2025-06-11 21:18:51.660,-5.422097450709661e-05,14.761220984200834,1,DB
2025-06-11 21:18:51.668,-4.7504064476966224e-05,14.99664315937554,1,DB
2025-06-11 21:18:51.675,-3.972407595747587e-05,15.147504147451592,1,DB
2025-06-11 21:18:51.683,-3.097507300066439e-05,15.223519713082608,1,DB
2025-06-11 21:18:51.691,-2.1375512249051287e-05,15.234239496100422,1,DB
2025-06-11 21:18:51.699,-1.1066215195053368e-05,15.188718860493475,1,DB
2025-06-11 21:18:51.707,-2.0780880557298842e-07,15.095219316172791,1,DB
2025-06-11 21:18:51.714,1.10224239299641e-05,14.960949646005371,1,DB
2025-06-11 21:18:51.722,2.2434364885644427e-05,14.791858149474626,1,DB
2025-06-11 21:18:51.730,3.3829597226711584e-05,14.592484099792769,1,DB
2025-06-11 21:18:51.738,4.5006619327719055e-05,14.365873789811864,1,DB
2025-06-11 21:18:51.746,5.576660449808342e-05,14.113563628543512,1,DB
2025-06-11 21:18:51.753,6.591950380219052e-05,13.835629858294404,1,DB
2025-06-11 21:18:51.761,7.529025799012878e-05,13.530801775051106,1,DB
2025-06-11 21:18:51.769,8.372487151079593e-05,13.196632980064406,1,DB
2025-06-11 21:18:51.777,9.10960636796219e-05,12.829723235776266,1,DB
2025-06-11 21:18:51.785,9.73081400532262e-05,12.425981962059858,1,DB
2025-06-11 21:18:51.793,0.0001023006702368,11.980923276015682,1,DB
2025-06-11 21:18:51.800,0.0001060505868997,11.48998172042986,1,DB
2025-06-11 21:18:51.808,0.0001085724660548,10.94883740597786,1,DB
2025-06-11 21:18:51.816,0.0001099169742727,10.353739176454525,1,DB
2025-06-11 21:18:51.824,0.0001101676894963,9.701814570482776,1,DB
2025-06-11 21:18:51.832,0.0001094366337949,8.991355784874902,1,DB
2025-06-11 21:18:51.839,0.0001078588629633,8.222071541209278,1,DB
2025-06-11 21:18:51.847,0.0001055863733977,7.3952957197367235,1,DB
2025-06-11 21:18:51.855,0.0001027814924526,6.514144851093214,1,DB
2025-06-11 21:18:51.863,9.960988783303574e-05,5.583618031529632,1,DB
2025-06-11 21:18:51.871,9.623337981258045e-05,4.610634520922306,1,DB
2025-06-11 21:18:51.878,9.280283034002824e-05,3.604006152237608,1,DB
2025-06-11 21:18:51.886,8.94514782776678e-05,2.574343676771041,1,DB
2025-06-11 21:18:51.894,8.628916706984137e-05,1.5338982377091486,1,DB
2025-06-11 21:18:51.902,8.339793280225521e-05,0.4963412503410028,1,DB
2025-06-11 21:18:51.910,8.082934818454246e-05,-0.5235119855633913,1,DB
2025-06-11 21:18:51.918,7.86038551669538e-05,-1.510027668865075,1,DB
2025-06-11 21:18:51.925,7.671210843731725e-05,-2.447118828363648,1,DB
2025-06-11 21:18:51.933,7.511814164160279e-05,-3.318640028282517,1,DB
2025-06-11 21:18:51.941,7.376399734797483e-05,-4.108799663356138,1,DB
2025-06-11 21:18:51.949,7.25753522996393e-05,-4.802577212728272,1,DB
2025-06-11 21:18:51.957,7.146761327847646e-05,-5.38613236606992,1,DB
2025-06-11 21:18:51.964,7.035194438366044e-05,-5.847192877185588,1,DB
2025-06-11 21:18:51.972,6.91407349924635e-05,-6.1754083328244125,1,DB
2025-06-11 21:18:51.980,6.775215312309626e-05,-6.362657734742202,1,DB
2025-06-11 21:18:51.988,6.611362186106212e-05,-6.403299876447448,1,DB
2025-06-11 21:18:51.996,6.41642396614582e-05,-6.294356964087879,1,DB
2025-06-11 21:18:52.003,6.185629148101344e-05,-6.035623806292064,1,DB
2025-06-11 21:18:52.011,5.9156051201136905e-05,-5.629697197798562,1,DB
2025-06-11 21:18:52.019,5.60440553153758e-05,-5.081922838790235,1,DB
2025-06-11 21:18:52.027,5.251495440995803e-05,-4.400260216651007,1,DB
2025-06-11 21:18:52.035,4.857697165784269e-05,-3.595069226827608,1,DB
2025-06-11 21:18:52.043,4.425095745482392e-05,-2.6788257649169758,1,DB
2025-06-11 21:18:52.050,3.956902540015259e-05,-1.6657768726278035,1,DB
2025-06-11 21:18:52.058,3.457276669203919e-05,-0.5715490238269233,1,DB
2025-06-11 21:18:52.066,2.931106779279267e-05,0.5872744502619244,1,DB
2025-06-11 21:18:52.074,2.3837610764318243e-05,1.7935891859101845,1,DB
2025-06-11 21:18:52.082,1.8208203960319035e-05,3.030200585874102,1,DB
2025-06-11 21:18:52.089,1.2478136380254442e-05,4.280231658192273,1,DB
2025-06-11 21:18:52.097,6.699749319660145e-06,5.527491278196726,1,DB
2025-06-11 21:18:52.105,9.203936575017296e-07,6.756788439878143,1,DB
2025-06-11 21:18:52.113,-4.819073015173092e-06,7.954180941775641,1,DB
2025-06-11 21:18:52.121,-1.0485097773255118e-05,9.107150331595,1,DB
2025-06-11 21:18:52.128,-1.6051427493409323e-05,10.20469861526764,1,DB
2025-06-11 21:18:52.136,-2.149823472005476e-05,11.237366036778637,1,DB
2025-06-11 21:18:52.144,-2.681042242417033e-05,12.197172992616318,1,DB
2025-06-11 21:18:52.152,-3.197526188042855e-05,13.077492723141528,1,DB
2025-06-11 21:18:52.160,-3.697961540136272e-05,13.872864715461793,1,DB
2025-06-11 21:18:52.168,-4.180707797673192e-05,14.57876167415872,1,DB
2025-06-11 21:18:52.175,-4.64354262870368e-05,15.191325389652793,1,DB
2025-06-11 21:18:52.183,-5.0834765332845534e-05,15.707088770436206,1,DB
2025-06-11 21:18:52.191,-5.496668917651907e-05,16.122702596105615,1,DB
2025-06-11 21:18:52.199,-5.8784627349422734e-05,16.43468606686684,1,DB
2025-06-11 21:18:52.207,-6.223537022172719e-05,16.639219842395768,1,DB
2025-06-11 21:18:52.214,-6.526160721067334e-05,16.731998868217385,1,DB
2025-06-11 21:18:52.222,-6.780520954103831e-05,16.708159815731186,1,DB
2025-06-11 21:18:52.230,-6.981094975234183e-05,16.562294417026454,1,DB
2025-06-11 21:18:52.238,-7.123035196752626e-05,16.288555451369042,1,DB
2025-06-11 21:18:52.246,-7.20253873692841e-05,15.880856828458835,1,DB
2025-06-11 21:18:52.253,-7.217175813604115e-05,15.333163396425872,1,DB
2025-06-11 21:18:52.261,-7.166154804579324e-05,14.639860128706806,1,DB
2025-06-11 21:18:52.269,-7.050505841587979e-05,13.796184595334411,1,DB
2025-06-11 21:18:52.277,-6.873169331046136e-05,12.79870148179348,1,DB
2025-06-11 21:18:52.285,-6.638980725290701e-05,11.645793732662488,1,DB
2025-06-11 21:18:52.293,-6.354548119233575e-05,10.33814196438783,1,DB
2025-06-11 21:18:52.300,-6.028024727233827e-05,8.879162341301628,1,DB
2025-06-11 21:18:52.308,-5.668783902025482e-05,7.275373298722227,1,DB
2025-06-11 21:18:52.316,-5.28700997988315e-05,5.536663408072813,1,DB
2025-06-11 21:18:52.324,-4.893223751317305e-05,3.676436309962277,1,DB
2025-06-11 21:18:52.332,-4.497766631437855e-05,1.7116139010607612,1,DB
2025-06-11 21:18:52.339,-4.11027249612292e-05,-0.3375143342257796,1,DB
2025-06-11 21:18:52.347,-3.739160346377095e-05,-2.4476000853185265,1,DB
2025-06-11 21:18:52.355,-3.39118333975881e-05,-4.592698654407123,1,DB
2025-06-11 21:18:52.363,-3.071068067221945e-05,-6.744871711228402,1,DB
2025-06-11 21:18:52.371,-2.781270984113116e-05,-8.874908352437686,1,DB
2025-06-11 21:18:52.378,-2.5218691143622397e-05,-10.953134746668445,1,DB
2025-06-11 21:18:52.386,-2.2905942297393487e-05,-12.950276521678568,1,DB
2025-06-11 21:18:52.394,-2.083015176028373e-05,-14.838334065286494,1,DB
2025-06-11 21:18:52.402,-1.892868369725617e-05,-16.591429459086104,1,DB
2025-06-11 21:18:52.410,-1.7125274057275256e-05,-18.18658500223288,1,DB
2025-06-11 21:18:52.418,-1.5335886369439636e-05,-19.60439710204112,1,DB
2025-06-11 21:18:52.425,-1.34753405972449e-05,-20.829575341576483,1,DB
2025-06-11 21:18:52.433,-1.1464209532877091e-05,-21.85132422062313,1,DB
2025-06-11 21:18:52.441,-9.235431489341863e-06,-22.66355374716168,1,DB
2025-06-11 21:18:52.449,-6.740118732266667e-06,-23.26491407094106,1,DB
2025-06-11 21:18:52.457,-3.95212441515901e-06,-23.65865809668994,1,DB
2025-06-11 21:18:52.464,-8.710412370973934e-07,-23.85234397838267,1,DB
2025-06-11 21:18:52.472,2.47657064181784e-06,-23.857396171401465,1,DB
2025-06-11 21:18:52.480,6.037796177890146e-06,-23.68854902421348,1,DB
2025-06-11 21:18:52.488,9.735751184850252e-06,-23.36320057523852,1,DB
2025-06-11 21:18:52.496,1.3473536631145089e-05,-22.900706259135667,1,DB
2025-06-11 21:18:52.503,1.7139425279500926e-05,-22.32164270306511,1,DB
2025-06-11 21:18:52.511,2.061283246251537e-05,-21.64707087775009,1,DB
2025-06-11 21:18:52.519,2.3770556841646047e-05,-20.897825793330757,1,DB
2025-06-11 21:18:52.527,2.649278203638617e-05,-20.09385696521836,1,DB
2025-06-11 21:18:52.535,2.8668405780693474e-05,-19.253640298741946,1,DB
2025-06-11 21:18:52.543,3.019938432821929e-05,-18.393678113878924,1,DB
2025-06-11 21:18:52.550,3.1003919297335305e-05,-17.528099970445975,1,DB
2025-06-11 21:18:52.558,3.1018457683325e-05,-16.66837291828518,1,DB
2025-06-11 21:18:52.566,3.0198615562228517e-05,-15.823125883874887,1,DB
2025-06-11 21:18:52.574,2.8519258005183904e-05,-14.998089161874734,1,DB
2025-06-11 21:18:52.582,2.597404555646575e-05,-14.196146421659853,1,DB
2025-06-11 21:18:52.589,2.2574766622163718e-05,-13.41749326615739,1,DB
2025-06-11 21:18:52.597,1.835071594622116e-05,-12.659893201298138,1,DB
2025-06-11 21:18:52.605,1.334827800200926e-05,-11.919018918231377,1,DB
2025-06-11 21:18:52.613,7.630758120077242e-06,-11.18886411381173,1,DB
2025-06-11 21:18:52.621,1.2783901248389358e-06,-10.462208762841817,1,DB
2025-06-11 21:18:52.628,-5.611646351763561e-06,-9.731118916907969,1,DB
2025-06-11 21:18:52.636,-1.2925417379984208e-05,-8.987460858288346,1,DB
2025-06-11 21:18:52.644,-2.053284565092093e-05,-8.223408891955268,1,DB
2025-06-11 21:18:52.652,-2.828890470250108e-05,-7.431926295184437,1,DB
2025-06-11 21:18:52.660,-3.603551183932113e-05,-6.607200008129601,1,DB
2025-06-11 21:18:52.668,-4.360418768315905e-05,-5.745011545940073,1,DB
2025-06-11 21:18:52.675,-5.081947915836422e-05,-4.843029305456017,1,DB
2025-06-11 21:18:52.683,-5.750305181538089e-05,-3.901010840609148,1,DB
2025-06-11 21:18:52.691,-6.347828569922733e-05,-2.920907654441775,1,DB
2025-06-11 21:18:52.699,-6.857518025256721e-05,-1.9068694198818563,1,DB
2025-06-11 21:18:52.707,-7.263537617269457e-05,-0.8651490751674739,1,DB
2025-06-11 21:18:52.714,-7.551711477581915e-05,0.1960853008505634,1,DB
2025-06-11 21:18:52.722,-7.709996854913582e-05,1.2670217852651673,1,DB
2025-06-11 21:18:52.730,-7.728918883830624e-05,2.336545416834364,1,DB
2025-06-11 21:18:52.738,-7.601952856558893e-05,3.392631927067472,1,DB
2025-06-11 21:18:52.746,-7.325841026586509e-05,4.422775697478951,1,DB
2025-06-11 21:18:52.753,-6.900832349452469e-05,5.414431996726369,1,DB
2025-06-11 21:18:52.761,-6.330835183195335e-05,6.355453191815063,1,DB
2025-06-11 21:18:52.769,-5.623474933760828e-05,7.234499143389493,1,DB
2025-06-11 21:18:52.777,-4.790051039002652e-05,8.041403357116321,1,DB
2025-06-11 21:18:52.785,-3.845390624783203e-05,8.767478633844611,1,DB
2025-06-11 21:18:52.793,-2.807599702371742e-05,9.405748894190571,1,DB
2025-06-11 21:18:52.800,-1.6977167803757113e-05,9.951097483845336,1,DB
2025-06-11 21:18:52.808,-5.3927726752964975e-06,10.400326496266905,1,DB
2025-06-11 21:18:52.816,6.422020575063848e-06,10.752126331200284,1,DB
2025-06-11 21:18:52.824,1.8198121418274463e-05,11.006959629413531,1,DB
2025-06-11 21:18:52.832,2.965912168781513e-05,11.166868609027675,1,DB
2025-06-11 21:18:52.839,4.052860052859513e-05,11.235219345162468,1,DB
2025-06-11 21:18:52.847,5.053806345451634e-05,11.216400325584903,1,DB
2025-06-11 21:18:52.855,5.943535601422911e-05,11.115495347017832,1,DB
2025-06-11 21:18:52.863,6.699329098529557e-05,10.93795223531373,1,DB
2025-06-11 21:18:52.871,7.301815377935956e-05,10.689268846321204,1,DB
2025-06-11 21:18:52.878,7.735772202471962e-05,10.374716340276796,1,DB
2025-06-11 21:18:52.886,7.990843310198733e-05,9.999116955825992,1,DB
2025-06-11 21:18:52.894,8.062132346217481e-05,9.566689676531642,1,DB
2025-06-11 21:18:52.902,7.950634639673612e-05,9.080972589102148,1,DB
2025-06-11 21:18:52.910,7.663468099817818e-05,8.544825720630035,1,DB
2025-06-11 21:18:52.918,7.213868631019974e-05,7.960513054988854,1,DB
2025-06-11 21:18:52.925,6.620922732094915e-05,7.32985757919996,1,DB
2025-06-11 21:18:52.933,5.909021815141846e-05,6.654458858486506,1,DB
2025-06-11 21:18:52.941,5.107040381937884e-05,5.935958976308802,1,DB
2025-06-11 21:18:52.949,4.247260691205409e-05,5.176339827608145,1,DB
2025-06-11 21:18:52.957,3.364085826886429e-05,4.3782327882192,1,DB
2025-06-11 21:18:52.964,2.492599640795109e-05,3.545220730050473,1,DB
2025-06-11 21:18:52.972,1.6670455953847698e-05,2.682112215169866,1,DB
2025-06-11 21:18:52.980,9.19305210606717e-06,1.795168473825154,1,DB
2025-06-11 21:18:52.988,2.7745823361621394e-06,0.8922654326129826,1,DB
2025-06-11 21:18:52.996,-2.35499261151891e-06,-0.0170244258134297,1,DB
2025-06-11 21:18:53.003,-6.027134421821267e-06,-0.9214422802026728,1,DB
2025-06-11 21:18:53.011,-8.142557137644007e-06,-1.8081531554209944,1,DB
2025-06-11 21:18:53.019,-8.675920949271205e-06,-2.662959351316501,1,DB
2025-06-11 21:18:53.027,-7.677157543697497e-06,-3.470615333415064,1,DB
2025-06-11 21:18:53.035,-5.269345857985742e-06,-4.215236988924866,1,DB
2025-06-11 21:18:53.043,-1.6432085267095028e-06,-4.880792815787253,1,DB
2025-06-11 21:18:53.050,2.95155165610678e-06,-5.451659520132633,1,DB
2025-06-11 21:18:53.058,8.217712026752825e-06,-5.913219928538547,1,DB
2025-06-11 21:18:53.066,1.3824287790092094e-05,-6.252477355608412,1,DB
2025-06-11 21:18:53.074,1.9421962463535068e-05,-6.458657868904912,1,DB
2025-06-11 21:18:53.082,2.4659455963544643e-05,-6.523770494757444,1,DB
2025-06-11 21:18:53.089,2.9200012698517403e-05,-6.443095494284176,1,DB
2025-06-11 21:18:53.097,3.273716243517007e-05,-6.215572530932997,1,DB
2025-06-11 21:18:53.105,3.500895396286932e-05,-5.844063895726831,1,DB
2025-06-11 21:18:53.113,3.5809982899848204e-05,-5.335472913681909,1,DB
2025-06-11 21:18:53.121,3.5000696101778884e-05,-4.700704082621944,1,DB
2025-06-11 21:18:53.129,3.2513615965488446e-05,-3.954459134475069,1,DB
2025-06-11 21:18:53.136,2.8356274926958804e-05,-3.114871671519369,1,DB
2025-06-11 21:18:53.144,2.2610801905615145e-05,-2.202991805637694,1,DB
2025-06-11 21:18:53.152,1.543027667498983e-05,-1.2421407119237875,1,DB
2025-06-11 21:18:53.160,7.032151760262058e-06,-0.2571625474636884,1,DB
2025-06-11 21:18:53.168,-2.310805372819372e-06,0.7263928457496348,1,DB
2025-06-11 21:18:53.175,-1.2281508371182752e-05,1.6831191577517557,1,DB
2025-06-11 21:18:53.183,-2.2530923150479676e-05,2.588595997241035,1,DB
2025-06-11 21:18:53.191,-3.2691272375951474e-05,3.4201867557927907,1,DB
2025-06-11 21:18:53.199,-4.238957072875072e-05,4.157757658153488,1,DB
2025-06-11 21:18:53.207,-5.126103324978618e-05,4.784289048934014,1,DB
2025-06-11 21:18:53.214,-5.896194568495571e-05,5.286356685370373,1,DB
2025-06-11 21:18:53.222,-6.518163252479679e-05,5.654468274543459,1,DB
2025-06-11 21:18:53.230,-6.965320421973747e-05,5.8832481139445125,1,DB
2025-06-11 21:18:53.238,-7.216280929362755e-05,5.971469962311932,1,DB
2025-06-11 21:18:53.246,-7.255715973701821e-05,5.921944796631079,1,DB
2025-06-11 21:18:53.254,-7.074913957868543e-05,5.741275633136645,1,DB
2025-06-11 21:18:53.261,-6.672134774808012e-05,5.439495950729396,1,DB
2025-06-11 21:18:53.269,-6.0527468388148686e-05,5.029611406257533,1,DB
2025-06-11 21:18:53.277,-5.229140597013495e-05,4.527066516007669,1,DB
2025-06-11 21:18:53.285,-4.2204170258682415e-05,3.9491589079119622,1,DB
2025-06-11 21:18:53.293,-3.051854864510896e-05,3.314423775314079,1,DB
2025-06-11 21:18:53.300,-1.7541661649806762e-05,2.642010448110624,1,DB
2025-06-11 21:18:53.308,-3.625562174351644e-06,1.9510716945550175,1,DB
2025-06-11 21:18:53.316,1.0843889431537513e-05,1.2601846139860085,1,DB
2025-06-11 21:18:53.324,2.545956459785184e-05,0.5868198948964559,1,DB
2025-06-11 21:18:53.332,3.980662701139831e-05,-0.0531261130388278,1,DB
2025-06-11 21:18:53.339,5.347663451305159e-05,-0.6457245691145596,1,DB
2025-06-11 21:18:53.347,6.608161620411033e-05,-1.1793232655434982,1,DB
2025-06-11 21:18:53.355,7.726748696452523e-05,-1.6447652184264303,1,DB
2025-06-11 21:18:53.363,8.672613878500046e-05,-2.035513188380511,1,DB
2025-06-11 21:18:53.371,9.42056119291957e-05,-2.347679677458567,1,DB
2025-06-11 21:18:53.379,9.951789809597683e-05,-2.5799651209631973,1,DB
2025-06-11 21:18:53.386,0.0001025441132824,-2.7335101635845285,1,DB
2025-06-11 21:18:53.394,0.0001032369498596,-2.8116709501770982,1,DB
2025-06-11 21:18:53.402,0.0001016204604152,-2.819729116071615,1,DB
2025-06-11 21:18:53.410,9.778734114128038e-05,-2.764550463407288,1,DB
2025-06-11 21:18:53.418,9.189396395537288e-05,-2.6542080020456766,1,DB
2025-06-11 21:18:53.425,8.415345432243737e-05,-2.497585992347513,1,DB
2025-06-11 21:18:53.433,7.482714187816187e-05,-2.303981782146808,1,DB
2025-06-11 21:18:53.441,6.421473500544307e-05,-2.0827215777213737,1,DB
2025-06-11 21:18:53.449,5.264358858718809e-05,-1.8428048909275687,1,DB
2025-06-11 21:18:53.457,4.045744783264228e-05,-1.5925903780641462,1,DB
2025-06-11 21:18:53.464,2.800505516910388e-05,-1.339533280128225,1,DB
2025-06-11 21:18:53.472,1.5628988309174706e-05,-1.0899818528030532,1,DB
2025-06-11 21:18:53.480,3.655065522018988e-06,-0.8490372018324963,1,DB
2025-06-11 21:18:53.488,-7.617361841472214e-06,-0.6204779692715754,1,DB
2025-06-11 21:18:53.496,-1.7923910483037235e-05,-0.4067484821362216,1,DB
2025-06-11 21:18:53.504,-2.704216310887332e-05,-0.2090063822639701,1,DB
2025-06-11 21:18:53.511,-3.4796931160601686e-05,-0.0272234803942768,1,DB
2025-06-11 21:18:53.519,-4.106364351668567e-05,0.1396683258314442,1,DB
2025-06-11 21:18:53.527,-4.576982096913708e-05,0.2935957138129594,1,DB
2025-06-11 21:18:53.535,-4.8894688665188206e-05,0.4371378426901961,1,DB
2025-06-11 21:18:53.543,-5.046706179578728e-05,0.5733066940866014,1,DB
2025-06-11 21:18:53.550,-5.056171262125726e-05,0.7053250456240971,1,DB
2025-06-11 21:18:53.558,-4.9294487226170514e-05,0.8364127714476182,1,DB
2025-06-11 21:18:53.566,-4.681647823714605e-05,0.96959117133188,1,DB
2025-06-11 21:18:53.574,-4.330755450949776e-05,1.10751360503269,1,DB
2025-06-11 21:18:53.582,-3.896948949780723e-05,1.2523289376029012,1,DB
2025-06-11 21:18:53.589,-3.401884333355893e-05,1.4055822926161785,1,DB
2025-06-11 21:18:53.597,-2.867968979176193e-05,1.5681554821529533,1,DB
2025-06-11 21:18:53.605,-2.3176264684283574e-05,1.7402473542025538,1,DB
2025-06-11 21:18:53.613,-1.772563517123965e-05,1.9213922820039575,1,DB
2025-06-11 21:18:53.621,-1.2530528578994897e-05,2.110513213637698,1,DB
2025-06-11 21:18:53.629,-7.772503589598464e-06,2.306004181175476,1,DB
2025-06-11 21:18:53.636,-3.605692813050526e-06,2.505835990222778,1,DB
2025-06-11 21:18:53.644,-1.513917261050705e-07,2.7076780029309755,1,DB
2025-06-11 21:18:53.652,2.5061892098463244e-06,2.9090285021257345,1,DB
2025-06-11 21:18:53.660,4.32266700346913e-06,3.107346079362821,1,DB
2025-06-11 21:18:53.668,5.294396788138567e-06,3.3001748123107757,1,DB
2025-06-11 21:18:53.675,5.457306690430959e-06,3.4852566605914257,1,DB
2025-06-11 21:18:53.683,4.883568373604768e-06,3.6606254731621912,1,DB
2025-06-11 21:18:53.691,3.6762275276835463e-06,3.824678210447637,1,DB
2025-06-11 21:18:53.699,1.9621496828087905e-06,3.9762203770429463,1,DB
2025-06-11 21:18:53.707,-1.1617653338155984e-07,4.114484166262233,1,DB
2025-06-11 21:18:53.714,-2.409347206448765e-06,4.239119364778433,1,DB
2025-06-11 21:18:53.722,-4.769640917520355e-06,4.350158586199458,1,DB
2025-06-11 21:18:53.730,-7.05895865435106e-06,4.447959834614837,1,DB
2025-06-11 21:18:53.738,-9.155660069005406e-06,4.533130683885895,1,DB
2025-06-11 21:18:53.746,-1.0959965914979146e-05,4.606439434472224,1,DB
2025-06-11 21:18:53.754,-1.2397720011917684e-05,4.668719411598582,1,DB
2025-06-11 21:18:53.761,-1.342243146943365e-05,4.720773031672438,1,DB
2025-06-11 21:18:53.769,-1.4015643561963153e-05,4.763282333462149,1,DB
2025-06-11 21:18:53.777,-1.4185786062203178e-05,4.796732314354935,1,DB
2025-06-11 21:18:53.785,-1.3965738755240647e-05,4.821352628714069,1,DB
2025-06-11 21:18:53.793,-1.340935066721554e-05,4.837082027240187,1,DB
2025-06-11 21:18:53.800,-1.2587145452586133e-05,4.843558408245028,1,DB
2025-06-11 21:18:53.808,-1.1581445430302558e-05,4.840135608142489,1,DB
2025-06-11 21:18:53.816,-1.048118678241551e-05,4.825926195880436,1,DB
2025-06-11 21:18:53.824,-9.37675267439958e-06,4.799867684165205,1,DB
2025-06-11 21:18:53.832,-8.355173845413726e-06,4.760807863383517,1,DB
2025-06-11 21:18:53.839,-7.496004245075231e-06,4.7076035322995775,1,DB
2025-06-11 21:18:53.847,-6.868074082708787e-06,4.639225857672376,1,DB
2025-06-11 21:18:53.855,-6.5271905165541966e-06,4.554865028886631,1,DB
2025-06-11 21:18:53.863,-6.51474734822877e-06,4.454026829760156,1,DB
2025-06-11 21:18:53.871,-6.85715403702399e-06,4.336614229170476,1,DB
2025-06-11 21:18:53.879,-7.56599428402017e-06,4.2029880528837165,1,DB
2025-06-11 21:18:53.886,-8.63883073991783e-06,4.0540021625985085,1,DB
2025-06-11 21:18:53.894,-1.006054834013318e-05,3.891010230221032,1,DB
2025-06-11 21:18:53.902,-1.1805087652323736e-05,3.715843035164653,1,DB
2025-06-11 21:18:53.910,-1.3837406344761578e-05,3.5307571026861626,1,DB
2025-06-11 21:18:53.918,-1.6115542579945925e-05,3.338357317538477,1,DB
2025-06-11 21:18:53.925,-1.8592714198119557e-05,3.1414977775509247,1,DB
2025-06-11 21:18:53.933,-2.121942698549484e-05,2.9431665020566835,1,DB
2025-06-11 21:18:53.941,-2.3945559526601973e-05,2.746360604129078,1,DB
2025-06-11 21:18:53.949,-2.6722360645910213e-05,2.5539591143452456,1,DB
2025-06-11 21:18:53.957,-2.950427511891411e-05,2.368600768592488,1,DB
2025-06-11 21:18:53.964,-3.225050654707845e-05,2.1925737286371723,1,DB
2025-06-11 21:18:53.972,-3.492620733540224e-05,2.027723402515631,1,DB
2025-06-11 21:18:53.980,-3.750315709079503e-05,1.8753833115521727,1,DB
2025-06-11 21:18:53.988,-3.995978960345874e-05,1.7363323870211724,1,DB
2025-06-11 21:18:53.996,-4.2280476404114205e-05,1.610780287139747,1,DB
2025-06-11 21:18:54.004,-4.445405725042e-05,1.4983804531551297,1,DB
2025-06-11 21:18:54.011,-4.647170089907961e-05,1.3982688389618507,1,DB
2025-06-11 21:18:54.019,-4.832427025509651e-05,1.3091247154152472,1,DB
2025-06-11 21:18:54.027,-4.99994497288172e-05,1.229248804429932,1,DB
2025-06-11 21:18:54.035,-5.1478964833432655e-05,1.156653327664528,1,DB
2025-06-11 21:18:54.043,-5.273627236652796e-05,1.0891583871159392,1,DB
2025-06-11 21:18:54.050,-5.3735099348744014e-05,1.0244893900443364,1,DB
2025-06-11 21:18:54.058,-5.442913737697909e-05,0.9603708874987618,1,DB
2025-06-11 21:18:54.066,-5.476306035359377e-05,0.894613072870249,1,DB
2025-06-11 21:18:54.074,-5.467486525340972e-05,0.8251881311743974,1,DB
2025-06-11 21:18:54.082,-5.409938775407113e-05,0.7502945074684264,1,DB
2025-06-11 21:18:54.089,-5.297274533400437e-05,0.668407885406134,1,DB
2025-06-11 21:18:54.097,-5.123739391164148e-05,0.5783182026136373,1,DB
2025-06-11 21:18:54.105,-4.88474169717233e-05,0.4791523980987601,1,DB
2025-06-11 21:18:54.113,-4.577360113586669e-05,0.3703828436496863,1,DB
2025-06-11 21:18:54.121,-4.200782797734616e-05,0.251821628364933,1,DB
2025-06-11 21:18:54.129,-3.756635130153467e-05,0.1236011151846482,1,DB
2025-06-11 21:18:54.136,-3.249161850367666e-05,-0.0138584724243464,1,DB
2025-06-11 21:18:54.144,-2.6852410517914875e-05,-0.1598932179332262,1,DB
2025-06-11 21:18:54.152,-2.0742204355641515e-05,-0.3136496504339889,1,DB
2025-06-11 21:18:54.160,-1.427580007266635e-05,-0.4741464413097172,1,DB
2025-06-11 21:18:54.168,-7.584396291509867e-06,-0.6403406283646756,1,DB
2025-06-11 21:18:54.175,-8.0943933669007e-07,-0.811194822890152,1,DB
2025-06-11 21:18:54.183,5.904303448949853e-06,-0.9857415320490148,1,DB
2025-06-11 21:18:54.191,1.2415912295831676e-05,-1.1631406667108275,1,DB
2025-06-11 21:18:54.199,1.8595175859247023e-05,-1.3427265440137492,1,DB
2025-06-11 21:18:54.207,2.4328645344000347e-05,-1.5240412383466393,1,DB
2025-06-11 21:18:54.214,2.9524467305043383e-05,-1.7068519498398254,1,DB
2025-06-11 21:18:54.222,3.411566180089412e-05,-1.8911510776415168,1,DB
2025-06-11 21:18:54.230,3.806158851368441e-05,-2.077138814029728,1,DB
2025-06-11 21:18:54.238,4.1347454603278994e-05,-2.2651892135815346,1,DB
2025-06-11 21:18:54.246,4.3981897307801024e-05,-2.455801745644842,1,DB
2025-06-11 21:18:54.254,4.5992893417540255e-05,-2.6495412347069656,1,DB
2025-06-11 21:18:54.261,4.742243954420672e-05,-2.846969783526786,1,DB
2025-06-11 21:18:54.269,4.8320566476786165e-05,-3.048574733665208,1,DB
2025-06-11 21:18:54.277,4.873929276550496e-05,-3.2546969419879725,1,DB
2025-06-11 21:18:54.285,4.87271057888319e-05,-3.465463647351404,1,DB
2025-06-11 21:18:54.293,4.832450691978965e-05,-3.680729983811093,1,DB
2025-06-11 21:18:54.300,4.756107486418005e-05,-3.900032783530237,1,DB
2025-06-11 21:18:54.308,4.645436812926384e-05,-4.1225597230388695,1,DB
2025-06-11 21:18:54.316,4.501079569267288e-05,-4.347136118419794,1,DB
2025-06-11 21:18:54.324,4.3228355831899e-05,-4.572230786192261,1,DB
2025-06-11 21:18:54.332,4.11009078185979e-05,-4.795981380428706,1,DB
2025-06-11 21:18:54.339,3.8623429525176846e-05,-5.016238528342899,1,DB
2025-06-11 21:18:54.347,3.579756793530509e-05,-5.230626967314128,1,DB
2025-06-11 21:18:54.355,3.2636758548663475e-05,-5.436620803128578,1,DB
2025-06-11 21:18:54.363,2.9170288104126294e-05,-5.63162904222582,1,DB
2025-06-11 21:18:54.371,2.5445855660402173e-05,-5.813086785406947,1,DB
2025-06-11 21:18:54.379,2.153038344279562e-05,-5.9785469851583946,1,DB
2025-06-11 21:18:54.386,1.7509013195918877e-05,-6.1257675203495605,1,DB
2025-06-11 21:18:54.394,1.3482393272212416e-05,-6.2527885545040816,1,DB
2025-06-11 21:18:54.402,9.562496253219142e-06,-6.357995703971466,1,DB
2025-06-11 21:18:54.410,5.867289370309957e-06,-6.440165404200124,1,DB
2025-06-11 21:18:54.418,2.514632439852991e-06,-6.498489957074451,1,DB
2025-06-11 21:18:54.425,-3.841667991255556e-07,-6.532580988119393,1,DB
2025-06-11 21:18:54.433,-2.730655605359832e-06,-6.542451350842576,1,DB
2025-06-11 21:18:54.441,-4.444895633600939e-06,-6.528476796311179,1,DB
2025-06-11 21:18:54.449,-5.4700285500494605e-06,-6.49133989496575,1,DB
2025-06-11 21:18:54.457,-5.775418409691808e-06,-6.431959686581017,1,DB
2025-06-11 21:18:54.464,-5.358203324806014e-06,-6.351411298648032,1,DB
2025-06-11 21:18:54.472,-4.243254495427799e-06,-6.250840292685862,1,DB
2025-06-11 21:18:54.480,-2.4816737797107044e-06,-6.131376770607626,1,DB
2025-06-11 21:18:54.488,-1.4804324492651792e-07,-5.9940543107083455,1,DB
2025-06-11 21:18:54.496,2.663309135377457e-06,-5.839738622682338,1,DB
2025-06-11 21:18:54.504,5.842710868156175e-06,-5.669070429160271,1,DB
2025-06-11 21:18:54.511,9.269851280614834e-06,-5.48242650614898,1,DB
2025-06-11 21:18:54.519,1.2818442285999208e-05,-5.279902048875119,1,DB
2025-06-11 21:18:54.527,1.6360571724804525e-05,-5.061316575883431,1,DB
2025-06-11 21:18:54.535,1.977061198856008e-05,-4.826244453168517,1,DB
2025-06-11 21:18:54.543,2.292865007172898e-05,-4.574069833979393,1,DB
2025-06-11 21:18:54.550,2.5723460805496443e-05,-4.304064408765398,1,DB
2025-06-11 21:18:54.558,2.805506064751529e-05,-4.015484907806013,1,DB
2025-06-11 21:18:54.566,2.9836877574527475e-05,-3.707685886374088,1,DB
2025-06-11 21:18:54.574,3.099756528934239e-05,-3.380242057229414,1,DB
2025-06-11 21:18:54.582,3.14824763354103e-05,-3.0330734313864234,1,DB
2025-06-11 21:18:54.589,3.1254791600709295e-05,-2.6665658888538943,1,DB
2025-06-11 21:18:54.597,3.0296287703127072e-05,-2.281679604063844,1,DB
2025-06-11 21:18:54.605,2.860771676108541e-05,-1.8800380350007364,1,DB
2025-06-11 21:18:54.613,2.620879726182855e-05,-1.4639909453460072,1,DB
2025-06-11 21:18:54.621,2.3137874876883814e-05,-1.0366461183292832,1,DB
2025-06-11 21:18:54.629,1.94513594346724e-05,-0.6018659588208137,1,DB
2025-06-11 21:18:54.636,1.522302086455421e-05,-0.1642269635127336,1,DB
2025-06-11 21:18:54.644,1.054313606518682e-05,0.2710580453294476,1,DB
2025-06-11 21:18:54.652,5.517381500788955e-06,0.6982530934508486,1,DB
2025-06-11 21:18:54.660,2.6532103112419e-07,1.1112439651407304,1,DB
2025-06-11 21:18:54.668,-5.081642787895597e-06,1.5037095306978678,1,DB
2025-06-11 21:18:54.675,-1.0382932321035498e-05,1.8693127912884584,1,DB
2025-06-11 21:18:54.683,-1.549209941615322e-05,2.2019038839122604,1,DB
2025-06-11 21:18:54.691,-2.026074875939806e-05,2.495726580540352,1,DB
2025-06-11 21:18:54.699,-2.454298282780946e-05,2.7456194655082498,1,DB
2025-06-11 21:18:54.707,-2.8200159012243146e-05,2.947202982663815,1,DB
2025-06-11 21:18:54.714,-3.110564991865827e-05,3.0970439042624487,1,DB
2025-06-11 21:18:54.722,-3.314927355853726e-05,3.1927894878235987,1,DB
2025-06-11 21:18:54.730,-3.4241120615017126e-05,3.2332646636577507,1,DB
2025-06-11 21:18:54.738,-3.4314613755065404e-05,3.2185270440507336,1,DB
2025-06-11 21:18:54.746,-3.3328745076828593e-05,3.149876360333413,1,DB
2025-06-11 21:18:54.754,-3.126951644652453e-05,3.0298170797101727,1,DB
2025-06-11 21:18:54.761,-2.815063556773117e-05,2.8619753471969425,1,DB
2025-06-11 21:18:54.769,-2.401351134063392e-05,2.650973903622844,1,DB
2025-06-11 21:18:54.777,-1.892657149163642e-05,2.402271063938052,1,DB
2025-06-11 21:18:54.785,-1.2983905477033364e-05,2.1219719851537957,1,DB
2025-06-11 21:18:54.793,-6.30322650173334e-06,1.8166220906910644,1,DB
2025-06-11 21:18:54.800,9.768356163836178e-07,1.492993460315365,1,DB
2025-06-11 21:18:54.808,8.70006172106593e-06,1.1578751227704382,1,DB
2025-06-11 21:18:54.816,1.6696513060583317e-05,0.8178774744691043,1,DB
2025-06-11 21:18:54.824,2.478684598222119e-05,0.4792595628543992,1,DB
2025-06-11 21:18:54.832,3.27869386378458e-05,0.1477858758251631,1,DB
2025-06-11 21:18:54.839,4.0512656315656405e-05,-0.1713832075721719,1,DB
2025-06-11 21:18:54.847,4.7784584907281634e-05,-0.4737657692640587,1,DB
2025-06-11 21:18:54.855,5.443261936875297e-05,-0.7555984701977059,1,DB
2025-06-11 21:18:54.863,6.030034676683005e-05,-1.0138455559527697,1,DB
2025-06-11 21:18:54.871,6.524915295586683e-05,-1.2461815262505025,1,DB
2025-06-11 21:18:54.879,6.916192205670274e-05,-1.4509533041717415,1,DB
2025-06-11 21:18:54.886,7.194615033593774e-05,-1.6271281884075466,1,DB
2025-06-11 21:18:54.894,7.353630265512971e-05,-1.7742337562667765,1,DB
2025-06-11 21:18:54.902,7.38953028855037e-05,-1.892295304137689,1,DB
2025-06-11 21:18:54.910,7.301514724350418e-05,-1.9817754919015536,1,DB
2025-06-11 21:18:54.918,7.09167248334387e-05,-2.0435197330552755,1,DB
2025-06-11 21:18:54.925,6.764898799768987e-05,-2.078709669254243,1,DB
2025-06-11 21:18:54.933,6.32876225534005e-05,-2.0888258928344032,1,DB
2025-06-11 21:18:54.941,5.7933337157575305e-05,-2.075620012324403,1,DB
2025-06-11 21:18:54.949,5.170984559062677e-05,-2.041095241354682,1,DB
2025-06-11 21:18:54.957,4.476156197753237e-05,-1.987493948453315,1,DB
2025-06-11 21:18:54.964,3.725095877194777e-05,-1.9172900312762975,1,DB
2025-06-11 21:18:54.972,2.935547242488737e-05,-1.833183564429792,1,DB
2025-06-11 21:18:54.980,2.126383435161121e-05,-1.738094910581928,1,DB
2025-06-11 21:18:54.988,1.3171769286034453e-05,-1.6351553831062642,1,DB
2025-06-11 21:18:54.996,5.277088859681458e-06,-1.5276916105961875,1,DB
2025-06-11 21:18:55.004,-2.225731338499733e-06,-1.419200981746651,1,DB
2025-06-11 21:18:55.011,-9.151356746543188e-06,-1.3133159413515194,1,DB
2025-06-11 21:18:55.019,-1.53295833779661e-05,-1.2137554561730226,1,DB
2025-06-11 21:18:55.027,-2.0611238723389102e-05,-1.124262653122707,1,DB
2025-06-11 21:18:55.035,-2.487366969648352e-05,-1.048528416155545,1,DB
2025-06-11 21:18:55.043,-2.802550028993857e-05,-0.9901015657028944,1,DB
2025-06-11 21:18:55.050,-3.0010407218573317e-05,-0.9522870876465488,1,DB
2025-06-11 21:18:55.058,-3.0809752095198256e-05,-0.9380346910419172,1,DB
2025-06-11 21:18:55.066,-3.0443977519088925e-05,-0.9498207360752626,1,DB
2025-06-11 21:18:55.074,-2.897269793210352e-05,-0.9895272814271054,1,DB
2025-06-11 21:18:55.082,-2.6493416098521675e-05,-1.0583226504917054,1,DB
2025-06-11 21:18:55.089,-2.313881985751981e-05,-1.1565484953044125,1,DB
2025-06-11 21:18:55.097,-1.907268333959084e-05,-1.2836188162668192,1,DB
2025-06-11 21:18:55.105,-1.4484488347385278e-05,-1.4379367305529684,1,DB
2025-06-11 21:18:55.113,-9.582950815610342e-06,-1.616834916587414,1,DB
2025-06-11 21:18:55.121,-4.588660144856557e-06,-1.816545536095784,1,DB
2025-06-11 21:18:55.129,2.739627878856534e-07,-2.032204996343911,1,DB
2025-06-11 21:18:55.136,4.785163442373473e-06,-2.2578981288775646,1,DB
2025-06-11 21:18:55.144,8.73851772361741e-06,-2.4867452153022547,1,DB
2025-06-11 21:18:55.152,1.194938133428774e-05,-2.7110337966075697,1,DB
2025-06-11 21:18:55.160,1.4262658859570436e-05,-2.9223953976460995,1,DB
2025-06-11 21:18:55.168,1.5559385989961593e-05,-3.112025249087629,1,DB
2025-06-11 21:18:55.175,1.576164748012651e-05,-3.2709408886650264,1,DB
2025-06-11 21:18:55.183,1.4835453069158972e-05,-3.3902732842475136,1,DB
2025-06-11 21:18:55.191,1.2791340271546496e-05,-3.4615819652908004,1,DB
2025-06-11 21:18:55.199,9.682648251370213e-06,-3.477183698699587,1,DB
2025-06-11 21:18:55.207,5.60160778506047e-06,-3.430482615835058,1,DB
2025-06-11 21:18:55.214,6.736015070373964e-07,-3.3162884964106683,1,DB
2025-06-11 21:18:55.222,-4.949885439005986e-06,-3.131109239663269,1,DB
2025-06-11 21:18:55.230,-1.109903173154348e-05,-2.8734034865550124,1,DB
2025-06-11 21:18:55.238,-1.7593592837931733e-05,-2.5437799594517445,1,DB
2025-06-11 21:18:55.246,-2.425046950413315e-05,-2.14513138683001,1,DB
2025-06-11 21:18:55.254,-3.089054214024676e-05,-1.6826928714122595,1,DB
2025-06-11 21:18:55.261,-3.73444895399522e-05,-1.1640171912851986,1,DB
2025-06-11 21:18:55.269,-4.345741922484187e-05,-0.5988627035687756,1,DB
2025-06-11 21:18:55.277,-4.909224247073496e-05,0.0010068832534022,1,DB
2025-06-11 21:18:55.285,-5.413182625472937e-05,0.6221077568698665,1,DB
2025-06-11 21:18:55.293,-5.848004390370096e-05,1.249599256999984,1,DB
2025-06-11 21:18:55.300,-6.206192193818693e-05,1.867714383145903,1,DB
2025-06-11 21:18:55.308,-6.482313076572073e-05,2.4602434207953694,1,DB
2025-06-11 21:18:55.316,-6.67290693853163e-05,3.011053742700262,1,DB
2025-06-11 21:18:55.324,-6.776373699033567e-05,3.504626768330592,1,DB
2025-06-11 21:18:55.332,-6.79284932380821e-05,3.9265918545764458,1,DB
2025-06-11 21:18:55.339,-6.724073397043105e-05,4.264236620452407,1,DB
2025-06-11 21:18:55.347,-6.573247686774004e-05,4.506973896963679,1,DB
2025-06-11 21:18:55.355,-6.3448850975067e-05,4.646747100792387,1,DB
2025-06-11 21:18:55.363,-6.044649493472774e-05,4.678358263877955,1,DB
2025-06-11 21:18:55.371,-5.679188168169109e-05,4.599706071467121,1,DB
2025-06-11 21:18:55.379,-5.255960091760451e-05,4.411924891797248,1,DB
2025-06-11 21:18:55.386,-4.783064504031015e-05,4.119419715552606,1,DB
2025-06-11 21:18:55.394,-4.2690759437184776e-05,3.729795943052757,1,DB
2025-06-11 21:18:55.402,-3.722893247763556e-05,3.253686847539073,1,DB
2025-06-11 21:18:55.410,-3.1536104293654494e-05,2.7044851150070177,1,DB
2025-06-11 21:18:55.418,-2.570414558739808e-05,2.0979879698824733,1,DB
2025-06-11 21:18:55.425,-1.9825086598303195e-05,1.4519679540984032,1,DB
2025-06-11 21:18:55.433,-1.3990487733654476e-05,0.7856834069773387,1,DB
2025-06-11 21:18:55.441,-8.29078634283899e-06,0.1193441145989221,1,DB
